-0.839	412.875
3.438	446.20833
7.711	125.875
11.981	56.54167
16.247	49.875
20.509	44.54167
24.768	42.54167
29.024	46.875
33.276	43.54167
37.524	53.20833
41.769	42.54167
46.01	36.54167
50.247	49.875
54.481	63.54167
58.712	67.54167
62.939	47.54167
67.162	61.54167
71.382	54.875
75.599	45.54167
79.812	64.875
84.021	77.54167
88.227	57.875
92.429	63.20833
96.628	49.20833
100.823	67.20833
105.015	75.20833
109.204	74.20833
113.388	75.875
117.57	71.875
121.748	84.875
125.922	76.54167
130.093	94.54167
134.261	102.875
138.425	96.54167
142.585	135.20833
146.742	132.875
150.896	159.20833
155.046	197.20833
159.193	322.54167
163.336	555.875
167.476	1003.875
171.613	1862.875
175.746	3069.54167
179.875	4578.875
184.002	5953.875
188.124	6844.20833
192.244	7140.20833
196.36	6988.54167
200.472	6714.20833
204.581	6434.875
208.687	6180.875
212.79	6069.875
216.889	5977.20833
220.984	5982.875
225.077	5948.54167
229.165	5938.875
233.251	5924.54167
237.333	5910.54167
241.412	5859.54167
245.487	5773.875
249.559	5682.54167
253.628	5644.54167
257.694	5611.875
261.756	5524.875
265.814	5449.54167
269.87	5290.875
273.922	5144.54167
277.97	5100.54167
282.016	5056.875
286.058	5056.54167
290.097	5148.54167
294.132	5223.54167
298.164	5156.20833
302.193	4933.875
306.219	4552.875
310.241	4149.20833
314.26	3774.20833
318.276	3475.875
322.288	3245.54167
326.297	3077.20833
330.303	2940.20833
334.305	2833.20833
338.305	2753.54167
342.301	2707.875
346.294	2699.54167
350.283	2653.54167
354.269	2625.875
358.252	2638.20833
362.232	2571.54167
366.209	2567.20833
370.182	2507.875
374.152	2530.54167
378.119	2509.54167
382.083	2512.54167
386.043	2517.54167
390	2468.54167
393.954	2479.875
397.905	2452.875
401.852	2451.875
405.797	2406.875
409.738	2376.20833
413.676	2398.875
417.61	2353.875
421.542	2351.20833
425.47	2329.875
429.396	2310.54167
433.318	2272.54167
437.236	2292.875
441.152	2278.54167
445.065	2219.875
448.974	2227.875
452.88	2224.20833
456.783	2188.54167
460.683	2183.54167
464.58	2185.20833
468.473	2188.875
472.364	2172.54167
476.251	2182.20833
480.135	2211.54167
484.016	2222.20833
487.894	2231.20833
491.769	2257.875
495.641	2267.54167
499.509	2261.54167
503.375	2276.54167
507.237	2264.875
511.096	2276.20833
514.952	2372.54167
518.805	2461.54167
522.655	2522.875
526.502	2354.875
530.346	2252.20833
534.187	2252.875
538.024	2225.54167
541.859	2243.875
545.69	2286.54167
549.519	2236.875
553.344	2216.54167
557.166	2195.875
560.985	2191.54167
564.802	2146.54167
568.615	2112.875
572.425	2082.875
576.232	2075.54167
580.036	2066.54167
583.836	2070.20833
587.634	2072.875
591.429	2071.20833
595.221	2125.875
599.01	2149.20833
602.796	2161.54167
606.578	2173.54167
610.358	2177.20833
614.135	2150.20833
617.909	2141.875
621.679	2143.20833
625.447	2134.54167
629.212	2151.20833
632.973	2153.20833
636.732	2117.875
640.488	2128.20833
644.241	2128.20833
647.991	2089.54167
651.737	2132.875
655.481	2075.20833
659.222	2093.20833
662.96	2102.20833
666.695	2112.875
670.427	2100.54167
674.156	2116.54167
677.882	2121.20833
681.605	2149.54167
685.325	2116.875
689.043	2102.20833
692.757	2094.20833
696.468	2096.54167
700.177	2111.20833
703.882	2072.875
707.585	2059.54167
711.284	2096.20833
714.981	2083.54167
718.675	2104.875
722.366	2133.54167
726.054	2102.54167
729.739	2096.54167
733.421	2106.20833
737.1	2100.875
740.777	2109.875
744.45	2125.54167
748.121	2148.875
751.789	2190.875
755.453	2186.20833
759.115	2179.54167
762.774	2202.20833
766.431	2214.875
770.084	2250.20833
773.734	2273.20833
777.382	2324.20833
781.027	2320.875
784.669	2330.20833
788.308	2346.20833
791.944	2355.54167
795.577	2371.875
799.208	2398.875
802.835	2436.875
806.46	2420.875
810.082	2458.20833
813.701	2445.875
817.317	2482.20833
820.931	2458.20833
824.542	2473.20833
828.149	2446.20833
831.754	2421.54167
835.357	2406.20833
838.956	2429.875
842.553	2418.20833
846.146	2403.20833
849.737	2398.20833
853.326	2393.20833
856.911	2388.54167
860.493	2414.54167
864.073	2459.875
867.65	2464.20833
871.225	2528.54167
874.796	2519.20833
878.365	2522.54167
881.931	2538.20833
885.494	2567.54167
889.054	2570.875
892.612	2580.875
896.166	2559.20833
899.719	2511.20833
903.268	2478.54167
906.814	2458.54167
910.358	2452.20833
913.899	2435.20833
917.438	2430.20833
920.973	2412.875
924.506	2466.875
928.036	2466.20833
931.564	2532.54167
935.088	2560.875
938.61	2549.875
942.129	2592.20833
945.646	2643.20833
949.16	2674.875
952.671	2761.875
956.179	2757.20833
959.685	2739.20833
963.188	2720.54167
966.688	2669.875
970.185	2622.54167
973.68	2548.54167
977.173	2571.875
980.662	2523.20833
984.149	2547.875
987.633	2551.54167
991.114	2576.20833
994.593	2681.875
998.069	2738.54167
1001.542	2803.875
1005.013	2751.875
1008.481	2602.875
1011.947	2549.20833
1015.409	2541.54167
1018.869	2558.20833
1022.327	2554.875
1025.782	2531.54167
1029.234	2524.20833
1032.683	2510.875
1036.13	2403.54167
1039.574	2316.875
1043.016	2264.54167
1046.455	2232.20833
1049.891	2194.54167
1053.325	2199.20833
1056.756	2208.54167
1060.184	2229.875
1063.61	2256.20833
1067.033	2244.54167
1070.454	2250.54167
1073.872	2275.54167
1077.287	2280.20833
1080.7	2270.54167
1084.11	2277.20833
1087.517	2257.875
1090.922	2246.54167
1094.325	2209.54167
1097.724	2196.20833
1101.122	2193.20833
1104.516	2184.875
1107.908	2193.20833
1111.298	2219.875
1114.684	2242.54167
1118.069	2266.54167
1121.45	2288.20833
1124.83	2289.875
1128.206	2321.54167
1131.58	2349.20833
1134.951	2440.54167
1138.32	2490.54167
1141.687	2605.875
1145.05	2653.54167
1148.412	2672.875
1151.77	2662.875
1155.126	2670.54167
1158.48	2638.20833
1161.831	2669.54167
1165.18	2711.54167
1168.525	2744.20833
1171.869	2745.20833
1175.21	2774.54167
1178.548	2815.875
1181.884	2829.54167
1185.217	2839.875
1188.548	2900.20833
1191.877	2919.20833
1195.202	3033.875
1198.526	3041.20833
1201.846	3047.54167
1205.165	3034.20833
1208.48	3046.20833
1211.794	3022.20833
1215.104	3036.54167
1218.413	3050.54167
1221.719	3038.875
1225.022	3004.54167
1228.323	2979.54167
1231.621	2985.20833
1234.917	2940.54167
1238.21	2970.54167
1241.501	2960.20833
1244.79	2947.875
1248.076	2956.20833
1251.359	2977.875
1254.64	3052.20833
1257.919	3061.875
1261.195	3127.20833
1264.468	3171.875
1267.74	3226.54167
1271.008	3237.54167
1274.275	3204.54167
1277.538	3185.54167
1280.8	3185.875
1284.059	3191.875
1287.315	3208.875
1290.569	3224.54167
1293.821	3247.54167
1297.07	3266.875
1300.317	3289.875
1303.562	3251.20833
1306.803	3235.875
1310.043	3190.54167
1313.28	3151.54167
1316.515	3130.875
1319.747	3096.54167
1322.977	3072.54167
1326.204	3024.875
1329.429	2969.54167
1332.652	2994.875
1335.872	2976.20833
1339.09	2914.20833
1342.306	2908.20833
1345.519	2895.54167
1348.729	2892.54167
1351.938	2862.54167
1355.144	2815.54167
1358.347	2770.20833
1361.548	2781.20833
1364.747	2790.875
1367.944	2754.54167
1371.138	2784.875
1374.329	2818.20833
1377.518	2850.875
1380.705	2872.20833
1383.89	2853.875
1387.072	2766.20833
1390.252	2676.54167
1393.429	2592.875
1396.605	2512.875
1399.777	2444.20833
1402.948	2424.20833
1406.116	2407.54167
1409.282	2413.20833
1412.445	2396.54167
1415.606	2432.54167
1418.765	2478.20833
1421.921	2517.54167
1425.075	2565.54167
1428.227	2667.54167
1431.376	2772.20833
1434.524	2883.875
1437.668	2938.20833
1440.811	2995.20833
1443.951	3008.875
1447.089	3012.54167
1450.224	3003.875
1453.357	2995.20833
1456.488	2985.54167
1459.617	2919.20833
1462.743	2876.54167
1465.867	2815.54167
1468.989	2779.54167
1472.108	2726.54167
1475.225	2662.20833
1478.34	2659.54167
1481.453	2627.54167
1484.563	2657.875
1487.671	2699.20833
1490.776	2739.54167
1493.88	2775.20833
1496.981	2851.875
1500.08	2885.54167
1503.176	2923.20833
1506.271	2977.54167
1509.363	3021.875
1512.452	3036.54167
1515.54	3092.54167
1518.625	3145.875
1521.708	3259.875
1524.789	3396.54167
1527.867	3541.875
1530.944	3743.54167
1534.018	3945.54167
1537.089	4092.20833
1540.159	4125.20833
1543.226	4085.20833
1546.291	3975.875
1549.354	3860.20833
1552.415	3758.20833
1555.473	3643.875
1558.529	3568.54167
1561.583	3514.875
1564.634	3479.875
1567.684	3480.875
1570.731	3464.54167
1573.776	3499.875
1576.819	3519.20833
1579.859	3529.54167
1582.898	3596.875
1585.934	3620.875
1588.968	3633.20833
1591.999	3615.20833
1595.029	3630.20833
1598.056	3650.875
1601.081	3657.54167
1604.104	3652.875
1607.125	3610.54167
1610.144	3524.875
1613.16	3443.875
1616.174	3372.20833
1619.186	3299.20833
1622.196	3239.54167
1625.203	3134.54167
1628.209	3081.20833
1631.212	3060.875
1634.213	3022.875
1637.212	3001.20833
1640.209	2978.875
1643.203	2879.875
1646.196	2794.54167
1649.186	2691.20833
1652.174	2639.54167
1655.16	2562.54167
1658.144	2498.20833
1661.125	2383.54167
1664.105	2285.875
1667.082	2195.875
1670.057	2058.54167
1673.03	1961.875
1676.001	1833.54167
1678.97	1694.54167
1681.937	1598.54167
1684.901	1514.20833
1687.863	1480.20833
1690.824	1408.54167
1693.782	1374.20833
1696.738	1314.20833
1699.692	1293.20833
1702.643	1271.20833
1705.593	1250.875
1708.54	1224.875
1711.486	1215.20833
1714.429	1192.875
1717.37	1186.875
1720.309	1172.875
1723.246	1176.54167
1726.181	1138.20833
1729.113	1144.54167
1732.044	1120.54167
1734.972	1120.875
1737.899	1126.20833
1740.823	1113.54167
1743.745	1127.20833
1746.665	1075.54167
1749.583	1063.54167
1752.499	1051.20833
1755.413	1026.54167
1758.325	1008.20833
1761.235	1008.54167
1764.142	983.20833
1767.048	980.875
1769.951	961.875
1772.852	975.875
1775.752	958.875
1778.649	966.875
1781.544	973.54167
1784.437	944.20833
1787.328	942.20833
1790.217	935.54167
1793.104	905.875
1795.989	906.54167
1798.872	910.20833
1801.753	922.875
1804.631	920.54167
1807.508	922.20833
1810.383	930.875
1813.255	906.20833
1816.126	907.20833
1818.994	892.54167
1821.861	895.20833
1824.725	886.20833
1827.587	884.875
1830.448	892.875
1833.306	862.54167
1836.162	873.875
1839.017	863.20833
1841.869	861.875
1844.719	864.20833
1847.567	855.54167
1850.414	842.875
1853.258	840.54167
1856.1	876.875
1858.94	870.54167
1861.778	846.54167
1864.614	840.20833
1867.448	849.54167
1870.28	834.20833
1873.111	863.54167
1875.939	843.54167
1878.765	860.20833
1881.589	845.20833
1884.411	843.54167
1887.231	837.54167
1890.049	837.875
1892.865	837.54167
1895.68	823.20833
1898.492	825.54167
1901.302	824.20833
1904.11	827.54167
1906.916	810.54167
1909.721	820.20833
1912.523	811.875
1915.323	796.54167
1918.122	799.875
1920.918	813.875
1923.712	795.20833
1926.505	797.54167
1929.295	790.20833
1932.084	798.875
1934.87	803.875
1937.655	793.20833
1940.438	789.20833
1943.218	788.54167
1945.997	791.54167
1948.774	801.54167
1951.549	808.875
1954.322	791.875
1957.093	789.20833
1959.862	787.54167
1962.629	776.54167
1965.394	791.20833
1968.157	763.20833
1970.918	777.875
1973.678	772.54167
1976.435	780.20833
1979.19	771.54167
1981.944	763.20833
1984.696	758.20833
1987.445	762.875
1990.193	762.875
1992.939	761.54167
1995.683	763.54167
1998.425	736.875
2001.165	784.54167
2003.903	760.54167
2006.639	755.875
2009.374	753.54167
2012.106	767.875
2014.837	734.875
2017.566	755.54167
2020.292	747.20833
2023.017	759.875
2025.74	740.54167
2028.461	737.54167
2031.18	752.54167
2033.898	730.20833
2036.613	729.54167
2039.327	737.20833
2042.038	707.875
2044.748	743.20833
2047.456	730.20833
2050.162	711.875
2052.866	733.875
2055.568	723.20833
2058.268	727.54167
2060.967	732.20833
2063.663	714.20833
2066.358	726.20833
2069.051	714.20833
2071.742	721.20833
2074.431	739.54167
2077.118	713.20833
2079.804	706.54167
2082.487	722.875
2085.169	726.54167
2087.849	737.20833
2090.527	723.20833
2093.203	746.54167
2095.877	738.875
2098.55	748.54167
2101.22	755.875
2103.889	753.20833
2106.556	747.54167
2109.221	780.20833
2111.884	798.875
2114.546	850.875
2117.205	918.54167
2119.863	990.54167
2122.519	1051.20833
2125.173	1111.875
2127.825	1193.20833
2130.475	1205.875
2133.124	1171.875
2135.771	1125.54167
2138.416	1098.20833
2141.059	1012.20833
2143.7	965.20833
2146.339	907.875
2148.977	863.54167
2151.613	856.875
2154.247	833.54167
2156.879	806.875
2159.51	779.54167
2162.138	763.875
2164.765	774.875
2167.39	755.54167
2170.013	775.54167
2172.634	753.54167
2175.254	727.54167
2177.872	759.20833
2180.488	719.875
2183.102	731.20833
2185.714	719.20833
2188.325	700.20833
2190.934	704.54167
2193.541	716.54167
2196.146	698.20833
2198.75	695.20833
2201.351	694.54167
2203.951	671.20833
2206.549	688.875
2209.146	679.875
2211.74	676.20833
2214.333	678.875
2216.924	663.54167
2219.514	665.20833
2222.101	664.875
2224.687	670.875
2227.271	650.54167
2229.853	652.875
2232.433	652.54167
2235.012	657.875
2237.589	660.20833
2240.164	667.875
2242.738	663.54167
2245.309	644.20833
2247.879	650.54167
2250.448	651.20833
2253.014	623.20833
2255.579	621.875
2258.142	622.54167
2260.703	611.875
2263.262	616.54167
2265.82	604.54167
2268.376	624.54167
2270.93	598.54167
2273.483	602.54167
2276.033	618.875
2278.583	602.875
2281.13	598.20833
2283.675	593.54167
2286.219	609.20833
2288.761	599.875
2291.302	612.875
2293.841	610.875
2296.377	586.20833
2298.913	595.875
2301.446	607.54167
2303.978	588.54167
2306.508	587.875
2309.037	584.20833
2311.563	592.54167
2314.088	593.54167
2316.612	580.875
2319.133	590.54167
2321.653	574.20833
2324.171	578.875
2326.688	587.875
2329.202	576.20833
2331.715	589.54167
2334.227	579.20833
2336.736	575.20833
2339.244	564.54167
2341.751	571.20833
2344.255	586.875
2346.758	565.875
2349.259	567.54167
2351.759	566.875
2354.257	571.54167
2356.753	570.20833
2359.247	574.20833
2361.74	573.875
2364.231	570.54167
2366.721	578.54167
2369.209	568.875
2371.695	571.875
2374.179	571.20833
2376.662	570.20833
2379.143	587.54167
2381.622	563.20833
2384.1	575.54167
2386.576	574.20833
2389.051	582.875
2391.524	583.54167
2393.995	576.20833
2396.464	563.54167
2398.932	575.20833
2401.398	571.20833
2403.863	568.20833
2406.325	567.875
2408.787	563.875
2411.246	567.20833
2413.704	561.875
2416.16	560.20833
2418.615	571.20833
2421.068	578.54167
2423.519	570.54167
2425.969	566.20833
2428.417	571.20833
2430.863	582.875
2433.308	581.54167
2435.751	575.54167
2438.193	562.20833
2440.633	569.54167
2443.071	570.20833
2445.508	560.20833
2447.943	555.875
2450.376	551.875
2452.808	574.20833
2455.238	562.875
2457.667	601.875
2460.093	565.875
2462.519	564.20833
2464.942	566.20833
2467.365	573.54167
2469.785	569.20833
2472.204	557.20833
2474.621	558.54167
2477.037	583.875
2479.451	554.875
2481.863	547.54167
2484.274	564.875
2486.683	563.54167
2489.091	577.20833
2491.497	561.875
2493.901	577.54167
2496.304	557.875
2498.705	571.54167
2501.105	560.875
2503.503	589.54167
2505.899	546.875
2508.294	583.875
2510.687	565.875
2513.079	569.875
2515.469	559.54167
2517.858	562.875
2520.245	578.875
2522.63	562.20833
2525.014	566.875
2527.396	562.20833
2529.776	565.20833
2532.156	572.875
2534.533	559.875
2536.909	572.20833
2539.283	566.20833
2541.656	570.875
2544.027	590.20833
2546.397	571.54167
2548.765	559.20833
2551.131	564.875
2553.496	576.54167
2555.86	574.20833
2558.221	578.54167
2560.582	574.875
2562.94	564.54167
2565.298	566.875
2567.653	596.54167
2570.007	554.20833
2572.36	583.20833
2574.711	567.54167
2577.06	592.875
2579.408	586.20833
2581.754	583.875
2584.099	570.20833
2586.442	569.875
2588.784	582.54167
2591.124	581.875
2593.463	576.54167
2595.8	574.20833
2598.135	578.875
2600.469	580.875
2602.802	594.875
2605.133	590.20833
2607.462	573.875
2609.79	581.20833
2612.116	590.20833
2614.441	587.54167
2616.764	583.875
2619.086	594.20833
2621.406	582.875
2623.725	601.54167
2626.042	591.875
2628.358	589.20833
2630.672	598.54167
2632.985	604.20833
2635.296	602.20833
2637.606	592.875
2639.914	591.54167
2642.22	591.54167
2644.525	599.20833
2646.829	606.54167
2649.131	618.20833
2651.432	623.20833
2653.731	609.20833
2656.028	625.20833
2658.324	622.54167
2660.619	604.20833
2662.912	630.54167
2665.204	606.54167
2667.494	626.20833
2669.782	616.54167
2672.07	630.20833
2674.355	639.875
2676.639	626.875
2678.922	615.20833
2681.203	634.20833
2683.483	621.54167
2685.761	620.54167
2688.038	631.20833
2690.313	636.875
2692.587	632.875
2694.859	627.20833
2697.13	633.875
2699.399	646.875
2701.667	656.54167
2703.933	657.875
2706.198	650.20833
2708.461	656.20833
2710.723	664.875
2712.984	660.54167
2715.243	666.875
2717.5	666.54167
2719.757	674.20833
2722.011	677.875
2724.264	696.20833
2726.516	701.54167
2728.766	688.20833
2731.015	699.875
2733.262	692.875
2735.508	688.875
2737.753	693.54167
2739.996	684.875
2742.237	676.20833
2744.477	693.54167
2746.716	697.54167
2748.953	676.54167
2751.189	701.20833
2753.423	674.54167
2755.656	671.875
2757.887	662.20833
2760.117	673.54167
2762.346	661.54167
2764.573	670.875
2766.798	671.20833
2769.022	670.54167
2771.245	676.20833
2773.467	684.875
2775.686	676.54167
2777.905	682.54167
2780.122	702.20833
2782.337	698.20833
2784.552	693.54167
2786.764	704.20833
2788.976	707.875
2791.186	715.54167
2793.394	717.875
2795.601	736.20833
2797.807	748.875
2800.011	751.875
2802.214	753.875
2804.415	745.54167
2806.615	753.54167
2808.814	768.875
2811.011	773.54167
2813.206	773.875
2815.401	780.875
2817.594	798.875
2819.785	817.875
2821.975	795.875
2824.164	810.54167
2826.351	823.875
2828.537	839.54167
2830.722	861.875
2832.905	865.54167
2835.086	881.875
2837.267	923.875
2839.445	958.20833
2841.623	967.875
2843.799	989.20833
2845.974	1027.54167
2848.147	1071.54167
2850.319	1093.875
2852.489	1119.20833
2854.659	1111.54167
2856.826	1138.54167
2858.993	1153.54167
2861.158	1147.54167
2863.321	1156.54167
2865.483	1180.20833
2867.644	1174.875
2869.804	1168.875
2871.962	1169.875
2874.118	1165.54167
2876.274	1148.875
2878.428	1163.875
2880.58	1165.54167
2882.731	1140.54167
2884.881	1143.875
2887.03	1158.20833
2889.177	1147.54167
2891.322	1181.875
2893.467	1149.20833
2895.61	1170.875
2897.751	1186.875
2899.892	1176.54167
2902.03	1195.54167
2904.168	1203.20833
2906.304	1198.875
2908.439	1221.20833
2910.572	1205.20833
2912.704	1230.20833
2914.835	1228.54167
2916.965	1213.875
2919.093	1238.20833
2921.219	1200.54167
2923.345	1209.20833
2925.469	1204.875
2927.591	1190.875
2929.712	1152.20833
2931.832	1159.875
2933.951	1113.875
2936.068	1101.54167
2938.184	1091.54167
2940.299	1062.54167
2942.412	1044.54167
2944.524	1010.54167
2946.634	997.54167
2948.744	952.875
2950.851	976.54167
2952.958	940.54167
2955.063	932.875
2957.167	918.20833
2959.269	894.54167
2961.371	916.20833
2963.471	873.20833
2965.569	893.54167
2967.666	839.20833
2969.762	849.20833
2971.857	825.20833
2973.95	810.54167
2976.042	812.875
2978.133	785.20833
2980.222	777.20833
2982.31	755.54167
2984.396	740.875
2986.482	736.875
2988.566	735.875
2990.648	731.875
2992.73	731.875
2994.81	718.875
2996.889	716.20833
2998.966	719.54167
3001.042	720.875
3003.117	715.875
3005.191	721.875
3007.263	704.20833
3009.334	702.875
3011.403	690.875
3013.472	670.54167
3015.539	675.875
3017.604	684.54167
3019.669	652.54167
3021.732	648.20833
3023.794	661.20833
3025.854	638.20833
3027.914	632.875
3029.971	646.54167
3032.028	645.20833
3034.083	652.875
3036.137	635.875
3038.19	622.875
3040.242	595.20833
3042.292	593.875
3044.341	578.875
3046.388	605.20833
3048.435	565.20833
3050.48	589.54167
3052.524	577.54167
3054.566	561.875
3056.607	569.20833
3058.647	551.54167
3060.686	540.54167
3062.723	519.54167
3064.759	498.20833
3066.794	-0.45833
3068.828	-2.125
3070.86	-0.79167
