-0.839	378.625
3.438	411.95833
7.711	113.625
11.981	52.29167
16.247	43.29167
20.509	45.95833
24.768	46.625
29.024	46.29167
33.276	42.95833
37.524	50.95833
41.769	42.625
46.01	39.95833
50.247	53.625
54.481	67.95833
58.712	72.95833
62.939	52.625
67.162	67.625
71.382	60.625
75.599	51.29167
79.812	67.625
84.021	87.95833
88.227	65.29167
92.429	69.95833
96.628	52.625
100.823	69.625
105.015	77.95833
109.204	84.29167
113.388	79.29167
117.57	79.29167
121.748	95.95833
125.922	82.625
130.093	107.29167
134.261	113.95833
138.425	104.625
142.585	153.625
146.742	146.625
150.896	175.95833
155.046	222.625
159.193	345.29167
163.336	587.625
167.476	1086.625
171.613	2028.95833
175.746	3428.95833
179.875	5102.29167
184.002	6690.625
188.124	7751.95833
192.244	8118.29167
196.36	8063.29167
200.472	7874.625
204.581	7689.625
208.687	7493.625
212.79	7454.625
216.889	7496.625
220.984	7558.95833
225.077	7697.29167
229.165	7783.625
233.251	7850.625
237.333	7901.29167
241.412	7853.95833
245.487	7805.95833
249.559	7744.625
253.628	7699.29167
257.694	7664.29167
261.756	7596.29167
265.814	7473.95833
269.87	7274.95833
273.922	7161.625
277.97	7076.29167
282.016	7118.29167
286.058	7186.29167
290.097	7302.625
294.132	7381.95833
298.164	7273.95833
302.193	6913.625
306.219	6408.29167
310.241	5795.625
314.26	5289.29167
318.276	4841.625
322.288	4474.95833
326.297	4170.625
330.303	3981.29167
334.305	3827.95833
338.305	3740.625
342.301	3695.29167
346.294	3616.29167
350.283	3600.29167
354.269	3549.95833
358.252	3501.95833
362.232	3475.625
366.209	3469.625
370.182	3409.29167
374.152	3404.29167
378.119	3398.625
382.083	3382.625
386.043	3396.95833
390	3342.95833
393.954	3323.29167
397.905	3271.625
401.852	3266.29167
405.797	3225.625
409.738	3189.95833
413.676	3177.95833
417.61	3157.29167
421.542	3114.625
425.47	3092.29167
429.396	3051.625
433.318	3066.29167
437.236	3033.625
441.152	3040.625
445.065	2971.625
448.974	2990.29167
452.88	2952.95833
456.783	2928.29167
460.683	2926.95833
464.58	2922.29167
468.473	2919.29167
472.364	2930.95833
476.251	2945.95833
480.135	2959.29167
484.016	2981.29167
487.894	2987.95833
491.769	3022.625
495.641	3010.29167
499.509	3018.29167
503.375	3034.29167
507.237	2998.625
511.096	3016.625
514.952	3135.95833
518.805	3237.625
522.655	3286.29167
526.502	3101.625
530.346	3000.625
534.187	3009.29167
538.024	2991.625
541.859	2998.95833
545.69	2989.625
549.519	2992.29167
553.344	2941.625
557.166	2943.29167
560.985	2885.29167
564.802	2843.625
568.615	2807.29167
572.425	2768.29167
576.232	2755.95833
580.036	2743.29167
583.836	2762.95833
587.634	2763.29167
591.429	2747.29167
595.221	2800.95833
599.01	2833.95833
602.796	2879.29167
606.578	2904.625
610.358	2891.95833
614.135	2857.95833
617.909	2872.625
621.679	2889.95833
625.447	2839.95833
629.212	2883.95833
632.973	2861.625
636.732	2859.625
640.488	2871.29167
644.241	2824.29167
647.991	2808.625
651.737	2836.29167
655.481	2800.625
659.222	2808.95833
662.96	2788.29167
666.695	2830.625
670.427	2838.95833
674.156	2856.625
677.882	2851.29167
681.605	2838.29167
685.325	2814.625
689.043	2836.29167
692.757	2814.95833
696.468	2833.95833
700.177	2829.29167
703.882	2818.95833
707.585	2818.95833
711.284	2831.29167
714.981	2819.95833
718.675	2840.95833
722.366	2852.95833
726.054	2835.625
729.739	2816.95833
733.421	2823.29167
737.1	2837.95833
740.777	2849.95833
744.45	2885.29167
748.121	2911.29167
751.789	2966.95833
755.453	2960.625
759.115	2984.625
762.774	3006.29167
766.431	3045.29167
770.084	3069.95833
773.734	3106.95833
777.382	3147.29167
781.027	3217.625
784.669	3206.29167
788.308	3232.625
791.944	3259.625
795.577	3302.625
799.208	3302.95833
802.835	3333.29167
806.46	3355.95833
810.082	3384.625
813.701	3400.29167
817.317	3427.29167
820.931	3412.95833
824.542	3426.95833
828.149	3381.95833
831.754	3393.29167
835.357	3372.625
838.956	3370.29167
842.553	3355.95833
846.146	3327.95833
849.737	3337.29167
853.326	3342.625
856.911	3386.625
860.493	3428.29167
864.073	3421.29167
867.65	3501.95833
871.225	3553.95833
874.796	3537.95833
878.365	3588.625
881.931	3574.625
885.494	3616.625
889.054	3609.95833
892.612	3625.95833
896.166	3596.625
899.719	3573.625
903.268	3517.625
906.814	3494.95833
910.358	3495.625
913.899	3450.625
917.438	3446.95833
920.973	3466.29167
924.506	3490.29167
928.036	3531.625
931.564	3576.95833
935.088	3618.95833
938.61	3619.29167
942.129	3666.625
945.646	3759.625
949.16	3832.95833
952.671	3921.95833
956.179	3938.625
959.685	3857.29167
963.188	3828.95833
966.688	3759.625
970.185	3658.29167
973.68	3610.95833
977.173	3577.625
980.662	3530.625
984.149	3546.29167
987.633	3560.29167
991.114	3622.95833
994.593	3732.625
998.069	3860.625
1001.542	3954.625
1005.013	3868.625
1008.481	3683.29167
1011.947	3636.95833
1015.409	3615.625
1018.869	3608.625
1022.327	3612.29167
1025.782	3609.625
1029.234	3563.95833
1032.683	3549.625
1036.13	3424.95833
1039.574	3298.625
1043.016	3209.95833
1046.455	3165.625
1049.891	3113.29167
1053.325	3146.29167
1056.756	3136.29167
1060.184	3174.625
1063.61	3188.29167
1067.033	3195.29167
1070.454	3193.625
1073.872	3230.625
1077.287	3240.625
1080.7	3244.625
1084.11	3247.29167
1087.517	3211.625
1090.922	3215.95833
1094.325	3160.95833
1097.724	3127.625
1101.122	3120.29167
1104.516	3095.29167
1107.908	3147.29167
1111.298	3182.95833
1114.684	3235.625
1118.069	3252.95833
1121.45	3304.29167
1124.83	3304.625
1128.206	3346.625
1131.58	3391.95833
1134.951	3510.29167
1138.32	3601.29167
1141.687	3756.625
1145.05	3851.29167
1148.412	3875.625
1151.77	3902.95833
1155.126	3887.625
1158.48	3903.625
1161.831	3929.29167
1165.18	3982.29167
1168.525	4043.95833
1171.869	4050.625
1175.21	4091.29167
1178.548	4121.625
1181.884	4171.625
1185.217	4176.95833
1188.548	4278.625
1191.877	4292.95833
1195.202	4421.95833
1198.526	4441.95833
1201.846	4457.29167
1205.165	4448.625
1208.48	4445.625
1211.794	4399.95833
1215.104	4434.29167
1218.413	4412.95833
1221.719	4433.625
1225.022	4346.29167
1228.323	4336.625
1231.621	4320.29167
1234.917	4326.625
1238.21	4400.95833
1241.501	4344.29167
1244.79	4361.29167
1248.076	4373.29167
1251.359	4405.625
1254.64	4472.625
1257.919	4514.625
1261.195	4571.625
1264.468	4655.625
1267.74	4688.95833
1271.008	4686.95833
1274.275	4724.29167
1277.538	4636.95833
1280.8	4650.625
1284.059	4644.625
1287.315	4702.625
1290.569	4744.29167
1293.821	4740.625
1297.07	4765.95833
1300.317	4769.625
1303.562	4752.29167
1306.803	4724.95833
1310.043	4656.29167
1313.28	4617.95833
1316.515	4543.95833
1319.747	4481.625
1322.977	4410.95833
1326.204	4363.95833
1329.429	4295.29167
1332.652	4296.625
1335.872	4261.625
1339.09	4233.95833
1342.306	4227.625
1345.519	4187.625
1348.729	4159.95833
1351.938	4155.95833
1355.144	4077.95833
1358.347	4038.95833
1361.548	4037.95833
1364.747	4069.29167
1367.944	4049.95833
1371.138	4083.29167
1374.329	4149.625
1377.518	4164.29167
1380.705	4178.95833
1383.89	4178.95833
1387.072	4087.625
1390.252	3909.29167
1393.429	3796.625
1396.605	3679.625
1399.777	3586.625
1402.948	3564.95833
1406.116	3525.29167
1409.282	3543.29167
1412.445	3515.625
1415.606	3608.625
1418.765	3647.29167
1421.921	3710.29167
1425.075	3829.625
1428.227	3942.95833
1431.376	4107.95833
1434.524	4231.29167
1437.668	4304.29167
1440.811	4342.29167
1443.951	4387.95833
1447.089	4378.95833
1450.224	4359.625
1453.357	4335.625
1456.488	4302.95833
1459.617	4254.95833
1462.743	4205.625
1465.867	4106.625
1468.989	4081.29167
1472.108	4011.29167
1475.225	3943.625
1478.34	3908.29167
1481.453	3931.29167
1484.563	3899.95833
1487.671	3989.95833
1490.776	4070.29167
1493.88	4165.95833
1496.981	4224.29167
1500.08	4306.29167
1503.176	4384.29167
1506.271	4465.95833
1509.363	4548.95833
1512.452	4622.625
1515.54	4702.29167
1518.625	4813.29167
1521.708	4996.625
1524.789	5209.29167
1527.867	5505.95833
1530.944	5810.625
1534.018	6107.95833
1537.089	6294.95833
1540.159	6347.95833
1543.226	6187.95833
1546.291	6023.29167
1549.354	5830.625
1552.415	5645.95833
1555.473	5515.95833
1558.529	5401.625
1561.583	5359.29167
1564.634	5305.29167
1567.684	5287.625
1570.731	5294.95833
1573.776	5325.29167
1576.819	5368.625
1579.859	5388.625
1582.898	5441.625
1585.934	5487.625
1588.968	5502.625
1591.999	5500.29167
1595.029	5489.29167
1598.056	5507.95833
1601.081	5464.625
1604.104	5459.95833
1607.125	5401.29167
1610.144	5268.95833
1613.16	5173.95833
1616.174	5038.29167
1619.186	4897.29167
1622.196	4761.29167
1625.203	4587.29167
1628.209	4525.29167
1631.212	4440.625
1634.213	4374.29167
1637.212	4305.29167
1640.209	4232.625
1643.203	4118.29167
1646.196	3971.95833
1649.186	3849.625
1652.174	3740.95833
1655.16	3655.95833
1658.144	3503.29167
1661.125	3339.29167
1664.105	3207.95833
1667.082	3072.95833
1670.057	2853.29167
1673.03	2716.29167
1676.001	2571.625
1678.97	2395.625
1681.937	2263.95833
1684.901	2148.625
1687.863	2111.95833
1690.824	1998.95833
1693.782	1947.95833
1696.738	1875.625
1699.692	1872.625
1702.643	1813.29167
1705.593	1793.95833
1708.54	1774.625
1711.486	1775.29167
1714.429	1727.95833
1717.37	1711.625
1720.309	1671.95833
1723.246	1685.29167
1726.181	1636.625
1729.113	1653.625
1732.044	1633.95833
1734.972	1623.95833
1737.899	1598.95833
1740.823	1589.95833
1743.745	1592.29167
1746.665	1535.29167
1749.583	1519.625
1752.499	1485.625
1755.413	1478.625
1758.325	1445.625
1761.235	1434.29167
1764.142	1407.625
1767.048	1402.625
1769.951	1396.95833
1772.852	1363.625
1775.752	1373.29167
1778.649	1364.625
1781.544	1376.95833
1784.437	1317.95833
1787.328	1353.95833
1790.217	1327.625
1793.104	1314.95833
1795.989	1311.625
1798.872	1305.95833
1801.753	1344.29167
1804.631	1318.95833
1807.508	1323.625
1810.383	1300.95833
1813.255	1289.625
1816.126	1304.625
1818.994	1274.29167
1821.861	1267.95833
1824.725	1271.29167
1827.587	1277.29167
1830.448	1262.625
1833.306	1236.625
1836.162	1256.625
1839.017	1229.29167
1841.869	1243.95833
1844.719	1227.95833
1847.567	1218.95833
1850.414	1207.625
1853.258	1209.29167
1856.1	1235.95833
1858.94	1228.29167
1861.778	1227.95833
1864.614	1220.625
1867.448	1215.29167
1870.28	1193.625
1873.111	1214.95833
1875.939	1204.29167
1878.765	1220.625
1881.589	1198.95833
1884.411	1190.625
1887.231	1203.625
1890.049	1201.625
1892.865	1199.29167
1895.68	1189.29167
1898.492	1182.29167
1901.302	1180.29167
1904.11	1165.95833
1906.916	1158.95833
1909.721	1150.625
1912.523	1166.625
1915.323	1130.95833
1918.122	1147.29167
1920.918	1168.95833
1923.712	1154.625
1926.505	1149.95833
1929.295	1133.29167
1932.084	1153.625
1934.87	1132.95833
1937.655	1136.625
1940.438	1133.95833
1943.218	1144.29167
1945.997	1136.95833
1948.774	1141.625
1951.549	1147.625
1954.322	1128.625
1957.093	1135.625
1959.862	1128.29167
1962.629	1117.29167
1965.394	1117.625
1968.157	1101.625
1970.918	1107.625
1973.678	1107.625
1976.435	1105.29167
1979.19	1096.625
1981.944	1085.95833
1984.696	1095.625
1987.445	1080.625
1990.193	1085.625
1992.939	1101.95833
1995.683	1099.29167
1998.425	1071.625
2001.165	1091.29167
2003.903	1071.625
2006.639	1078.625
2009.374	1083.29167
2012.106	1085.625
2014.837	1056.625
2017.566	1076.29167
2020.292	1079.625
2023.017	1074.95833
2025.74	1058.95833
2028.461	1068.625
2031.18	1070.95833
2033.898	1057.95833
2036.613	1073.29167
2039.327	1078.625
2042.038	1048.625
2044.748	1050.29167
2047.456	1043.95833
2050.162	1034.625
2052.866	1028.29167
2055.568	1045.29167
2058.268	1047.95833
2060.967	1047.95833
2063.663	1023.95833
2066.358	1035.625
2069.051	1032.95833
2071.742	1042.625
2074.431	1043.625
2077.118	1037.29167
2079.804	1034.625
2082.487	1034.95833
2085.169	1049.95833
2087.849	1062.625
2090.527	1041.625
2093.203	1062.625
2095.877	1073.29167
2098.55	1083.29167
2101.22	1104.625
2103.889	1106.625
2106.556	1131.29167
2109.221	1179.625
2111.884	1232.29167
2114.546	1315.95833
2117.205	1428.29167
2119.863	1575.625
2122.519	1675.95833
2125.173	1785.95833
2127.825	1880.625
2130.475	1885.625
2133.124	1842.625
2135.771	1748.625
2138.416	1689.29167
2141.059	1541.95833
2143.7	1494.625
2146.339	1389.625
2148.977	1325.95833
2151.613	1295.625
2154.247	1240.625
2156.879	1218.29167
2159.51	1176.29167
2162.138	1142.95833
2164.765	1136.625
2167.39	1120.625
2170.013	1134.95833
2172.634	1124.625
2175.254	1086.625
2177.872	1111.625
2180.488	1068.29167
2183.102	1077.29167
2185.714	1051.95833
2188.325	1035.625
2190.934	1049.95833
2193.541	1028.95833
2196.146	1017.95833
2198.75	1015.625
2201.351	1017.625
2203.951	992.29167
2206.549	1008.29167
2209.146	989.29167
2211.74	982.29167
2214.333	978.95833
2216.924	961.29167
2219.514	970.625
2222.101	955.95833
2224.687	954.625
2227.271	948.95833
2229.853	933.29167
2232.433	920.95833
2235.012	942.29167
2237.589	939.625
2240.164	935.95833
2242.738	918.29167
2245.309	927.625
2247.879	908.95833
2250.448	914.625
2253.014	891.29167
2255.579	885.625
2258.142	878.29167
2260.703	866.625
2263.262	865.625
2265.82	864.95833
2268.376	873.29167
2270.93	858.95833
2273.483	852.95833
2276.033	851.29167
2278.583	854.29167
2281.13	839.625
2283.675	827.29167
2286.219	845.625
2288.761	849.95833
2291.302	841.29167
2293.841	840.95833
2296.377	822.625
2298.913	823.29167
2301.446	839.95833
2303.978	814.625
2306.508	820.95833
2309.037	823.625
2311.563	825.625
2314.088	829.95833
2316.612	791.95833
2319.133	803.29167
2321.653	808.625
2324.171	802.625
2326.688	811.625
2329.202	799.29167
2331.715	797.625
2334.227	800.625
2336.736	795.625
2339.244	788.625
2341.751	779.625
2344.255	794.29167
2346.758	787.625
2349.259	777.95833
2351.759	789.625
2354.257	779.29167
2356.753	767.625
2359.247	788.625
2361.74	790.625
2364.231	776.29167
2366.721	782.625
2369.209	768.29167
2371.695	772.95833
2374.179	771.29167
2376.662	766.29167
2379.143	787.95833
2381.622	771.29167
2384.1	761.95833
2386.576	768.625
2389.051	775.625
2391.524	785.29167
2393.995	782.29167
2396.464	753.29167
2398.932	751.625
2401.398	761.29167
2403.863	761.29167
2406.325	742.625
2408.787	742.625
2411.246	756.29167
2413.704	755.95833
2416.16	746.29167
2418.615	745.29167
2421.068	759.625
2423.519	754.29167
2425.969	754.625
2428.417	750.95833
2430.863	767.95833
2433.308	767.29167
2435.751	757.625
2438.193	750.625
2440.633	755.29167
2443.071	751.95833
2445.508	735.95833
2447.943	739.95833
2450.376	738.625
2452.808	746.95833
2455.238	740.95833
2457.667	760.95833
2460.093	737.625
2462.519	734.95833
2464.942	738.95833
2467.365	743.29167
2469.785	740.95833
2472.204	732.95833
2474.621	732.95833
2477.037	744.29167
2479.451	715.29167
2481.863	716.625
2484.274	717.625
2486.683	721.625
2489.091	730.29167
2491.497	729.95833
2493.901	720.95833
2496.304	723.29167
2498.705	728.95833
2501.105	715.625
2503.503	748.29167
2505.899	706.625
2508.294	741.29167
2510.687	713.625
2513.079	726.625
2515.469	703.95833
2517.858	716.625
2520.245	727.625
2522.63	718.625
2525.014	714.95833
2527.396	716.29167
2529.776	698.29167
2532.156	713.95833
2534.533	692.625
2536.909	714.625
2539.283	705.29167
2541.656	707.625
2544.027	727.29167
2546.397	712.625
2548.765	708.29167
2551.131	700.625
2553.496	709.625
2555.86	715.95833
2558.221	709.625
2560.582	697.29167
2562.94	692.29167
2565.298	696.29167
2567.653	728.625
2570.007	688.95833
2572.36	721.29167
2574.711	702.29167
2577.06	724.29167
2579.408	709.95833
2581.754	704.95833
2584.099	702.625
2586.442	709.95833
2588.784	717.29167
2591.124	708.95833
2593.463	707.95833
2595.8	703.625
2598.135	696.625
2600.469	706.29167
2602.802	724.95833
2605.133	726.29167
2607.462	700.625
2609.79	701.625
2612.116	701.29167
2614.441	701.95833
2616.764	712.29167
2619.086	709.29167
2621.406	696.29167
2623.725	708.625
2626.042	712.625
2628.358	710.625
2630.672	710.29167
2632.985	723.29167
2635.296	713.29167
2637.606	731.29167
2639.914	705.29167
2642.22	716.95833
2644.525	717.95833
2646.829	731.29167
2649.131	726.95833
2651.432	734.625
2653.731	734.95833
2656.028	738.95833
2658.324	730.95833
2660.619	720.29167
2662.912	738.625
2665.204	732.95833
2667.494	749.29167
2669.782	727.29167
2672.07	732.95833
2674.355	745.95833
2676.639	738.29167
2678.922	734.625
2681.203	754.625
2683.483	723.625
2685.761	727.29167
2688.038	750.95833
2690.313	753.95833
2692.587	762.95833
2694.859	746.29167
2697.13	758.29167
2699.399	758.95833
2701.667	769.95833
2703.933	755.95833
2706.198	766.625
2708.461	782.95833
2710.723	791.625
2712.984	779.625
2715.243	800.625
2717.5	788.29167
2719.757	807.29167
2722.011	800.29167
2724.264	801.29167
2726.516	825.625
2728.766	814.95833
2731.015	808.95833
2733.262	808.95833
2735.508	806.625
2737.753	805.625
2739.996	780.625
2742.237	782.29167
2744.477	791.625
2746.716	799.95833
2748.953	780.95833
2751.189	789.95833
2753.423	773.29167
2755.656	774.95833
2757.887	774.95833
2760.117	783.95833
2762.346	773.625
2764.573	774.95833
2766.798	773.95833
2769.022	780.95833
2771.245	781.29167
2773.467	797.95833
2775.686	795.625
2777.905	809.625
2780.122	810.95833
2782.337	802.29167
2784.552	802.625
2786.764	827.95833
2788.976	835.625
2791.186	845.29167
2793.394	847.625
2795.601	873.95833
2797.807	885.625
2800.011	892.29167
2802.214	897.95833
2804.415	913.625
2806.615	908.95833
2808.814	943.29167
2811.011	929.625
2813.206	945.29167
2815.401	959.95833
2817.594	980.95833
2819.785	998.625
2821.975	985.95833
2824.164	1015.95833
2826.351	1047.29167
2828.537	1048.29167
2830.722	1072.625
2832.905	1080.29167
2835.086	1113.29167
2837.267	1178.29167
2839.445	1192.29167
2841.623	1229.29167
2843.799	1258.625
2845.974	1318.29167
2848.147	1380.625
2850.319	1394.95833
2852.489	1445.95833
2854.659	1450.29167
2856.826	1489.29167
2858.993	1515.95833
2861.158	1478.625
2863.321	1505.95833
2865.483	1517.625
2867.644	1508.29167
2869.804	1502.29167
2871.962	1481.29167
2874.118	1484.29167
2876.274	1465.625
2878.428	1465.29167
2880.58	1464.625
2882.731	1452.95833
2884.881	1448.625
2887.03	1456.95833
2889.177	1450.95833
2891.322	1480.29167
2893.467	1464.95833
2895.61	1478.95833
2897.751	1490.29167
2899.892	1474.625
2902.03	1499.95833
2904.168	1507.625
2906.304	1517.95833
2908.439	1532.95833
2910.572	1503.29167
2912.704	1533.95833
2914.835	1527.29167
2916.965	1524.95833
2919.093	1525.95833
2921.219	1492.95833
2923.345	1499.625
2925.469	1479.95833
2927.591	1468.95833
2929.712	1397.625
2931.832	1406.29167
2933.951	1366.95833
2936.068	1336.95833
2938.184	1306.95833
2940.299	1258.95833
2942.412	1228.29167
2944.524	1172.625
2946.634	1166.29167
2948.744	1099.625
2950.851	1113.29167
2952.958	1063.625
2955.063	1052.625
2957.167	1030.625
2959.269	994.625
2961.371	1004.95833
2963.471	958.625
2965.569	949.29167
2967.666	906.95833
2969.762	902.29167
2971.857	880.29167
2973.95	839.29167
2976.042	851.95833
2978.133	827.95833
2980.222	812.29167
2982.31	774.625
2984.396	759.29167
2986.482	756.95833
2988.566	752.95833
2990.648	732.29167
2992.73	739.95833
2994.81	709.625
2996.889	716.625
2998.966	705.625
3001.042	715.95833
3003.117	696.29167
3005.191	695.29167
3007.263	690.625
3009.334	684.625
3011.403	669.29167
3013.472	656.29167
3015.539	649.625
3017.604	658.95833
3019.669	616.625
3021.732	612.95833
3023.794	626.625
3025.854	600.29167
3027.914	611.29167
3029.971	620.95833
3032.028	606.95833
3034.083	597.29167
3036.137	600.29167
3038.19	570.29167
3040.242	551.29167
3042.292	552.625
3044.341	537.29167
3046.388	555.625
3048.435	530.625
3050.48	547.29167
3052.524	532.29167
3054.566	512.29167
3056.607	520.95833
3058.647	513.29167
3060.686	484.95833
3062.723	476.29167
3064.759	462.29167
3066.794	0.95833
3068.828	-2.04167
3070.86	-2.375
