-0.839	387.91667
3.438	418.58333
7.711	117.25
11.981	51.25
16.247	43.91667
20.509	41.91667
24.768	44.91667
29.024	49.58333
33.276	40.91667
37.524	51.91667
41.769	37.91667
46.01	34.91667
50.247	50.25
54.481	63.91667
58.712	63.91667
62.939	44.91667
67.162	60.91667
71.382	53.58333
75.599	45.25
79.812	65.91667
84.021	79.25
88.227	54.25
92.429	55.25
96.628	45.25
100.823	63.25
105.015	66.25
109.204	70.25
113.388	74.91667
117.57	66.58333
121.748	80.91667
125.922	68.58333
130.093	85.25
134.261	97.91667
138.425	87.25
142.585	122.58333
146.742	118.58333
150.896	135.91667
155.046	157.91667
159.193	248.91667
163.336	426.25
167.476	770.91667
171.613	1411.25
175.746	2380.58333
179.875	3540.91667
184.002	4632.58333
188.124	5416.58333
192.244	5717.25
196.36	5664.91667
200.472	5486.91667
204.581	5343.91667
208.687	5201.91667
212.79	5113.25
216.889	5132.91667
220.984	5171.91667
225.077	5204.25
229.165	5244.91667
233.251	5214.58333
237.333	5239.58333
241.412	5185.25
245.487	5176.58333
249.559	5128.58333
253.628	5060.58333
257.694	5063.91667
261.756	5038.91667
265.814	4939.58333
269.87	4868.25
273.922	4740.91667
277.97	4737.58333
282.016	4748.58333
286.058	4797.25
290.097	4905.58333
294.132	4937.58333
298.164	4952.25
302.193	4682.58333
306.219	4393.25
310.241	4009.91667
314.26	3688.58333
318.276	3415.25
322.288	3183.58333
326.297	2998.25
330.303	2902.91667
334.305	2809.91667
338.305	2738.58333
342.301	2689.91667
346.294	2663.25
350.283	2643.25
354.269	2601.58333
358.252	2602.91667
362.232	2564.91667
366.209	2542.91667
370.182	2512.58333
374.152	2506.58333
378.119	2513.25
382.083	2480.25
386.043	2493.25
390	2470.25
393.954	2468.58333
397.905	2440.91667
401.852	2457.25
405.797	2390.25
409.738	2390.58333
413.676	2394.25
417.61	2390.91667
421.542	2364.91667
425.47	2343.91667
429.396	2342.91667
433.318	2339.91667
437.236	2312.58333
441.152	2333.25
445.065	2285.91667
448.974	2285.91667
452.88	2253.58333
456.783	2230.25
460.683	2223.58333
464.58	2256.25
468.473	2230.25
472.364	2266.91667
476.251	2263.91667
480.135	2286.58333
484.016	2305.91667
487.894	2331.58333
491.769	2346.91667
495.641	2341.25
499.509	2360.58333
503.375	2380.25
507.237	2380.91667
511.096	2440.91667
514.952	2722.58333
518.805	3028.91667
522.655	3145.58333
526.502	2683.58333
530.346	2396.58333
534.187	2336.58333
538.024	2336.91667
541.859	2335.58333
545.69	2349.25
549.519	2315.25
553.344	2303.91667
557.166	2284.58333
560.985	2240.25
564.802	2210.58333
568.615	2201.91667
572.425	2148.91667
576.232	2150.25
580.036	2128.91667
583.836	2160.25
587.634	2155.91667
591.429	2150.91667
595.221	2205.58333
599.01	2229.91667
602.796	2248.58333
606.578	2239.25
610.358	2254.91667
614.135	2255.25
617.909	2239.58333
621.679	2212.25
625.447	2199.91667
629.212	2212.58333
632.973	2204.91667
636.732	2211.91667
640.488	2217.91667
644.241	2180.91667
647.991	2154.25
651.737	2195.91667
655.481	2165.91667
659.222	2171.58333
662.96	2183.91667
666.695	2184.58333
670.427	2198.25
674.156	2206.58333
677.882	2201.91667
681.605	2181.58333
685.325	2171.25
689.043	2174.91667
692.757	2144.25
696.468	2159.58333
700.177	2158.25
703.882	2151.58333
707.585	2142.91667
711.284	2143.91667
714.981	2167.25
718.675	2162.25
722.366	2158.58333
726.054	2121.58333
729.739	2149.58333
733.421	2140.58333
737.1	2144.91667
740.777	2181.91667
744.45	2179.58333
748.121	2170.91667
751.789	2236.91667
755.453	2218.25
759.115	2210.25
762.774	2237.25
766.431	2260.91667
770.084	2262.25
773.734	2282.58333
777.382	2339.25
781.027	2340.91667
784.669	2375.91667
788.308	2389.91667
791.944	2400.91667
795.577	2401.91667
799.208	2440.25
802.835	2455.58333
806.46	2447.25
810.082	2503.58333
813.701	2487.58333
817.317	2506.58333
820.931	2493.25
824.542	2502.58333
828.149	2445.91667
831.754	2439.91667
835.357	2427.58333
838.956	2429.58333
842.553	2414.25
846.146	2403.25
849.737	2370.58333
853.326	2394.91667
856.911	2391.91667
860.493	2432.91667
864.073	2432.58333
867.65	2472.91667
871.225	2501.91667
874.796	2513.91667
878.365	2492.58333
881.931	2555.58333
885.494	2554.91667
889.054	2558.25
892.612	2564.91667
896.166	2536.25
899.719	2503.58333
903.268	2471.58333
906.814	2475.58333
910.358	2467.58333
913.899	2456.91667
917.438	2443.91667
920.973	2459.91667
924.506	2479.58333
928.036	2522.25
931.564	2550.58333
935.088	2594.25
938.61	2596.25
942.129	2616.25
945.646	2698.58333
949.16	2738.25
952.671	2793.58333
956.179	2793.91667
959.685	2752.25
963.188	2754.25
966.688	2718.25
970.185	2653.58333
973.68	2591.91667
977.173	2565.91667
980.662	2510.91667
984.149	2505.25
987.633	2475.91667
991.114	2476.25
994.593	2559.25
998.069	2625.58333
1001.542	2692.58333
1005.013	2610.58333
1008.481	2492.58333
1011.947	2434.58333
1015.409	2438.91667
1018.869	2435.58333
1022.327	2448.91667
1025.782	2429.25
1029.234	2433.25
1032.683	2386.58333
1036.13	2338.58333
1039.574	2253.91667
1043.016	2212.58333
1046.455	2170.91667
1049.891	2148.91667
1053.325	2160.58333
1056.756	2146.91667
1060.184	2168.58333
1063.61	2172.91667
1067.033	2220.91667
1070.454	2205.91667
1073.872	2229.25
1077.287	2213.91667
1080.7	2226.58333
1084.11	2241.25
1087.517	2228.91667
1090.922	2193.58333
1094.325	2165.25
1097.724	2141.58333
1101.122	2163.25
1104.516	2154.25
1107.908	2140.91667
1111.298	2192.91667
1114.684	2195.25
1118.069	2239.91667
1121.45	2242.25
1124.83	2254.58333
1128.206	2285.91667
1131.58	2317.58333
1134.951	2378.91667
1138.32	2451.91667
1141.687	2538.58333
1145.05	2593.58333
1148.412	2603.25
1151.77	2612.58333
1155.126	2619.58333
1158.48	2594.25
1161.831	2630.91667
1165.18	2629.58333
1168.525	2677.25
1171.869	2687.25
1175.21	2708.58333
1178.548	2752.25
1181.884	2756.91667
1185.217	2795.58333
1188.548	2883.58333
1191.877	2942.58333
1195.202	3023.58333
1198.526	3089.25
1201.846	3088.58333
1205.165	3103.91667
1208.48	3095.58333
1211.794	3100.25
1215.104	3091.91667
1218.413	3087.58333
1221.719	3105.25
1225.022	3051.58333
1228.323	2984.58333
1231.621	2961.25
1234.917	2964.91667
1238.21	2974.25
1241.501	2953.58333
1244.79	2938.25
1248.076	2943.58333
1251.359	2961.25
1254.64	3022.58333
1257.919	3038.91667
1261.195	3046.58333
1264.468	3122.91667
1267.74	3180.58333
1271.008	3187.25
1274.275	3165.58333
1277.538	3167.25
1280.8	3157.25
1284.059	3160.25
1287.315	3176.58333
1290.569	3204.58333
1293.821	3209.58333
1297.07	3224.91667
1300.317	3242.58333
1303.562	3272.91667
1306.803	3242.58333
1310.043	3209.58333
1313.28	3179.58333
1316.515	3139.91667
1319.747	3098.91667
1322.977	3059.91667
1326.204	3038.58333
1329.429	3010.25
1332.652	2975.91667
1335.872	3014.91667
1339.09	2937.91667
1342.306	2942.25
1345.519	2887.58333
1348.729	2819.58333
1351.938	2813.25
1355.144	2761.58333
1358.347	2715.58333
1361.548	2726.91667
1364.747	2730.58333
1367.944	2706.91667
1371.138	2710.58333
1374.329	2716.25
1377.518	2746.25
1380.705	2766.91667
1383.89	2726.58333
1387.072	2673.58333
1390.252	2579.91667
1393.429	2512.91667
1396.605	2429.25
1399.777	2379.91667
1402.948	2360.91667
1406.116	2347.91667
1409.282	2365.25
1412.445	2376.91667
1415.606	2426.25
1418.765	2467.58333
1421.921	2505.58333
1425.075	2563.25
1428.227	2644.58333
1431.376	2736.25
1434.524	2832.91667
1437.668	2898.25
1440.811	2917.58333
1443.951	2949.91667
1447.089	2953.25
1450.224	2926.25
1453.357	2913.25
1456.488	2922.25
1459.617	2881.25
1462.743	2837.91667
1465.867	2767.58333
1468.989	2757.58333
1472.108	2704.91667
1475.225	2681.91667
1478.34	2656.25
1481.453	2634.91667
1484.563	2636.25
1487.671	2673.58333
1490.776	2717.58333
1493.88	2770.91667
1496.981	2820.58333
1500.08	2867.91667
1503.176	2870.91667
1506.271	2920.25
1509.363	2965.25
1512.452	3007.58333
1515.54	3036.91667
1518.625	3091.25
1521.708	3164.91667
1524.789	3305.58333
1527.867	3447.25
1530.944	3584.25
1534.018	3732.58333
1537.089	3867.91667
1540.159	3846.58333
1543.226	3834.58333
1546.291	3746.58333
1549.354	3653.91667
1552.415	3573.25
1555.473	3470.25
1558.529	3432.91667
1561.583	3381.91667
1564.634	3330.58333
1567.684	3359.58333
1570.731	3361.91667
1573.776	3397.91667
1576.819	3398.91667
1579.859	3422.58333
1582.898	3488.91667
1585.934	3511.91667
1588.968	3511.91667
1591.999	3500.25
1595.029	3525.91667
1598.056	3543.25
1601.081	3580.91667
1604.104	3567.91667
1607.125	3521.58333
1610.144	3403.91667
1613.16	3324.58333
1616.174	3219.91667
1619.186	3161.58333
1622.196	3080.91667
1625.203	2993.58333
1628.209	2965.25
1631.212	2951.25
1634.213	2889.91667
1637.212	2890.25
1640.209	2818.25
1643.203	2753.58333
1646.196	2649.25
1649.186	2553.91667
1652.174	2488.58333
1655.16	2407.25
1658.144	2338.25
1661.125	2241.58333
1664.105	2139.58333
1667.082	2059.25
1670.057	1948.58333
1673.03	1826.25
1676.001	1745.58333
1678.97	1625.91667
1681.937	1543.25
1684.901	1473.58333
1687.863	1441.58333
1690.824	1375.25
1693.782	1340.91667
1696.738	1306.58333
1699.692	1273.25
1702.643	1256.25
1705.593	1241.91667
1708.54	1229.58333
1711.486	1228.25
1714.429	1205.58333
1717.37	1193.91667
1720.309	1175.58333
1723.246	1179.58333
1726.181	1143.25
1729.113	1151.58333
1732.044	1139.58333
1734.972	1143.58333
1737.899	1140.25
1740.823	1128.58333
1743.745	1132.91667
1746.665	1071.91667
1749.583	1075.91667
1752.499	1069.25
1755.413	1048.58333
1758.325	1027.91667
1761.235	1035.58333
1764.142	1003.91667
1767.048	1013.25
1769.951	1007.25
1772.852	988.25
1775.752	985.25
1778.649	1005.25
1781.544	1003.58333
1784.437	971.25
1787.328	980.25
1790.217	968.91667
1793.104	948.91667
1795.989	957.25
1798.872	941.25
1801.753	966.58333
1804.631	956.25
1807.508	974.91667
1810.383	964.25
1813.255	940.91667
1816.126	938.58333
1818.994	937.91667
1821.861	935.25
1824.725	938.91667
1827.587	933.91667
1830.448	925.25
1833.306	914.25
1836.162	933.91667
1839.017	918.91667
1841.869	911.25
1844.719	908.91667
1847.567	897.91667
1850.414	903.91667
1853.258	888.91667
1856.1	920.58333
1858.94	931.91667
1861.778	911.91667
1864.614	898.58333
1867.448	916.91667
1870.28	894.91667
1873.111	921.58333
1875.939	904.58333
1878.765	925.91667
1881.589	892.25
1884.411	903.25
1887.231	912.25
1890.049	897.58333
1892.865	905.25
1895.68	888.58333
1898.492	883.25
1901.302	879.58333
1904.11	880.58333
1906.916	877.91667
1909.721	875.91667
1912.523	899.58333
1915.323	863.25
1918.122	869.25
1920.918	898.58333
1923.712	866.91667
1926.505	873.91667
1929.295	858.25
1932.084	884.58333
1934.87	872.91667
1937.655	866.25
1940.438	851.91667
1943.218	872.58333
1945.997	868.58333
1948.774	887.58333
1951.549	882.25
1954.322	874.25
1957.093	877.25
1959.862	865.25
1962.629	869.25
1965.394	871.91667
1968.157	870.58333
1970.918	867.91667
1973.678	855.25
1976.435	876.58333
1979.19	872.91667
1981.944	844.58333
1984.696	837.25
1987.445	852.91667
1990.193	849.91667
1992.939	863.58333
1995.683	859.58333
1998.425	831.25
2001.165	874.58333
2003.903	847.25
2006.639	846.91667
2009.374	843.91667
2012.106	862.91667
2014.837	830.25
2017.566	853.91667
2020.292	859.25
2023.017	857.58333
2025.74	843.58333
2028.461	841.25
2031.18	847.25
2033.898	838.91667
2036.613	852.91667
2039.327	855.25
2042.038	836.25
2044.748	842.58333
2047.456	835.91667
2050.162	838.91667
2052.866	844.25
2055.568	846.91667
2058.268	841.25
2060.967	848.25
2063.663	829.91667
2066.358	844.91667
2069.051	851.25
2071.742	840.25
2074.431	852.25
2077.118	838.25
2079.804	838.25
2082.487	846.91667
2085.169	864.91667
2087.849	876.91667
2090.527	861.58333
2093.203	876.25
2095.877	878.91667
2098.55	873.58333
2101.22	895.58333
2103.889	905.91667
2106.556	894.58333
2109.221	929.25
2111.884	954.25
2114.546	1008.25
2117.205	1065.58333
2119.863	1143.58333
2122.519	1183.58333
2125.173	1220.25
2127.825	1296.58333
2130.475	1286.91667
2133.124	1256.58333
2135.771	1206.58333
2138.416	1176.25
2141.059	1123.58333
2143.7	1087.25
2146.339	1040.58333
2148.977	1001.25
2151.613	995.91667
2154.247	965.91667
2156.879	950.25
2159.51	932.91667
2162.138	917.91667
2164.765	918.58333
2167.39	917.25
2170.013	927.58333
2172.634	919.25
2175.254	907.91667
2177.872	926.58333
2180.488	896.58333
2183.102	898.58333
2185.714	895.91667
2188.325	871.58333
2190.934	887.58333
2193.541	880.58333
2196.146	876.58333
2198.75	859.25
2201.351	871.25
2203.951	856.91667
2206.549	878.58333
2209.146	853.91667
2211.74	858.91667
2214.333	862.58333
2216.924	846.58333
2219.514	862.25
2222.101	840.25
2224.687	850.25
2227.271	848.91667
2229.853	832.25
2232.433	839.91667
2235.012	864.58333
2237.589	853.25
2240.164	863.58333
2242.738	855.91667
2245.309	848.58333
2247.879	851.25
2250.448	874.58333
2253.014	836.58333
2255.579	839.25
2258.142	834.91667
2260.703	826.25
2263.262	839.91667
2265.82	833.58333
2268.376	826.91667
2270.93	823.91667
2273.483	826.25
2276.033	843.25
2278.583	820.91667
2281.13	821.58333
2283.675	825.58333
2286.219	837.91667
2288.761	837.58333
2291.302	853.91667
2293.841	847.58333
2296.377	830.58333
2298.913	831.25
2301.446	846.91667
2303.978	836.58333
2306.508	838.25
2309.037	832.58333
2311.563	842.25
2314.088	857.58333
2316.612	816.58333
2319.133	851.25
2321.653	848.58333
2324.171	829.25
2326.688	850.91667
2329.202	842.91667
2331.715	864.58333
2334.227	840.58333
2336.736	852.91667
2339.244	852.91667
2341.751	841.58333
2344.255	847.91667
2346.758	847.25
2349.259	847.91667
2351.759	848.58333
2354.257	848.25
2356.753	852.91667
2359.247	853.58333
2361.74	852.91667
2364.231	849.91667
2366.721	873.91667
2369.209	859.25
2371.695	867.58333
2374.179	859.58333
2376.662	865.25
2379.143	886.25
2381.622	861.91667
2384.1	882.91667
2386.576	870.58333
2389.051	893.58333
2391.524	897.58333
2393.995	884.58333
2396.464	888.91667
2398.932	882.25
2401.398	885.91667
2403.863	880.58333
2406.325	892.58333
2408.787	890.25
2411.246	895.25
2413.704	886.58333
2416.16	898.58333
2418.615	897.25
2421.068	903.25
2423.519	899.25
2425.969	893.25
2428.417	915.58333
2430.863	924.25
2433.308	923.25
2435.751	919.25
2438.193	915.25
2440.633	917.58333
2443.071	922.58333
2445.508	899.58333
2447.943	913.25
2450.376	920.25
2452.808	937.91667
2455.238	915.25
2457.667	953.25
2460.093	933.58333
2462.519	912.58333
2464.942	934.25
2467.365	938.25
2469.785	940.25
2472.204	950.25
2474.621	938.58333
2477.037	956.58333
2479.451	933.58333
2481.863	940.58333
2484.274	951.58333
2486.683	955.58333
2489.091	974.25
2491.497	958.58333
2493.901	962.58333
2496.304	959.25
2498.705	973.91667
2501.105	975.91667
2503.503	992.91667
2505.899	964.25
2508.294	990.91667
2510.687	984.25
2513.079	985.91667
2515.469	968.58333
2517.858	981.25
2520.245	1005.25
2522.63	977.25
2525.014	991.91667
2527.396	981.58333
2529.776	987.25
2532.156	996.25
2534.533	985.58333
2536.909	995.25
2539.283	993.91667
2541.656	997.25
2544.027	1016.91667
2546.397	1016.25
2548.765	1013.91667
2551.131	1017.25
2553.496	1015.91667
2555.86	1023.91667
2558.221	1024.25
2560.582	1023.91667
2562.94	1027.91667
2565.298	1031.25
2567.653	1045.25
2570.007	1026.58333
2572.36	1050.58333
2574.711	1042.91667
2577.06	1056.58333
2579.408	1053.58333
2581.754	1058.58333
2584.099	1054.25
2586.442	1056.58333
2588.784	1069.58333
2591.124	1056.58333
2593.463	1064.58333
2595.8	1064.58333
2598.135	1067.58333
2600.469	1062.91667
2602.802	1097.58333
2605.133	1083.58333
2607.462	1070.58333
2609.79	1065.25
2612.116	1081.58333
2614.441	1093.25
2616.764	1112.25
2619.086	1104.25
2621.406	1099.25
2623.725	1114.91667
2626.042	1107.25
2628.358	1112.91667
2630.672	1114.58333
2632.985	1127.91667
2635.296	1135.58333
2637.606	1136.58333
2639.914	1134.25
2642.22	1144.25
2644.525	1145.58333
2646.829	1148.25
2649.131	1170.25
2651.432	1171.58333
2653.731	1170.58333
2656.028	1192.25
2658.324	1177.58333
2660.619	1185.91667
2662.912	1202.91667
2665.204	1195.91667
2667.494	1205.91667
2669.782	1193.91667
2672.07	1208.25
2674.355	1207.58333
2676.639	1196.91667
2678.922	1203.91667
2681.203	1205.58333
2683.483	1206.58333
2685.761	1197.58333
2688.038	1221.25
2690.313	1223.25
2692.587	1228.91667
2694.859	1217.58333
2697.13	1222.58333
2699.399	1242.25
2701.667	1247.91667
2703.933	1262.91667
2706.198	1265.91667
2708.461	1262.91667
2710.723	1290.58333
2712.984	1266.91667
2715.243	1289.58333
2717.5	1282.25
2719.757	1297.91667
2722.011	1288.91667
2724.264	1323.25
2726.516	1329.91667
2728.766	1325.25
2731.015	1344.91667
2733.262	1345.58333
2735.508	1344.25
2737.753	1352.58333
2739.996	1306.91667
2742.237	1322.58333
2744.477	1340.91667
2746.716	1348.25
2748.953	1319.58333
2751.189	1328.91667
2753.423	1322.58333
2755.656	1315.25
2757.887	1321.58333
2760.117	1327.25
2762.346	1311.91667
2764.573	1320.25
2766.798	1320.58333
2769.022	1323.25
2771.245	1342.58333
2773.467	1346.91667
2775.686	1347.25
2777.905	1357.58333
2780.122	1364.25
2782.337	1374.25
2784.552	1373.25
2786.764	1380.25
2788.976	1379.58333
2791.186	1409.58333
2793.394	1411.91667
2795.601	1441.25
2797.807	1440.58333
2800.011	1446.25
2802.214	1467.58333
2804.415	1480.58333
2806.615	1466.25
2808.814	1495.25
2811.011	1479.58333
2813.206	1485.58333
2815.401	1493.58333
2817.594	1516.58333
2819.785	1520.25
2821.975	1492.58333
2824.164	1521.91667
2826.351	1537.91667
2828.537	1559.25
2830.722	1564.58333
2832.905	1584.91667
2835.086	1593.25
2837.267	1637.25
2839.445	1658.25
2841.623	1676.58333
2843.799	1698.58333
2845.974	1732.91667
2848.147	1779.58333
2850.319	1792.58333
2852.489	1830.91667
2854.659	1847.25
2856.826	1852.58333
2858.993	1879.58333
2861.158	1880.58333
2863.321	1850.25
2865.483	1901.58333
2867.644	1894.58333
2869.804	1889.25
2871.962	1864.58333
2874.118	1866.58333
2876.274	1860.58333
2878.428	1847.91667
2880.58	1824.91667
2882.731	1835.91667
2884.881	1848.58333
2887.03	1828.91667
2889.177	1846.58333
2891.322	1877.58333
2893.467	1868.58333
2895.61	1843.25
2897.751	1891.58333
2899.892	1883.25
2902.03	1890.58333
2904.168	1895.58333
2906.304	1906.91667
2908.439	1931.91667
2910.572	1919.25
2912.704	1924.58333
2914.835	1935.25
2916.965	1930.91667
2919.093	1950.91667
2921.219	1907.25
2923.345	1951.25
2925.469	1903.58333
2927.591	1914.58333
2929.712	1860.58333
2931.832	1864.25
2933.951	1834.25
2936.068	1814.25
2938.184	1783.58333
2940.299	1771.58333
2942.412	1753.25
2944.524	1736.25
2946.634	1721.25
2948.744	1673.58333
2950.851	1719.25
2952.958	1659.25
2955.063	1654.91667
2957.167	1664.58333
2959.269	1630.58333
2961.371	1665.25
2963.471	1639.25
2965.569	1635.58333
2967.666	1606.25
2969.762	1603.91667
2971.857	1587.91667
2973.95	1561.58333
2976.042	1556.25
2978.133	1532.58333
2980.222	1519.91667
2982.31	1496.91667
2984.396	1468.58333
2986.482	1468.58333
2988.566	1468.91667
2990.648	1458.91667
2992.73	1476.25
2994.81	1466.91667
2996.889	1486.58333
2998.966	1471.91667
3001.042	1464.25
3003.117	1467.91667
3005.191	1469.58333
3007.263	1461.91667
3009.334	1444.25
3011.403	1438.58333
3013.472	1404.91667
3015.539	1407.25
3017.604	1406.91667
3019.669	1357.91667
3021.732	1370.91667
3023.794	1347.25
3025.854	1355.58333
3027.914	1346.25
3029.971	1369.91667
3032.028	1365.25
3034.083	1355.91667
3036.137	1324.91667
3038.19	1303.58333
3040.242	1266.25
3042.292	1266.58333
3044.341	1243.25
3046.388	1242.58333
3048.435	1210.58333
3050.48	1223.58333
3052.524	1215.91667
3054.566	1201.25
3056.607	1210.91667
3058.647	1180.91667
3060.686	1139.91667
3062.723	1101.58333
3064.759	1065.91667
3066.794	1.25
3068.828	-1.08333
3070.86	-3.41667
