-0.839	419.875
3.438	447.54167
7.711	125.54167
11.981	54.875
16.247	44.20833
20.509	44.20833
24.768	43.875
29.024	45.875
33.276	41.20833
37.524	52.54167
41.769	40.54167
46.01	34.20833
50.247	61.54167
54.481	95.20833
58.712	63.54167
62.939	46.54167
67.162	57.875
71.382	52.20833
75.599	44.54167
79.812	63.20833
84.021	81.875
88.227	58.54167
92.429	66.20833
96.628	146.20833
100.823	72.54167
105.015	70.875
109.204	76.20833
113.388	72.875
117.57	73.20833
121.748	88.54167
125.922	76.875
130.093	93.875
134.261	105.54167
138.425	95.875
142.585	135.20833
146.742	135.875
150.896	161.875
155.046	194.54167
159.193	323.54167
163.336	541.54167
167.476	1006.54167
171.613	1844.54167
175.746	3063.20833
179.875	4556.875
184.002	5911.20833
188.124	6808.875
192.244	7108.875
196.36	6933.20833
200.472	6605.54167
204.581	6345.54167
208.687	6074.54167
212.79	5953.20833
216.889	5924.20833
220.984	5895.20833
225.077	5872.20833
229.165	5847.20833
233.251	5880.54167
237.333	5793.54167
241.412	5781.54167
245.487	5675.54167
249.559	5597.54167
253.628	5553.875
257.694	5505.54167
261.756	5442.54167
265.814	5323.875
269.87	5167.54167
273.922	5031.20833
277.97	5001.875
282.016	4973.54167
286.058	4965.54167
290.097	5067.875
294.132	5113.54167
298.164	5075.875
302.193	4847.875
306.219	4466.20833
310.241	4023.875
314.26	3690.54167
318.276	3388.20833
322.288	3146.875
326.297	2977.54167
330.303	2826.875
334.305	2752.20833
338.305	2673.54167
342.301	2621.875
346.294	2590.54167
350.283	2549.20833
354.269	2516.20833
358.252	2522.20833
362.232	2500.875
366.209	2462.54167
370.182	2424.20833
374.152	2406.20833
378.119	2414.875
382.083	2386.20833
386.043	2420.20833
390	2356.20833
393.954	2379.875
397.905	2337.54167
401.852	2349.875
405.797	2305.875
409.738	2269.54167
413.676	2278.54167
417.61	2255.20833
421.542	2225.875
425.47	2204.875
429.396	2194.875
433.318	2187.20833
437.236	2166.20833
441.152	2192.54167
445.065	2135.20833
448.974	2129.875
452.88	2094.54167
456.783	2091.20833
460.683	2073.875
464.58	2085.875
468.473	2072.54167
472.364	2071.875
476.251	2090.875
480.135	2089.54167
484.016	2116.54167
487.894	2136.875
491.769	2128.54167
495.641	2134.20833
499.509	2123.54167
503.375	2134.20833
507.237	2155.20833
511.096	2193.54167
514.952	2242.54167
518.805	2362.875
522.655	2398.875
526.502	2220.54167
530.346	2154.54167
534.187	2139.20833
538.024	2132.20833
541.859	2122.875
545.69	2149.20833
549.519	2137.875
553.344	2124.54167
557.166	2100.54167
560.985	2059.20833
564.802	2045.54167
568.615	1996.20833
572.425	1975.875
576.232	1972.54167
580.036	1971.875
583.836	1979.20833
587.634	1971.54167
591.429	1961.875
595.221	2013.20833
599.01	2040.875
602.796	2041.875
606.578	2061.20833
610.358	2042.875
614.135	2037.54167
617.909	2040.20833
621.679	2038.875
625.447	2018.54167
629.212	2023.875
632.973	2035.875
636.732	2025.875
640.488	2041.54167
644.241	1996.54167
647.991	1996.875
651.737	1999.54167
655.481	1981.20833
659.222	1974.20833
662.96	1979.875
666.695	2004.875
670.427	2006.875
674.156	2020.875
677.882	2025.875
681.605	2014.20833
685.325	1984.54167
689.043	2012.875
692.757	1967.875
696.468	1981.20833
700.177	1977.875
703.882	1979.20833
707.585	1985.54167
711.284	1981.875
714.981	1988.54167
718.675	2000.54167
722.366	1996.54167
726.054	1971.875
729.739	1994.54167
733.421	2008.20833
737.1	2007.875
740.777	2007.20833
744.45	2022.20833
748.121	2026.54167
751.789	2070.875
755.453	2062.54167
759.115	2081.54167
762.774	2099.54167
766.431	2112.875
770.084	2135.875
773.734	2152.875
777.382	2206.54167
781.027	2212.20833
784.669	2245.54167
788.308	2250.54167
791.944	2269.54167
795.577	2279.875
799.208	2297.875
802.835	2303.20833
806.46	2330.875
810.082	2354.875
813.701	2353.54167
817.317	2365.20833
820.931	2363.20833
824.542	2358.54167
828.149	2362.54167
831.754	2350.875
835.357	2333.875
838.956	2343.54167
842.553	2330.54167
846.146	2321.20833
849.737	2310.20833
853.326	2313.54167
856.911	2336.20833
860.493	2384.20833
864.073	2345.54167
867.65	2412.54167
871.225	2431.20833
874.796	2424.20833
878.365	2433.54167
881.931	2457.20833
885.494	2511.20833
889.054	2472.20833
892.612	2459.54167
896.166	2482.54167
899.719	2440.875
903.268	2401.875
906.814	2375.54167
910.358	2382.20833
913.899	2346.20833
917.438	2363.54167
920.973	2353.875
924.506	2391.875
928.036	2428.875
931.564	2428.20833
935.088	2467.20833
938.61	2472.54167
942.129	2505.54167
945.646	2570.54167
949.16	2621.54167
952.671	2659.20833
956.179	2698.54167
959.685	2650.54167
963.188	2646.875
966.688	2568.875
970.185	2524.54167
973.68	2496.875
977.173	2452.875
980.662	2446.54167
984.149	2452.54167
987.633	2478.54167
991.114	2509.20833
994.593	2578.54167
998.069	2664.875
1001.542	2734.54167
1005.013	2677.54167
1008.481	2507.20833
1011.947	2470.54167
1015.409	2453.20833
1018.869	2476.20833
1022.327	2461.875
1025.782	2429.54167
1029.234	2451.54167
1032.683	2423.20833
1036.13	2334.54167
1039.574	2231.54167
1043.016	2190.20833
1046.455	2161.20833
1049.891	2128.54167
1053.325	2135.20833
1056.756	2137.20833
1060.184	2158.54167
1063.61	2170.20833
1067.033	2150.875
1070.454	2163.20833
1073.872	2207.875
1077.287	2194.20833
1080.7	2197.20833
1084.11	2210.54167
1087.517	2181.875
1090.922	2150.875
1094.325	2140.875
1097.724	2116.875
1101.122	2119.20833
1104.516	2127.20833
1107.908	2117.875
1111.298	2141.875
1114.684	2183.20833
1118.069	2196.875
1121.45	2243.875
1124.83	2234.54167
1128.206	2254.20833
1131.58	2304.875
1134.951	2363.54167
1138.32	2444.20833
1141.687	2557.54167
1145.05	2599.875
1148.412	2628.54167
1151.77	2595.875
1155.126	2621.20833
1158.48	2615.54167
1161.831	2631.875
1165.18	2651.54167
1168.525	2683.54167
1171.869	2721.20833
1175.21	2734.54167
1178.548	2765.54167
1181.884	2795.20833
1185.217	2808.20833
1188.548	2849.875
1191.877	2882.54167
1195.202	2943.20833
1198.526	2996.875
1201.846	2997.54167
1205.165	2972.54167
1208.48	2985.54167
1211.794	2981.54167
1215.104	2986.54167
1218.413	3009.54167
1221.719	2988.54167
1225.022	2938.875
1228.323	2923.54167
1231.621	2913.20833
1234.917	2905.54167
1238.21	2924.20833
1241.501	2906.875
1244.79	2881.875
1248.076	2908.54167
1251.359	2924.875
1254.64	3001.875
1257.919	2998.875
1261.195	3087.20833
1264.468	3122.20833
1267.74	3175.20833
1271.008	3185.20833
1274.275	3187.54167
1277.538	3147.54167
1280.8	3117.20833
1284.059	3130.875
1287.315	3136.54167
1290.569	3176.875
1293.821	3199.54167
1297.07	3228.54167
1300.317	3215.875
1303.562	3213.54167
1306.803	3173.875
1310.043	3160.20833
1313.28	3094.54167
1316.515	3091.875
1319.747	3035.875
1322.977	3011.54167
1326.204	2970.54167
1329.429	2912.54167
1332.652	2908.20833
1335.872	2897.20833
1339.09	2866.875
1342.306	2862.54167
1345.519	2810.54167
1348.729	2794.20833
1351.938	2788.875
1355.144	2737.875
1358.347	2713.54167
1361.548	2726.20833
1364.747	2722.20833
1367.944	2695.54167
1371.138	2733.20833
1374.329	2759.20833
1377.518	2806.875
1380.705	2823.54167
1383.89	2800.20833
1387.072	2735.54167
1390.252	2616.54167
1393.429	2549.875
1396.605	2449.20833
1399.777	2372.54167
1402.948	2366.875
1406.116	2319.54167
1409.282	2352.20833
1412.445	2361.54167
1415.606	2401.20833
1418.765	2428.54167
1421.921	2462.20833
1425.075	2539.875
1428.227	2603.54167
1431.376	2748.875
1434.524	2821.54167
1437.668	2892.20833
1440.811	2913.54167
1443.951	2961.54167
1447.089	2962.20833
1450.224	2939.54167
1453.357	2948.20833
1456.488	2914.20833
1459.617	2845.875
1462.743	2827.20833
1465.867	2757.54167
1468.989	2739.54167
1472.108	2685.20833
1475.225	2641.875
1478.34	2608.54167
1481.453	2619.875
1484.563	2619.875
1487.671	2649.54167
1490.776	2699.20833
1493.88	2749.20833
1496.981	2821.875
1500.08	2874.54167
1503.176	2911.54167
1506.271	2947.875
1509.363	3002.20833
1512.452	3019.54167
1515.54	3081.20833
1518.625	3118.875
1521.708	3216.20833
1524.789	3362.20833
1527.867	3514.875
1530.944	3713.20833
1534.018	3947.54167
1537.089	4065.54167
1540.159	4079.20833
1543.226	4087.20833
1546.291	3964.54167
1549.354	3855.20833
1552.415	3770.875
1555.473	3638.20833
1558.529	3568.54167
1561.583	3512.875
1564.634	3482.20833
1567.684	3481.875
1570.731	3472.875
1573.776	3505.20833
1576.819	3531.54167
1579.859	3541.20833
1582.898	3576.54167
1585.934	3612.875
1588.968	3615.54167
1591.999	3608.875
1595.029	3611.20833
1598.056	3648.54167
1601.081	3645.54167
1604.104	3646.20833
1607.125	3602.54167
1610.144	3534.875
1613.16	3437.54167
1616.174	3365.54167
1619.186	3273.20833
1622.196	3180.54167
1625.203	3097.54167
1628.209	3042.875
1631.212	3015.54167
1634.213	2980.20833
1637.212	2929.875
1640.209	2857.20833
1643.203	2821.875
1646.196	2714.54167
1649.186	2650.54167
1652.174	2581.54167
1655.16	2474.875
1658.144	2416.875
1661.125	2309.875
1664.105	2209.54167
1667.082	2135.54167
1670.057	2029.875
1673.03	1883.20833
1676.001	1766.875
1678.97	1654.20833
1681.937	1556.20833
1684.901	1470.875
1687.863	1406.20833
1690.824	1350.875
1693.782	1337.875
1696.738	1284.875
1699.692	1260.20833
1702.643	1223.875
1705.593	1205.20833
1708.54	1193.875
1711.486	1181.54167
1714.429	1157.875
1717.37	1145.54167
1720.309	1134.20833
1723.246	1137.54167
1726.181	1119.875
1729.113	1112.20833
1732.044	1091.54167
1734.972	1068.20833
1737.899	1074.20833
1740.823	1079.875
1743.745	1084.20833
1746.665	1024.20833
1749.583	1022.875
1752.499	999.20833
1755.413	986.875
1758.325	956.54167
1761.235	977.875
1764.142	941.20833
1767.048	944.54167
1769.951	928.20833
1772.852	916.20833
1775.752	911.875
1778.649	916.20833
1781.544	918.875
1784.437	883.20833
1787.328	905.875
1790.217	887.20833
1793.104	874.54167
1795.989	878.54167
1798.872	867.20833
1801.753	893.875
1804.631	882.20833
1807.508	887.875
1810.383	873.875
1813.255	859.875
1816.126	857.54167
1818.994	869.20833
1821.861	859.875
1824.725	857.54167
1827.587	856.875
1830.448	845.54167
1833.306	821.875
1836.162	838.875
1839.017	826.875
1841.869	830.875
1844.719	825.54167
1847.567	805.875
1850.414	806.20833
1853.258	809.20833
1856.1	818.20833
1858.94	823.875
1861.778	812.54167
1864.614	807.54167
1867.448	812.54167
1870.28	810.875
1873.111	821.54167
1875.939	800.54167
1878.765	824.54167
1881.589	794.20833
1884.411	807.20833
1887.231	824.875
1890.049	803.875
1892.865	789.875
1895.68	791.54167
1898.492	803.54167
1901.302	773.875
1904.11	790.54167
1906.916	781.875
1909.721	777.875
1912.523	790.54167
1915.323	758.54167
1918.122	763.54167
1920.918	774.20833
1923.712	761.875
1926.505	775.54167
1929.295	747.875
1932.084	768.875
1934.87	772.20833
1937.655	749.20833
1940.438	757.54167
1943.218	759.20833
1945.997	765.20833
1948.774	776.875
1951.549	760.875
1954.322	763.875
1957.093	760.20833
1959.862	756.875
1962.629	749.20833
1965.394	737.54167
1968.157	728.875
1970.918	743.875
1973.678	734.54167
1976.435	744.875
1979.19	747.54167
1981.944	721.875
1984.696	729.20833
1987.445	719.20833
1990.193	730.20833
1992.939	736.875
1995.683	736.54167
1998.425	712.875
2001.165	752.20833
2003.903	723.875
2006.639	719.875
2009.374	722.54167
2012.106	728.875
2014.837	706.875
2017.566	719.875
2020.292	722.875
2023.017	719.875
2025.74	712.54167
2028.461	709.20833
2031.18	712.875
2033.898	701.20833
2036.613	706.54167
2039.327	709.875
2042.038	698.54167
2044.748	702.54167
2047.456	702.875
2050.162	691.54167
2052.866	702.54167
2055.568	709.54167
2058.268	686.54167
2060.967	707.20833
2063.663	681.875
2066.358	695.54167
2069.051	694.54167
2071.742	688.20833
2074.431	702.54167
2077.118	697.54167
2079.804	677.54167
2082.487	688.54167
2085.169	699.875
2087.849	722.54167
2090.527	699.875
2093.203	709.20833
2095.877	715.54167
2098.55	715.875
2101.22	730.875
2103.889	729.54167
2106.556	736.875
2109.221	760.20833
2111.884	774.875
2114.546	833.20833
2117.205	895.875
2119.863	975.54167
2122.519	1030.875
2125.173	1094.875
2127.825	1180.20833
2130.475	1178.875
2133.124	1146.20833
2135.771	1114.875
2138.416	1061.20833
2141.059	987.20833
2143.7	945.54167
2146.339	897.20833
2148.977	827.20833
2151.613	817.20833
2154.247	799.20833
2156.879	789.20833
2159.51	753.875
2162.138	739.54167
2164.765	743.20833
2167.39	724.875
2170.013	756.54167
2172.634	737.54167
2175.254	729.54167
2177.872	749.54167
2180.488	702.875
2183.102	714.875
2185.714	685.875
2188.325	674.875
2190.934	690.875
2193.541	681.875
2196.146	669.54167
2198.75	675.875
2201.351	665.54167
2203.951	654.20833
2206.549	666.875
2209.146	650.875
2211.74	650.54167
2214.333	663.875
2216.924	640.875
2219.514	642.20833
2222.101	641.875
2224.687	663.54167
2227.271	637.875
2229.853	637.20833
2232.433	617.54167
2235.012	638.54167
2237.589	632.20833
2240.164	633.875
2242.738	632.54167
2245.309	612.20833
2247.879	633.20833
2250.448	631.875
2253.014	602.875
2255.579	594.20833
2258.142	606.20833
2260.703	600.20833
2263.262	605.875
2265.82	599.875
2268.376	597.875
2270.93	583.54167
2273.483	590.54167
2276.033	591.875
2278.583	589.54167
2281.13	583.54167
2283.675	574.54167
2286.219	580.54167
2288.761	576.875
2291.302	595.20833
2293.841	587.875
2296.377	566.54167
2298.913	584.54167
2301.446	589.20833
2303.978	583.20833
2306.508	573.54167
2309.037	568.875
2311.563	569.20833
2314.088	588.875
2316.612	569.54167
2319.133	577.54167
2321.653	567.54167
2324.171	556.54167
2326.688	570.875
2329.202	556.20833
2331.715	563.20833
2334.227	575.875
2336.736	572.54167
2339.244	566.20833
2341.751	552.54167
2344.255	575.54167
2346.758	557.875
2349.259	559.875
2351.759	560.54167
2354.257	549.875
2356.753	550.54167
2359.247	562.54167
2361.74	570.20833
2364.231	555.54167
2366.721	577.875
2369.209	546.54167
2371.695	564.54167
2374.179	556.20833
2376.662	544.875
2379.143	566.54167
2381.622	552.875
2384.1	564.54167
2386.576	545.20833
2389.051	573.54167
2391.524	575.875
2393.995	575.20833
2396.464	542.20833
2398.932	543.20833
2401.398	553.20833
2403.863	555.54167
2406.325	560.20833
2408.787	559.20833
2411.246	552.54167
2413.704	556.875
2416.16	557.20833
2418.615	562.875
2421.068	570.875
2423.519	555.20833
2425.969	549.20833
2428.417	565.20833
2430.863	575.875
2433.308	566.54167
2435.751	554.875
2438.193	563.20833
2440.633	571.54167
2443.071	570.20833
2445.508	552.54167
2447.943	549.20833
2450.376	544.875
2452.808	557.20833
2455.238	551.54167
2457.667	589.875
2460.093	551.54167
2462.519	547.54167
2464.942	546.54167
2467.365	568.20833
2469.785	554.20833
2472.204	559.20833
2474.621	540.20833
2477.037	579.875
2479.451	544.20833
2481.863	545.875
2484.274	555.20833
2486.683	556.20833
2489.091	556.20833
2491.497	563.54167
2493.901	553.20833
2496.304	562.54167
2498.705	566.875
2501.105	549.54167
2503.503	583.875
2505.899	554.54167
2508.294	576.54167
2510.687	548.875
2513.079	555.54167
2515.469	553.20833
2517.858	552.54167
2520.245	571.875
2522.63	555.875
2525.014	563.20833
2527.396	554.20833
2529.776	559.20833
2532.156	569.54167
2534.533	550.875
2536.909	551.20833
2539.283	542.875
2541.656	557.20833
2544.027	577.54167
2546.397	566.875
2548.765	566.20833
2551.131	556.54167
2553.496	565.875
2555.86	573.20833
2558.221	560.20833
2560.582	554.20833
2562.94	546.54167
2565.298	557.54167
2567.653	574.875
2570.007	548.54167
2572.36	571.20833
2574.711	564.20833
2577.06	587.875
2579.408	569.875
2581.754	565.875
2584.099	578.54167
2586.442	566.54167
2588.784	570.20833
2591.124	579.20833
2593.463	576.875
2595.8	564.54167
2598.135	554.875
2600.469	567.875
2602.802	585.875
2605.133	579.875
2607.462	562.54167
2609.79	568.20833
2612.116	589.20833
2614.441	578.54167
2616.764	593.875
2619.086	574.875
2621.406	566.54167
2623.725	584.875
2626.042	584.875
2628.358	575.20833
2630.672	582.875
2632.985	602.20833
2635.296	591.875
2637.606	593.875
2639.914	582.54167
2642.22	590.54167
2644.525	592.54167
2646.829	606.875
2649.131	614.20833
2651.432	608.20833
2653.731	612.54167
2656.028	617.54167
2658.324	622.875
2660.619	601.875
2662.912	612.875
2665.204	598.875
2667.494	621.54167
2669.782	608.20833
2672.07	618.54167
2674.355	625.20833
2676.639	621.54167
2678.922	607.20833
2681.203	625.20833
2683.483	608.54167
2685.761	612.875
2688.038	627.54167
2690.313	638.54167
2692.587	630.54167
2694.859	608.875
2697.13	627.54167
2699.399	639.875
2701.667	650.875
2703.933	652.875
2706.198	643.54167
2708.461	661.875
2710.723	671.875
2712.984	658.20833
2715.243	668.20833
2717.5	665.875
2719.757	689.875
2722.011	672.20833
2724.264	682.875
2726.516	704.20833
2728.766	673.20833
2731.015	681.20833
2733.262	686.875
2735.508	686.20833
2737.753	686.54167
2739.996	664.875
2742.237	671.54167
2744.477	686.54167
2746.716	686.20833
2748.953	686.20833
2751.189	679.54167
2753.423	670.875
2755.656	669.20833
2757.887	656.20833
2760.117	669.875
2762.346	665.54167
2764.573	652.20833
2766.798	666.20833
2769.022	678.875
2771.245	679.20833
2773.467	674.875
2775.686	684.54167
2777.905	697.54167
2780.122	704.54167
2782.337	703.20833
2784.552	693.875
2786.764	707.20833
2788.976	709.20833
2791.186	715.20833
2793.394	726.20833
2795.601	737.54167
2797.807	730.20833
2800.011	753.20833
2802.214	750.54167
2804.415	748.875
2806.615	751.875
2808.814	764.20833
2811.011	767.20833
2813.206	770.875
2815.401	792.54167
2817.594	797.20833
2819.785	822.875
2821.975	790.20833
2824.164	806.54167
2826.351	821.875
2828.537	855.54167
2830.722	867.875
2832.905	865.20833
2835.086	891.54167
2837.267	923.875
2839.445	954.875
2841.623	957.20833
2843.799	998.875
2845.974	1030.875
2848.147	1058.875
2850.319	1093.54167
2852.489	1116.54167
2854.659	1113.54167
2856.826	1151.875
2858.993	1164.54167
2861.158	1151.875
2863.321	1165.875
2865.483	1180.54167
2867.644	1183.20833
2869.804	1167.875
2871.962	1156.54167
2874.118	1155.875
2876.274	1164.54167
2878.428	1158.875
2880.58	1157.54167
2882.731	1138.20833
2884.881	1140.875
2887.03	1159.20833
2889.177	1163.875
2891.322	1161.54167
2893.467	1160.875
2895.61	1154.20833
2897.751	1184.54167
2899.892	1188.20833
2902.03	1201.875
2904.168	1190.54167
2906.304	1199.20833
2908.439	1224.20833
2910.572	1198.20833
2912.704	1217.875
2914.835	1225.875
2916.965	1225.875
2919.093	1248.54167
2921.219	1187.20833
2923.345	1211.54167
2925.469	1193.875
2927.591	1183.875
2929.712	1142.54167
2931.832	1161.875
2933.951	1114.54167
2936.068	1109.20833
2938.184	1091.20833
2940.299	1047.20833
2942.412	1034.54167
2944.524	1004.875
2946.634	1006.54167
2948.744	945.20833
2950.851	982.875
2952.958	935.54167
2955.063	930.20833
2957.167	930.875
2959.269	892.875
2961.371	916.20833
2963.471	879.20833
2965.569	890.54167
2967.666	848.20833
2969.762	843.875
2971.857	824.20833
2973.95	808.54167
2976.042	803.54167
2978.133	784.20833
2980.222	780.20833
2982.31	752.875
2984.396	738.54167
2986.482	728.875
2988.566	741.20833
2990.648	729.20833
2992.73	725.54167
2994.81	711.54167
2996.889	721.20833
2998.966	704.54167
3001.042	719.875
3003.117	700.20833
3005.191	709.20833
3007.263	710.20833
3009.334	698.20833
3011.403	696.20833
3013.472	674.875
3015.539	680.875
3017.604	690.20833
3019.669	647.875
3021.732	650.875
3023.794	660.875
3025.854	649.20833
3027.914	637.875
3029.971	653.20833
3032.028	638.875
3034.083	650.54167
3036.137	633.875
3038.19	614.20833
3040.242	611.875
3042.292	589.54167
3044.341	576.875
3046.388	597.54167
3048.435	562.20833
3050.48	583.875
3052.524	574.875
3054.566	551.875
3056.607	571.20833
3058.647	560.20833
3060.686	530.875
3062.723	518.54167
3064.759	498.20833
3066.794	0.875
3068.828	-0.45833
3070.86	-2.125
