-0.839	390.95833
3.438	422.95833
7.711	120.625
11.981	52.29167
16.247	49.29167
20.509	44.625
24.768	48.625
29.024	48.95833
33.276	44.95833
37.524	53.29167
41.769	39.95833
46.01	37.625
50.247	49.95833
54.481	59.95833
58.712	63.29167
62.939	51.625
67.162	62.29167
71.382	61.625
75.599	51.29167
79.812	68.625
84.021	86.95833
88.227	65.95833
92.429	65.95833
96.628	55.95833
100.823	72.95833
105.015	74.625
109.204	78.29167
113.388	83.29167
117.57	76.29167
121.748	92.625
125.922	85.95833
130.093	104.95833
134.261	113.95833
138.425	107.95833
142.585	151.625
146.742	148.625
150.896	182.95833
155.046	224.625
159.193	357.29167
163.336	602.95833
167.476	1110.95833
171.613	2037.95833
175.746	3439.29167
179.875	5128.95833
184.002	6763.625
188.124	7832.29167
192.244	8251.625
196.36	8201.625
200.472	7899.625
204.581	7711.625
208.687	7524.29167
212.79	7475.95833
216.889	7479.29167
220.984	7568.95833
225.077	7636.95833
229.165	7693.95833
233.251	7730.625
237.333	7751.29167
241.412	7712.29167
245.487	7617.95833
249.559	7552.625
253.628	7473.95833
257.694	7396.95833
261.756	7272.29167
265.814	7137.29167
269.87	6956.625
273.922	6786.29167
277.97	6725.29167
282.016	6689.29167
286.058	6723.95833
290.097	6869.95833
294.132	6827.29167
298.164	6744.95833
302.193	6367.625
306.219	5904.625
310.241	5390.29167
314.26	4938.95833
318.276	4542.95833
322.288	4233.29167
326.297	3969.625
330.303	3812.29167
334.305	3688.625
338.305	3589.29167
342.301	3536.29167
346.294	3497.95833
350.283	3459.625
354.269	3434.95833
358.252	3395.625
362.232	3365.95833
366.209	3359.29167
370.182	3321.29167
374.152	3297.29167
378.119	3274.29167
382.083	3280.625
386.043	3294.95833
390	3245.625
393.954	3233.95833
397.905	3184.29167
401.852	3151.95833
405.797	3121.29167
409.738	3088.29167
413.676	3054.95833
417.61	3048.625
421.542	3004.95833
425.47	3000.95833
429.396	2970.95833
433.318	2967.625
437.236	2946.29167
441.152	2949.625
445.065	2876.625
448.974	2869.95833
452.88	2851.625
456.783	2835.625
460.683	2813.29167
464.58	2823.95833
468.473	2818.625
472.364	2846.95833
476.251	2844.29167
480.135	2857.95833
484.016	2879.625
487.894	2872.625
491.769	2914.625
495.641	2934.95833
499.509	2909.625
503.375	2906.95833
507.237	2928.29167
511.096	2913.29167
514.952	3047.29167
518.805	3184.95833
522.655	3211.95833
526.502	3011.95833
530.346	2879.625
534.187	2880.29167
538.024	2884.625
541.859	2869.29167
545.69	2905.625
549.519	2885.29167
553.344	2857.29167
557.166	2835.95833
560.985	2765.95833
564.802	2752.95833
568.615	2698.95833
572.425	2682.95833
576.232	2663.625
580.036	2647.29167
583.836	2672.625
587.634	2659.95833
591.429	2660.95833
595.221	2703.29167
599.01	2756.29167
602.796	2785.95833
606.578	2810.95833
610.358	2793.95833
614.135	2757.625
617.909	2780.95833
621.679	2754.29167
625.447	2745.95833
629.212	2766.95833
632.973	2744.625
636.732	2757.29167
640.488	2763.29167
644.241	2706.29167
647.991	2712.625
651.737	2715.625
655.481	2671.95833
659.222	2643.29167
662.96	2667.29167
666.695	2685.95833
670.427	2697.29167
674.156	2703.95833
677.882	2714.29167
681.605	2707.625
685.325	2675.95833
689.043	2700.29167
692.757	2673.95833
696.468	2704.95833
700.177	2721.95833
703.882	2697.29167
707.585	2710.625
711.284	2694.625
714.981	2727.625
718.675	2718.625
722.366	2742.95833
726.054	2722.625
729.739	2716.95833
733.421	2729.625
737.1	2692.29167
740.777	2737.95833
744.45	2778.95833
748.121	2810.29167
751.789	2869.29167
755.453	2850.625
759.115	2864.625
762.774	2904.95833
766.431	2928.95833
770.084	2945.95833
773.734	2990.29167
777.382	3068.625
781.027	3090.625
784.669	3128.625
788.308	3114.29167
791.944	3144.29167
795.577	3172.95833
799.208	3204.29167
802.835	3206.29167
806.46	3237.625
810.082	3243.625
813.701	3232.95833
817.317	3271.95833
820.931	3265.95833
824.542	3294.625
828.149	3274.625
831.754	3263.625
835.357	3257.95833
838.956	3248.29167
842.553	3264.95833
846.146	3221.95833
849.737	3267.29167
853.326	3250.29167
856.911	3297.29167
860.493	3349.625
864.073	3364.29167
867.65	3426.625
871.225	3458.29167
874.796	3471.95833
878.365	3495.29167
881.931	3506.625
885.494	3578.29167
889.054	3545.95833
892.612	3550.29167
896.166	3504.625
899.719	3503.29167
903.268	3448.625
906.814	3444.29167
910.358	3418.29167
913.899	3355.29167
917.438	3408.95833
920.973	3398.625
924.506	3423.29167
928.036	3459.625
931.564	3485.95833
935.088	3530.95833
938.61	3535.29167
942.129	3596.95833
945.646	3667.625
949.16	3788.95833
952.671	3843.95833
956.179	3847.29167
959.685	3787.29167
963.188	3749.95833
966.688	3683.29167
970.185	3602.625
973.68	3537.625
977.173	3497.29167
980.662	3474.95833
984.149	3525.29167
987.633	3521.29167
991.114	3575.625
994.593	3694.29167
998.069	3799.29167
1001.542	3924.95833
1005.013	3795.29167
1008.481	3586.29167
1011.947	3543.95833
1015.409	3528.625
1018.869	3548.29167
1022.327	3511.29167
1025.782	3483.29167
1029.234	3498.29167
1032.683	3444.625
1036.13	3345.29167
1039.574	3197.95833
1043.016	3103.29167
1046.455	3054.95833
1049.891	2987.625
1053.325	2996.29167
1056.756	3036.625
1060.184	3064.95833
1063.61	3063.625
1067.033	3087.95833
1070.454	3073.95833
1073.872	3103.625
1077.287	3123.29167
1080.7	3126.625
1084.11	3123.95833
1087.517	3099.625
1090.922	3081.95833
1094.325	3055.95833
1097.724	3023.625
1101.122	3020.625
1104.516	3021.95833
1107.908	3052.95833
1111.298	3106.95833
1114.684	3113.29167
1118.069	3140.625
1121.45	3182.29167
1124.83	3201.95833
1128.206	3235.95833
1131.58	3317.625
1134.951	3403.625
1138.32	3508.95833
1141.687	3642.625
1145.05	3756.29167
1148.412	3779.95833
1151.77	3808.95833
1155.126	3795.29167
1158.48	3804.95833
1161.831	3818.625
1165.18	3851.625
1168.525	3913.95833
1171.869	3981.625
1175.21	3994.95833
1178.548	4036.625
1181.884	4058.95833
1185.217	4098.95833
1188.548	4165.29167
1191.877	4216.29167
1195.202	4299.625
1198.526	4370.95833
1201.846	4378.625
1205.165	4384.625
1208.48	4341.29167
1211.794	4305.625
1215.104	4304.95833
1218.413	4326.95833
1221.719	4325.29167
1225.022	4306.29167
1228.323	4255.95833
1231.621	4225.625
1234.917	4212.95833
1238.21	4281.95833
1241.501	4246.95833
1244.79	4264.29167
1248.076	4271.29167
1251.359	4318.95833
1254.64	4394.625
1257.919	4428.625
1261.195	4486.29167
1264.468	4570.625
1267.74	4651.95833
1271.008	4663.95833
1274.275	4585.625
1277.538	4566.625
1280.8	4565.29167
1284.059	4569.29167
1287.315	4588.95833
1290.569	4633.625
1293.821	4650.95833
1297.07	4673.95833
1300.317	4667.95833
1303.562	4647.29167
1306.803	4633.625
1310.043	4565.625
1313.28	4523.29167
1316.515	4442.95833
1319.747	4378.95833
1322.977	4335.95833
1326.204	4257.29167
1329.429	4217.625
1332.652	4176.29167
1335.872	4152.29167
1339.09	4115.29167
1342.306	4126.29167
1345.519	4102.29167
1348.729	4073.95833
1351.938	4049.95833
1355.144	3997.29167
1358.347	3953.29167
1361.548	3949.29167
1364.747	3965.625
1367.944	3956.625
1371.138	3982.95833
1374.329	4034.29167
1377.518	4080.95833
1380.705	4122.95833
1383.89	4058.29167
1387.072	3935.29167
1390.252	3814.625
1393.429	3660.625
1396.605	3571.625
1399.777	3493.95833
1402.948	3454.95833
1406.116	3421.29167
1409.282	3441.29167
1412.445	3455.625
1415.606	3497.625
1418.765	3534.29167
1421.921	3617.29167
1425.075	3710.625
1428.227	3866.29167
1431.376	3991.29167
1434.524	4119.625
1437.668	4199.625
1440.811	4249.29167
1443.951	4249.95833
1447.089	4263.625
1450.224	4283.625
1453.357	4247.625
1456.488	4238.95833
1459.617	4170.625
1462.743	4122.29167
1465.867	4057.29167
1468.989	4017.625
1472.108	3928.29167
1475.225	3872.95833
1478.34	3833.95833
1481.453	3824.625
1484.563	3861.95833
1487.671	3921.29167
1490.776	4036.625
1493.88	4117.95833
1496.981	4216.625
1500.08	4283.625
1503.176	4331.625
1506.271	4415.95833
1509.363	4487.29167
1512.452	4535.29167
1515.54	4619.29167
1518.625	4692.625
1521.708	4863.95833
1524.789	5051.625
1527.867	5352.29167
1530.944	5665.95833
1534.018	5945.29167
1537.089	6166.29167
1540.159	6215.29167
1543.226	6137.29167
1546.291	5966.95833
1549.354	5785.625
1552.415	5608.95833
1555.473	5475.95833
1558.529	5372.95833
1561.583	5312.625
1564.634	5229.625
1567.684	5214.29167
1570.731	5180.95833
1573.776	5243.95833
1576.819	5219.95833
1579.859	5308.29167
1582.898	5324.95833
1585.934	5351.625
1588.968	5390.625
1591.999	5376.29167
1595.029	5353.29167
1598.056	5396.29167
1601.081	5406.625
1604.104	5371.625
1607.125	5287.95833
1610.144	5197.95833
1613.16	5037.29167
1616.174	4908.95833
1619.186	4762.625
1622.196	4643.625
1625.203	4479.95833
1628.209	4406.29167
1631.212	4313.29167
1634.213	4264.625
1637.212	4189.625
1640.209	4114.625
1643.203	4007.29167
1646.196	3899.95833
1649.186	3761.29167
1652.174	3670.29167
1655.16	3523.29167
1658.144	3398.95833
1661.125	3259.29167
1664.105	3100.625
1667.082	2971.29167
1670.057	2811.625
1673.03	2645.29167
1676.001	2498.95833
1678.97	2329.95833
1681.937	2202.29167
1684.901	2106.29167
1687.863	2037.625
1690.824	1934.95833
1693.782	1918.29167
1696.738	1841.625
1699.692	1804.29167
1702.643	1759.95833
1705.593	1728.95833
1708.54	1713.95833
1711.486	1698.29167
1714.429	1666.29167
1717.37	1658.625
1720.309	1621.29167
1723.246	1631.29167
1726.181	1585.625
1729.113	1589.29167
1732.044	1572.95833
1734.972	1558.95833
1737.899	1551.95833
1740.823	1538.95833
1743.745	1528.625
1746.665	1490.29167
1749.583	1460.29167
1752.499	1461.625
1755.413	1413.625
1758.325	1394.29167
1761.235	1392.625
1764.142	1357.625
1767.048	1348.625
1769.951	1331.29167
1772.852	1314.625
1775.752	1321.29167
1778.649	1319.625
1781.544	1306.625
1784.437	1293.625
1787.328	1294.95833
1790.217	1288.95833
1793.104	1253.95833
1795.989	1260.625
1798.872	1240.625
1801.753	1265.95833
1804.631	1259.625
1807.508	1267.29167
1810.383	1256.95833
1813.255	1257.95833
1816.126	1234.625
1818.994	1236.625
1821.861	1230.95833
1824.725	1234.95833
1827.587	1211.29167
1830.448	1221.95833
1833.306	1192.625
1836.162	1203.95833
1839.017	1191.95833
1841.869	1196.625
1844.719	1191.95833
1847.567	1169.625
1850.414	1162.29167
1853.258	1165.625
1856.1	1190.625
1858.94	1174.625
1861.778	1170.95833
1864.614	1168.625
1867.448	1168.29167
1870.28	1151.625
1873.111	1173.95833
1875.939	1176.625
1878.765	1181.95833
1881.589	1149.625
1884.411	1151.625
1887.231	1164.29167
1890.049	1149.29167
1892.865	1151.95833
1895.68	1143.29167
1898.492	1126.95833
1901.302	1123.29167
1904.11	1127.95833
1906.916	1124.95833
1909.721	1118.95833
1912.523	1124.95833
1915.323	1102.625
1918.122	1091.29167
1920.918	1115.95833
1923.712	1101.29167
1926.505	1101.625
1929.295	1083.625
1932.084	1108.625
1934.87	1111.625
1937.655	1082.29167
1940.438	1093.29167
1943.218	1098.95833
1945.997	1100.29167
1948.774	1099.625
1951.549	1102.625
1954.322	1087.95833
1957.093	1095.625
1959.862	1071.29167
1962.629	1098.29167
1965.394	1062.95833
1968.157	1068.29167
1970.918	1073.95833
1973.678	1065.29167
1976.435	1069.95833
1979.19	1068.29167
1981.944	1063.29167
1984.696	1045.29167
1987.445	1046.625
1990.193	1056.95833
1992.939	1067.29167
1995.683	1049.625
1998.425	1021.625
2001.165	1059.95833
2003.903	1026.625
2006.639	1041.29167
2009.374	1033.95833
2012.106	1036.29167
2014.837	1029.29167
2017.566	1032.29167
2020.292	1030.29167
2023.017	1036.625
2025.74	1034.95833
2028.461	1015.625
2031.18	1026.95833
2033.898	1019.95833
2036.613	1024.95833
2039.327	1021.29167
2042.038	1003.29167
2044.748	1014.29167
2047.456	1012.625
2050.162	1006.95833
2052.866	1003.95833
2055.568	1022.625
2058.268	998.95833
2060.967	1029.29167
2063.663	1009.29167
2066.358	997.625
2069.051	989.29167
2071.742	1005.95833
2074.431	1012.95833
2077.118	1016.95833
2079.804	990.625
2082.487	1012.29167
2085.169	1028.29167
2087.849	1049.29167
2090.527	1030.29167
2093.203	1039.95833
2095.877	1066.95833
2098.55	1054.625
2101.22	1094.29167
2103.889	1107.625
2106.556	1116.625
2109.221	1189.95833
2111.884	1237.95833
2114.546	1363.29167
2117.205	1476.95833
2119.863	1625.95833
2122.519	1764.29167
2125.173	1911.625
2127.825	2024.95833
2130.475	2017.29167
2133.124	1964.95833
2135.771	1865.29167
2138.416	1750.95833
2141.059	1622.29167
2143.7	1545.625
2146.339	1447.29167
2148.977	1351.95833
2151.613	1335.625
2154.247	1244.29167
2156.879	1232.95833
2159.51	1179.95833
2162.138	1150.625
2164.765	1143.625
2167.39	1125.29167
2170.013	1128.625
2172.634	1110.625
2175.254	1094.29167
2177.872	1100.625
2180.488	1057.29167
2183.102	1067.29167
2185.714	1041.95833
2188.325	1030.625
2190.934	1034.625
2193.541	1022.625
2196.146	1005.95833
2198.75	988.29167
2201.351	1005.29167
2203.951	958.95833
2206.549	977.95833
2209.146	968.625
2211.74	948.625
2214.333	953.95833
2216.924	928.29167
2219.514	939.625
2222.101	924.29167
2224.687	934.29167
2227.271	915.29167
2229.853	911.625
2232.433	890.95833
2235.012	919.625
2237.589	917.29167
2240.164	914.29167
2242.738	905.95833
2245.309	881.625
2247.879	892.95833
2250.448	885.95833
2253.014	861.95833
2255.579	861.625
2258.142	859.29167
2260.703	843.95833
2263.262	849.95833
2265.82	832.95833
2268.376	830.29167
2270.93	838.29167
2273.483	822.625
2276.033	825.29167
2278.583	816.29167
2281.13	817.29167
2283.675	817.29167
2286.219	812.29167
2288.761	820.29167
2291.302	798.95833
2293.841	818.625
2296.377	795.625
2298.913	804.625
2301.446	816.95833
2303.978	795.625
2306.508	798.29167
2309.037	789.95833
2311.563	794.29167
2314.088	805.625
2316.612	782.95833
2319.133	788.625
2321.653	771.95833
2324.171	773.625
2326.688	793.29167
2329.202	761.625
2331.715	778.95833
2334.227	778.625
2336.736	773.29167
2339.244	764.29167
2341.751	757.625
2344.255	767.29167
2346.758	761.29167
2349.259	750.29167
2351.759	763.95833
2354.257	760.29167
2356.753	749.95833
2359.247	757.95833
2361.74	770.29167
2364.231	754.95833
2366.721	762.29167
2369.209	753.29167
2371.695	747.625
2374.179	747.29167
2376.662	743.625
2379.143	762.95833
2381.622	746.95833
2384.1	752.625
2386.576	747.95833
2389.051	764.95833
2391.524	773.95833
2393.995	746.95833
2396.464	737.625
2398.932	734.95833
2401.398	741.95833
2403.863	739.625
2406.325	725.29167
2408.787	728.625
2411.246	737.29167
2413.704	730.29167
2416.16	728.29167
2418.615	730.625
2421.068	746.625
2423.519	731.29167
2425.969	736.625
2428.417	738.95833
2430.863	756.625
2433.308	742.29167
2435.751	740.625
2438.193	727.625
2440.633	731.29167
2443.071	745.625
2445.508	722.95833
2447.943	733.29167
2450.376	717.625
2452.808	732.95833
2455.238	724.625
2457.667	752.95833
2460.093	726.95833
2462.519	707.29167
2464.942	721.625
2467.365	735.29167
2469.785	730.625
2472.204	726.625
2474.621	708.29167
2477.037	723.29167
2479.451	709.625
2481.863	704.29167
2484.274	699.29167
2486.683	712.29167
2489.091	730.95833
2491.497	708.29167
2493.901	703.625
2496.304	706.29167
2498.705	713.625
2501.105	700.95833
2503.503	734.625
2505.899	700.95833
2508.294	719.95833
2510.687	699.95833
2513.079	701.29167
2515.469	700.29167
2517.858	695.625
2520.245	711.29167
2522.63	705.625
2525.014	694.95833
2527.396	689.625
2529.776	687.95833
2532.156	703.95833
2534.533	681.29167
2536.909	704.95833
2539.283	687.95833
2541.656	698.625
2544.027	719.29167
2546.397	702.625
2548.765	695.95833
2551.131	696.625
2553.496	694.29167
2555.86	712.95833
2558.221	696.95833
2560.582	703.29167
2562.94	699.625
2565.298	705.625
2567.653	714.29167
2570.007	688.625
2572.36	692.95833
2574.711	695.95833
2577.06	707.95833
2579.408	711.95833
2581.754	696.29167
2584.099	696.625
2586.442	701.95833
2588.784	711.29167
2591.124	706.95833
2593.463	694.29167
2595.8	688.95833
2598.135	678.625
2600.469	695.625
2602.802	716.95833
2605.133	709.625
2607.462	686.29167
2609.79	702.95833
2612.116	711.95833
2614.441	696.95833
2616.764	701.625
2619.086	702.625
2621.406	698.625
2623.725	709.625
2626.042	697.95833
2628.358	704.95833
2630.672	714.625
2632.985	708.29167
2635.296	710.625
2637.606	727.29167
2639.914	703.625
2642.22	707.625
2644.525	709.625
2646.829	708.625
2649.131	726.95833
2651.432	738.95833
2653.731	715.29167
2656.028	733.29167
2658.324	742.95833
2660.619	712.625
2662.912	726.95833
2665.204	722.29167
2667.494	741.625
2669.782	729.95833
2672.07	735.95833
2674.355	739.95833
2676.639	722.29167
2678.922	724.95833
2681.203	742.29167
2683.483	719.29167
2685.761	723.95833
2688.038	747.625
2690.313	755.95833
2692.587	743.95833
2694.859	744.29167
2697.13	745.625
2699.399	756.95833
2701.667	770.625
2703.933	779.625
2706.198	764.625
2708.461	775.95833
2710.723	789.29167
2712.984	773.29167
2715.243	790.625
2717.5	774.29167
2719.757	802.29167
2722.011	793.95833
2724.264	798.95833
2726.516	805.95833
2728.766	806.95833
2731.015	791.95833
2733.262	805.625
2735.508	792.29167
2737.753	800.29167
2739.996	783.29167
2742.237	785.625
2744.477	795.29167
2746.716	785.29167
2748.953	780.95833
2751.189	784.95833
2753.423	762.625
2755.656	772.625
2757.887	764.29167
2760.117	770.29167
2762.346	775.625
2764.573	763.625
2766.798	773.95833
2769.022	778.29167
2771.245	783.625
2773.467	780.625
2775.686	787.29167
2777.905	806.95833
2780.122	798.625
2782.337	811.95833
2784.552	797.29167
2786.764	818.625
2788.976	831.625
2791.186	840.29167
2793.394	834.625
2795.601	858.625
2797.807	870.29167
2800.011	884.625
2802.214	901.625
2804.415	907.95833
2806.615	890.29167
2808.814	919.95833
2811.011	931.625
2813.206	933.625
2815.401	955.29167
2817.594	973.625
2819.785	972.625
2821.975	975.625
2824.164	990.29167
2826.351	1004.29167
2828.537	1018.95833
2830.722	1051.625
2832.905	1068.625
2835.086	1096.95833
2837.267	1129.29167
2839.445	1167.29167
2841.623	1181.29167
2843.799	1225.95833
2845.974	1280.625
2848.147	1333.95833
2850.319	1352.625
2852.489	1415.625
2854.659	1406.29167
2856.826	1439.95833
2858.993	1450.95833
2861.158	1427.29167
2863.321	1418.29167
2865.483	1451.625
2867.644	1448.625
2869.804	1452.625
2871.962	1425.625
2874.118	1454.29167
2876.274	1424.625
2878.428	1413.29167
2880.58	1415.95833
2882.731	1412.95833
2884.881	1423.95833
2887.03	1406.29167
2889.177	1415.95833
2891.322	1434.29167
2893.467	1419.95833
2895.61	1432.95833
2897.751	1451.95833
2899.892	1448.95833
2902.03	1455.95833
2904.168	1474.29167
2906.304	1474.95833
2908.439	1492.625
2910.572	1456.625
2912.704	1478.95833
2914.835	1489.625
2916.965	1482.625
2919.093	1501.625
2921.219	1461.95833
2923.345	1455.29167
2925.469	1440.95833
2927.591	1423.29167
2929.712	1373.95833
2931.832	1369.95833
2933.951	1344.29167
2936.068	1320.625
2938.184	1283.29167
2940.299	1241.29167
2942.412	1219.95833
2944.524	1173.95833
2946.634	1151.625
2948.744	1096.625
2950.851	1119.29167
2952.958	1056.625
2955.063	1041.29167
2957.167	1033.95833
2959.269	978.625
2961.371	985.625
2963.471	944.625
2965.569	959.29167
2967.666	916.95833
2969.762	906.625
2971.857	879.29167
2973.95	867.95833
2976.042	859.625
2978.133	819.95833
2980.222	827.625
2982.31	782.29167
2984.396	768.29167
2986.482	775.625
2988.566	762.625
2990.648	748.95833
2992.73	735.95833
2994.81	745.625
2996.889	740.625
2998.966	717.29167
3001.042	732.625
3003.117	718.95833
3005.191	721.625
3007.263	705.29167
3009.334	696.29167
3011.403	701.29167
3013.472	670.29167
3015.539	671.29167
3017.604	679.95833
3019.669	647.95833
3021.732	643.625
3023.794	648.625
3025.854	628.625
3027.914	633.29167
3029.971	634.95833
3032.028	638.95833
3034.083	630.625
3036.137	624.95833
3038.19	595.29167
3040.242	580.625
3042.292	575.95833
3044.341	568.29167
3046.388	577.625
3048.435	550.95833
3050.48	569.29167
3052.524	547.95833
3054.566	535.625
3056.607	542.29167
3058.647	538.625
3060.686	514.95833
3062.723	499.29167
3064.759	485.29167
3066.794	0.625
3068.828	-0.04167
3070.86	-3.04167
