-0.839	416.875
3.438	444.20833
7.711	123.54167
11.981	49.875
16.247	45.875
20.509	43.20833
24.768	44.875
29.024	47.875
33.276	42.54167
37.524	46.875
41.769	41.54167
46.01	35.20833
50.247	46.875
54.481	58.20833
58.712	66.54167
62.939	49.20833
67.162	60.875
71.382	52.54167
75.599	45.20833
79.812	65.20833
84.021	80.875
88.227	57.54167
92.429	61.20833
96.628	46.875
100.823	64.20833
105.015	76.20833
109.204	71.875
113.388	76.875
117.57	69.875
121.748	88.875
125.922	81.54167
130.093	92.20833
134.261	99.875
138.425	100.875
142.585	135.54167
146.742	136.20833
150.896	155.54167
155.046	196.875
159.193	323.875
163.336	547.875
167.476	1012.54167
171.613	1858.875
175.746	3069.20833
179.875	4569.20833
184.002	5922.54167
188.124	6823.20833
192.244	7058.875
196.36	6923.54167
200.472	6635.20833
204.581	6413.20833
208.687	6124.20833
212.79	5996.54167
216.889	5948.54167
220.984	5895.20833
225.077	5857.54167
229.165	5831.20833
233.251	5865.20833
237.333	5827.875
241.412	5788.875
245.487	5712.20833
249.559	5597.54167
253.628	5544.20833
257.694	5526.875
261.756	5445.875
265.814	5337.54167
269.87	5196.875
273.922	5048.20833
277.97	5011.20833
282.016	5004.875
286.058	4997.875
290.097	5073.54167
294.132	5129.875
298.164	5067.20833
302.193	4846.54167
306.219	4472.875
310.241	4051.875
314.26	3701.20833
318.276	3393.54167
322.288	3176.20833
326.297	2994.20833
330.303	2861.54167
334.305	2749.54167
338.305	2689.875
342.301	2652.54167
346.294	2635.875
350.283	2577.20833
354.269	2539.875
358.252	2496.20833
362.232	2494.54167
366.209	2483.54167
370.182	2445.875
374.152	2416.875
378.119	2432.875
382.083	2400.20833
386.043	2432.875
390	2370.875
393.954	2375.875
397.905	2346.54167
401.852	2368.20833
405.797	2312.54167
409.738	2293.20833
413.676	2308.20833
417.61	2282.20833
421.542	2257.875
425.47	2236.20833
429.396	2237.54167
433.318	2188.875
437.236	2176.875
441.152	2181.20833
445.065	2132.875
448.974	2137.875
452.88	2138.20833
456.783	2101.20833
460.683	2075.20833
464.58	2091.875
468.473	2103.875
472.364	2094.54167
476.251	2119.20833
480.135	2107.54167
484.016	2135.54167
487.894	2138.54167
491.769	2161.20833
495.641	2178.875
499.509	2170.875
503.375	2153.54167
507.237	2168.54167
511.096	2189.54167
514.952	2270.875
518.805	2369.54167
522.655	2405.20833
526.502	2257.54167
530.346	2146.20833
534.187	2146.875
538.024	2165.54167
541.859	2137.875
545.69	2165.875
549.519	2142.54167
553.344	2139.54167
557.166	2092.54167
560.985	2066.54167
564.802	2050.20833
568.615	2024.20833
572.425	1971.54167
576.232	1971.20833
580.036	1968.875
583.836	1990.875
587.634	1998.54167
591.429	1986.54167
595.221	2040.54167
599.01	2031.875
602.796	2074.54167
606.578	2079.54167
610.358	2076.54167
614.135	2062.875
617.909	2062.875
621.679	2067.54167
625.447	2040.875
629.212	2053.20833
632.973	2064.875
636.732	2034.54167
640.488	2053.54167
644.241	2012.20833
647.991	2019.54167
651.737	2028.875
655.481	1984.54167
659.222	2011.54167
662.96	1993.54167
666.695	2016.20833
670.427	2024.20833
674.156	2027.20833
677.882	2016.54167
681.605	2020.54167
685.325	2007.875
689.043	2005.20833
692.757	1988.20833
696.468	1999.875
700.177	2019.54167
703.882	1993.54167
707.585	1988.875
711.284	1985.875
714.981	1974.20833
718.675	2005.875
722.366	2014.20833
726.054	2002.20833
729.739	2012.20833
733.421	2012.20833
737.1	2017.875
740.777	2039.875
744.45	2027.875
748.121	2040.875
751.789	2085.20833
755.453	2067.54167
759.115	2102.875
762.774	2109.20833
766.431	2140.20833
770.084	2166.54167
773.734	2177.875
777.382	2210.875
781.027	2238.54167
784.669	2251.20833
788.308	2266.20833
791.944	2273.20833
795.577	2290.20833
799.208	2322.875
802.835	2324.20833
806.46	2352.54167
810.082	2357.54167
813.701	2369.54167
817.317	2380.20833
820.931	2363.875
824.542	2386.875
828.149	2350.20833
831.754	2341.20833
835.357	2328.875
838.956	2344.20833
842.553	2345.54167
846.146	2323.875
849.737	2316.20833
853.326	2342.875
856.911	2320.20833
860.493	2368.875
864.073	2388.54167
867.65	2423.20833
871.225	2446.875
874.796	2439.54167
878.365	2461.54167
881.931	2457.54167
885.494	2495.875
889.054	2484.54167
892.612	2490.54167
896.166	2480.20833
899.719	2454.20833
903.268	2430.20833
906.814	2403.20833
910.358	2400.54167
913.899	2359.875
917.438	2384.54167
920.973	2351.875
924.506	2389.20833
928.036	2428.875
931.564	2443.875
935.088	2481.54167
938.61	2485.54167
942.129	2486.54167
945.646	2586.54167
949.16	2617.54167
952.671	2691.875
956.179	2702.54167
959.685	2658.54167
963.188	2665.20833
966.688	2616.54167
970.185	2536.875
973.68	2497.20833
977.173	2499.54167
980.662	2472.20833
984.149	2494.20833
987.633	2479.54167
991.114	2499.20833
994.593	2596.875
998.069	2661.54167
1001.542	2726.875
1005.013	2672.20833
1008.481	2516.20833
1011.947	2487.875
1015.409	2484.20833
1018.869	2483.54167
1022.327	2477.54167
1025.782	2448.875
1029.234	2450.875
1032.683	2416.54167
1036.13	2347.54167
1039.574	2261.20833
1043.016	2201.20833
1046.455	2151.875
1049.891	2125.54167
1053.325	2145.54167
1056.756	2154.54167
1060.184	2162.20833
1063.61	2182.54167
1067.033	2179.20833
1070.454	2209.20833
1073.872	2197.875
1077.287	2219.20833
1080.7	2220.54167
1084.11	2224.54167
1087.517	2190.54167
1090.922	2163.54167
1094.325	2163.20833
1097.724	2127.20833
1101.122	2118.875
1104.516	2120.20833
1107.908	2134.20833
1111.298	2147.20833
1114.684	2197.54167
1118.069	2223.875
1121.45	2233.875
1124.83	2248.54167
1128.206	2254.875
1131.58	2292.20833
1134.951	2381.20833
1138.32	2442.54167
1141.687	2541.875
1145.05	2624.20833
1148.412	2625.875
1151.77	2631.20833
1155.126	2616.54167
1158.48	2601.54167
1161.831	2631.54167
1165.18	2655.54167
1168.525	2685.875
1171.869	2715.54167
1175.21	2743.875
1178.548	2768.20833
1181.884	2788.54167
1185.217	2817.875
1188.548	2882.54167
1191.877	2889.875
1195.202	2971.54167
1198.526	3020.875
1201.846	3025.20833
1205.165	3022.54167
1208.48	3019.54167
1211.794	2990.20833
1215.104	2991.20833
1218.413	3008.20833
1221.719	2982.875
1225.022	2965.54167
1228.323	2923.54167
1231.621	2921.20833
1234.917	2894.875
1238.21	2940.54167
1241.501	2906.54167
1244.79	2905.20833
1248.076	2911.875
1251.359	2934.54167
1254.64	3015.875
1257.919	3010.54167
1261.195	3054.54167
1264.468	3141.875
1267.74	3195.875
1271.008	3165.54167
1274.275	3169.875
1277.538	3144.20833
1280.8	3134.875
1284.059	3132.20833
1287.315	3148.20833
1290.569	3156.54167
1293.821	3185.20833
1297.07	3216.20833
1300.317	3223.20833
1303.562	3186.54167
1306.803	3203.20833
1310.043	3151.20833
1313.28	3105.875
1316.515	3095.54167
1319.747	3042.20833
1322.977	3027.54167
1326.204	2967.875
1329.429	2950.875
1332.652	2925.875
1335.872	2907.20833
1339.09	2877.54167
1342.306	2860.875
1345.519	2834.875
1348.729	2834.54167
1351.938	2813.20833
1355.144	2785.20833
1358.347	2714.54167
1361.548	2731.875
1364.747	2747.20833
1367.944	2720.875
1371.138	2726.54167
1374.329	2741.875
1377.518	2805.54167
1380.705	2842.20833
1383.89	2811.54167
1387.072	2731.20833
1390.252	2617.875
1393.429	2544.875
1396.605	2456.875
1399.777	2391.20833
1402.948	2357.875
1406.116	2352.875
1409.282	2380.54167
1412.445	2357.875
1415.606	2387.20833
1418.765	2442.20833
1421.921	2471.54167
1425.075	2537.20833
1428.227	2618.20833
1431.376	2739.54167
1434.524	2827.20833
1437.668	2901.20833
1440.811	2937.20833
1443.951	2942.54167
1447.089	2971.20833
1450.224	2981.54167
1453.357	2963.54167
1456.488	2924.875
1459.617	2874.54167
1462.743	2845.875
1465.867	2772.54167
1468.989	2736.875
1472.108	2680.54167
1475.225	2640.54167
1478.34	2594.54167
1481.453	2602.875
1484.563	2618.54167
1487.671	2649.875
1490.776	2691.20833
1493.88	2766.20833
1496.981	2812.20833
1500.08	2857.875
1503.176	2895.875
1506.271	2944.20833
1509.363	2987.875
1512.452	3002.54167
1515.54	3070.20833
1518.625	3108.875
1521.708	3232.875
1524.789	3376.54167
1527.867	3517.54167
1530.944	3735.54167
1534.018	3936.54167
1537.089	4076.20833
1540.159	4093.875
1543.226	4068.20833
1546.291	3942.54167
1549.354	3858.20833
1552.415	3736.54167
1555.473	3610.54167
1558.529	3548.20833
1561.583	3525.20833
1564.634	3483.20833
1567.684	3471.20833
1570.731	3464.54167
1573.776	3499.54167
1576.819	3543.20833
1579.859	3537.20833
1582.898	3579.54167
1585.934	3607.875
1588.968	3620.20833
1591.999	3614.54167
1595.029	3612.54167
1598.056	3639.54167
1601.081	3659.20833
1604.104	3621.875
1607.125	3582.20833
1610.144	3511.20833
1613.16	3431.54167
1616.174	3355.875
1619.186	3260.20833
1622.196	3192.54167
1625.203	3080.54167
1628.209	3047.20833
1631.212	3034.20833
1634.213	2982.20833
1637.212	2941.875
1640.209	2893.54167
1643.203	2815.20833
1646.196	2758.54167
1649.186	2650.875
1652.174	2606.20833
1655.16	2502.875
1658.144	2426.875
1661.125	2327.875
1664.105	2219.875
1667.082	2122.20833
1670.057	2012.875
1673.03	1901.20833
1676.001	1787.54167
1678.97	1664.875
1681.937	1554.20833
1684.901	1460.875
1687.863	1436.875
1690.824	1357.54167
1693.782	1329.20833
1696.738	1282.20833
1699.692	1241.20833
1702.643	1235.54167
1705.593	1222.54167
1708.54	1208.20833
1711.486	1193.20833
1714.429	1168.20833
1717.37	1149.875
1720.309	1137.875
1723.246	1146.875
1726.181	1100.875
1729.113	1125.20833
1732.044	1096.875
1734.972	1090.54167
1737.899	1106.875
1740.823	1072.875
1743.745	1077.20833
1746.665	1032.875
1749.583	1007.54167
1752.499	1017.54167
1755.413	994.20833
1758.325	976.54167
1761.235	968.54167
1764.142	958.875
1767.048	941.20833
1769.951	941.875
1772.852	935.54167
1775.752	924.54167
1778.649	927.54167
1781.544	926.20833
1784.437	906.20833
1787.328	912.54167
1790.217	899.875
1793.104	877.20833
1795.989	890.20833
1798.872	870.54167
1801.753	895.875
1804.631	894.20833
1807.508	895.54167
1810.383	882.875
1813.255	858.875
1816.126	858.20833
1818.994	870.875
1821.861	858.20833
1824.725	845.20833
1827.587	859.54167
1830.448	850.54167
1833.306	832.20833
1836.162	847.20833
1839.017	826.875
1841.869	841.875
1844.719	831.20833
1847.567	828.54167
1850.414	820.20833
1853.258	808.20833
1856.1	824.54167
1858.94	836.54167
1861.778	814.875
1864.614	798.20833
1867.448	826.20833
1870.28	804.20833
1873.111	829.875
1875.939	818.875
1878.765	824.54167
1881.589	811.875
1884.411	817.54167
1887.231	804.54167
1890.049	804.54167
1892.865	810.20833
1895.68	795.20833
1898.492	807.875
1901.302	792.875
1904.11	783.20833
1906.916	784.20833
1909.721	780.875
1912.523	793.875
1915.323	773.20833
1918.122	781.20833
1920.918	782.875
1923.712	762.20833
1926.505	777.875
1929.295	760.875
1932.084	785.54167
1934.87	774.20833
1937.655	761.875
1940.438	756.20833
1943.218	765.875
1945.997	768.20833
1948.774	775.20833
1951.549	763.875
1954.322	762.54167
1957.093	772.54167
1959.862	753.54167
1962.629	757.54167
1965.394	755.20833
1968.157	733.54167
1970.918	758.54167
1973.678	746.54167
1976.435	745.54167
1979.19	737.875
1981.944	739.875
1984.696	731.875
1987.445	728.54167
1990.193	731.20833
1992.939	747.54167
1995.683	730.20833
1998.425	725.54167
2001.165	756.875
2003.903	725.20833
2006.639	721.20833
2009.374	717.54167
2012.106	736.54167
2014.837	701.875
2017.566	731.54167
2020.292	734.875
2023.017	725.20833
2025.74	724.54167
2028.461	711.54167
2031.18	717.20833
2033.898	713.875
2036.613	728.875
2039.327	732.875
2042.038	695.875
2044.748	715.20833
2047.456	706.20833
2050.162	692.875
2052.866	696.54167
2055.568	706.875
2058.268	694.54167
2060.967	705.54167
2063.663	692.20833
2066.358	703.20833
2069.051	686.875
2071.742	704.20833
2074.431	708.54167
2077.118	697.20833
2079.804	680.54167
2082.487	693.20833
2085.169	706.54167
2087.849	716.20833
2090.527	705.875
2093.203	707.875
2095.877	712.875
2098.55	723.875
2101.22	730.20833
2103.889	751.875
2106.556	729.875
2109.221	771.20833
2111.884	773.20833
2114.546	840.20833
2117.205	894.20833
2119.863	973.875
2122.519	1037.54167
2125.173	1092.20833
2127.825	1181.20833
2130.475	1197.54167
2133.124	1154.54167
2135.771	1112.54167
2138.416	1072.54167
2141.059	988.54167
2143.7	952.54167
2146.339	887.20833
2148.977	833.20833
2151.613	827.875
2154.247	795.20833
2156.879	793.20833
2159.51	775.54167
2162.138	754.875
2164.765	750.54167
2167.39	732.875
2170.013	745.20833
2172.634	733.54167
2175.254	722.20833
2177.872	751.20833
2180.488	707.20833
2183.102	726.20833
2185.714	702.20833
2188.325	675.54167
2190.934	691.875
2193.541	689.875
2196.146	683.20833
2198.75	665.54167
2201.351	674.54167
2203.951	661.875
2206.549	676.875
2209.146	654.20833
2211.74	651.875
2214.333	663.54167
2216.924	649.875
2219.514	661.20833
2222.101	638.20833
2224.687	648.875
2227.271	646.875
2229.853	631.875
2232.433	633.20833
2235.012	648.54167
2237.589	640.54167
2240.164	641.54167
2242.738	623.20833
2245.309	634.54167
2247.879	629.875
2250.448	640.875
2253.014	614.875
2255.579	601.20833
2258.142	605.54167
2260.703	596.20833
2263.262	599.54167
2265.82	594.20833
2268.376	601.54167
2270.93	595.875
2273.483	591.875
2276.033	598.875
2278.583	583.54167
2281.13	591.20833
2283.675	583.20833
2286.219	584.20833
2288.761	583.20833
2291.302	584.20833
2293.841	590.54167
2296.377	563.54167
2298.913	575.20833
2301.446	596.54167
2303.978	586.875
2306.508	572.20833
2309.037	586.20833
2311.563	585.54167
2314.088	595.875
2316.612	568.875
2319.133	584.54167
2321.653	574.875
2324.171	562.875
2326.688	574.20833
2329.202	573.20833
2331.715	582.54167
2334.227	575.875
2336.736	562.20833
2339.244	569.875
2341.751	561.20833
2344.255	574.20833
2346.758	560.875
2349.259	554.20833
2351.759	556.54167
2354.257	559.54167
2356.753	561.54167
2359.247	554.875
2361.74	567.20833
2364.231	563.54167
2366.721	563.54167
2369.209	554.20833
2371.695	559.20833
2374.179	549.20833
2376.662	555.20833
2379.143	574.875
2381.622	560.875
2384.1	559.875
2386.576	560.54167
2389.051	575.875
2391.524	577.20833
2393.995	563.20833
2396.464	563.20833
2398.932	551.20833
2401.398	555.20833
2403.863	559.20833
2406.325	554.20833
2408.787	547.875
2411.246	569.54167
2413.704	546.20833
2416.16	557.875
2418.615	551.875
2421.068	568.54167
2423.519	549.54167
2425.969	554.875
2428.417	553.875
2430.863	586.20833
2433.308	563.54167
2435.751	570.20833
2438.193	557.20833
2440.633	571.875
2443.071	557.54167
2445.508	562.54167
2447.943	562.20833
2450.376	554.20833
2452.808	563.20833
2455.238	558.20833
2457.667	588.875
2460.093	558.875
2462.519	542.875
2464.942	553.875
2467.365	563.54167
2469.785	553.20833
2472.204	562.875
2474.621	546.20833
2477.037	571.20833
2479.451	563.20833
2481.863	546.875
2484.274	547.54167
2486.683	553.20833
2489.091	566.54167
2491.497	566.20833
2493.901	549.875
2496.304	543.20833
2498.705	561.875
2501.105	548.54167
2503.503	588.54167
2505.899	550.20833
2508.294	565.875
2510.687	557.875
2513.079	558.54167
2515.469	562.875
2517.858	555.875
2520.245	574.875
2522.63	555.54167
2525.014	559.54167
2527.396	554.875
2529.776	558.54167
2532.156	557.20833
2534.533	552.20833
2536.909	554.54167
2539.283	546.875
2541.656	553.54167
2544.027	583.54167
2546.397	572.20833
2548.765	563.20833
2551.131	564.875
2553.496	572.20833
2555.86	569.875
2558.221	563.20833
2560.582	566.875
2562.94	557.875
2565.298	563.54167
2567.653	582.20833
2570.007	554.875
2572.36	580.875
2574.711	568.54167
2577.06	584.875
2579.408	566.20833
2581.754	566.20833
2584.099	576.54167
2586.442	564.20833
2588.784	578.54167
2591.124	575.54167
2593.463	573.20833
2595.8	577.20833
2598.135	562.20833
2600.469	577.875
2602.802	587.875
2605.133	590.54167
2607.462	576.875
2609.79	581.54167
2612.116	581.875
2614.441	581.20833
2616.764	589.875
2619.086	577.20833
2621.406	573.875
2623.725	595.54167
2626.042	585.875
2628.358	583.54167
2630.672	585.875
2632.985	599.875
2635.296	600.54167
2637.606	602.875
2639.914	582.20833
2642.22	594.875
2644.525	591.875
2646.829	601.54167
2649.131	608.20833
2651.432	620.20833
2653.731	607.54167
2656.028	611.875
2658.324	609.875
2660.619	598.20833
2662.912	625.54167
2665.204	604.875
2667.494	631.875
2669.782	614.20833
2672.07	624.875
2674.355	631.54167
2676.639	616.20833
2678.922	619.20833
2681.203	632.54167
2683.483	603.875
2685.761	614.54167
2688.038	634.875
2690.313	645.54167
2692.587	637.20833
2694.859	631.54167
2697.13	644.20833
2699.399	641.20833
2701.667	646.54167
2703.933	655.54167
2706.198	652.54167
2708.461	659.875
2710.723	659.54167
2712.984	665.875
2715.243	671.20833
2717.5	670.54167
2719.757	688.54167
2722.011	667.54167
2724.264	678.20833
2726.516	696.20833
2728.766	681.875
2731.015	670.875
2733.262	689.875
2735.508	687.20833
2737.753	688.875
2739.996	668.20833
2742.237	678.54167
2744.477	683.54167
2746.716	685.20833
2748.953	673.20833
2751.189	672.20833
2753.423	666.20833
2755.656	667.875
2757.887	664.20833
2760.117	665.875
2762.346	663.20833
2764.573	655.20833
2766.798	661.20833
2769.022	676.54167
2771.245	676.20833
2773.467	670.875
2775.686	675.54167
2777.905	689.54167
2780.122	691.20833
2782.337	696.20833
2784.552	683.875
2786.764	702.54167
2788.976	705.875
2791.186	721.54167
2793.394	719.875
2795.601	730.54167
2797.807	737.875
2800.011	745.54167
2802.214	756.54167
2804.415	758.20833
2806.615	752.875
2808.814	779.875
2811.011	775.20833
2813.206	769.54167
2815.401	798.54167
2817.594	796.54167
2819.785	801.20833
2821.975	806.54167
2824.164	804.54167
2826.351	835.54167
2828.537	838.20833
2830.722	862.20833
2832.905	859.54167
2835.086	878.875
2837.267	930.20833
2839.445	953.875
2841.623	965.54167
2843.799	994.54167
2845.974	1024.875
2848.147	1061.875
2850.319	1076.54167
2852.489	1113.875
2854.659	1125.875
2856.826	1142.54167
2858.993	1160.54167
2861.158	1149.20833
2863.321	1146.20833
2865.483	1178.875
2867.644	1181.20833
2869.804	1164.54167
2871.962	1151.875
2874.118	1167.54167
2876.274	1161.20833
2878.428	1155.54167
2880.58	1155.54167
2882.731	1139.875
2884.881	1153.20833
2887.03	1139.875
2889.177	1149.54167
2891.322	1165.20833
2893.467	1164.54167
2895.61	1161.20833
2897.751	1192.875
2899.892	1182.875
2902.03	1197.20833
2904.168	1187.54167
2906.304	1204.54167
2908.439	1216.875
2910.572	1204.20833
2912.704	1219.875
2914.835	1222.54167
2916.965	1202.875
2919.093	1220.54167
2921.219	1203.20833
2923.345	1209.875
2925.469	1205.20833
2927.591	1205.54167
2929.712	1155.54167
2931.832	1151.54167
2933.951	1119.20833
2936.068	1107.875
2938.184	1083.20833
2940.299	1054.875
2942.412	1040.875
2944.524	1000.875
2946.634	996.20833
2948.744	956.20833
2950.851	983.875
2952.958	942.20833
2955.063	938.875
2957.167	912.20833
2959.269	899.20833
2961.371	929.20833
2963.471	874.20833
2965.569	879.20833
2967.666	839.20833
2969.762	850.54167
2971.857	840.20833
2973.95	817.875
2976.042	808.20833
2978.133	791.20833
2980.222	778.54167
2982.31	745.20833
2984.396	746.20833
2986.482	733.20833
2988.566	735.54167
2990.648	736.875
2992.73	721.20833
2994.81	707.54167
2996.889	721.20833
2998.966	716.54167
3001.042	724.54167
3003.117	714.54167
3005.191	707.875
3007.263	699.875
3009.334	691.875
3011.403	697.20833
3013.472	667.54167
3015.539	667.20833
3017.604	692.875
3019.669	653.20833
3021.732	650.54167
3023.794	656.875
3025.854	643.875
3027.914	642.875
3029.971	649.20833
3032.028	646.875
3034.083	639.875
3036.137	645.875
3038.19	613.875
3040.242	603.20833
3042.292	586.54167
3044.341	591.20833
3046.388	596.875
3048.435	566.875
3050.48	581.54167
3052.524	583.54167
3054.566	557.20833
3056.607	568.54167
3058.647	557.875
3060.686	531.20833
3062.723	518.54167
3064.759	498.875
3066.794	0.875
3068.828	-0.79167
3070.86	-1.45833
