-0.839	390.75
3.438	425.75
7.711	118.75
11.981	52.41667
16.247	41.41667
20.509	39.75
24.768	42.41667
29.024	45.08333
33.276	40.08333
37.524	47.08333
41.769	34.75
46.01	34.41667
50.247	49.75
54.481	57.75
58.712	62.41667
62.939	44.75
67.162	58.75
71.382	53.41667
75.599	45.08333
79.812	59.75
84.021	78.75
88.227	53.41667
92.429	60.75
96.628	45.75
100.823	61.08333
105.015	71.08333
109.204	70.75
113.388	69.08333
117.57	70.08333
121.748	78.41667
125.922	75.75
130.093	90.75
134.261	91.75
138.425	85.41667
142.585	120.41667
146.742	120.41667
150.896	137.41667
155.046	164.41667
159.193	250.75
163.336	422.75
167.476	773.41667
171.613	1431.08333
175.746	2403.75
179.875	3581.08333
184.002	4691.41667
188.124	5498.75
192.244	5794.75
196.36	5741.75
200.472	5593.41667
204.581	5471.75
208.687	5301.41667
212.79	5249.41667
216.889	5234.08333
220.984	5292.08333
225.077	5323.41667
229.165	5322.08333
233.251	5370.41667
237.333	5358.75
241.412	5357.08333
245.487	5313.41667
249.559	5293.08333
253.628	5235.41667
257.694	5181.75
261.756	5129.75
265.814	5082.08333
269.87	4960.08333
273.922	4893.75
277.97	4855.75
282.016	4865.08333
286.058	4927.75
290.097	5033.08333
294.132	5088.41667
298.164	5051.41667
302.193	4847.08333
306.219	4506.08333
310.241	4137.41667
314.26	3811.41667
318.276	3507.08333
322.288	3310.41667
326.297	3121.41667
330.303	3020.41667
334.305	2920.75
338.305	2844.08333
342.301	2816.08333
346.294	2773.08333
350.283	2722.41667
354.269	2721.75
358.252	2708.08333
362.232	2683.75
366.209	2656.08333
370.182	2627.75
374.152	2629.08333
378.119	2614.75
382.083	2592.08333
386.043	2617.08333
390	2576.75
393.954	2600.08333
397.905	2543.75
401.852	2545.08333
405.797	2534.41667
409.738	2518.08333
413.676	2532.75
417.61	2518.08333
421.542	2500.41667
425.47	2475.41667
429.396	2452.41667
433.318	2449.41667
437.236	2443.75
441.152	2455.75
445.065	2410.41667
448.974	2393.41667
452.88	2402.75
456.783	2373.41667
460.683	2357.75
464.58	2380.75
468.473	2374.75
472.364	2376.41667
476.251	2395.75
480.135	2425.08333
484.016	2432.75
487.894	2460.75
491.769	2481.08333
495.641	2475.75
499.509	2465.08333
503.375	2497.41667
507.237	2487.41667
511.096	2581.75
514.952	2831.08333
518.805	3151.08333
522.655	3267.41667
526.502	2785.41667
530.346	2490.08333
534.187	2457.41667
538.024	2444.41667
541.859	2450.08333
545.69	2466.75
549.519	2428.41667
553.344	2419.41667
557.166	2370.08333
560.985	2349.08333
564.802	2332.75
568.615	2308.08333
572.425	2270.75
576.232	2243.41667
580.036	2255.08333
583.836	2266.41667
587.634	2257.75
591.429	2273.41667
595.221	2318.08333
599.01	2325.75
602.796	2353.75
606.578	2378.41667
610.358	2394.41667
614.135	2367.41667
617.909	2353.41667
621.679	2353.75
625.447	2343.75
629.212	2317.41667
632.973	2331.41667
636.732	2311.41667
640.488	2315.41667
644.241	2278.41667
647.991	2299.08333
651.737	2305.08333
655.481	2289.08333
659.222	2306.41667
662.96	2280.75
666.695	2318.75
670.427	2329.41667
674.156	2326.08333
677.882	2339.75
681.605	2307.08333
685.325	2288.08333
689.043	2286.75
692.757	2269.41667
696.468	2279.08333
700.177	2288.08333
703.882	2259.41667
707.585	2252.41667
711.284	2265.08333
714.981	2277.41667
718.675	2278.08333
722.366	2278.08333
726.054	2264.75
729.739	2260.41667
733.421	2258.75
737.1	2235.08333
740.777	2264.41667
744.45	2296.75
748.121	2302.41667
751.789	2340.41667
755.453	2308.75
759.115	2339.41667
762.774	2347.41667
766.431	2374.08333
770.084	2388.08333
773.734	2406.75
777.382	2435.08333
781.027	2437.08333
784.669	2445.41667
788.308	2479.75
791.944	2508.08333
795.577	2541.75
799.208	2541.08333
802.835	2543.41667
806.46	2578.75
810.082	2590.08333
813.701	2585.41667
817.317	2609.75
820.931	2630.08333
824.542	2597.08333
828.149	2567.08333
831.754	2536.08333
835.357	2514.41667
838.956	2522.08333
842.553	2514.41667
846.146	2482.41667
849.737	2477.41667
853.326	2474.08333
856.911	2477.41667
860.493	2501.75
864.073	2510.08333
867.65	2543.08333
871.225	2589.41667
874.796	2608.75
878.365	2603.08333
881.931	2606.08333
885.494	2631.75
889.054	2609.08333
892.612	2654.75
896.166	2610.08333
899.719	2572.08333
903.268	2570.75
906.814	2543.08333
910.358	2545.08333
913.899	2534.75
917.438	2536.41667
920.973	2515.75
924.506	2554.75
928.036	2609.75
931.564	2643.41667
935.088	2686.75
938.61	2687.75
942.129	2709.75
945.646	2773.75
949.16	2829.08333
952.671	2881.41667
956.179	2883.08333
959.685	2864.75
963.188	2861.41667
966.688	2839.75
970.185	2765.41667
973.68	2694.75
977.173	2651.75
980.662	2626.08333
984.149	2594.41667
987.633	2555.08333
991.114	2583.08333
994.593	2661.08333
998.069	2707.41667
1001.542	2776.41667
1005.013	2706.08333
1008.481	2578.75
1011.947	2553.08333
1015.409	2527.75
1018.869	2531.08333
1022.327	2534.41667
1025.782	2511.75
1029.234	2530.08333
1032.683	2479.41667
1036.13	2432.08333
1039.574	2352.08333
1043.016	2295.41667
1046.455	2247.75
1049.891	2224.41667
1053.325	2262.75
1056.756	2238.75
1060.184	2259.75
1063.61	2260.75
1067.033	2295.75
1070.454	2285.08333
1073.872	2301.08333
1077.287	2310.08333
1080.7	2328.41667
1084.11	2331.41667
1087.517	2321.75
1090.922	2294.41667
1094.325	2267.41667
1097.724	2228.75
1101.122	2223.75
1104.516	2223.75
1107.908	2228.41667
1111.298	2257.75
1114.684	2304.75
1118.069	2298.75
1121.45	2326.41667
1124.83	2334.41667
1128.206	2349.75
1131.58	2402.08333
1134.951	2460.41667
1138.32	2524.75
1141.687	2606.75
1145.05	2670.08333
1148.412	2683.08333
1151.77	2662.75
1155.126	2664.75
1158.48	2651.75
1161.831	2681.08333
1165.18	2686.08333
1168.525	2738.41667
1171.869	2740.08333
1175.21	2765.08333
1178.548	2778.41667
1181.884	2827.08333
1185.217	2866.08333
1188.548	2947.41667
1191.877	3006.75
1195.202	3081.41667
1198.526	3131.08333
1201.846	3159.08333
1205.165	3162.75
1208.48	3183.75
1211.794	3178.08333
1215.104	3172.75
1218.413	3158.08333
1221.719	3175.41667
1225.022	3140.08333
1228.323	3065.08333
1231.621	3046.08333
1234.917	3038.41667
1238.21	3090.75
1241.501	3027.41667
1244.79	3041.41667
1248.076	3022.41667
1251.359	3051.41667
1254.64	3130.75
1257.919	3106.75
1261.195	3152.41667
1264.468	3204.75
1267.74	3219.75
1271.008	3258.08333
1274.275	3253.41667
1277.538	3238.08333
1280.8	3216.75
1284.059	3218.41667
1287.315	3272.75
1290.569	3275.41667
1293.821	3315.08333
1297.07	3298.08333
1300.317	3344.75
1303.562	3347.08333
1306.803	3296.08333
1310.043	3284.08333
1313.28	3235.08333
1316.515	3207.08333
1319.747	3191.08333
1322.977	3155.08333
1326.204	3134.75
1329.429	3075.75
1332.652	3092.75
1335.872	3069.41667
1339.09	3034.75
1342.306	3021.75
1345.519	2973.75
1348.729	2915.41667
1351.938	2923.41667
1355.144	2864.75
1358.347	2821.75
1361.548	2825.08333
1364.747	2798.08333
1367.944	2783.41667
1371.138	2808.75
1374.329	2805.75
1377.518	2822.75
1380.705	2827.08333
1383.89	2820.75
1387.072	2734.41667
1390.252	2655.08333
1393.429	2587.08333
1396.605	2507.75
1399.777	2466.08333
1402.948	2440.75
1406.116	2455.08333
1409.282	2458.08333
1412.445	2440.41667
1415.606	2507.75
1418.765	2531.41667
1421.921	2589.08333
1425.075	2623.41667
1428.227	2708.08333
1431.376	2810.75
1434.524	2911.41667
1437.668	2988.41667
1440.811	2985.41667
1443.951	3025.41667
1447.089	3028.41667
1450.224	3016.41667
1453.357	3006.41667
1456.488	2973.08333
1459.617	2954.75
1462.743	2923.08333
1465.867	2864.41667
1468.989	2827.75
1472.108	2798.75
1475.225	2729.41667
1478.34	2727.41667
1481.453	2694.08333
1484.563	2703.41667
1487.671	2738.41667
1490.776	2773.08333
1493.88	2835.41667
1496.981	2873.08333
1500.08	2909.08333
1503.176	2941.75
1506.271	2987.75
1509.363	3038.41667
1512.452	3038.08333
1515.54	3130.41667
1518.625	3132.75
1521.708	3244.75
1524.789	3351.08333
1527.867	3489.41667
1530.944	3683.08333
1534.018	3816.41667
1537.089	3896.08333
1540.159	3944.08333
1543.226	3902.41667
1546.291	3822.08333
1549.354	3740.41667
1552.415	3624.75
1555.473	3543.75
1558.529	3490.08333
1561.583	3436.75
1564.634	3408.08333
1567.684	3391.75
1570.731	3394.41667
1573.776	3431.08333
1576.819	3466.41667
1579.859	3489.41667
1582.898	3517.08333
1585.934	3545.08333
1588.968	3558.75
1591.999	3541.08333
1595.029	3542.08333
1598.056	3597.41667
1601.081	3619.75
1604.104	3598.41667
1607.125	3558.41667
1610.144	3475.75
1613.16	3402.08333
1616.174	3321.08333
1619.186	3213.08333
1622.196	3147.08333
1625.203	3071.41667
1628.209	3031.75
1631.212	3020.41667
1634.213	3029.75
1637.212	2994.41667
1640.209	2948.75
1643.203	2877.75
1646.196	2778.41667
1649.186	2649.75
1652.174	2598.41667
1655.16	2530.41667
1658.144	2443.75
1661.125	2343.08333
1664.105	2229.08333
1667.082	2136.08333
1670.057	2030.75
1673.03	1911.41667
1676.001	1796.75
1678.97	1681.08333
1681.937	1609.08333
1684.901	1535.75
1687.863	1497.41667
1690.824	1417.08333
1693.782	1408.75
1696.738	1356.75
1699.692	1326.41667
1702.643	1299.41667
1705.593	1294.75
1708.54	1274.08333
1711.486	1277.75
1714.429	1236.75
1717.37	1235.08333
1720.309	1218.75
1723.246	1221.75
1726.181	1186.75
1729.113	1195.75
1732.044	1189.41667
1734.972	1183.41667
1737.899	1169.08333
1740.823	1173.08333
1743.745	1187.41667
1746.665	1142.75
1749.583	1121.41667
1752.499	1113.08333
1755.413	1096.41667
1758.325	1075.08333
1761.235	1083.08333
1764.142	1055.75
1767.048	1049.08333
1769.951	1043.75
1772.852	1034.41667
1775.752	1031.41667
1778.649	1022.08333
1781.544	1024.08333
1784.437	993.08333
1787.328	1022.75
1790.217	996.41667
1793.104	993.08333
1795.989	982.41667
1798.872	972.41667
1801.753	991.08333
1804.631	997.08333
1807.508	1004.08333
1810.383	997.41667
1813.255	981.08333
1816.126	982.41667
1818.994	964.41667
1821.861	974.75
1824.725	983.08333
1827.587	974.41667
1830.448	963.75
1833.306	945.75
1836.162	967.41667
1839.017	946.41667
1841.869	960.75
1844.719	961.41667
1847.567	928.41667
1850.414	928.41667
1853.258	922.41667
1856.1	945.08333
1858.94	940.08333
1861.778	943.08333
1864.614	932.41667
1867.448	942.75
1870.28	928.41667
1873.111	960.75
1875.939	931.08333
1878.765	947.41667
1881.589	932.08333
1884.411	931.75
1887.231	952.75
1890.049	934.75
1892.865	937.41667
1895.68	919.08333
1898.492	917.41667
1901.302	917.75
1904.11	908.75
1906.916	909.41667
1909.721	894.75
1912.523	914.08333
1915.323	902.75
1918.122	901.41667
1920.918	915.41667
1923.712	916.75
1926.505	905.41667
1929.295	888.41667
1932.084	904.41667
1934.87	908.08333
1937.655	892.75
1940.438	896.08333
1943.218	898.75
1945.997	922.41667
1948.774	915.75
1951.549	908.08333
1954.322	895.41667
1957.093	893.75
1959.862	889.41667
1962.629	901.08333
1965.394	870.75
1968.157	879.41667
1970.918	882.75
1973.678	877.41667
1976.435	895.41667
1979.19	881.75
1981.944	875.75
1984.696	866.08333
1987.445	872.75
1990.193	874.75
1992.939	888.41667
1995.683	878.75
1998.425	856.75
2001.165	888.75
2003.903	880.41667
2006.639	863.41667
2009.374	879.75
2012.106	873.08333
2014.837	852.41667
2017.566	877.41667
2020.292	893.08333
2023.017	889.75
2025.74	872.41667
2028.461	867.41667
2031.18	863.75
2033.898	857.41667
2036.613	864.75
2039.327	876.41667
2042.038	860.41667
2044.748	858.08333
2047.456	869.08333
2050.162	845.75
2052.866	853.41667
2055.568	875.75
2058.268	864.75
2060.967	867.75
2063.663	846.41667
2066.358	870.75
2069.051	854.08333
2071.742	865.08333
2074.431	870.75
2077.118	873.41667
2079.804	852.08333
2082.487	860.08333
2085.169	878.08333
2087.849	885.08333
2090.527	868.75
2093.203	883.41667
2095.877	891.41667
2098.55	899.75
2101.22	914.41667
2103.889	915.08333
2106.556	909.75
2109.221	943.08333
2111.884	959.75
2114.546	1013.08333
2117.205	1066.41667
2119.863	1131.08333
2122.519	1198.75
2125.173	1252.08333
2127.825	1305.75
2130.475	1305.41667
2133.124	1264.08333
2135.771	1230.41667
2138.416	1206.75
2141.059	1128.08333
2143.7	1112.08333
2146.339	1056.41667
2148.977	1006.41667
2151.613	1014.75
2154.247	978.75
2156.879	959.08333
2159.51	959.08333
2162.138	945.08333
2164.765	937.41667
2167.39	917.75
2170.013	940.08333
2172.634	933.75
2175.254	906.75
2177.872	936.41667
2180.488	902.41667
2183.102	910.75
2185.714	889.08333
2188.325	878.08333
2190.934	880.41667
2193.541	886.41667
2196.146	872.08333
2198.75	869.41667
2201.351	872.41667
2203.951	853.41667
2206.549	884.41667
2209.146	855.75
2211.74	850.75
2214.333	867.08333
2216.924	837.08333
2219.514	861.41667
2222.101	857.41667
2224.687	863.41667
2227.271	841.08333
2229.853	832.75
2232.433	850.08333
2235.012	854.75
2237.589	858.41667
2240.164	859.75
2242.738	854.75
2245.309	852.08333
2247.879	854.08333
2250.448	877.41667
2253.014	836.41667
2255.579	822.08333
2258.142	840.08333
2260.703	833.08333
2263.262	827.75
2265.82	826.08333
2268.376	839.08333
2270.93	812.08333
2273.483	817.41667
2276.033	851.41667
2278.583	829.08333
2281.13	830.75
2283.675	831.41667
2286.219	822.75
2288.761	832.08333
2291.302	841.08333
2293.841	834.75
2296.377	818.41667
2298.913	831.75
2301.446	844.08333
2303.978	832.08333
2306.508	828.41667
2309.037	825.75
2311.563	848.75
2314.088	837.41667
2316.612	834.08333
2319.133	845.41667
2321.653	838.75
2324.171	840.41667
2326.688	843.75
2329.202	832.08333
2331.715	843.41667
2334.227	847.75
2336.736	842.41667
2339.244	840.75
2341.751	832.41667
2344.255	846.75
2346.758	842.41667
2349.259	832.08333
2351.759	843.08333
2354.257	834.41667
2356.753	842.08333
2359.247	853.41667
2361.74	859.75
2364.231	841.75
2366.721	852.08333
2369.209	846.08333
2371.695	852.75
2374.179	854.08333
2376.662	862.41667
2379.143	876.08333
2381.622	851.41667
2384.1	857.75
2386.576	856.41667
2389.051	864.75
2391.524	880.41667
2393.995	869.75
2396.464	861.75
2398.932	873.08333
2401.398	872.41667
2403.863	871.75
2406.325	866.08333
2408.787	874.08333
2411.246	881.08333
2413.704	874.41667
2416.16	878.75
2418.615	888.75
2421.068	902.75
2423.519	895.75
2425.969	880.75
2428.417	900.75
2430.863	915.75
2433.308	899.75
2435.751	908.08333
2438.193	892.75
2440.633	899.08333
2443.071	902.08333
2445.508	896.08333
2447.943	904.75
2450.376	889.08333
2452.808	895.75
2455.238	904.08333
2457.667	936.75
2460.093	919.75
2462.519	914.75
2464.942	910.75
2467.365	922.08333
2469.785	923.41667
2472.204	924.75
2474.621	928.75
2477.037	943.08333
2479.451	905.08333
2481.863	925.75
2484.274	908.41667
2486.683	925.08333
2489.091	944.75
2491.497	932.75
2493.901	939.08333
2496.304	941.75
2498.705	949.41667
2501.105	937.41667
2503.503	969.08333
2505.899	937.08333
2508.294	958.41667
2510.687	946.08333
2513.079	946.41667
2515.469	957.75
2517.858	961.41667
2520.245	974.41667
2522.63	955.41667
2525.014	949.75
2527.396	956.41667
2529.776	960.41667
2532.156	973.75
2534.533	966.08333
2536.909	950.08333
2539.283	973.75
2541.656	975.75
2544.027	995.08333
2546.397	984.08333
2548.765	977.41667
2551.131	988.41667
2553.496	981.75
2555.86	1004.75
2558.221	1001.75
2560.582	986.08333
2562.94	982.75
2565.298	1005.08333
2567.653	1011.41667
2570.007	989.08333
2572.36	1004.75
2574.711	1001.41667
2577.06	1041.08333
2579.408	1026.41667
2581.754	1019.08333
2584.099	1032.41667
2586.442	1016.08333
2588.784	1034.41667
2591.124	1034.41667
2593.463	1024.41667
2595.8	1032.08333
2598.135	1036.41667
2600.469	1041.08333
2602.802	1046.75
2605.133	1051.08333
2607.462	1039.75
2609.79	1042.41667
2612.116	1056.75
2614.441	1044.75
2616.764	1067.08333
2619.086	1071.41667
2621.406	1071.41667
2623.725	1075.41667
2626.042	1086.75
2628.358	1072.41667
2630.672	1084.41667
2632.985	1089.75
2635.296	1094.75
2637.606	1098.75
2639.914	1089.41667
2642.22	1108.41667
2644.525	1107.75
2646.829	1120.08333
2649.131	1118.08333
2651.432	1126.75
2653.731	1133.41667
2656.028	1161.41667
2658.324	1141.75
2660.619	1136.41667
2662.912	1159.08333
2665.204	1147.75
2667.494	1169.41667
2669.782	1142.75
2672.07	1157.41667
2674.355	1173.08333
2676.639	1150.08333
2678.922	1151.08333
2681.203	1172.75
2683.483	1152.41667
2685.761	1151.41667
2688.038	1178.08333
2690.313	1196.75
2692.587	1167.75
2694.859	1173.75
2697.13	1182.75
2699.399	1198.41667
2701.667	1204.75
2703.933	1222.41667
2706.198	1227.41667
2708.461	1234.41667
2710.723	1228.08333
2712.984	1226.41667
2715.243	1252.08333
2717.5	1241.08333
2719.757	1253.75
2722.011	1259.75
2724.264	1275.41667
2726.516	1285.08333
2728.766	1280.08333
2731.015	1298.75
2733.262	1294.75
2735.508	1295.41667
2737.753	1276.41667
2739.996	1274.08333
2742.237	1274.08333
2744.477	1299.41667
2746.716	1272.75
2748.953	1284.08333
2751.189	1282.75
2753.423	1261.08333
2755.656	1266.08333
2757.887	1260.08333
2760.117	1274.75
2762.346	1264.75
2764.573	1265.08333
2766.798	1290.75
2769.022	1277.08333
2771.245	1300.08333
2773.467	1290.75
2775.686	1292.41667
2777.905	1308.08333
2780.122	1314.75
2782.337	1326.41667
2784.552	1324.75
2786.764	1333.08333
2788.976	1347.08333
2791.186	1351.41667
2793.394	1356.41667
2795.601	1374.41667
2797.807	1382.08333
2800.011	1398.08333
2802.214	1423.75
2804.415	1410.75
2806.615	1393.75
2808.814	1436.41667
2811.011	1425.41667
2813.206	1426.41667
2815.401	1436.41667
2817.594	1454.75
2819.785	1458.75
2821.975	1445.41667
2824.164	1460.08333
2826.351	1487.08333
2828.537	1497.41667
2830.722	1507.75
2832.905	1516.41667
2835.086	1547.41667
2837.267	1579.08333
2839.445	1614.41667
2841.623	1607.41667
2843.799	1638.75
2845.974	1678.08333
2848.147	1720.41667
2850.319	1727.75
2852.489	1780.75
2854.659	1765.75
2856.826	1793.08333
2858.993	1830.08333
2861.158	1817.75
2863.321	1805.08333
2865.483	1839.75
2867.644	1818.75
2869.804	1839.75
2871.962	1813.08333
2874.118	1805.41667
2876.274	1808.08333
2878.428	1811.08333
2880.58	1783.75
2882.731	1781.75
2884.881	1788.41667
2887.03	1787.41667
2889.177	1787.75
2891.322	1798.08333
2893.467	1803.41667
2895.61	1812.08333
2897.751	1834.08333
2899.892	1836.41667
2902.03	1841.75
2904.168	1857.08333
2906.304	1851.41667
2908.439	1874.08333
2910.572	1883.75
2912.704	1892.75
2914.835	1896.08333
2916.965	1885.08333
2919.093	1910.41667
2921.219	1864.75
2923.345	1883.08333
2925.469	1850.75
2927.591	1846.75
2929.712	1815.08333
2931.832	1807.08333
2933.951	1792.75
2936.068	1749.08333
2938.184	1738.08333
2940.299	1718.41667
2942.412	1687.41667
2944.524	1661.75
2946.634	1669.08333
2948.744	1621.75
2950.851	1659.41667
2952.958	1596.41667
2955.063	1610.08333
2957.167	1617.41667
2959.269	1597.08333
2961.371	1604.75
2963.471	1568.75
2965.569	1564.41667
2967.666	1547.08333
2969.762	1541.08333
2971.857	1534.08333
2973.95	1505.08333
2976.042	1500.41667
2978.133	1460.75
2980.222	1455.08333
2982.31	1443.08333
2984.396	1408.75
2986.482	1415.08333
2988.566	1418.75
2990.648	1395.75
2992.73	1407.08333
2994.81	1385.41667
2996.889	1406.75
2998.966	1421.08333
3001.042	1405.75
3003.117	1401.08333
3005.191	1406.08333
3007.263	1397.75
3009.334	1387.75
3011.403	1360.08333
3013.472	1356.08333
3015.539	1350.41667
3017.604	1322.08333
3019.669	1296.08333
3021.732	1302.41667
3023.794	1305.41667
3025.854	1303.75
3027.914	1293.08333
3029.971	1316.08333
3032.028	1310.41667
3034.083	1316.41667
3036.137	1271.41667
3038.19	1245.08333
3040.242	1212.41667
3042.292	1193.08333
3044.341	1177.41667
3046.388	1198.41667
3048.435	1153.08333
3050.48	1177.08333
3052.524	1166.08333
3054.566	1146.08333
3056.607	1148.75
3058.647	1135.41667
3060.686	1101.08333
3062.723	1051.41667
3064.759	1019.41667
3066.794	-0.91667
3068.828	-0.25
3070.86	-2.91667
