-0.839	392.29167
3.438	419.29167
7.711	122.625
11.981	55.625
16.247	47.95833
20.509	45.29167
24.768	47.29167
29.024	44.95833
33.276	43.95833
37.524	49.29167
41.769	43.625
46.01	35.29167
50.247	51.29167
54.481	63.625
58.712	69.625
62.939	48.95833
67.162	64.625
71.382	61.625
75.599	48.29167
79.812	62.95833
84.021	81.95833
88.227	65.29167
92.429	68.29167
96.628	55.95833
100.823	72.625
105.015	77.625
109.204	82.625
113.388	80.95833
117.57	78.95833
121.748	91.95833
125.922	86.625
130.093	101.95833
134.261	114.29167
138.425	105.95833
142.585	154.95833
146.742	141.625
150.896	178.95833
155.046	224.95833
159.193	348.625
163.336	592.95833
167.476	1098.29167
171.613	2034.29167
175.746	3421.95833
179.875	5149.625
184.002	6747.29167
188.124	7794.29167
192.244	8196.95833
196.36	8173.625
200.472	7937.95833
204.581	7749.95833
208.687	7539.29167
212.79	7426.95833
216.889	7518.625
220.984	7578.29167
225.077	7658.625
229.165	7680.95833
233.251	7743.29167
237.333	7764.625
241.412	7691.95833
245.487	7646.29167
249.559	7540.95833
253.628	7465.625
257.694	7379.29167
261.756	7304.95833
265.814	7150.625
269.87	6951.29167
273.922	6765.625
277.97	6736.625
282.016	6708.625
286.058	6741.95833
290.097	6858.29167
294.132	6854.29167
298.164	6713.95833
302.193	6397.95833
306.219	5930.29167
310.241	5405.625
314.26	4932.29167
318.276	4526.95833
322.288	4213.29167
326.297	3964.95833
330.303	3784.95833
334.305	3651.625
338.305	3595.29167
342.301	3545.29167
346.294	3489.95833
350.283	3436.95833
354.269	3411.625
358.252	3386.625
362.232	3355.95833
366.209	3354.29167
370.182	3312.95833
374.152	3283.625
378.119	3282.625
382.083	3304.29167
386.043	3298.29167
390	3224.625
393.954	3213.95833
397.905	3201.625
401.852	3156.95833
405.797	3125.95833
409.738	3100.29167
413.676	3070.95833
417.61	3030.625
421.542	3018.625
425.47	2977.95833
429.396	2948.625
433.318	2934.95833
437.236	2924.95833
441.152	2933.95833
445.065	2892.625
448.974	2863.95833
452.88	2841.95833
456.783	2831.95833
460.683	2837.29167
464.58	2825.29167
468.473	2833.625
472.364	2815.625
476.251	2817.625
480.135	2843.95833
484.016	2876.625
487.894	2892.29167
491.769	2917.625
495.641	2928.29167
499.509	2922.625
503.375	2940.29167
507.237	2936.29167
511.096	2946.29167
514.952	3028.625
518.805	3187.95833
522.655	3219.29167
526.502	2998.29167
530.346	2923.95833
534.187	2874.625
538.024	2866.625
541.859	2884.95833
545.69	2897.29167
549.519	2879.29167
553.344	2845.625
557.166	2827.95833
560.985	2793.29167
564.802	2761.29167
568.615	2699.95833
572.425	2643.625
576.232	2671.95833
580.036	2625.95833
583.836	2675.95833
587.634	2651.625
591.429	2670.625
595.221	2700.625
599.01	2723.95833
602.796	2773.29167
606.578	2800.625
610.358	2796.95833
614.135	2773.29167
617.909	2794.95833
621.679	2751.625
625.447	2726.625
629.212	2754.625
632.973	2754.29167
636.732	2728.95833
640.488	2737.29167
644.241	2701.29167
647.991	2703.95833
651.737	2720.625
655.481	2677.29167
659.222	2664.95833
662.96	2673.29167
666.695	2691.29167
670.427	2729.625
674.156	2712.29167
677.882	2727.625
681.605	2732.625
685.325	2686.29167
689.043	2700.29167
692.757	2683.625
696.468	2684.95833
700.177	2732.625
703.882	2690.625
707.585	2679.95833
711.284	2687.625
714.981	2724.95833
718.675	2721.625
722.366	2733.625
726.054	2708.29167
729.739	2697.95833
733.421	2730.625
737.1	2715.625
740.777	2750.29167
744.45	2744.625
748.121	2761.29167
751.789	2851.95833
755.453	2830.95833
759.115	2867.625
762.774	2905.29167
766.431	2928.29167
770.084	2952.29167
773.734	2991.625
777.382	3053.29167
781.027	3108.95833
784.669	3098.29167
788.308	3133.95833
791.944	3156.95833
795.577	3177.95833
799.208	3214.95833
802.835	3203.29167
806.46	3234.95833
810.082	3243.625
813.701	3242.625
817.317	3290.625
820.931	3288.625
824.542	3294.95833
828.149	3277.95833
831.754	3261.625
835.357	3229.95833
838.956	3256.95833
842.553	3231.625
846.146	3236.625
849.737	3249.29167
853.326	3250.95833
856.911	3274.95833
860.493	3342.625
864.073	3352.625
867.65	3393.95833
871.225	3451.29167
874.796	3467.29167
878.365	3472.625
881.931	3494.625
885.494	3532.625
889.054	3560.625
892.612	3563.625
896.166	3530.95833
899.719	3490.95833
903.268	3435.625
906.814	3401.29167
910.358	3400.625
913.899	3391.95833
917.438	3351.625
920.973	3364.625
924.506	3421.625
928.036	3460.29167
931.564	3497.29167
935.088	3519.29167
938.61	3543.95833
942.129	3595.95833
945.646	3687.95833
949.16	3764.29167
952.671	3832.29167
956.179	3852.95833
959.685	3773.95833
963.188	3750.625
966.688	3674.29167
970.185	3591.29167
973.68	3536.95833
977.173	3495.625
980.662	3498.625
984.149	3513.625
987.633	3540.95833
991.114	3550.95833
994.593	3684.95833
998.069	3803.29167
1001.542	3911.625
1005.013	3810.95833
1008.481	3608.625
1011.947	3527.95833
1015.409	3496.95833
1018.869	3528.29167
1022.327	3524.29167
1025.782	3487.625
1029.234	3502.29167
1032.683	3452.625
1036.13	3323.29167
1039.574	3189.29167
1043.016	3097.95833
1046.455	3056.29167
1049.891	3002.29167
1053.325	3015.29167
1056.756	3032.95833
1060.184	3066.95833
1063.61	3055.95833
1067.033	3074.625
1070.454	3100.95833
1073.872	3125.95833
1077.287	3118.95833
1080.7	3115.95833
1084.11	3117.95833
1087.517	3110.95833
1090.922	3085.625
1094.325	3044.29167
1097.724	3029.29167
1101.122	3016.95833
1104.516	3027.29167
1107.908	3029.95833
1111.298	3089.625
1114.684	3125.625
1118.069	3169.625
1121.45	3181.95833
1124.83	3190.29167
1128.206	3234.29167
1131.58	3277.625
1134.951	3372.625
1138.32	3495.95833
1141.687	3653.95833
1145.05	3730.29167
1148.412	3768.95833
1151.77	3766.29167
1155.126	3776.95833
1158.48	3802.95833
1161.831	3816.625
1165.18	3869.95833
1168.525	3941.29167
1171.869	3991.625
1175.21	3988.625
1178.548	4015.95833
1181.884	4051.29167
1185.217	4079.625
1188.548	4162.95833
1191.877	4217.625
1195.202	4307.29167
1198.526	4378.625
1201.846	4389.625
1205.165	4346.95833
1208.48	4347.29167
1211.794	4308.95833
1215.104	4330.29167
1218.413	4304.625
1221.719	4303.29167
1225.022	4273.29167
1228.323	4254.29167
1231.621	4258.95833
1234.917	4230.95833
1238.21	4263.95833
1241.501	4253.95833
1244.79	4260.95833
1248.076	4257.29167
1251.359	4305.29167
1254.64	4435.625
1257.919	4402.95833
1261.195	4494.95833
1264.468	4593.625
1267.74	4639.29167
1271.008	4647.625
1274.275	4582.95833
1277.538	4551.95833
1280.8	4543.29167
1284.059	4574.29167
1287.315	4603.625
1290.569	4628.29167
1293.821	4643.29167
1297.07	4654.625
1300.317	4671.29167
1303.562	4655.625
1306.803	4607.95833
1310.043	4563.29167
1313.28	4476.625
1316.515	4453.625
1319.747	4383.29167
1322.977	4304.95833
1326.204	4288.29167
1329.429	4211.29167
1332.652	4185.29167
1335.872	4164.625
1339.09	4147.625
1342.306	4122.625
1345.519	4081.625
1348.729	4093.625
1351.938	4045.95833
1355.144	3980.95833
1358.347	3968.29167
1361.548	3991.95833
1364.747	4000.29167
1367.944	3954.29167
1371.138	3993.95833
1374.329	4037.625
1377.518	4064.625
1380.705	4097.625
1383.89	4057.95833
1387.072	3950.29167
1390.252	3791.625
1393.429	3701.625
1396.605	3552.625
1399.777	3472.29167
1402.948	3435.625
1406.116	3418.625
1409.282	3420.29167
1412.445	3420.29167
1415.606	3490.95833
1418.765	3540.95833
1421.921	3621.29167
1425.075	3731.95833
1428.227	3832.625
1431.376	3986.29167
1434.524	4134.29167
1437.668	4193.29167
1440.811	4222.29167
1443.951	4266.625
1447.089	4289.625
1450.224	4307.29167
1453.357	4236.95833
1456.488	4214.95833
1459.617	4191.95833
1462.743	4135.625
1465.867	4024.95833
1468.989	3967.95833
1472.108	3924.95833
1475.225	3865.625
1478.34	3842.29167
1481.453	3822.625
1484.563	3851.95833
1487.671	3916.95833
1490.776	4019.29167
1493.88	4105.95833
1496.981	4214.29167
1500.08	4274.625
1503.176	4335.29167
1506.271	4377.625
1509.363	4457.625
1512.452	4541.95833
1515.54	4578.29167
1518.625	4710.625
1521.708	4879.29167
1524.789	5086.29167
1527.867	5325.625
1530.944	5634.95833
1534.018	5943.29167
1537.089	6199.95833
1540.159	6206.95833
1543.226	6116.625
1546.291	5942.625
1549.354	5797.29167
1552.415	5604.29167
1555.473	5430.29167
1558.529	5365.95833
1561.583	5271.625
1564.634	5227.95833
1567.684	5215.95833
1570.731	5187.29167
1573.776	5181.95833
1576.819	5232.625
1579.859	5267.29167
1582.898	5309.625
1585.934	5389.29167
1588.968	5399.95833
1591.999	5342.625
1595.029	5364.625
1598.056	5368.625
1601.081	5368.95833
1604.104	5350.95833
1607.125	5279.625
1610.144	5180.625
1613.16	5012.29167
1616.174	4918.29167
1619.186	4771.95833
1622.196	4629.29167
1625.203	4509.29167
1628.209	4386.29167
1631.212	4328.95833
1634.213	4260.29167
1637.212	4202.95833
1640.209	4104.95833
1643.203	4002.95833
1646.196	3896.95833
1649.186	3782.95833
1652.174	3645.625
1655.16	3541.95833
1658.144	3431.29167
1661.125	3272.29167
1664.105	3136.29167
1667.082	2971.625
1670.057	2795.29167
1673.03	2658.29167
1676.001	2480.95833
1678.97	2333.95833
1681.937	2207.95833
1684.901	2097.625
1687.863	2036.29167
1690.824	1956.95833
1693.782	1892.29167
1696.738	1850.95833
1699.692	1778.95833
1702.643	1747.95833
1705.593	1727.29167
1708.54	1718.95833
1711.486	1714.29167
1714.429	1663.625
1717.37	1645.29167
1720.309	1626.95833
1723.246	1616.625
1726.181	1583.625
1729.113	1597.95833
1732.044	1571.29167
1734.972	1554.29167
1737.899	1546.95833
1740.823	1532.29167
1743.745	1540.95833
1746.665	1487.625
1749.583	1467.29167
1752.499	1450.95833
1755.413	1422.29167
1758.325	1400.625
1761.235	1386.29167
1764.142	1352.625
1767.048	1354.95833
1769.951	1337.29167
1772.852	1331.29167
1775.752	1323.29167
1778.649	1316.29167
1781.544	1312.95833
1784.437	1302.95833
1787.328	1308.95833
1790.217	1274.29167
1793.104	1261.95833
1795.989	1251.625
1798.872	1251.95833
1801.753	1281.625
1804.631	1264.95833
1807.508	1273.29167
1810.383	1268.29167
1813.255	1251.95833
1816.126	1240.95833
1818.994	1240.95833
1821.861	1223.625
1824.725	1218.95833
1827.587	1215.29167
1830.448	1229.625
1833.306	1191.29167
1836.162	1201.29167
1839.017	1191.29167
1841.869	1172.29167
1844.719	1193.625
1847.567	1164.29167
1850.414	1169.95833
1853.258	1171.625
1856.1	1180.95833
1858.94	1185.95833
1861.778	1170.625
1864.614	1156.29167
1867.448	1168.95833
1870.28	1150.29167
1873.111	1172.29167
1875.939	1163.29167
1878.765	1183.29167
1881.589	1168.95833
1884.411	1170.29167
1887.231	1155.625
1890.049	1153.29167
1892.865	1155.29167
1895.68	1139.95833
1898.492	1130.95833
1901.302	1127.29167
1904.11	1121.29167
1906.916	1117.95833
1909.721	1110.29167
1912.523	1126.625
1915.323	1106.29167
1918.122	1106.625
1920.918	1120.29167
1923.712	1104.95833
1926.505	1107.625
1929.295	1091.95833
1932.084	1109.29167
1934.87	1100.29167
1937.655	1090.29167
1940.438	1090.29167
1943.218	1087.625
1945.997	1107.29167
1948.774	1122.625
1951.549	1107.29167
1954.322	1096.625
1957.093	1094.625
1959.862	1093.95833
1962.629	1079.95833
1965.394	1067.625
1968.157	1067.29167
1970.918	1069.95833
1973.678	1063.95833
1976.435	1055.29167
1979.19	1060.95833
1981.944	1046.95833
1984.696	1059.29167
1987.445	1039.625
1990.193	1041.95833
1992.939	1072.95833
1995.683	1057.625
1998.425	1037.29167
2001.165	1060.29167
2003.903	1046.625
2006.639	1025.95833
2009.374	1032.625
2012.106	1034.29167
2014.837	1004.95833
2017.566	1048.625
2020.292	1043.95833
2023.017	1032.95833
2025.74	1014.625
2028.461	1022.625
2031.18	1026.95833
2033.898	1010.29167
2036.613	1025.29167
2039.327	1036.95833
2042.038	1012.625
2044.748	1006.625
2047.456	1017.625
2050.162	989.625
2052.866	998.95833
2055.568	1009.95833
2058.268	1004.95833
2060.967	1001.625
2063.663	989.95833
2066.358	1013.625
2069.051	1002.29167
2071.742	1007.29167
2074.431	1002.29167
2077.118	1005.95833
2079.804	999.29167
2082.487	1019.95833
2085.169	1017.95833
2087.849	1037.95833
2090.527	1022.625
2093.203	1031.95833
2095.877	1051.29167
2098.55	1063.95833
2101.22	1087.95833
2103.889	1091.95833
2106.556	1111.29167
2109.221	1193.29167
2111.884	1246.625
2114.546	1340.29167
2117.205	1477.625
2119.863	1622.95833
2122.519	1772.625
2125.173	1919.29167
2127.825	2014.625
2130.475	2021.625
2133.124	1933.95833
2135.771	1848.95833
2138.416	1771.29167
2141.059	1625.29167
2143.7	1540.625
2146.339	1439.29167
2148.977	1369.29167
2151.613	1329.625
2154.247	1270.95833
2156.879	1232.625
2159.51	1168.29167
2162.138	1163.625
2164.765	1155.95833
2167.39	1119.625
2170.013	1128.29167
2172.634	1105.625
2175.254	1087.625
2177.872	1101.29167
2180.488	1058.625
2183.102	1071.625
2185.714	1053.625
2188.325	1026.95833
2190.934	1033.95833
2193.541	1021.625
2196.146	1011.95833
2198.75	988.29167
2201.351	980.95833
2203.951	957.29167
2206.549	968.95833
2209.146	968.625
2211.74	941.95833
2214.333	959.29167
2216.924	931.625
2219.514	932.95833
2222.101	928.625
2224.687	936.29167
2227.271	912.29167
2229.853	903.95833
2232.433	897.625
2235.012	920.625
2237.589	914.29167
2240.164	921.95833
2242.738	902.29167
2245.309	880.29167
2247.879	899.95833
2250.448	894.95833
2253.014	856.625
2255.579	855.625
2258.142	851.95833
2260.703	826.95833
2263.262	839.625
2265.82	838.95833
2268.376	847.625
2270.93	825.625
2273.483	828.625
2276.033	831.95833
2278.583	817.29167
2281.13	822.95833
2283.675	811.95833
2286.219	815.29167
2288.761	814.625
2291.302	812.95833
2293.841	825.95833
2296.377	795.29167
2298.913	800.29167
2301.446	819.29167
2303.978	797.95833
2306.508	796.625
2309.037	791.29167
2311.563	799.29167
2314.088	798.625
2316.612	771.95833
2319.133	786.29167
2321.653	784.29167
2324.171	770.29167
2326.688	799.95833
2329.202	764.625
2331.715	777.29167
2334.227	771.29167
2336.736	762.95833
2339.244	763.95833
2341.751	762.625
2344.255	764.29167
2346.758	752.95833
2349.259	755.95833
2351.759	759.29167
2354.257	742.95833
2356.753	751.625
2359.247	760.625
2361.74	770.625
2364.231	753.625
2366.721	768.625
2369.209	759.625
2371.695	744.29167
2374.179	749.95833
2376.662	744.29167
2379.143	771.29167
2381.622	752.95833
2384.1	759.625
2386.576	746.625
2389.051	753.95833
2391.524	764.95833
2393.995	770.95833
2396.464	760.625
2398.932	744.29167
2401.398	748.625
2403.863	737.625
2406.325	735.625
2408.787	738.625
2411.246	744.95833
2413.704	732.29167
2416.16	724.625
2418.615	732.95833
2421.068	748.95833
2423.519	732.29167
2425.969	734.29167
2428.417	743.95833
2430.863	741.625
2433.308	742.625
2435.751	739.95833
2438.193	730.29167
2440.633	742.29167
2443.071	736.625
2445.508	712.625
2447.943	734.95833
2450.376	717.625
2452.808	736.625
2455.238	719.625
2457.667	750.625
2460.093	727.29167
2462.519	710.29167
2464.942	714.95833
2467.365	740.29167
2469.785	723.29167
2472.204	722.95833
2474.621	717.95833
2477.037	734.625
2479.451	715.625
2481.863	707.625
2484.274	697.95833
2486.683	712.95833
2489.091	711.625
2491.497	719.95833
2493.901	717.625
2496.304	705.625
2498.705	718.625
2501.105	708.95833
2503.503	727.95833
2505.899	697.95833
2508.294	721.625
2510.687	699.29167
2513.079	708.625
2515.469	690.95833
2517.858	708.625
2520.245	725.29167
2522.63	701.95833
2525.014	702.29167
2527.396	703.625
2529.776	694.29167
2532.156	699.95833
2534.533	685.95833
2536.909	698.95833
2539.283	676.95833
2541.656	689.95833
2544.027	715.29167
2546.397	702.625
2548.765	695.625
2551.131	698.95833
2553.496	697.95833
2555.86	702.95833
2558.221	707.95833
2560.582	701.95833
2562.94	691.95833
2565.298	690.625
2567.653	715.95833
2570.007	679.95833
2572.36	694.625
2574.711	701.29167
2577.06	715.29167
2579.408	702.29167
2581.754	696.95833
2584.099	694.29167
2586.442	702.95833
2588.784	695.625
2591.124	697.29167
2593.463	697.625
2595.8	703.625
2598.135	696.29167
2600.469	696.29167
2602.802	707.625
2605.133	713.95833
2607.462	704.29167
2609.79	684.95833
2612.116	702.625
2614.441	705.625
2616.764	704.625
2619.086	707.29167
2621.406	701.95833
2623.725	720.625
2626.042	703.29167
2628.358	698.625
2630.672	695.95833
2632.985	718.95833
2635.296	706.95833
2637.606	715.29167
2639.914	700.95833
2642.22	711.95833
2644.525	712.625
2646.829	723.625
2649.131	723.95833
2651.432	729.29167
2653.731	725.95833
2656.028	736.625
2658.324	732.29167
2660.619	712.95833
2662.912	732.95833
2665.204	717.29167
2667.494	740.95833
2669.782	726.95833
2672.07	745.625
2674.355	746.625
2676.639	727.29167
2678.922	726.625
2681.203	736.29167
2683.483	724.29167
2685.761	722.29167
2688.038	742.625
2690.313	751.95833
2692.587	745.625
2694.859	740.625
2697.13	751.95833
2699.399	745.625
2701.667	762.625
2703.933	772.625
2706.198	773.29167
2708.461	785.95833
2710.723	780.95833
2712.984	769.29167
2715.243	794.625
2717.5	792.29167
2719.757	798.625
2722.011	794.625
2724.264	801.95833
2726.516	819.95833
2728.766	791.29167
2731.015	814.29167
2733.262	811.625
2735.508	798.95833
2737.753	790.625
2739.996	782.625
2742.237	782.95833
2744.477	795.625
2746.716	797.29167
2748.953	783.29167
2751.189	792.95833
2753.423	772.625
2755.656	764.95833
2757.887	772.29167
2760.117	783.95833
2762.346	759.625
2764.573	756.29167
2766.798	770.625
2769.022	783.625
2771.245	771.29167
2773.467	800.95833
2775.686	791.625
2777.905	797.625
2780.122	801.95833
2782.337	801.29167
2784.552	809.625
2786.764	832.29167
2788.976	837.95833
2791.186	837.29167
2793.394	850.29167
2795.601	867.29167
2797.807	880.29167
2800.011	881.29167
2802.214	905.29167
2804.415	891.625
2806.615	905.625
2808.814	920.625
2811.011	924.625
2813.206	929.625
2815.401	956.29167
2817.594	970.95833
2819.785	985.29167
2821.975	976.29167
2824.164	978.95833
2826.351	1018.625
2828.537	1029.29167
2830.722	1057.29167
2832.905	1064.95833
2835.086	1086.95833
2837.267	1137.625
2839.445	1164.29167
2841.623	1191.95833
2843.799	1227.29167
2845.974	1278.29167
2848.147	1323.29167
2850.319	1353.29167
2852.489	1399.29167
2854.659	1406.95833
2856.826	1425.29167
2858.993	1449.95833
2861.158	1430.95833
2863.321	1455.95833
2865.483	1463.29167
2867.644	1456.625
2869.804	1431.95833
2871.962	1438.29167
2874.118	1442.29167
2876.274	1443.625
2878.428	1430.95833
2880.58	1416.95833
2882.731	1409.625
2884.881	1404.625
2887.03	1422.95833
2889.177	1422.95833
2891.322	1422.29167
2893.467	1427.95833
2895.61	1449.625
2897.751	1451.95833
2899.892	1454.29167
2902.03	1469.625
2904.168	1471.29167
2906.304	1479.29167
2908.439	1496.95833
2910.572	1473.625
2912.704	1473.29167
2914.835	1497.95833
2916.965	1499.95833
2919.093	1489.95833
2921.219	1450.95833
2923.345	1459.29167
2925.469	1440.95833
2927.591	1414.29167
2929.712	1384.625
2931.832	1365.29167
2933.951	1339.625
2936.068	1295.625
2938.184	1292.625
2940.299	1233.95833
2942.412	1207.625
2944.524	1165.95833
2946.634	1152.95833
2948.744	1102.29167
2950.851	1119.29167
2952.958	1036.95833
2955.063	1049.95833
2957.167	1017.625
2959.269	989.29167
2961.371	1010.95833
2963.471	957.29167
2965.569	958.625
2967.666	930.95833
2969.762	912.29167
2971.857	881.29167
2973.95	856.625
2976.042	850.29167
2978.133	828.625
2980.222	822.625
2982.31	783.625
2984.396	779.625
2986.482	763.95833
2988.566	756.29167
2990.648	736.95833
2992.73	747.625
2994.81	734.625
2996.889	730.95833
2998.966	731.95833
3001.042	732.29167
3003.117	718.625
3005.191	716.29167
3007.263	712.29167
3009.334	704.95833
3011.403	701.95833
3013.472	678.29167
3015.539	671.95833
3017.604	679.95833
3019.669	642.95833
3021.732	646.95833
3023.794	650.95833
3025.854	625.625
3027.914	630.95833
3029.971	633.29167
3032.028	622.29167
3034.083	621.29167
3036.137	610.625
3038.19	597.95833
3040.242	577.95833
3042.292	566.625
3044.341	562.95833
3046.388	586.29167
3048.435	550.95833
3050.48	562.625
3052.524	558.29167
3054.566	531.29167
3056.607	556.95833
3058.647	541.625
3060.686	513.95833
3062.723	500.29167
3064.759	479.95833
3066.794	-0.04167
3068.828	-1.04167
3070.86	-1.375
