-0.839	395.5
3.438	427.16667
7.711	122.5
11.981	53.5
16.247	42.5
20.509	41.5
24.768	47.5
29.024	44.5
33.276	40.5
37.524	47.5
41.769	39.16667
46.01	33.16667
50.247	51.16667
54.481	59.83333
58.712	60.83333
62.939	49.83333
67.162	57.83333
71.382	57.16667
75.599	44.5
79.812	61.5
84.021	77.16667
88.227	54.5
92.429	61.83333
96.628	46.5
100.823	60.16667
105.015	74.5
109.204	70.16667
113.388	70.83333
117.57	65.5
121.748	81.83333
125.922	73.5
130.093	91.16667
134.261	94.16667
138.425	86.16667
142.585	128.83333
146.742	122.16667
150.896	142.83333
155.046	162.16667
159.193	258.16667
163.336	443.5
167.476	789.83333
171.613	1460.5
175.746	2464.5
179.875	3666.83333
184.002	4847.83333
188.124	5657.16667
192.244	5957.5
196.36	5909.83333
200.472	5758.16667
204.581	5607.16667
208.687	5473.5
212.79	5403.83333
216.889	5441.5
220.984	5466.16667
225.077	5513.16667
229.165	5540.16667
233.251	5540.16667
237.333	5561.16667
241.412	5525.16667
245.487	5533.5
249.559	5457.16667
253.628	5421.83333
257.694	5407.16667
261.756	5358.83333
265.814	5266.16667
269.87	5180.83333
273.922	5078.16667
277.97	5057.5
282.016	5019.16667
286.058	5098.16667
290.097	5183.5
294.132	5253.16667
298.164	5206.16667
302.193	5019.16667
306.219	4667.16667
310.241	4281.83333
314.26	3945.83333
318.276	3664.83333
322.288	3415.83333
326.297	3284.5
330.303	3156.16667
334.305	3071.16667
338.305	3023.5
342.301	2964.16667
346.294	2925.83333
350.283	2896.83333
354.269	2876.83333
358.252	2851.83333
362.232	2861.5
366.209	2814.83333
370.182	2793.16667
374.152	2772.16667
378.119	2762.5
382.083	2762.83333
386.043	2751.83333
390	2738.16667
393.954	2702.5
397.905	2710.83333
401.852	2729.16667
405.797	2686.16667
409.738	2667.83333
413.676	2662.16667
417.61	2673.16667
421.542	2652.16667
425.47	2644.16667
429.396	2608.5
433.318	2595.5
437.236	2581.83333
441.152	2619.5
445.065	2542.5
448.974	2558.16667
452.88	2535.16667
456.783	2540.83333
460.683	2537.5
464.58	2532.16667
468.473	2536.16667
472.364	2548.16667
476.251	2547.5
480.135	2566.83333
484.016	2627.16667
487.894	2643.16667
491.769	2637.5
495.641	2659.5
499.509	2640.83333
503.375	2637.5
507.237	2677.83333
511.096	2728.5
514.952	2980.5
518.805	3299.83333
522.655	3379.83333
526.502	2949.5
530.346	2672.83333
534.187	2630.5
538.024	2586.83333
541.859	2615.5
545.69	2617.16667
549.519	2600.83333
553.344	2547.83333
557.166	2513.83333
560.985	2506.16667
564.802	2496.83333
568.615	2449.16667
572.425	2429.16667
576.232	2411.16667
580.036	2398.16667
583.836	2426.16667
587.634	2432.16667
591.429	2418.16667
595.221	2470.83333
599.01	2482.16667
602.796	2511.83333
606.578	2534.83333
610.358	2549.16667
614.135	2519.5
617.909	2525.16667
621.679	2495.16667
625.447	2464.83333
629.212	2477.5
632.973	2482.16667
636.732	2462.5
640.488	2476.83333
644.241	2435.5
647.991	2436.5
651.737	2482.5
655.481	2452.5
659.222	2472.16667
662.96	2460.83333
666.695	2471.5
670.427	2494.83333
674.156	2491.5
677.882	2484.83333
681.605	2460.5
685.325	2429.16667
689.043	2447.5
692.757	2424.83333
696.468	2429.16667
700.177	2431.83333
703.882	2387.83333
707.585	2393.83333
711.284	2393.5
714.981	2423.83333
718.675	2422.5
722.366	2418.5
726.054	2396.5
729.739	2386.5
733.421	2398.5
737.1	2417.16667
740.777	2419.16667
744.45	2426.5
748.121	2437.16667
751.789	2480.16667
755.453	2460.5
759.115	2470.16667
762.774	2504.16667
766.431	2514.16667
770.084	2525.83333
773.734	2526.16667
777.382	2575.83333
781.027	2586.16667
784.669	2604.83333
788.308	2622.5
791.944	2644.83333
795.577	2678.83333
799.208	2698.16667
802.835	2708.5
806.46	2722.16667
810.082	2732.5
813.701	2752.5
817.317	2775.5
820.931	2755.83333
824.542	2746.83333
828.149	2707.83333
831.754	2697.5
835.357	2655.83333
838.956	2659.5
842.553	2642.5
846.146	2633.5
849.737	2609.83333
853.326	2606.83333
856.911	2601.5
860.493	2658.5
864.073	2631.5
867.65	2676.5
871.225	2704.5
874.796	2726.83333
878.365	2745.16667
881.931	2737.5
885.494	2762.83333
889.054	2750.83333
892.612	2776.83333
896.166	2738.83333
899.719	2706.83333
903.268	2699.16667
906.814	2697.16667
910.358	2680.5
913.899	2658.16667
917.438	2649.5
920.973	2674.16667
924.506	2709.83333
928.036	2739.83333
931.564	2783.83333
935.088	2808.83333
938.61	2814.83333
942.129	2850.83333
945.646	2898.16667
949.16	2965.83333
952.671	3003.5
956.179	3016.83333
959.685	3005.5
963.188	3011.16667
966.688	2970.83333
970.185	2879.83333
973.68	2818.83333
977.173	2782.5
980.662	2755.83333
984.149	2739.16667
987.633	2715.83333
991.114	2730.83333
994.593	2790.5
998.069	2836.83333
1001.542	2923.16667
1005.013	2853.5
1008.481	2719.16667
1011.947	2668.16667
1015.409	2656.16667
1018.869	2679.16667
1022.327	2640.16667
1025.782	2645.83333
1029.234	2660.5
1032.683	2637.5
1036.13	2570.5
1039.574	2466.16667
1043.016	2416.16667
1046.455	2386.5
1049.891	2349.5
1053.325	2367.83333
1056.756	2347.16667
1060.184	2379.16667
1063.61	2384.5
1067.033	2408.16667
1070.454	2388.16667
1073.872	2438.16667
1077.287	2421.5
1080.7	2453.5
1084.11	2448.16667
1087.517	2450.5
1090.922	2398.83333
1094.325	2369.83333
1097.724	2332.5
1101.122	2335.83333
1104.516	2340.83333
1107.908	2337.16667
1111.298	2365.16667
1114.684	2388.83333
1118.069	2406.83333
1121.45	2443.16667
1124.83	2447.16667
1128.206	2477.16667
1131.58	2501.83333
1134.951	2555.16667
1138.32	2653.5
1141.687	2707.83333
1145.05	2788.16667
1148.412	2799.16667
1151.77	2774.5
1155.126	2770.16667
1158.48	2781.83333
1161.831	2797.5
1165.18	2775.83333
1168.525	2832.16667
1171.869	2851.5
1175.21	2892.83333
1178.548	2926.83333
1181.884	2952.5
1185.217	2964.16667
1188.548	3062.5
1191.877	3106.83333
1195.202	3203.16667
1198.526	3256.83333
1201.846	3301.5
1205.165	3294.16667
1208.48	3268.83333
1211.794	3272.83333
1215.104	3303.83333
1218.413	3288.83333
1221.719	3300.5
1225.022	3253.83333
1228.323	3207.16667
1231.621	3176.16667
1234.917	3149.16667
1238.21	3170.5
1241.501	3155.83333
1244.79	3128.83333
1248.076	3156.16667
1251.359	3187.16667
1254.64	3238.83333
1257.919	3242.5
1261.195	3285.83333
1264.468	3317.83333
1267.74	3387.83333
1271.008	3387.83333
1274.275	3367.16667
1277.538	3360.16667
1280.8	3345.83333
1284.059	3348.83333
1287.315	3370.83333
1290.569	3394.83333
1293.821	3432.83333
1297.07	3429.83333
1300.317	3441.83333
1303.562	3436.5
1306.803	3403.83333
1310.043	3389.83333
1313.28	3351.16667
1316.515	3324.5
1319.747	3300.16667
1322.977	3244.83333
1326.204	3250.83333
1329.429	3219.5
1332.652	3202.83333
1335.872	3207.16667
1339.09	3173.5
1342.306	3170.83333
1345.519	3111.5
1348.729	3055.16667
1351.938	3058.16667
1355.144	2970.83333
1358.347	2933.83333
1361.548	2955.16667
1364.747	2946.5
1367.944	2908.83333
1371.138	2909.16667
1374.329	2905.83333
1377.518	2930.83333
1380.705	2973.16667
1383.89	2934.16667
1387.072	2823.83333
1390.252	2745.5
1393.429	2668.16667
1396.605	2624.16667
1399.777	2547.5
1402.948	2537.5
1406.116	2544.5
1409.282	2550.16667
1412.445	2542.5
1415.606	2599.16667
1418.765	2615.83333
1421.921	2689.5
1425.075	2736.83333
1428.227	2819.5
1431.376	2918.16667
1434.524	3005.5
1437.668	3081.83333
1440.811	3112.83333
1443.951	3129.5
1447.089	3155.16667
1450.224	3134.5
1453.357	3115.5
1456.488	3109.5
1459.617	3069.16667
1462.743	3011.83333
1465.867	2965.16667
1468.989	2947.83333
1472.108	2887.16667
1475.225	2831.16667
1478.34	2803.16667
1481.453	2809.83333
1484.563	2803.83333
1487.671	2862.83333
1490.776	2890.16667
1493.88	2912.83333
1496.981	2978.83333
1500.08	3012.5
1503.176	3049.83333
1506.271	3076.83333
1509.363	3140.83333
1512.452	3168.5
1515.54	3206.16667
1518.625	3269.5
1521.708	3352.83333
1524.789	3486.83333
1527.867	3617.83333
1530.944	3773.16667
1534.018	3918.83333
1537.089	4048.16667
1540.159	4071.5
1543.226	4029.5
1546.291	3921.5
1549.354	3872.5
1552.415	3751.83333
1555.473	3652.16667
1558.529	3576.16667
1561.583	3538.5
1564.634	3507.16667
1567.684	3504.16667
1570.731	3511.16667
1573.776	3531.5
1576.819	3550.83333
1579.859	3599.16667
1582.898	3632.16667
1585.934	3656.16667
1588.968	3664.5
1591.999	3666.83333
1595.029	3673.83333
1598.056	3702.83333
1601.081	3719.83333
1604.104	3696.5
1607.125	3683.83333
1610.144	3595.16667
1613.16	3505.83333
1616.174	3449.83333
1619.186	3349.16667
1622.196	3276.5
1625.203	3195.5
1628.209	3137.16667
1631.212	3134.83333
1634.213	3147.5
1637.212	3133.5
1640.209	3104.16667
1643.203	2996.83333
1646.196	2901.5
1649.186	2775.83333
1652.174	2728.16667
1655.16	2625.83333
1658.144	2573.16667
1661.125	2440.16667
1664.105	2312.16667
1667.082	2234.83333
1670.057	2113.83333
1673.03	1994.83333
1676.001	1853.5
1678.97	1779.5
1681.937	1686.83333
1684.901	1601.83333
1687.863	1569.83333
1690.824	1480.83333
1693.782	1466.5
1696.738	1421.83333
1699.692	1397.83333
1702.643	1360.16667
1705.593	1359.5
1708.54	1325.5
1711.486	1332.5
1714.429	1307.16667
1717.37	1299.5
1720.309	1280.83333
1723.246	1284.5
1726.181	1245.83333
1729.113	1262.16667
1732.044	1229.5
1734.972	1242.83333
1737.899	1248.16667
1740.823	1234.83333
1743.745	1227.83333
1746.665	1190.83333
1749.583	1171.16667
1752.499	1169.16667
1755.413	1149.16667
1758.325	1107.16667
1761.235	1130.5
1764.142	1105.83333
1767.048	1107.83333
1769.951	1106.83333
1772.852	1084.83333
1775.752	1086.83333
1778.649	1087.16667
1781.544	1098.16667
1784.437	1072.16667
1787.328	1070.83333
1790.217	1056.83333
1793.104	1044.83333
1795.989	1032.83333
1798.872	1031.5
1801.753	1056.83333
1804.631	1041.16667
1807.508	1066.16667
1810.383	1045.16667
1813.255	1043.5
1816.126	1036.16667
1818.994	1033.5
1821.861	1031.16667
1824.725	1021.16667
1827.587	1023.16667
1830.448	1013.83333
1833.306	989.16667
1836.162	1019.5
1839.017	990.5
1841.869	1005.83333
1844.719	988.83333
1847.567	976.16667
1850.414	992.83333
1853.258	980.83333
1856.1	1000.16667
1858.94	998.16667
1861.778	984.16667
1864.614	983.5
1867.448	987.16667
1870.28	972.16667
1873.111	992.83333
1875.939	984.5
1878.765	992.83333
1881.589	970.83333
1884.411	970.5
1887.231	993.83333
1890.049	980.16667
1892.865	973.5
1895.68	958.16667
1898.492	963.83333
1901.302	956.16667
1904.11	952.16667
1906.916	946.83333
1909.721	949.5
1912.523	957.83333
1915.323	940.83333
1918.122	946.5
1920.918	950.5
1923.712	954.83333
1926.505	946.83333
1929.295	923.5
1932.084	941.5
1934.87	948.5
1937.655	944.16667
1940.438	936.5
1943.218	944.83333
1945.997	941.83333
1948.774	946.16667
1951.549	955.16667
1954.322	929.5
1957.093	937.83333
1959.862	911.5
1962.629	928.16667
1965.394	911.5
1968.157	911.5
1970.918	922.83333
1973.678	921.83333
1976.435	919.16667
1979.19	908.83333
1981.944	897.16667
1984.696	911.5
1987.445	902.16667
1990.193	906.83333
1992.939	922.16667
1995.683	904.83333
1998.425	894.5
2001.165	917.5
2003.903	899.16667
2006.639	892.5
2009.374	896.83333
2012.106	905.16667
2014.837	880.16667
2017.566	919.5
2020.292	909.83333
2023.017	910.83333
2025.74	901.83333
2028.461	900.16667
2031.18	897.16667
2033.898	881.83333
2036.613	903.83333
2039.327	905.5
2042.038	881.5
2044.748	900.5
2047.456	895.5
2050.162	877.83333
2052.866	887.83333
2055.568	913.16667
2058.268	897.5
2060.967	900.83333
2063.663	867.16667
2066.358	898.16667
2069.051	882.16667
2071.742	901.83333
2074.431	904.5
2077.118	891.83333
2079.804	876.83333
2082.487	891.83333
2085.169	907.16667
2087.849	913.83333
2090.527	897.5
2093.203	920.83333
2095.877	912.16667
2098.55	914.16667
2101.22	928.83333
2103.889	953.16667
2106.556	940.83333
2109.221	978.16667
2111.884	998.83333
2114.546	1048.16667
2117.205	1094.5
2119.863	1167.83333
2122.519	1220.83333
2125.173	1298.5
2127.825	1344.5
2130.475	1319.16667
2133.124	1315.83333
2135.771	1253.16667
2138.416	1233.5
2141.059	1172.16667
2143.7	1135.83333
2146.339	1082.83333
2148.977	1036.16667
2151.613	1019.16667
2154.247	1002.16667
2156.879	984.83333
2159.51	966.16667
2162.138	939.5
2164.765	954.83333
2167.39	930.83333
2170.013	958.83333
2172.634	954.16667
2175.254	927.5
2177.872	955.83333
2180.488	921.16667
2183.102	920.16667
2185.714	901.83333
2188.325	884.16667
2190.934	903.83333
2193.541	901.16667
2196.146	883.16667
2198.75	869.16667
2201.351	882.5
2203.951	865.5
2206.549	884.83333
2209.146	859.5
2211.74	871.83333
2214.333	885.5
2216.924	857.16667
2219.514	874.5
2222.101	856.5
2224.687	871.5
2227.271	862.5
2229.853	865.5
2232.433	848.16667
2235.012	875.5
2237.589	869.83333
2240.164	886.16667
2242.738	871.83333
2245.309	849.83333
2247.879	863.83333
2250.448	871.5
2253.014	833.16667
2255.579	845.16667
2258.142	848.5
2260.703	826.5
2263.262	840.5
2265.82	827.5
2268.376	850.5
2270.93	833.83333
2273.483	833.5
2276.033	831.83333
2278.583	839.5
2281.13	843.5
2283.675	824.5
2286.219	822.16667
2288.761	846.83333
2291.302	839.5
2293.841	843.5
2296.377	816.83333
2298.913	831.83333
2301.446	845.16667
2303.978	830.5
2306.508	831.83333
2309.037	847.83333
2311.563	841.83333
2314.088	841.83333
2316.612	838.5
2319.133	849.5
2321.653	830.5
2324.171	836.5
2326.688	850.83333
2329.202	835.5
2331.715	843.83333
2334.227	845.16667
2336.736	834.5
2339.244	833.16667
2341.751	827.16667
2344.255	838.83333
2346.758	836.16667
2349.259	819.83333
2351.759	843.83333
2354.257	838.5
2356.753	830.16667
2359.247	843.5
2361.74	845.5
2364.231	843.5
2366.721	846.5
2369.209	831.16667
2371.695	831.5
2374.179	832.16667
2376.662	825.83333
2379.143	855.16667
2381.622	857.16667
2384.1	862.83333
2386.576	848.16667
2389.051	857.83333
2391.524	862.16667
2393.995	870.83333
2396.464	867.83333
2398.932	853.5
2401.398	855.5
2403.863	849.83333
2406.325	866.83333
2408.787	857.16667
2411.246	863.16667
2413.704	861.5
2416.16	860.5
2418.615	876.83333
2421.068	876.83333
2423.519	874.83333
2425.969	873.83333
2428.417	874.16667
2430.863	907.16667
2433.308	899.5
2435.751	878.83333
2438.193	867.5
2440.633	885.83333
2443.071	894.5
2445.508	886.5
2447.943	886.16667
2450.376	889.83333
2452.808	887.83333
2455.238	878.5
2457.667	915.83333
2460.093	897.83333
2462.519	884.5
2464.942	890.5
2467.365	903.16667
2469.785	894.83333
2472.204	898.83333
2474.621	894.83333
2477.037	923.5
2479.451	893.83333
2481.863	898.5
2484.274	902.16667
2486.683	923.83333
2489.091	923.16667
2491.497	919.5
2493.901	923.16667
2496.304	918.16667
2498.705	931.5
2501.105	917.16667
2503.503	954.5
2505.899	918.16667
2508.294	945.83333
2510.687	920.5
2513.079	940.16667
2515.469	939.16667
2517.858	924.83333
2520.245	945.5
2522.63	935.16667
2525.014	941.5
2527.396	930.5
2529.776	927.16667
2532.156	947.16667
2534.533	920.16667
2536.909	941.16667
2539.283	929.5
2541.656	949.5
2544.027	963.5
2546.397	960.5
2548.765	955.5
2551.131	959.83333
2553.496	966.83333
2555.86	965.83333
2558.221	969.83333
2560.582	973.16667
2562.94	959.16667
2565.298	957.16667
2567.653	982.83333
2570.007	957.83333
2572.36	986.83333
2574.711	971.83333
2577.06	995.5
2579.408	981.16667
2581.754	1000.83333
2584.099	983.83333
2586.442	1001.16667
2588.784	995.16667
2591.124	1003.16667
2593.463	997.83333
2595.8	1005.5
2598.135	998.5
2600.469	1015.16667
2602.802	1027.83333
2605.133	1003.5
2607.462	1002.5
2609.79	1000.5
2612.116	1025.16667
2614.441	1019.5
2616.764	1023.16667
2619.086	1026.5
2621.406	1021.16667
2623.725	1047.83333
2626.042	1038.5
2628.358	1033.83333
2630.672	1033.16667
2632.985	1050.5
2635.296	1052.16667
2637.606	1074.5
2639.914	1054.5
2642.22	1059.16667
2644.525	1050.83333
2646.829	1079.16667
2649.131	1087.83333
2651.432	1095.5
2653.731	1088.5
2656.028	1108.5
2658.324	1110.5
2660.619	1101.16667
2662.912	1128.5
2665.204	1089.5
2667.494	1113.83333
2669.782	1095.16667
2672.07	1116.83333
2674.355	1117.83333
2676.639	1122.16667
2678.922	1092.83333
2681.203	1119.16667
2683.483	1095.16667
2685.761	1094.5
2688.038	1127.83333
2690.313	1140.83333
2692.587	1130.83333
2694.859	1128.83333
2697.13	1141.5
2699.399	1149.5
2701.667	1154.83333
2703.933	1167.5
2706.198	1151.5
2708.461	1174.16667
2710.723	1189.16667
2712.984	1180.5
2715.243	1209.5
2717.5	1178.5
2719.757	1207.16667
2722.011	1215.5
2724.264	1225.16667
2726.516	1238.5
2728.766	1242.16667
2731.015	1241.5
2733.262	1233.83333
2735.508	1222.83333
2737.753	1240.16667
2739.996	1234.83333
2742.237	1240.83333
2744.477	1234.83333
2746.716	1221.16667
2748.953	1240.5
2751.189	1228.83333
2753.423	1221.5
2755.656	1214.83333
2757.887	1224.16667
2760.117	1222.83333
2762.346	1224.16667
2764.573	1210.5
2766.798	1214.16667
2769.022	1227.16667
2771.245	1224.16667
2773.467	1239.16667
2775.686	1244.83333
2777.905	1240.83333
2780.122	1242.5
2782.337	1263.16667
2784.552	1256.5
2786.764	1292.83333
2788.976	1278.5
2791.186	1311.16667
2793.394	1302.16667
2795.601	1314.16667
2797.807	1326.5
2800.011	1348.16667
2802.214	1354.16667
2804.415	1354.83333
2806.615	1349.16667
2808.814	1351.16667
2811.011	1372.83333
2813.206	1364.16667
2815.401	1389.16667
2817.594	1396.83333
2819.785	1403.16667
2821.975	1399.83333
2824.164	1407.5
2826.351	1434.5
2828.537	1452.83333
2830.722	1442.83333
2832.905	1452.16667
2835.086	1484.5
2837.267	1514.83333
2839.445	1554.5
2841.623	1557.16667
2843.799	1589.5
2845.974	1619.5
2848.147	1662.5
2850.319	1679.16667
2852.489	1730.16667
2854.659	1729.16667
2856.826	1749.83333
2858.993	1768.5
2861.158	1746.83333
2863.321	1743.83333
2865.483	1784.5
2867.644	1773.83333
2869.804	1762.16667
2871.962	1747.16667
2874.118	1775.16667
2876.274	1761.83333
2878.428	1751.16667
2880.58	1722.16667
2882.731	1729.16667
2884.881	1725.16667
2887.03	1730.16667
2889.177	1741.83333
2891.322	1757.5
2893.467	1744.16667
2895.61	1749.5
2897.751	1785.5
2899.892	1766.83333
2902.03	1784.16667
2904.168	1772.5
2906.304	1795.5
2908.439	1833.83333
2910.572	1805.16667
2912.704	1837.16667
2914.835	1835.83333
2916.965	1838.5
2919.093	1853.5
2921.219	1800.16667
2923.345	1834.16667
2925.469	1800.83333
2927.591	1782.16667
2929.712	1746.5
2931.832	1748.5
2933.951	1725.5
2936.068	1711.5
2938.184	1696.5
2940.299	1646.16667
2942.412	1654.16667
2944.524	1604.16667
2946.634	1614.83333
2948.744	1563.16667
2950.851	1585.16667
2952.958	1550.83333
2955.063	1539.83333
2957.167	1550.5
2959.269	1512.83333
2961.371	1554.83333
2963.471	1516.5
2965.569	1512.83333
2967.666	1500.16667
2969.762	1481.5
2971.857	1467.83333
2973.95	1437.16667
2976.042	1422.83333
2978.133	1422.16667
2980.222	1405.16667
2982.31	1371.83333
2984.396	1357.5
2986.482	1339.83333
2988.566	1343.83333
2990.648	1334.5
2992.73	1331.5
2994.81	1324.83333
2996.889	1341.16667
2998.966	1346.5
3001.042	1354.83333
3003.117	1341.5
3005.191	1325.5
3007.263	1338.83333
3009.334	1313.5
3011.403	1317.83333
3013.472	1283.83333
3015.539	1294.16667
3017.604	1274.5
3019.669	1231.83333
3021.732	1246.5
3023.794	1249.83333
3025.854	1234.83333
3027.914	1233.5
3029.971	1248.5
3032.028	1249.5
3034.083	1229.16667
3036.137	1218.83333
3038.19	1203.16667
3040.242	1160.16667
3042.292	1136.83333
3044.341	1119.83333
3046.388	1122.5
3048.435	1101.83333
3050.48	1124.16667
3052.524	1112.16667
3054.566	1084.83333
3056.607	1080.5
3058.647	1067.5
3060.686	1028.16667
3062.723	1003.83333
3064.759	969.16667
3066.794	0.5
3068.828	-1.83333
3070.86	-1.16667
