-0.839	412.125
3.438	437.79167
7.711	126.125
11.981	50.125
16.247	46.45833
20.509	41.125
24.768	42.125
29.024	42.45833
33.276	42.79167
37.524	47.125
41.769	39.125
46.01	32.79167
50.247	51.45833
54.481	60.45833
58.712	66.125
62.939	48.125
67.162	56.45833
71.382	56.125
75.599	48.125
79.812	64.79167
84.021	80.125
88.227	61.45833
92.429	61.79167
96.628	48.79167
100.823	68.45833
105.015	72.79167
109.204	72.125
113.388	73.125
117.57	70.79167
121.748	88.79167
125.922	76.125
130.093	92.79167
134.261	99.45833
138.425	92.125
142.585	131.45833
146.742	135.79167
150.896	158.125
155.046	197.125
159.193	323.125
163.336	546.125
167.476	1009.79167
171.613	1840.125
175.746	3071.79167
179.875	4545.125
184.002	5899.79167
188.124	6787.45833
192.244	7066.125
196.36	6910.45833
200.472	6602.79167
204.581	6372.125
208.687	6092.79167
212.79	5947.125
216.889	5887.125
220.984	5868.45833
225.077	5875.125
229.165	5861.79167
233.251	5837.45833
237.333	5816.45833
241.412	5733.125
245.487	5673.45833
249.559	5609.125
253.628	5530.45833
257.694	5456.125
261.756	5437.45833
265.814	5319.79167
269.87	5195.125
273.922	5039.79167
277.97	4970.125
282.016	4957.45833
286.058	4961.79167
290.097	5056.79167
294.132	5071.45833
298.164	5048.125
302.193	4818.79167
306.219	4441.79167
310.241	4033.79167
314.26	3665.125
318.276	3380.79167
322.288	3134.79167
326.297	2967.125
330.303	2832.79167
334.305	2725.45833
338.305	2668.125
342.301	2639.125
346.294	2585.125
350.283	2545.79167
354.269	2530.125
358.252	2499.45833
362.232	2470.79167
366.209	2442.125
370.182	2421.79167
374.152	2398.125
378.119	2422.125
382.083	2403.125
386.043	2397.125
390	2361.125
393.954	2358.45833
397.905	2321.79167
401.852	2338.79167
405.797	2303.45833
409.738	2267.125
413.676	2249.79167
417.61	2233.125
421.542	2219.79167
425.47	2219.125
429.396	2190.79167
433.318	2154.125
437.236	2162.45833
441.152	2169.79167
445.065	2117.79167
448.974	2114.79167
452.88	2093.125
456.783	2078.45833
460.683	2072.125
464.58	2060.79167
468.473	2084.45833
472.364	2054.79167
476.251	2089.125
480.135	2078.125
484.016	2121.125
487.894	2128.45833
491.769	2143.125
495.641	2110.125
499.509	2123.125
503.375	2126.45833
507.237	2139.45833
511.096	2161.79167
514.952	2257.79167
518.805	2345.45833
522.655	2385.79167
526.502	2236.79167
530.346	2136.45833
534.187	2140.79167
538.024	2112.79167
541.859	2127.79167
545.69	2160.79167
549.519	2124.125
553.344	2100.125
557.166	2076.79167
560.985	2059.45833
564.802	2017.125
568.615	1990.125
572.425	1956.79167
576.232	1959.45833
580.036	1948.79167
583.836	1960.125
587.634	1963.45833
591.429	1958.125
595.221	2019.125
599.01	2019.45833
602.796	2050.79167
606.578	2056.45833
610.358	2055.125
614.135	2042.45833
617.909	2035.79167
621.679	2035.45833
625.447	2010.79167
629.212	2019.45833
632.973	2035.125
636.732	2007.79167
640.488	2033.79167
644.241	1983.45833
647.991	1985.79167
651.737	2002.79167
655.481	1962.79167
659.222	1967.79167
662.96	1951.79167
666.695	1984.125
670.427	2028.45833
674.156	2025.45833
677.882	2007.125
681.605	2005.79167
685.325	1968.79167
689.043	2026.125
692.757	1974.79167
696.468	1989.79167
700.177	1993.79167
703.882	1980.125
707.585	1977.45833
711.284	1976.125
714.981	1991.125
718.675	1999.125
722.366	2000.125
726.054	1996.45833
729.739	1986.79167
733.421	2006.45833
737.1	1980.125
740.777	2013.45833
744.45	2011.79167
748.121	2029.45833
751.789	2075.125
755.453	2059.79167
759.115	2080.45833
762.774	2098.79167
766.431	2105.45833
770.084	2137.45833
773.734	2154.45833
777.382	2205.45833
781.027	2205.45833
784.669	2219.125
788.308	2253.125
791.944	2271.125
795.577	2299.125
799.208	2318.79167
802.835	2311.79167
806.46	2308.125
810.082	2316.45833
813.701	2330.79167
817.317	2360.79167
820.931	2345.79167
824.542	2362.125
828.149	2347.79167
831.754	2338.45833
835.357	2323.125
838.956	2339.79167
842.553	2322.45833
846.146	2321.45833
849.737	2295.45833
853.326	2314.125
856.911	2317.125
860.493	2348.79167
864.073	2329.79167
867.65	2416.125
871.225	2438.45833
874.796	2422.125
878.365	2443.45833
881.931	2455.45833
885.494	2491.45833
889.054	2475.125
892.612	2476.125
896.166	2453.125
899.719	2431.79167
903.268	2405.125
906.814	2382.125
910.358	2369.45833
913.899	2361.45833
917.438	2355.125
920.973	2335.79167
924.506	2378.45833
928.036	2416.45833
931.564	2457.79167
935.088	2472.79167
938.61	2484.79167
942.129	2493.125
945.646	2572.79167
949.16	2610.125
952.671	2693.79167
956.179	2704.79167
959.685	2658.125
963.188	2635.125
966.688	2576.79167
970.185	2512.45833
973.68	2503.125
977.173	2480.125
980.662	2454.79167
984.149	2451.45833
987.633	2445.45833
991.114	2492.79167
994.593	2583.79167
998.069	2646.125
1001.542	2728.79167
1005.013	2651.125
1008.481	2513.125
1011.947	2492.45833
1015.409	2439.79167
1018.869	2476.45833
1022.327	2474.45833
1025.782	2454.45833
1029.234	2438.125
1032.683	2399.79167
1036.13	2340.45833
1039.574	2234.45833
1043.016	2194.79167
1046.455	2151.125
1049.891	2133.45833
1053.325	2143.125
1056.756	2137.125
1060.184	2135.125
1063.61	2161.45833
1067.033	2161.125
1070.454	2174.125
1073.872	2202.45833
1077.287	2180.125
1080.7	2191.125
1084.11	2220.125
1087.517	2188.125
1090.922	2160.79167
1094.325	2143.125
1097.724	2105.45833
1101.122	2132.79167
1104.516	2113.45833
1107.908	2134.125
1111.298	2162.45833
1114.684	2161.45833
1118.069	2210.125
1121.45	2226.125
1124.83	2231.79167
1128.206	2270.45833
1131.58	2308.125
1134.951	2369.125
1138.32	2444.125
1141.687	2541.79167
1145.05	2601.45833
1148.412	2619.125
1151.77	2608.125
1155.126	2619.125
1158.48	2593.79167
1161.831	2629.79167
1165.18	2648.79167
1168.525	2682.45833
1171.869	2736.79167
1175.21	2732.125
1178.548	2777.45833
1181.884	2776.45833
1185.217	2799.45833
1188.548	2861.125
1191.877	2898.79167
1195.202	2971.45833
1198.526	3001.45833
1201.846	3014.79167
1205.165	3008.45833
1208.48	2991.45833
1211.794	2967.45833
1215.104	2992.125
1218.413	2994.79167
1221.719	2976.125
1225.022	2948.45833
1228.323	2915.125
1231.621	2908.45833
1234.917	2909.125
1238.21	2925.45833
1241.501	2910.79167
1244.79	2895.45833
1248.076	2895.45833
1251.359	2949.79167
1254.64	3002.79167
1257.919	3027.125
1261.195	3070.125
1264.468	3118.79167
1267.74	3174.125
1271.008	3186.79167
1274.275	3166.45833
1277.538	3143.125
1280.8	3148.79167
1284.059	3139.125
1287.315	3152.125
1290.569	3164.79167
1293.821	3182.45833
1297.07	3211.125
1300.317	3219.125
1303.562	3236.125
1306.803	3172.125
1310.043	3151.79167
1313.28	3101.79167
1316.515	3079.45833
1319.747	3060.45833
1322.977	3027.79167
1326.204	2972.125
1329.429	2952.79167
1332.652	2897.125
1335.872	2890.125
1339.09	2866.125
1342.306	2849.45833
1345.519	2825.125
1348.729	2811.45833
1351.938	2784.45833
1355.144	2756.79167
1358.347	2722.79167
1361.548	2705.45833
1364.747	2730.125
1367.944	2684.45833
1371.138	2743.79167
1374.329	2750.79167
1377.518	2776.79167
1380.705	2818.125
1383.89	2816.45833
1387.072	2703.125
1390.252	2612.125
1393.429	2531.45833
1396.605	2433.125
1399.777	2383.45833
1402.948	2359.45833
1406.116	2349.125
1409.282	2346.45833
1412.445	2339.79167
1415.606	2377.79167
1418.765	2414.45833
1421.921	2452.45833
1425.075	2536.79167
1428.227	2605.79167
1431.376	2718.45833
1434.524	2815.125
1437.668	2884.125
1440.811	2935.79167
1443.951	2940.79167
1447.089	2928.125
1450.224	2960.79167
1453.357	2919.125
1456.488	2899.45833
1459.617	2888.79167
1462.743	2825.125
1465.867	2748.79167
1468.989	2734.125
1472.108	2687.125
1475.225	2636.125
1478.34	2601.79167
1481.453	2602.79167
1484.563	2609.45833
1487.671	2663.45833
1490.776	2719.45833
1493.88	2771.45833
1496.981	2839.125
1500.08	2855.125
1503.176	2909.45833
1506.271	2963.125
1509.363	2996.79167
1512.452	3012.79167
1515.54	3066.125
1518.625	3139.125
1521.708	3237.79167
1524.789	3348.45833
1527.867	3524.125
1530.944	3715.45833
1534.018	3921.45833
1537.089	4063.125
1540.159	4105.125
1543.226	4049.125
1546.291	3973.45833
1549.354	3855.125
1552.415	3746.125
1555.473	3659.79167
1558.529	3545.79167
1561.583	3527.125
1564.634	3484.45833
1567.684	3475.79167
1570.731	3467.125
1573.776	3529.125
1576.819	3522.125
1579.859	3539.125
1582.898	3600.125
1585.934	3600.125
1588.968	3617.125
1591.999	3623.125
1595.029	3618.45833
1598.056	3647.45833
1601.081	3655.125
1604.104	3638.45833
1607.125	3596.79167
1610.144	3512.45833
1613.16	3449.79167
1616.174	3334.125
1619.186	3296.45833
1622.196	3178.45833
1625.203	3091.45833
1628.209	3071.79167
1631.212	3001.125
1634.213	2960.45833
1637.212	2911.79167
1640.209	2852.79167
1643.203	2788.79167
1646.196	2708.125
1649.186	2614.125
1652.174	2561.45833
1655.16	2491.79167
1658.144	2407.45833
1661.125	2325.125
1664.105	2228.45833
1667.082	2135.45833
1670.057	2005.45833
1673.03	1908.125
1676.001	1776.45833
1678.97	1647.79167
1681.937	1555.125
1684.901	1450.125
1687.863	1415.45833
1690.824	1358.125
1693.782	1320.79167
1696.738	1273.125
1699.692	1261.125
1702.643	1219.45833
1705.593	1207.125
1708.54	1192.79167
1711.486	1200.79167
1714.429	1172.45833
1717.37	1153.45833
1720.309	1131.45833
1723.246	1142.125
1726.181	1110.125
1729.113	1102.45833
1732.044	1082.45833
1734.972	1079.79167
1737.899	1085.45833
1740.823	1067.125
1743.745	1071.125
1746.665	1015.125
1749.583	1017.45833
1752.499	994.125
1755.413	996.45833
1758.325	958.125
1761.235	972.125
1764.142	948.125
1767.048	934.125
1769.951	930.45833
1772.852	922.45833
1775.752	920.79167
1778.649	915.45833
1781.544	908.79167
1784.437	894.125
1787.328	900.45833
1790.217	898.79167
1793.104	864.79167
1795.989	869.125
1798.872	852.79167
1801.753	882.79167
1804.631	879.125
1807.508	881.45833
1810.383	875.125
1813.255	870.45833
1816.126	856.125
1818.994	859.45833
1821.861	844.125
1824.725	847.79167
1827.587	828.125
1830.448	839.45833
1833.306	827.79167
1836.162	832.79167
1839.017	821.79167
1841.869	826.79167
1844.719	824.45833
1847.567	807.79167
1850.414	815.79167
1853.258	795.79167
1856.1	804.79167
1858.94	825.125
1861.778	808.45833
1864.614	798.45833
1867.448	813.125
1870.28	794.79167
1873.111	817.45833
1875.939	806.79167
1878.765	830.125
1881.589	793.79167
1884.411	798.79167
1887.231	811.45833
1890.049	787.45833
1892.865	795.125
1895.68	798.45833
1898.492	790.79167
1901.302	783.125
1904.11	775.79167
1906.916	775.125
1909.721	766.45833
1912.523	780.45833
1915.323	760.45833
1918.122	762.125
1920.918	772.45833
1923.712	772.45833
1926.505	774.125
1929.295	757.125
1932.084	757.125
1934.87	765.45833
1937.655	755.45833
1940.438	748.125
1943.218	752.79167
1945.997	761.125
1948.774	766.79167
1951.549	768.79167
1954.322	748.45833
1957.093	762.79167
1959.862	745.125
1962.629	745.79167
1965.394	745.45833
1968.157	735.45833
1970.918	748.125
1973.678	731.45833
1976.435	743.45833
1979.19	732.79167
1981.944	726.79167
1984.696	728.45833
1987.445	717.125
1990.193	728.125
1992.939	738.79167
1995.683	729.45833
1998.425	712.125
2001.165	740.125
2003.903	718.125
2006.639	714.79167
2009.374	718.125
2012.106	723.79167
2014.837	695.125
2017.566	712.125
2020.292	723.79167
2023.017	723.45833
2025.74	711.45833
2028.461	706.79167
2031.18	720.45833
2033.898	707.125
2036.613	711.45833
2039.327	711.125
2042.038	695.45833
2044.748	702.79167
2047.456	710.79167
2050.162	689.79167
2052.866	699.45833
2055.568	705.79167
2058.268	692.79167
2060.967	705.79167
2063.663	683.45833
2066.358	699.125
2069.051	675.45833
2071.742	705.125
2074.431	694.79167
2077.118	692.79167
2079.804	681.125
2082.487	691.125
2085.169	696.79167
2087.849	712.79167
2090.527	692.45833
2093.203	708.125
2095.877	705.45833
2098.55	711.79167
2101.22	722.125
2103.889	730.79167
2106.556	722.125
2109.221	761.125
2111.884	767.79167
2114.546	842.125
2117.205	885.79167
2119.863	980.125
2122.519	1017.45833
2125.173	1094.79167
2127.825	1176.45833
2130.475	1176.45833
2133.124	1145.79167
2135.771	1095.125
2138.416	1057.45833
2141.059	993.125
2143.7	947.79167
2146.339	879.45833
2148.977	832.125
2151.613	826.79167
2154.247	800.125
2156.879	787.125
2159.51	768.45833
2162.138	748.125
2164.765	747.79167
2167.39	732.45833
2170.013	733.79167
2172.634	742.125
2175.254	718.125
2177.872	746.125
2180.488	713.125
2183.102	704.125
2185.714	696.79167
2188.325	674.125
2190.934	697.45833
2193.541	690.79167
2196.146	676.125
2198.75	658.79167
2201.351	671.45833
2203.951	655.79167
2206.549	666.125
2209.146	649.79167
2211.74	652.45833
2214.333	654.125
2216.924	641.79167
2219.514	647.125
2222.101	631.45833
2224.687	660.125
2227.271	638.125
2229.853	639.79167
2232.433	623.45833
2235.012	636.45833
2237.589	619.79167
2240.164	639.45833
2242.738	629.79167
2245.309	625.45833
2247.879	631.79167
2250.448	630.125
2253.014	614.125
2255.579	599.125
2258.142	599.79167
2260.703	597.79167
2263.262	600.45833
2265.82	594.125
2268.376	602.79167
2270.93	586.79167
2273.483	574.79167
2276.033	590.79167
2278.583	580.125
2281.13	583.79167
2283.675	580.45833
2286.219	590.45833
2288.761	584.79167
2291.302	586.45833
2293.841	594.79167
2296.377	567.79167
2298.913	580.45833
2301.446	588.79167
2303.978	584.45833
2306.508	567.125
2309.037	580.125
2311.563	571.125
2314.088	576.79167
2316.612	558.45833
2319.133	568.45833
2321.653	568.79167
2324.171	559.79167
2326.688	575.125
2329.202	563.79167
2331.715	567.79167
2334.227	568.125
2336.736	561.45833
2339.244	562.125
2341.751	550.45833
2344.255	569.79167
2346.758	553.125
2349.259	551.79167
2351.759	557.45833
2354.257	541.45833
2356.753	548.125
2359.247	566.45833
2361.74	561.79167
2364.231	551.45833
2366.721	565.45833
2369.209	553.125
2371.695	555.79167
2374.179	554.79167
2376.662	558.125
2379.143	578.45833
2381.622	552.125
2384.1	571.125
2386.576	556.125
2389.051	565.79167
2391.524	577.125
2393.995	571.79167
2396.464	552.125
2398.932	554.79167
2401.398	556.125
2403.863	551.79167
2406.325	553.45833
2408.787	560.125
2411.246	553.79167
2413.704	558.79167
2416.16	550.45833
2418.615	554.45833
2421.068	555.125
2423.519	542.79167
2425.969	537.79167
2428.417	559.79167
2430.863	582.125
2433.308	570.79167
2435.751	558.125
2438.193	557.125
2440.633	560.45833
2443.071	557.125
2445.508	545.125
2447.943	549.45833
2450.376	554.125
2452.808	567.79167
2455.238	544.125
2457.667	569.45833
2460.093	566.79167
2462.519	547.45833
2464.942	541.45833
2467.365	565.45833
2469.785	558.45833
2472.204	551.79167
2474.621	542.125
2477.037	581.79167
2479.451	549.45833
2481.863	556.79167
2484.274	547.45833
2486.683	546.125
2489.091	566.79167
2491.497	566.79167
2493.901	549.125
2496.304	549.79167
2498.705	569.79167
2501.105	549.79167
2503.503	573.125
2505.899	550.125
2508.294	574.125
2510.687	548.79167
2513.079	549.125
2515.469	549.45833
2517.858	552.125
2520.245	576.79167
2522.63	558.125
2525.014	561.45833
2527.396	558.125
2529.776	549.45833
2532.156	555.79167
2534.533	550.79167
2536.909	551.79167
2539.283	540.125
2541.656	566.125
2544.027	578.79167
2546.397	565.79167
2548.765	557.45833
2551.131	556.125
2553.496	563.79167
2555.86	577.79167
2558.221	561.125
2560.582	563.45833
2562.94	554.79167
2565.298	569.45833
2567.653	573.45833
2570.007	547.45833
2572.36	565.45833
2574.711	564.45833
2577.06	587.79167
2579.408	564.79167
2581.754	565.79167
2584.099	571.45833
2586.442	571.125
2588.784	574.125
2591.124	581.125
2593.463	563.45833
2595.8	572.79167
2598.135	567.79167
2600.469	575.125
2602.802	578.79167
2605.133	587.45833
2607.462	569.79167
2609.79	572.45833
2612.116	583.45833
2614.441	582.45833
2616.764	586.45833
2619.086	584.45833
2621.406	577.79167
2623.725	593.125
2626.042	594.45833
2628.358	581.79167
2630.672	583.125
2632.985	596.79167
2635.296	584.79167
2637.606	592.45833
2639.914	575.79167
2642.22	605.45833
2644.525	596.79167
2646.829	595.45833
2649.131	608.45833
2651.432	615.79167
2653.731	604.79167
2656.028	619.125
2658.324	612.125
2660.619	605.45833
2662.912	611.45833
2665.204	607.79167
2667.494	623.79167
2669.782	605.45833
2672.07	620.45833
2674.355	631.125
2676.639	627.45833
2678.922	609.79167
2681.203	628.79167
2683.483	619.79167
2685.761	616.45833
2688.038	626.79167
2690.313	632.45833
2692.587	622.125
2694.859	623.79167
2697.13	635.125
2699.399	636.125
2701.667	644.45833
2703.933	650.125
2706.198	649.125
2708.461	664.125
2710.723	662.79167
2712.984	655.45833
2715.243	672.125
2717.5	664.45833
2719.757	674.125
2722.011	671.125
2724.264	678.45833
2726.516	706.45833
2728.766	689.79167
2731.015	699.125
2733.262	682.79167
2735.508	692.125
2737.753	684.125
2739.996	671.45833
2742.237	670.45833
2744.477	685.45833
2746.716	687.79167
2748.953	671.79167
2751.189	681.45833
2753.423	664.125
2755.656	656.125
2757.887	669.79167
2760.117	671.79167
2762.346	667.45833
2764.573	658.125
2766.798	668.79167
2769.022	670.125
2771.245	664.45833
2773.467	661.79167
2775.686	687.79167
2777.905	687.45833
2780.122	686.45833
2782.337	687.125
2784.552	689.79167
2786.764	713.125
2788.976	710.45833
2791.186	723.125
2793.394	716.125
2795.601	733.45833
2797.807	736.79167
2800.011	734.79167
2802.214	756.125
2804.415	753.45833
2806.615	751.45833
2808.814	770.45833
2811.011	777.125
2813.206	774.79167
2815.401	788.45833
2817.594	796.79167
2819.785	808.79167
2821.975	794.45833
2824.164	816.45833
2826.351	828.125
2828.537	833.125
2830.722	865.79167
2832.905	870.45833
2835.086	899.79167
2837.267	931.79167
2839.445	952.125
2841.623	968.79167
2843.799	1000.125
2845.974	1033.79167
2848.147	1075.79167
2850.319	1085.45833
2852.489	1123.45833
2854.659	1119.125
2856.826	1148.125
2858.993	1170.125
2861.158	1155.79167
2863.321	1165.45833
2865.483	1172.45833
2867.644	1165.125
2869.804	1169.79167
2871.962	1167.125
2874.118	1171.125
2876.274	1169.125
2878.428	1149.45833
2880.58	1158.45833
2882.731	1146.45833
2884.881	1146.125
2887.03	1158.45833
2889.177	1146.45833
2891.322	1173.45833
2893.467	1170.125
2895.61	1163.125
2897.751	1200.125
2899.892	1187.45833
2902.03	1191.79167
2904.168	1199.79167
2906.304	1189.45833
2908.439	1227.45833
2910.572	1210.45833
2912.704	1226.79167
2914.835	1220.79167
2916.965	1222.125
2919.093	1239.125
2921.219	1202.79167
2923.345	1229.125
2925.469	1187.45833
2927.591	1191.79167
2929.712	1148.125
2931.832	1142.125
2933.951	1124.45833
2936.068	1108.125
2938.184	1088.125
2940.299	1067.79167
2942.412	1043.45833
2944.524	1009.79167
2946.634	1009.125
2948.744	951.45833
2950.851	986.125
2952.958	938.79167
2955.063	926.79167
2957.167	919.45833
2959.269	901.125
2961.371	913.79167
2963.471	870.45833
2965.569	887.45833
2967.666	847.45833
2969.762	839.45833
2971.857	826.79167
2973.95	812.125
2976.042	796.79167
2978.133	783.45833
2980.222	783.125
2982.31	745.79167
2984.396	744.79167
2986.482	733.79167
2988.566	741.125
2990.648	735.45833
2992.73	716.45833
2994.81	723.125
2996.889	721.125
2998.966	704.125
3001.042	722.125
3003.117	715.45833
3005.191	703.79167
3007.263	715.79167
3009.334	690.45833
3011.403	697.45833
3013.472	671.45833
3015.539	671.125
3017.604	692.125
3019.669	640.125
3021.732	655.79167
3023.794	655.125
3025.854	640.79167
3027.914	644.125
3029.971	651.125
3032.028	637.45833
3034.083	653.45833
3036.137	630.125
3038.19	619.125
3040.242	614.79167
3042.292	589.79167
3044.341	579.79167
3046.388	599.45833
3048.435	569.79167
3050.48	576.45833
3052.524	578.79167
3054.566	561.125
3056.607	570.79167
3058.647	561.45833
3060.686	536.79167
3062.723	516.125
3064.759	509.45833
3066.794	-0.875
3068.828	-0.54167
3070.86	-3.20833
