-0.839	388.79167
3.438	422.79167
7.711	124.125
11.981	49.79167
16.247	43.125
20.509	38.79167
24.768	44.125
29.024	45.125
33.276	41.125
37.524	46.79167
41.769	41.125
46.01	35.79167
50.247	47.125
54.481	57.125
58.712	65.125
62.939	46.45833
67.162	55.79167
71.382	55.45833
75.599	43.125
79.812	58.79167
84.021	77.125
88.227	57.79167
92.429	56.45833
96.628	48.125
100.823	61.45833
105.015	67.79167
109.204	69.125
113.388	73.45833
117.57	67.45833
121.748	75.79167
125.922	71.79167
130.093	89.125
134.261	94.125
138.425	82.125
142.585	123.79167
146.742	121.125
150.896	132.45833
155.046	157.125
159.193	252.79167
163.336	416.125
167.476	770.45833
171.613	1409.79167
175.746	2371.79167
179.875	3533.125
184.002	4630.79167
188.124	5413.45833
192.244	5706.125
196.36	5660.125
200.472	5491.45833
204.581	5352.125
208.687	5216.125
212.79	5133.125
216.889	5159.125
220.984	5173.45833
225.077	5153.125
229.165	5200.79167
233.251	5231.79167
237.333	5229.79167
241.412	5188.45833
245.487	5163.79167
249.559	5117.79167
253.628	5049.79167
257.694	5026.125
261.756	4994.125
265.814	4942.125
269.87	4814.125
273.922	4759.125
277.97	4736.45833
282.016	4770.125
286.058	4769.125
290.097	4893.125
294.132	4955.79167
298.164	4924.125
302.193	4706.45833
306.219	4373.125
310.241	4000.125
314.26	3651.125
318.276	3390.79167
322.288	3178.79167
326.297	2989.45833
330.303	2886.125
334.305	2769.45833
338.305	2707.45833
342.301	2684.125
346.294	2651.79167
350.283	2619.125
354.269	2601.45833
358.252	2578.125
362.232	2552.79167
366.209	2516.45833
370.182	2501.45833
374.152	2498.125
378.119	2475.125
382.083	2466.79167
386.043	2474.45833
390	2446.125
393.954	2442.125
397.905	2424.79167
401.852	2449.125
405.797	2420.125
409.738	2370.45833
413.676	2399.125
417.61	2370.125
421.542	2349.79167
425.47	2339.79167
429.396	2337.45833
433.318	2290.125
437.236	2296.79167
441.152	2321.79167
445.065	2250.45833
448.974	2274.45833
452.88	2246.79167
456.783	2224.125
460.683	2221.79167
464.58	2213.125
468.473	2241.79167
472.364	2229.45833
476.251	2245.125
480.135	2279.45833
484.016	2305.79167
487.894	2320.125
491.769	2330.45833
495.641	2326.79167
499.509	2362.45833
503.375	2343.125
507.237	2352.45833
511.096	2429.45833
514.952	2705.79167
518.805	3024.125
522.655	3137.125
526.502	2659.125
530.346	2385.45833
534.187	2333.125
538.024	2308.125
541.859	2316.79167
545.69	2328.45833
549.519	2310.79167
553.344	2283.79167
557.166	2243.79167
560.985	2231.45833
564.802	2200.79167
568.615	2176.125
572.425	2157.79167
576.232	2115.79167
580.036	2118.45833
583.836	2142.79167
587.634	2137.45833
591.429	2124.125
595.221	2174.45833
599.01	2218.125
602.796	2208.45833
606.578	2227.79167
610.358	2251.45833
614.135	2239.125
617.909	2226.45833
621.679	2207.79167
625.447	2199.45833
629.212	2199.79167
632.973	2211.125
636.732	2189.125
640.488	2202.125
644.241	2173.45833
647.991	2170.45833
651.737	2164.125
655.481	2145.79167
659.222	2164.79167
662.96	2147.45833
666.695	2182.125
670.427	2180.125
674.156	2208.45833
677.882	2194.79167
681.605	2184.125
685.325	2136.45833
689.043	2139.79167
692.757	2148.125
696.468	2136.45833
700.177	2134.45833
703.882	2130.45833
707.585	2137.79167
711.284	2131.45833
714.981	2141.45833
718.675	2161.79167
722.366	2150.79167
726.054	2145.45833
729.739	2146.125
733.421	2129.45833
737.1	2110.79167
740.777	2170.125
744.45	2165.79167
748.121	2175.125
751.789	2216.45833
755.453	2195.125
759.115	2203.125
762.774	2236.79167
766.431	2236.125
770.084	2265.79167
773.734	2281.45833
777.382	2317.79167
781.027	2338.45833
784.669	2337.79167
788.308	2351.45833
791.944	2365.79167
795.577	2404.79167
799.208	2426.79167
802.835	2431.45833
806.46	2444.79167
810.082	2450.125
813.701	2444.79167
817.317	2479.45833
820.931	2495.79167
824.542	2462.45833
828.149	2451.125
831.754	2414.79167
835.357	2406.79167
838.956	2417.79167
842.553	2400.125
846.146	2390.79167
849.737	2363.79167
853.326	2378.79167
856.911	2370.125
860.493	2418.79167
864.073	2403.125
867.65	2461.125
871.225	2489.79167
874.796	2468.125
878.365	2504.79167
881.931	2518.79167
885.494	2540.45833
889.054	2533.45833
892.612	2547.79167
896.166	2534.45833
899.719	2492.79167
903.268	2461.79167
906.814	2440.45833
910.358	2429.79167
913.899	2418.45833
917.438	2447.125
920.973	2408.45833
924.506	2478.79167
928.036	2490.125
931.564	2539.125
935.088	2601.79167
938.61	2560.45833
942.129	2623.125
945.646	2704.79167
949.16	2725.125
952.671	2773.45833
956.179	2792.125
959.685	2753.45833
963.188	2724.79167
966.688	2696.45833
970.185	2642.79167
973.68	2593.45833
977.173	2540.125
980.662	2500.79167
984.149	2485.125
987.633	2475.125
991.114	2480.45833
994.593	2532.125
998.069	2607.45833
1001.542	2666.79167
1005.013	2605.45833
1008.481	2472.45833
1011.947	2424.125
1015.409	2417.79167
1018.869	2434.125
1022.327	2452.45833
1025.782	2418.79167
1029.234	2407.125
1032.683	2381.45833
1036.13	2308.125
1039.574	2236.45833
1043.016	2204.79167
1046.455	2157.45833
1049.891	2128.45833
1053.325	2139.79167
1056.756	2137.45833
1060.184	2161.79167
1063.61	2162.45833
1067.033	2177.125
1070.454	2192.125
1073.872	2233.125
1077.287	2227.45833
1080.7	2221.45833
1084.11	2223.125
1087.517	2219.125
1090.922	2170.79167
1094.325	2154.79167
1097.724	2136.125
1101.122	2130.45833
1104.516	2144.45833
1107.908	2138.125
1111.298	2185.45833
1114.684	2204.45833
1118.069	2227.79167
1121.45	2245.45833
1124.83	2260.45833
1128.206	2277.45833
1131.58	2329.45833
1134.951	2371.79167
1138.32	2441.79167
1141.687	2531.125
1145.05	2590.79167
1148.412	2606.45833
1151.77	2597.45833
1155.126	2595.125
1158.48	2580.125
1161.831	2610.125
1165.18	2609.125
1168.525	2652.45833
1171.869	2691.45833
1175.21	2679.125
1178.548	2715.45833
1181.884	2766.79167
1185.217	2763.79167
1188.548	2859.45833
1191.877	2933.125
1195.202	3015.79167
1198.526	3060.125
1201.846	3093.79167
1205.165	3094.125
1208.48	3074.79167
1211.794	3070.79167
1215.104	3071.79167
1218.413	3095.45833
1221.719	3059.79167
1225.022	3035.79167
1228.323	2992.125
1231.621	2982.45833
1234.917	2948.79167
1238.21	2958.79167
1241.501	2944.125
1244.79	2947.79167
1248.076	2921.125
1251.359	2987.45833
1254.64	3018.125
1257.919	3020.45833
1261.195	3070.45833
1264.468	3100.45833
1267.74	3153.45833
1271.008	3146.125
1274.275	3138.125
1277.538	3142.45833
1280.8	3140.45833
1284.059	3127.45833
1287.315	3189.45833
1290.569	3201.125
1293.821	3211.125
1297.07	3222.45833
1300.317	3244.79167
1303.562	3243.79167
1306.803	3207.79167
1310.043	3195.125
1313.28	3152.125
1316.515	3130.125
1319.747	3098.45833
1322.977	3084.45833
1326.204	3019.45833
1329.429	2985.79167
1332.652	2962.45833
1335.872	2967.79167
1339.09	2919.79167
1342.306	2919.45833
1345.519	2886.125
1348.729	2823.79167
1351.938	2795.45833
1355.144	2742.79167
1358.347	2708.79167
1361.548	2739.45833
1364.747	2717.125
1367.944	2701.45833
1371.138	2693.45833
1374.329	2704.45833
1377.518	2732.45833
1380.705	2724.125
1383.89	2724.79167
1387.072	2631.125
1390.252	2578.45833
1393.429	2491.45833
1396.605	2429.79167
1399.777	2380.45833
1402.948	2356.45833
1406.116	2351.125
1409.282	2359.45833
1412.445	2368.45833
1415.606	2403.45833
1418.765	2456.125
1421.921	2500.79167
1425.075	2547.125
1428.227	2626.79167
1431.376	2741.79167
1434.524	2834.125
1437.668	2898.125
1440.811	2916.125
1443.951	2921.45833
1447.089	2915.125
1450.224	2932.79167
1453.357	2912.45833
1456.488	2903.125
1459.617	2859.45833
1462.743	2812.125
1465.867	2748.79167
1468.989	2744.45833
1472.108	2687.45833
1475.225	2645.125
1478.34	2615.79167
1481.453	2622.79167
1484.563	2624.79167
1487.671	2665.45833
1490.776	2716.45833
1493.88	2743.125
1496.981	2797.79167
1500.08	2836.45833
1503.176	2869.79167
1506.271	2901.79167
1509.363	2950.79167
1512.452	2984.45833
1515.54	3044.125
1518.625	3053.45833
1521.708	3164.125
1524.789	3271.79167
1527.867	3382.45833
1530.944	3574.79167
1534.018	3708.79167
1537.089	3839.79167
1540.159	3867.45833
1543.226	3821.45833
1546.291	3742.45833
1549.354	3641.125
1552.415	3571.45833
1555.473	3450.125
1558.529	3412.45833
1561.583	3380.45833
1564.634	3332.45833
1567.684	3338.45833
1570.731	3339.125
1573.776	3387.125
1576.819	3388.125
1579.859	3415.79167
1582.898	3439.79167
1585.934	3481.125
1588.968	3505.45833
1591.999	3496.45833
1595.029	3513.125
1598.056	3530.125
1601.081	3561.125
1604.104	3554.45833
1607.125	3507.45833
1610.144	3435.125
1613.16	3348.125
1616.174	3228.125
1619.186	3152.45833
1622.196	3075.125
1625.203	2956.79167
1628.209	2946.79167
1631.212	2909.45833
1634.213	2893.79167
1637.212	2860.79167
1640.209	2787.79167
1643.203	2733.125
1646.196	2626.45833
1649.186	2538.125
1652.174	2465.125
1655.16	2401.79167
1658.144	2339.79167
1661.125	2218.45833
1664.105	2124.125
1667.082	2056.79167
1670.057	1942.79167
1673.03	1838.79167
1676.001	1736.125
1678.97	1626.79167
1681.937	1527.45833
1684.901	1466.125
1687.863	1428.45833
1690.824	1371.79167
1693.782	1343.79167
1696.738	1305.79167
1699.692	1270.45833
1702.643	1248.79167
1705.593	1241.79167
1708.54	1233.79167
1711.486	1221.45833
1714.429	1193.45833
1717.37	1176.45833
1720.309	1169.45833
1723.246	1176.125
1726.181	1136.79167
1729.113	1153.125
1732.044	1146.45833
1734.972	1123.79167
1737.899	1116.79167
1740.823	1127.125
1743.745	1129.125
1746.665	1088.79167
1749.583	1060.79167
1752.499	1059.79167
1755.413	1051.45833
1758.325	1017.125
1761.235	1019.125
1764.142	1000.125
1767.048	1005.79167
1769.951	994.45833
1772.852	983.125
1775.752	974.79167
1778.649	982.125
1781.544	990.45833
1784.437	968.125
1787.328	960.125
1790.217	972.79167
1793.104	947.125
1795.989	943.79167
1798.872	949.79167
1801.753	965.125
1804.631	953.79167
1807.508	950.79167
1810.383	934.79167
1813.255	956.125
1816.126	941.45833
1818.994	932.125
1821.861	929.79167
1824.725	929.45833
1827.587	938.125
1830.448	921.125
1833.306	897.125
1836.162	913.79167
1839.017	891.45833
1841.869	908.79167
1844.719	907.79167
1847.567	899.125
1850.414	897.79167
1853.258	889.125
1856.1	902.125
1858.94	917.45833
1861.778	899.79167
1864.614	894.125
1867.448	910.45833
1870.28	900.45833
1873.111	913.79167
1875.939	905.125
1878.765	923.45833
1881.589	893.79167
1884.411	908.45833
1887.231	901.125
1890.049	883.125
1892.865	897.79167
1895.68	892.125
1898.492	895.125
1901.302	878.45833
1904.11	884.79167
1906.916	873.125
1909.721	874.79167
1912.523	884.45833
1915.323	852.79167
1918.122	877.125
1920.918	878.79167
1923.712	861.79167
1926.505	858.125
1929.295	864.45833
1932.084	880.45833
1934.87	880.79167
1937.655	862.45833
1940.438	852.79167
1943.218	866.79167
1945.997	868.79167
1948.774	879.45833
1951.549	873.79167
1954.322	872.45833
1957.093	883.125
1959.862	852.125
1962.629	849.45833
1965.394	856.79167
1968.157	845.79167
1970.918	855.79167
1973.678	851.45833
1976.435	861.125
1979.19	847.125
1981.944	843.79167
1984.696	846.45833
1987.445	843.79167
1990.193	840.125
1992.939	866.45833
1995.683	857.125
1998.425	837.79167
2001.165	863.45833
2003.903	843.125
2006.639	846.45833
2009.374	845.45833
2012.106	852.125
2014.837	834.45833
2017.566	852.125
2020.292	860.79167
2023.017	855.45833
2025.74	843.125
2028.461	828.79167
2031.18	839.79167
2033.898	837.79167
2036.613	848.125
2039.327	855.79167
2042.038	846.79167
2044.748	840.79167
2047.456	842.79167
2050.162	820.79167
2052.866	838.45833
2055.568	849.79167
2058.268	832.125
2060.967	847.79167
2063.663	828.125
2066.358	847.79167
2069.051	824.79167
2071.742	844.125
2074.431	839.125
2077.118	832.79167
2079.804	835.79167
2082.487	840.45833
2085.169	864.125
2087.849	869.45833
2090.527	844.45833
2093.203	868.79167
2095.877	872.125
2098.55	874.45833
2101.22	891.45833
2103.889	911.125
2106.556	897.45833
2109.221	935.45833
2111.884	945.79167
2114.546	1005.45833
2117.205	1058.125
2119.863	1133.45833
2122.519	1179.45833
2125.173	1235.125
2127.825	1299.125
2130.475	1295.79167
2133.124	1280.79167
2135.771	1217.125
2138.416	1193.125
2141.059	1114.45833
2143.7	1094.45833
2146.339	1051.79167
2148.977	997.125
2151.613	995.45833
2154.247	982.125
2156.879	962.79167
2159.51	930.45833
2162.138	927.125
2164.765	928.125
2167.39	911.45833
2170.013	927.79167
2172.634	921.45833
2175.254	905.125
2177.872	922.79167
2180.488	888.45833
2183.102	891.79167
2185.714	882.79167
2188.325	859.79167
2190.934	882.79167
2193.541	874.125
2196.146	863.125
2198.75	872.79167
2201.351	853.125
2203.951	849.45833
2206.549	878.45833
2209.146	859.125
2211.74	847.45833
2214.333	870.125
2216.924	842.45833
2219.514	843.125
2222.101	842.79167
2224.687	877.125
2227.271	836.79167
2229.853	841.125
2232.433	832.45833
2235.012	851.125
2237.589	853.125
2240.164	866.79167
2242.738	856.79167
2245.309	854.125
2247.879	857.45833
2250.448	853.45833
2253.014	835.45833
2255.579	836.125
2258.142	838.125
2260.703	833.45833
2263.262	830.125
2265.82	831.45833
2268.376	840.45833
2270.93	819.45833
2273.483	826.45833
2276.033	835.125
2278.583	832.79167
2281.13	825.79167
2283.675	823.79167
2286.219	841.125
2288.761	821.45833
2291.302	833.45833
2293.841	845.125
2296.377	822.125
2298.913	844.79167
2301.446	857.45833
2303.978	833.125
2306.508	833.79167
2309.037	836.125
2311.563	853.79167
2314.088	846.45833
2316.612	833.79167
2319.133	848.125
2321.653	842.79167
2324.171	835.45833
2326.688	851.125
2329.202	838.125
2331.715	854.79167
2334.227	836.79167
2336.736	844.45833
2339.244	846.125
2341.751	844.45833
2344.255	856.79167
2346.758	846.125
2349.259	851.45833
2351.759	846.79167
2354.257	854.79167
2356.753	849.45833
2359.247	859.79167
2361.74	871.79167
2364.231	855.125
2366.721	874.45833
2369.209	865.125
2371.695	866.45833
2374.179	865.45833
2376.662	862.125
2379.143	880.79167
2381.622	861.45833
2384.1	874.125
2386.576	876.125
2389.051	887.125
2391.524	902.125
2393.995	892.79167
2396.464	883.125
2398.932	870.125
2401.398	883.79167
2403.863	889.45833
2406.325	900.125
2408.787	882.125
2411.246	901.79167
2413.704	900.79167
2416.16	893.79167
2418.615	900.45833
2421.068	913.45833
2423.519	909.45833
2425.969	912.125
2428.417	916.125
2430.863	940.125
2433.308	932.45833
2435.751	912.125
2438.193	917.79167
2440.633	924.125
2443.071	925.125
2445.508	923.125
2447.943	928.79167
2450.376	919.45833
2452.808	925.125
2455.238	914.45833
2457.667	969.79167
2460.093	938.45833
2462.519	929.79167
2464.942	948.45833
2467.365	961.45833
2469.785	949.45833
2472.204	948.125
2474.621	932.45833
2477.037	980.79167
2479.451	939.79167
2481.863	944.125
2484.274	946.45833
2486.683	964.45833
2489.091	958.79167
2491.497	962.79167
2493.901	966.79167
2496.304	981.125
2498.705	981.125
2501.105	968.45833
2503.503	1003.45833
2505.899	963.125
2508.294	993.79167
2510.687	988.45833
2513.079	979.79167
2515.469	975.79167
2517.858	981.45833
2520.245	995.45833
2522.63	983.125
2525.014	983.45833
2527.396	987.125
2529.776	1003.125
2532.156	1000.79167
2534.533	1002.45833
2536.909	1008.45833
2539.283	991.125
2541.656	995.79167
2544.027	1028.45833
2546.397	1024.125
2548.765	1026.79167
2551.131	1025.79167
2553.496	1032.125
2555.86	1034.79167
2558.221	1022.125
2560.582	1021.125
2562.94	1022.79167
2565.298	1025.125
2567.653	1056.125
2570.007	1026.45833
2572.36	1107.79167
2574.711	1046.79167
2577.06	1064.79167
2579.408	1049.79167
2581.754	1051.45833
2584.099	1048.45833
2586.442	1062.79167
2588.784	1059.45833
2591.124	1071.45833
2593.463	1082.79167
2595.8	1075.125
2598.135	1075.79167
2600.469	1073.125
2602.802	1097.45833
2605.133	1086.79167
2607.462	1081.79167
2609.79	1076.125
2612.116	1091.125
2614.441	1104.79167
2616.764	1096.79167
2619.086	1105.125
2621.406	1102.79167
2623.725	1129.79167
2626.042	1119.79167
2628.358	1128.79167
2630.672	1118.125
2632.985	1155.125
2635.296	1145.45833
2637.606	1139.79167
2639.914	1123.79167
2642.22	1143.79167
2644.525	1148.79167
2646.829	1160.125
2649.131	1170.45833
2651.432	1169.125
2653.731	1168.79167
2656.028	1208.79167
2658.324	1200.125
2660.619	1176.45833
2662.912	1201.125
2665.204	1188.79167
2667.494	1214.125
2669.782	1203.125
2672.07	1210.45833
2674.355	1218.125
2676.639	1207.79167
2678.922	1210.125
2681.203	1227.125
2683.483	1214.79167
2685.761	1198.125
2688.038	1230.125
2690.313	1235.79167
2692.587	1225.79167
2694.859	1231.125
2697.13	1239.45833
2699.399	1237.79167
2701.667	1272.45833
2703.933	1273.79167
2706.198	1261.79167
2708.461	1269.125
2710.723	1273.79167
2712.984	1290.125
2715.243	1305.79167
2717.5	1304.79167
2719.757	1321.79167
2722.011	1312.79167
2724.264	1319.45833
2726.516	1331.45833
2728.766	1329.125
2731.015	1328.125
2733.262	1336.79167
2735.508	1332.79167
2737.753	1345.79167
2739.996	1317.45833
2742.237	1336.125
2744.477	1350.79167
2746.716	1328.125
2748.953	1336.125
2751.189	1343.125
2753.423	1318.79167
2755.656	1319.45833
2757.887	1316.125
2760.117	1334.79167
2762.346	1329.125
2764.573	1322.45833
2766.798	1310.125
2769.022	1326.79167
2771.245	1334.125
2773.467	1361.125
2775.686	1361.125
2777.905	1372.79167
2780.122	1366.125
2782.337	1392.79167
2784.552	1375.125
2786.764	1395.125
2788.976	1416.45833
2791.186	1414.45833
2793.394	1419.45833
2795.601	1459.79167
2797.807	1451.125
2800.011	1446.79167
2802.214	1475.45833
2804.415	1455.125
2806.615	1488.79167
2808.814	1492.45833
2811.011	1478.125
2813.206	1492.45833
2815.401	1499.79167
2817.594	1521.79167
2819.785	1518.125
2821.975	1513.45833
2824.164	1525.79167
2826.351	1550.79167
2828.537	1585.79167
2830.722	1589.125
2832.905	1589.125
2835.086	1616.45833
2837.267	1638.45833
2839.445	1654.125
2841.623	1670.45833
2843.799	1705.79167
2845.974	1744.125
2848.147	1768.79167
2850.319	1806.79167
2852.489	1843.79167
2854.659	1839.45833
2856.826	1851.45833
2858.993	1884.125
2861.158	1873.79167
2863.321	1877.45833
2865.483	1890.45833
2867.644	1892.125
2869.804	1873.45833
2871.962	1878.79167
2874.118	1875.45833
2876.274	1871.125
2878.428	1855.125
2880.58	1850.125
2882.731	1842.125
2884.881	1848.79167
2887.03	1841.45833
2889.177	1845.45833
2891.322	1854.125
2893.467	1867.45833
2895.61	1867.45833
2897.751	1883.79167
2899.892	1886.125
2902.03	1894.125
2904.168	1927.79167
2906.304	1903.125
2908.439	1943.125
2910.572	1927.45833
2912.704	1944.79167
2914.835	1954.125
2916.965	1943.45833
2919.093	1957.79167
2921.219	1919.45833
2923.345	1947.125
2925.469	1935.79167
2927.591	1920.125
2929.712	1863.79167
2931.832	1872.125
2933.951	1844.45833
2936.068	1829.79167
2938.184	1795.79167
2940.299	1792.125
2942.412	1780.45833
2944.524	1730.125
2946.634	1726.45833
2948.744	1683.45833
2950.851	1715.125
2952.958	1678.45833
2955.063	1674.125
2957.167	1686.125
2959.269	1647.125
2961.371	1679.125
2963.471	1632.125
2965.569	1654.125
2967.666	1601.125
2969.762	1618.45833
2971.857	1596.45833
2973.95	1564.79167
2976.042	1574.79167
2978.133	1544.45833
2980.222	1514.79167
2982.31	1493.79167
2984.396	1481.79167
2986.482	1493.79167
2988.566	1479.79167
2990.648	1473.79167
2992.73	1471.45833
2994.81	1462.125
2996.889	1471.79167
2998.966	1465.79167
3001.042	1479.45833
3003.117	1470.125
3005.191	1468.45833
3007.263	1470.45833
3009.334	1454.125
3011.403	1444.125
3013.472	1416.45833
3015.539	1407.125
3017.604	1411.125
3019.669	1377.45833
3021.732	1376.45833
3023.794	1381.125
3025.854	1376.125
3027.914	1358.79167
3029.971	1388.45833
3032.028	1367.79167
3034.083	1364.125
3036.137	1349.79167
3038.19	1313.79167
3040.242	1275.45833
3042.292	1263.45833
3044.341	1256.125
3046.388	1244.125
3048.435	1219.45833
3050.48	1236.45833
3052.524	1226.79167
3054.566	1211.125
3056.607	1219.79167
3058.647	1185.45833
3060.686	1144.79167
3062.723	1111.125
3064.759	1073.125
3066.794	0.79167
3068.828	-1.875
3070.86	-2.875
