-0.839	411.875
3.438	422.875
7.711	124.20833
11.981	51.875
16.247	44.875
20.509	41.875
24.768	47.20833
29.024	50.875
33.276	44.20833
37.524	48.875
41.769	40.54167
46.01	39.54167
50.247	54.54167
54.481	61.54167
58.712	66.54167
62.939	52.875
67.162	64.54167
71.382	62.875
75.599	46.875
79.812	65.54167
84.021	82.54167
88.227	60.20833
92.429	64.20833
96.628	48.20833
100.823	72.54167
105.015	82.20833
109.204	77.20833
113.388	77.20833
117.57	77.54167
121.748	93.20833
125.922	85.54167
130.093	106.20833
134.261	111.54167
138.425	104.875
142.585	148.20833
146.742	146.20833
150.896	179.54167
155.046	220.875
159.193	340.875
163.336	591.20833
167.476	1078.20833
171.613	1987.20833
175.746	3373.20833
179.875	5038.54167
184.002	6586.20833
188.124	7670.54167
192.244	8026.20833
196.36	8006.875
200.472	7794.20833
204.581	7596.875
208.687	7405.54167
212.79	7386.875
216.889	7399.54167
220.984	7523.875
225.077	7606.875
229.165	7678.54167
233.251	7733.20833
237.333	7834.20833
241.412	7780.54167
245.487	7754.20833
249.559	7708.875
253.628	7621.875
257.694	7606.875
261.756	7538.875
265.814	7426.20833
269.87	7227.875
273.922	7106.54167
277.97	7046.20833
282.016	7084.54167
286.058	7117.54167
290.097	7276.875
294.132	7347.875
298.164	7270.875
302.193	6888.54167
306.219	6398.875
310.241	5797.20833
314.26	5257.20833
318.276	4782.20833
322.288	4432.20833
326.297	4187.20833
330.303	3964.875
334.305	3813.875
338.305	3727.875
342.301	3638.20833
346.294	3592.54167
350.283	3557.54167
354.269	3518.20833
358.252	3502.20833
362.232	3455.54167
366.209	3442.875
370.182	3400.54167
374.152	3361.20833
378.119	3361.54167
382.083	3358.54167
386.043	3379.54167
390	3298.20833
393.954	3289.20833
397.905	3255.54167
401.852	3235.875
405.797	3190.20833
409.738	3162.20833
413.676	3142.20833
417.61	3131.54167
421.542	3076.20833
425.47	3068.20833
429.396	3014.875
433.318	3004.875
437.236	2976.54167
441.152	3001.875
445.065	2929.875
448.974	2954.875
452.88	2902.20833
456.783	2900.54167
460.683	2873.20833
464.58	2890.54167
468.473	2891.54167
472.364	2883.875
476.251	2914.20833
480.135	2911.875
484.016	2963.54167
487.894	2969.20833
491.769	2992.54167
495.641	2981.875
499.509	2993.54167
503.375	2990.875
507.237	2992.875
511.096	2980.20833
514.952	3088.20833
518.805	3219.20833
522.655	3230.20833
526.502	3075.875
530.346	2965.875
534.187	2988.20833
538.024	2960.875
541.859	2975.54167
545.69	3000.875
549.519	2959.875
553.344	2941.54167
557.166	2883.20833
560.985	2850.20833
564.802	2820.875
568.615	2792.20833
572.425	2761.20833
576.232	2748.20833
580.036	2737.20833
583.836	2733.875
587.634	2736.54167
591.429	2727.20833
595.221	2774.20833
599.01	2806.20833
602.796	2835.54167
606.578	2852.875
610.358	2857.20833
614.135	2847.875
617.909	2837.54167
621.679	2848.20833
625.447	2823.875
629.212	2834.20833
632.973	2858.54167
636.732	2834.20833
640.488	2847.875
644.241	2817.875
647.991	2777.875
651.737	2794.54167
655.481	2772.54167
659.222	2768.20833
662.96	2755.875
666.695	2826.875
670.427	2818.54167
674.156	2816.54167
677.882	2810.54167
681.605	2814.54167
685.325	2791.20833
689.043	2804.875
692.757	2785.875
696.468	2767.875
700.177	2804.875
703.882	2781.875
707.585	2780.875
711.284	2798.20833
714.981	2797.54167
718.675	2811.875
722.366	2808.875
726.054	2810.54167
729.739	2803.875
733.421	2826.20833
737.1	2806.54167
740.777	2848.54167
744.45	2856.54167
748.121	2879.875
751.789	2942.20833
755.453	2910.54167
759.115	2932.20833
762.774	2984.20833
766.431	3009.54167
770.084	3039.54167
773.734	3067.54167
777.382	3132.875
781.027	3184.20833
784.669	3185.875
788.308	3200.875
791.944	3224.875
795.577	3284.20833
799.208	3293.875
802.835	3325.54167
806.46	3330.20833
810.082	3356.20833
813.701	3359.54167
817.317	3381.20833
820.931	3380.875
824.542	3409.54167
828.149	3345.875
831.754	3340.875
835.357	3360.20833
838.956	3343.54167
842.553	3332.875
846.146	3340.20833
849.737	3330.20833
853.326	3350.54167
856.911	3376.54167
860.493	3402.54167
864.073	3435.875
867.65	3506.54167
871.225	3536.20833
874.796	3526.20833
878.365	3546.20833
881.931	3578.875
885.494	3644.20833
889.054	3595.20833
892.612	3594.875
896.166	3563.20833
899.719	3532.54167
903.268	3490.54167
906.814	3480.875
910.358	3435.20833
913.899	3429.20833
917.438	3458.20833
920.973	3439.875
924.506	3470.20833
928.036	3542.20833
931.564	3571.54167
935.088	3592.20833
938.61	3599.875
942.129	3666.20833
945.646	3700.54167
949.16	3828.20833
952.671	3908.875
956.179	3910.20833
959.685	3850.875
963.188	3804.54167
966.688	3724.54167
970.185	3641.875
973.68	3588.875
977.173	3544.875
980.662	3531.875
984.149	3540.875
987.633	3542.875
991.114	3618.54167
994.593	3711.20833
998.069	3848.54167
1001.542	3923.20833
1005.013	3864.54167
1008.481	3651.54167
1011.947	3605.20833
1015.409	3609.54167
1018.869	3600.20833
1022.327	3591.20833
1025.782	3561.54167
1029.234	3527.875
1032.683	3509.875
1036.13	3383.54167
1039.574	3265.875
1043.016	3192.20833
1046.455	3157.20833
1049.891	3092.20833
1053.325	3100.20833
1056.756	3119.20833
1060.184	3128.54167
1063.61	3161.875
1067.033	3183.875
1070.454	3176.54167
1073.872	3219.875
1077.287	3202.54167
1080.7	3205.54167
1084.11	3215.54167
1087.517	3223.20833
1090.922	3166.54167
1094.325	3129.20833
1097.724	3124.54167
1101.122	3099.20833
1104.516	3099.875
1107.908	3109.54167
1111.298	3159.20833
1114.684	3215.875
1118.069	3242.875
1121.45	3286.20833
1124.83	3269.875
1128.206	3323.875
1131.58	3395.875
1134.951	3478.20833
1138.32	3589.875
1141.687	3718.875
1145.05	3844.54167
1148.412	3861.54167
1151.77	3853.875
1155.126	3890.54167
1158.48	3884.20833
1161.831	3910.20833
1165.18	3959.875
1168.525	3989.875
1171.869	4066.54167
1175.21	4078.20833
1178.548	4125.54167
1181.884	4163.54167
1185.217	4160.54167
1188.548	4241.875
1191.877	4284.20833
1195.202	4376.54167
1198.526	4423.54167
1201.846	4422.54167
1205.165	4432.20833
1208.48	4389.54167
1211.794	4398.875
1215.104	4400.20833
1218.413	4417.54167
1221.719	4402.875
1225.022	4343.20833
1228.323	4320.20833
1231.621	4309.54167
1234.917	4301.20833
1238.21	4341.54167
1241.501	4316.20833
1244.79	4351.875
1248.076	4340.20833
1251.359	4356.20833
1254.64	4442.20833
1257.919	4508.875
1261.195	4558.20833
1264.468	4620.20833
1267.74	4694.20833
1271.008	4693.875
1274.275	4690.875
1277.538	4635.20833
1280.8	4621.20833
1284.059	4632.875
1287.315	4669.54167
1290.569	4734.20833
1293.821	4723.20833
1297.07	4735.54167
1300.317	4760.54167
1303.562	4735.875
1306.803	4704.875
1310.043	4647.20833
1313.28	4578.54167
1316.515	4521.54167
1319.747	4423.20833
1322.977	4401.875
1326.204	4337.20833
1329.429	4264.20833
1332.652	4253.20833
1335.872	4223.875
1339.09	4220.20833
1342.306	4173.20833
1345.519	4155.20833
1348.729	4112.20833
1351.938	4101.54167
1355.144	4049.54167
1358.347	4007.875
1361.548	4011.875
1364.747	4009.875
1367.944	4017.20833
1371.138	4070.875
1374.329	4097.54167
1377.518	4147.54167
1380.705	4182.20833
1383.89	4162.20833
1387.072	4032.54167
1390.252	3904.20833
1393.429	3771.20833
1396.605	3659.54167
1399.777	3572.20833
1402.948	3538.875
1406.116	3507.54167
1409.282	3533.875
1412.445	3532.54167
1415.606	3581.20833
1418.765	3628.54167
1421.921	3712.875
1425.075	3778.20833
1428.227	3938.20833
1431.376	4060.20833
1434.524	4200.20833
1437.668	4306.875
1440.811	4313.875
1443.951	4375.875
1447.089	4354.875
1450.224	4322.875
1453.357	4318.54167
1456.488	4288.54167
1459.617	4245.54167
1462.743	4197.20833
1465.867	4069.875
1468.989	4058.875
1472.108	3968.54167
1475.225	3919.20833
1478.34	3915.54167
1481.453	3918.875
1484.563	3933.54167
1487.671	3991.875
1490.776	4050.54167
1493.88	4157.54167
1496.981	4226.20833
1500.08	4348.20833
1503.176	4394.20833
1506.271	4466.54167
1509.363	4532.20833
1512.452	4600.20833
1515.54	4670.875
1518.625	4829.875
1521.708	4968.20833
1524.789	5244.54167
1527.867	5484.20833
1530.944	5795.20833
1534.018	6100.20833
1537.089	6313.54167
1540.159	6315.54167
1543.226	6192.875
1546.291	6028.54167
1549.354	5847.875
1552.415	5674.20833
1555.473	5512.20833
1558.529	5411.54167
1561.583	5352.20833
1564.634	5292.54167
1567.684	5282.875
1570.731	5297.54167
1573.776	5307.875
1576.819	5347.20833
1579.859	5398.54167
1582.898	5443.20833
1585.934	5459.54167
1588.968	5483.20833
1591.999	5438.20833
1595.029	5464.20833
1598.056	5469.875
1601.081	5493.20833
1604.104	5484.20833
1607.125	5364.875
1610.144	5282.875
1613.16	5142.20833
1616.174	4999.875
1619.186	4862.20833
1622.196	4699.875
1625.203	4580.54167
1628.209	4494.875
1631.212	4404.54167
1634.213	4323.54167
1637.212	4284.20833
1640.209	4177.875
1643.203	4047.54167
1646.196	3933.875
1649.186	3799.875
1652.174	3714.875
1655.16	3569.875
1658.144	3445.54167
1661.125	3297.20833
1664.105	3122.20833
1667.082	3006.54167
1670.057	2856.875
1673.03	2657.875
1676.001	2526.54167
1678.97	2383.54167
1681.937	2237.20833
1684.901	2143.875
1687.863	2059.54167
1690.824	1974.875
1693.782	1946.20833
1696.738	1879.54167
1699.692	1855.54167
1702.643	1811.875
1705.593	1780.20833
1708.54	1744.54167
1711.486	1722.875
1714.429	1710.875
1717.37	1699.54167
1720.309	1658.875
1723.246	1660.20833
1726.181	1616.20833
1729.113	1642.875
1732.044	1622.20833
1734.972	1594.54167
1737.899	1594.875
1740.823	1584.20833
1743.745	1569.54167
1746.665	1521.54167
1749.583	1496.20833
1752.499	1476.875
1755.413	1463.54167
1758.325	1420.875
1761.235	1421.875
1764.142	1389.875
1767.048	1374.875
1769.951	1366.54167
1772.852	1369.20833
1775.752	1351.20833
1778.649	1366.54167
1781.544	1354.20833
1784.437	1324.875
1787.328	1325.20833
1790.217	1322.875
1793.104	1299.875
1795.989	1299.875
1798.872	1293.20833
1801.753	1304.54167
1804.631	1301.875
1807.508	1293.875
1810.383	1300.54167
1813.255	1275.875
1816.126	1268.20833
1818.994	1263.20833
1821.861	1252.20833
1824.725	1255.54167
1827.587	1256.54167
1830.448	1237.875
1833.306	1211.20833
1836.162	1232.875
1839.017	1206.54167
1841.869	1230.54167
1844.719	1218.54167
1847.567	1193.20833
1850.414	1201.54167
1853.258	1191.875
1856.1	1200.875
1858.94	1218.875
1861.778	1211.20833
1864.614	1208.20833
1867.448	1210.54167
1870.28	1193.54167
1873.111	1206.875
1875.939	1199.875
1878.765	1212.54167
1881.589	1196.54167
1884.411	1187.54167
1887.231	1199.875
1890.049	1188.875
1892.865	1168.20833
1895.68	1162.875
1898.492	1174.54167
1901.302	1150.20833
1904.11	1142.875
1906.916	1146.875
1909.721	1137.20833
1912.523	1153.54167
1915.323	1136.20833
1918.122	1145.54167
1920.918	1130.875
1923.712	1127.20833
1926.505	1151.875
1929.295	1111.875
1932.084	1136.54167
1934.87	1132.875
1937.655	1107.54167
1940.438	1115.875
1943.218	1130.875
1945.997	1118.20833
1948.774	1133.20833
1951.549	1135.875
1954.322	1112.20833
1957.093	1123.20833
1959.862	1111.875
1962.629	1108.20833
1965.394	1086.875
1968.157	1083.875
1970.918	1108.20833
1973.678	1082.875
1976.435	1089.875
1979.19	1088.875
1981.944	1087.875
1984.696	1073.20833
1987.445	1069.20833
1990.193	1066.20833
1992.939	1081.875
1995.683	1066.20833
1998.425	1037.875
2001.165	1085.54167
2003.903	1069.875
2006.639	1058.54167
2009.374	1066.20833
2012.106	1073.54167
2014.837	1032.20833
2017.566	1058.875
2020.292	1061.20833
2023.017	1059.875
2025.74	1048.20833
2028.461	1040.20833
2031.18	1050.875
2033.898	1034.54167
2036.613	1054.875
2039.327	1055.20833
2042.038	1021.875
2044.748	1043.20833
2047.456	1042.875
2050.162	1023.20833
2052.866	1032.875
2055.568	1050.54167
2058.268	1018.875
2060.967	1034.54167
2063.663	994.54167
2066.358	1038.20833
2069.051	1018.20833
2071.742	1028.54167
2074.431	1034.20833
2077.118	1028.54167
2079.804	1032.54167
2082.487	1034.20833
2085.169	1035.54167
2087.849	1057.54167
2090.527	1037.875
2093.203	1053.875
2095.877	1046.54167
2098.55	1077.875
2101.22	1100.875
2103.889	1115.54167
2106.556	1118.875
2109.221	1157.875
2111.884	1209.54167
2114.546	1315.20833
2117.205	1421.875
2119.863	1538.54167
2122.519	1662.20833
2125.173	1776.20833
2127.825	1858.875
2130.475	1868.875
2133.124	1823.54167
2135.771	1743.20833
2138.416	1645.20833
2141.059	1538.875
2143.7	1472.20833
2146.339	1383.20833
2148.977	1316.54167
2151.613	1270.875
2154.247	1235.54167
2156.879	1204.875
2159.51	1170.875
2162.138	1129.875
2164.765	1125.20833
2167.39	1115.20833
2170.013	1114.20833
2172.634	1107.20833
2175.254	1081.875
2177.872	1112.20833
2180.488	1064.54167
2183.102	1058.20833
2185.714	1037.20833
2188.325	1028.875
2190.934	1025.54167
2193.541	1017.20833
2196.146	1011.875
2198.75	997.20833
2201.351	987.54167
2203.951	975.54167
2206.549	996.20833
2209.146	977.875
2211.74	974.875
2214.333	962.875
2216.924	941.20833
2219.514	966.20833
2222.101	924.20833
2224.687	941.20833
2227.271	928.20833
2229.853	927.54167
2232.433	910.875
2235.012	929.875
2237.589	924.20833
2240.164	933.20833
2242.738	899.20833
2245.309	897.54167
2247.879	897.875
2250.448	903.20833
2253.014	878.54167
2255.579	864.875
2258.142	859.875
2260.703	851.54167
2263.262	850.20833
2265.82	846.20833
2268.376	862.875
2270.93	839.54167
2273.483	829.20833
2276.033	842.20833
2278.583	825.54167
2281.13	826.875
2283.675	820.20833
2286.219	833.875
2288.761	814.875
2291.302	843.20833
2293.841	826.54167
2296.377	800.875
2298.913	815.54167
2301.446	819.54167
2303.978	806.54167
2306.508	791.20833
2309.037	811.875
2311.563	805.20833
2314.088	817.875
2316.612	790.875
2319.133	805.54167
2321.653	799.20833
2324.171	784.875
2326.688	806.54167
2329.202	787.54167
2331.715	791.20833
2334.227	781.54167
2336.736	787.20833
2339.244	781.20833
2341.751	761.54167
2344.255	780.20833
2346.758	775.20833
2349.259	769.54167
2351.759	768.875
2354.257	763.875
2356.753	758.54167
2359.247	765.20833
2361.74	764.20833
2364.231	769.875
2366.721	778.875
2369.209	753.875
2371.695	758.20833
2374.179	749.875
2376.662	756.20833
2379.143	772.54167
2381.622	758.20833
2384.1	771.20833
2386.576	751.54167
2389.051	768.20833
2391.524	769.54167
2393.995	765.54167
2396.464	743.20833
2398.932	736.875
2401.398	753.20833
2403.863	753.20833
2406.325	735.54167
2408.787	747.875
2411.246	745.875
2413.704	740.875
2416.16	738.54167
2418.615	735.20833
2421.068	746.54167
2423.519	741.20833
2425.969	722.54167
2428.417	742.875
2430.863	747.54167
2433.308	746.875
2435.751	743.20833
2438.193	735.54167
2440.633	735.20833
2443.071	738.20833
2445.508	724.875
2447.943	726.54167
2450.376	715.875
2452.808	733.20833
2455.238	718.54167
2457.667	756.875
2460.093	721.875
2462.519	713.875
2464.942	713.54167
2467.365	736.54167
2469.785	736.20833
2472.204	717.54167
2474.621	715.20833
2477.037	739.54167
2479.451	706.875
2481.863	701.54167
2484.274	708.54167
2486.683	712.54167
2489.091	728.54167
2491.497	712.54167
2493.901	718.20833
2496.304	703.54167
2498.705	717.54167
2501.105	700.875
2503.503	732.20833
2505.899	705.875
2508.294	722.875
2510.687	697.20833
2513.079	709.20833
2515.469	705.54167
2517.858	700.54167
2520.245	720.875
2522.63	717.20833
2525.014	691.54167
2527.396	705.20833
2529.776	691.54167
2532.156	700.54167
2534.533	692.20833
2536.909	697.875
2539.283	687.20833
2541.656	690.54167
2544.027	710.54167
2546.397	701.20833
2548.765	689.875
2551.131	689.875
2553.496	702.54167
2555.86	697.54167
2558.221	690.54167
2560.582	699.54167
2562.94	685.54167
2565.298	690.54167
2567.653	714.875
2570.007	682.20833
2572.36	700.20833
2574.711	698.54167
2577.06	720.875
2579.408	691.54167
2581.754	692.875
2584.099	697.20833
2586.442	700.54167
2588.784	698.54167
2591.124	707.54167
2593.463	691.875
2595.8	701.54167
2598.135	690.54167
2600.469	690.20833
2602.802	707.54167
2605.133	696.875
2607.462	685.54167
2609.79	676.20833
2612.116	696.20833
2614.441	680.20833
2616.764	697.875
2619.086	695.20833
2621.406	689.54167
2623.725	714.875
2626.042	699.20833
2628.358	701.20833
2630.672	705.20833
2632.985	709.54167
2635.296	700.20833
2637.606	703.20833
2639.914	689.20833
2642.22	706.54167
2644.525	701.875
2646.829	698.20833
2649.131	719.875
2651.432	717.20833
2653.731	706.54167
2656.028	717.54167
2658.324	719.875
2660.619	709.875
2662.912	717.54167
2665.204	708.20833
2667.494	723.875
2669.782	706.20833
2672.07	720.20833
2674.355	733.20833
2676.639	723.54167
2678.922	717.54167
2681.203	738.875
2683.483	714.20833
2685.761	712.20833
2688.038	743.54167
2690.313	738.54167
2692.587	727.54167
2694.859	729.20833
2697.13	739.20833
2699.399	740.54167
2701.667	750.20833
2703.933	758.875
2706.198	759.54167
2708.461	759.875
2710.723	764.54167
2712.984	761.875
2715.243	781.875
2717.5	773.20833
2719.757	787.875
2722.011	780.54167
2724.264	798.54167
2726.516	805.875
2728.766	785.875
2731.015	799.875
2733.262	790.20833
2735.508	782.20833
2737.753	784.20833
2739.996	769.20833
2742.237	783.875
2744.477	780.875
2746.716	778.875
2748.953	764.875
2751.189	778.20833
2753.423	776.54167
2755.656	761.54167
2757.887	763.54167
2760.117	769.54167
2762.346	768.20833
2764.573	745.54167
2766.798	760.875
2769.022	773.20833
2771.245	765.54167
2773.467	764.875
2775.686	776.20833
2777.905	791.54167
2780.122	800.20833
2782.337	791.875
2784.552	793.20833
2786.764	821.54167
2788.976	814.54167
2791.186	828.54167
2793.394	836.875
2795.601	850.20833
2797.807	872.875
2800.011	882.54167
2802.214	890.54167
2804.415	886.875
2806.615	893.875
2808.814	900.875
2811.011	933.54167
2813.206	927.54167
2815.401	947.875
2817.594	963.54167
2819.785	989.875
2821.975	978.54167
2824.164	999.54167
2826.351	1019.20833
2828.537	1041.54167
2830.722	1058.20833
2832.905	1073.875
2835.086	1097.54167
2837.267	1160.54167
2839.445	1182.20833
2841.623	1217.875
2843.799	1271.875
2845.974	1313.875
2848.147	1349.20833
2850.319	1377.875
2852.489	1417.875
2854.659	1427.54167
2856.826	1451.20833
2858.993	1477.20833
2861.158	1458.875
2863.321	1475.54167
2865.483	1485.54167
2867.644	1476.20833
2869.804	1473.875
2871.962	1482.54167
2874.118	1460.875
2876.274	1460.875
2878.428	1448.875
2880.58	1448.54167
2882.731	1436.54167
2884.881	1436.54167
2887.03	1429.54167
2889.177	1443.54167
2891.322	1454.54167
2893.467	1433.54167
2895.61	1456.54167
2897.751	1472.54167
2899.892	1472.875
2902.03	1468.20833
2904.168	1495.54167
2906.304	1481.20833
2908.439	1506.20833
2910.572	1481.875
2912.704	1509.875
2914.835	1511.20833
2916.965	1502.20833
2919.093	1501.875
2921.219	1461.54167
2923.345	1471.20833
2925.469	1456.20833
2927.591	1433.20833
2929.712	1381.20833
2931.832	1369.54167
2933.951	1343.20833
2936.068	1323.20833
2938.184	1281.875
2940.299	1247.54167
2942.412	1216.54167
2944.524	1167.54167
2946.634	1125.54167
2948.744	1084.875
2950.851	1116.54167
2952.958	1035.20833
2955.063	1022.20833
2957.167	1010.54167
2959.269	973.54167
2961.371	982.875
2963.471	935.54167
2965.569	931.875
2967.666	896.875
2969.762	884.54167
2971.857	858.875
2973.95	841.54167
2976.042	826.875
2978.133	801.20833
2980.222	783.875
2982.31	767.54167
2984.396	743.54167
2986.482	732.875
2988.566	743.54167
2990.648	708.875
2992.73	719.54167
2994.81	698.20833
2996.889	706.875
2998.966	697.20833
3001.042	697.875
3003.117	690.20833
3005.191	687.875
3007.263	662.875
3009.334	668.20833
3011.403	652.54167
3013.472	635.875
3015.539	640.54167
3017.604	638.20833
3019.669	606.54167
3021.732	614.20833
3023.794	603.20833
3025.854	605.875
3027.914	594.875
3029.971	594.875
3032.028	582.20833
3034.083	597.20833
3036.137	574.875
3038.19	553.875
3040.242	546.20833
3042.292	535.875
3044.341	516.875
3046.388	532.20833
3048.435	514.20833
3050.48	533.54167
3052.524	523.20833
3054.566	500.20833
3056.607	509.54167
3058.647	486.875
3060.686	474.20833
3062.723	467.54167
3064.759	446.875
3066.794	-0.45833
3068.828	-1.79167
3070.86	-1.79167
