-0.839	401.45833
3.438	433.125
7.711	118.79167
11.981	54.125
16.247	51.79167
20.509	47.125
24.768	44.45833
29.024	49.79167
33.276	45.45833
37.524	55.125
41.769	45.45833
46.01	41.125
50.247	56.45833
54.481	62.79167
58.712	68.125
62.939	51.45833
67.162	64.79167
71.382	59.125
75.599	51.79167
79.812	66.79167
84.021	83.125
88.227	64.79167
92.429	64.79167
96.628	56.45833
100.823	70.79167
105.015	79.45833
109.204	79.45833
113.388	79.79167
117.57	81.125
121.748	93.79167
125.922	86.45833
130.093	107.125
134.261	114.79167
138.425	113.79167
142.585	157.45833
146.742	153.79167
150.896	181.45833
155.046	223.79167
159.193	343.79167
163.336	594.45833
167.476	1086.45833
171.613	2018.79167
175.746	3369.45833
179.875	5059.125
184.002	6581.125
188.124	7696.45833
192.244	8057.125
196.36	8022.125
200.472	7771.79167
204.581	7606.45833
208.687	7448.79167
212.79	7387.79167
216.889	7450.45833
220.984	7514.79167
225.077	7661.79167
229.165	7726.79167
233.251	7798.79167
237.333	7823.79167
241.412	7798.79167
245.487	7757.125
249.559	7698.79167
253.628	7616.79167
257.694	7610.125
261.756	7549.45833
265.814	7391.79167
269.87	7234.125
273.922	7090.79167
277.97	7069.79167
282.016	7072.79167
286.058	7137.125
290.097	7318.125
294.132	7409.125
298.164	7273.125
302.193	6898.125
306.219	6396.79167
310.241	5791.125
314.26	5264.79167
318.276	4779.45833
322.288	4450.125
326.297	4177.125
330.303	3959.125
334.305	3802.45833
338.305	3703.45833
342.301	3675.79167
346.294	3617.45833
350.283	3563.45833
354.269	3538.79167
358.252	3507.125
362.232	3478.79167
366.209	3450.45833
370.182	3411.45833
374.152	3393.79167
378.119	3402.79167
382.083	3359.125
386.043	3374.79167
390	3315.125
393.954	3284.79167
397.905	3267.45833
401.852	3218.125
405.797	3205.45833
409.738	3187.125
413.676	3158.125
417.61	3121.79167
421.542	3087.125
425.47	3066.45833
429.396	3037.79167
433.318	3004.45833
437.236	3008.45833
441.152	3039.79167
445.065	2939.125
448.974	2964.79167
452.88	2924.79167
456.783	2916.125
460.683	2902.79167
464.58	2911.125
468.473	2886.125
472.364	2897.125
476.251	2918.79167
480.135	2917.125
484.016	2948.79167
487.894	2982.125
491.769	2984.45833
495.641	3000.125
499.509	2996.125
503.375	2995.79167
507.237	3011.125
511.096	3003.45833
514.952	3095.79167
518.805	3214.125
522.655	3234.79167
526.502	3077.45833
530.346	2970.79167
534.187	2978.125
538.024	2986.45833
541.859	2970.45833
545.69	2992.79167
549.519	2946.79167
553.344	2959.45833
557.166	2900.125
560.985	2857.45833
564.802	2840.79167
568.615	2807.125
572.425	2756.125
576.232	2716.45833
580.036	2725.125
583.836	2707.125
587.634	2747.45833
591.429	2721.45833
595.221	2790.125
599.01	2812.125
602.796	2837.125
606.578	2888.79167
610.358	2866.125
614.135	2852.79167
617.909	2842.79167
621.679	2868.45833
625.447	2848.79167
629.212	2841.125
632.973	2831.125
636.732	2854.79167
640.488	2821.79167
644.241	2796.125
647.991	2798.125
651.737	2809.45833
655.481	2744.45833
659.222	2779.79167
662.96	2760.79167
666.695	2783.125
670.427	2800.45833
674.156	2831.45833
677.882	2796.79167
681.605	2815.45833
685.325	2805.45833
689.043	2800.125
692.757	2787.45833
696.468	2796.125
700.177	2828.125
703.882	2786.45833
707.585	2804.125
711.284	2801.125
714.981	2804.125
718.675	2813.125
722.366	2813.79167
726.054	2800.45833
729.739	2803.125
733.421	2816.79167
737.1	2830.45833
740.777	2845.45833
744.45	2869.79167
748.121	2908.125
751.789	2954.125
755.453	2927.79167
759.115	2944.125
762.774	2988.79167
766.431	3013.79167
770.084	3046.79167
773.734	3081.45833
777.382	3166.79167
781.027	3184.79167
784.669	3207.125
788.308	3212.79167
791.944	3241.125
795.577	3264.125
799.208	3300.45833
802.835	3323.45833
806.46	3303.125
810.082	3384.125
813.701	3378.79167
817.317	3385.125
820.931	3375.79167
824.542	3407.45833
828.149	3394.79167
831.754	3369.45833
835.357	3357.79167
838.956	3354.45833
842.553	3330.79167
846.146	3311.79167
849.737	3328.125
853.326	3335.45833
856.911	3364.79167
860.493	3400.79167
864.073	3438.125
867.65	3475.79167
871.225	3546.45833
874.796	3552.125
878.365	3558.125
881.931	3594.45833
885.494	3627.79167
889.054	3603.79167
892.612	3613.45833
896.166	3579.125
899.719	3565.125
903.268	3505.79167
906.814	3484.79167
910.358	3448.79167
913.899	3416.45833
917.438	3459.45833
920.973	3446.125
924.506	3491.79167
928.036	3508.125
931.564	3561.45833
935.088	3577.125
938.61	3619.125
942.129	3656.45833
945.646	3733.125
949.16	3832.125
952.671	3905.79167
956.179	3922.125
959.685	3862.125
963.188	3836.45833
966.688	3758.79167
970.185	3651.45833
973.68	3595.45833
977.173	3554.45833
980.662	3511.125
984.149	3527.45833
987.633	3547.45833
991.114	3623.45833
994.593	3718.45833
998.069	3828.45833
1001.542	3937.45833
1005.013	3874.45833
1008.481	3649.79167
1011.947	3627.125
1015.409	3598.125
1018.869	3610.79167
1022.327	3578.79167
1025.782	3570.79167
1029.234	3569.125
1032.683	3503.79167
1036.13	3420.79167
1039.574	3277.45833
1043.016	3189.45833
1046.455	3146.125
1049.891	3093.125
1053.325	3105.45833
1056.756	3122.45833
1060.184	3141.79167
1063.61	3172.45833
1067.033	3211.125
1070.454	3173.125
1073.872	3209.125
1077.287	3198.45833
1080.7	3241.79167
1084.11	3232.125
1087.517	3199.45833
1090.922	3177.45833
1094.325	3135.125
1097.724	3115.79167
1101.122	3096.125
1104.516	3095.125
1107.908	3128.79167
1111.298	3153.79167
1114.684	3209.79167
1118.069	3240.79167
1121.45	3283.45833
1124.83	3295.45833
1128.206	3330.45833
1131.58	3385.79167
1134.951	3488.79167
1138.32	3621.45833
1141.687	3753.45833
1145.05	3831.45833
1148.412	3867.79167
1151.77	3852.79167
1155.126	3878.79167
1158.48	3886.45833
1161.831	3893.79167
1165.18	3959.79167
1168.525	4010.45833
1171.869	4063.125
1175.21	4065.79167
1178.548	4127.79167
1181.884	4156.125
1185.217	4151.79167
1188.548	4221.79167
1191.877	4300.79167
1195.202	4399.45833
1198.526	4443.45833
1201.846	4435.125
1205.165	4447.79167
1208.48	4426.45833
1211.794	4385.125
1215.104	4411.45833
1218.413	4390.125
1221.719	4390.79167
1225.022	4353.125
1228.323	4315.79167
1231.621	4342.79167
1234.917	4308.79167
1238.21	4357.45833
1241.501	4352.45833
1244.79	4333.79167
1248.076	4341.45833
1251.359	4381.45833
1254.64	4450.125
1257.919	4488.45833
1261.195	4555.45833
1264.468	4633.79167
1267.74	4695.45833
1271.008	4681.125
1274.275	4659.79167
1277.538	4622.45833
1280.8	4604.79167
1284.059	4666.45833
1287.315	4705.125
1290.569	4720.45833
1293.821	4743.79167
1297.07	4727.125
1300.317	4756.79167
1303.562	4740.125
1306.803	4682.45833
1310.043	4665.45833
1313.28	4563.45833
1316.515	4503.45833
1319.747	4460.125
1322.977	4417.79167
1326.204	4344.125
1329.429	4286.45833
1332.652	4257.45833
1335.872	4223.79167
1339.09	4193.125
1342.306	4199.125
1345.519	4161.45833
1348.729	4127.125
1351.938	4096.79167
1355.144	4044.45833
1358.347	4003.45833
1361.548	4038.125
1364.747	4031.79167
1367.944	4027.45833
1371.138	4071.125
1374.329	4122.125
1377.518	4133.125
1380.705	4204.79167
1383.89	4148.79167
1387.072	4045.125
1390.252	3902.125
1393.429	3788.45833
1396.605	3666.125
1399.777	3566.45833
1402.948	3569.45833
1406.116	3505.125
1409.282	3533.79167
1412.445	3532.125
1415.606	3584.125
1418.765	3640.79167
1421.921	3733.79167
1425.075	3808.45833
1428.227	3925.79167
1431.376	4078.45833
1434.524	4232.45833
1437.668	4289.125
1440.811	4352.45833
1443.951	4331.79167
1447.089	4371.125
1450.224	4323.125
1453.357	4307.45833
1456.488	4289.79167
1459.617	4243.125
1462.743	4207.45833
1465.867	4085.125
1468.989	4046.45833
1472.108	4006.125
1475.225	3923.79167
1478.34	3910.79167
1481.453	3907.79167
1484.563	3914.125
1487.671	3998.79167
1490.776	4040.125
1493.88	4166.125
1496.981	4244.125
1500.08	4308.45833
1503.176	4391.45833
1506.271	4430.79167
1509.363	4552.125
1512.452	4612.125
1515.54	4688.125
1518.625	4813.79167
1521.708	4971.125
1524.789	5171.125
1527.867	5467.45833
1530.944	5806.125
1534.018	6077.45833
1537.089	6308.45833
1540.159	6327.79167
1543.226	6208.45833
1546.291	6018.45833
1549.354	5807.45833
1552.415	5646.45833
1555.473	5497.45833
1558.529	5400.79167
1561.583	5355.45833
1564.634	5311.45833
1567.684	5285.45833
1570.731	5269.45833
1573.776	5325.79167
1576.819	5356.125
1579.859	5381.79167
1582.898	5435.45833
1585.934	5451.79167
1588.968	5478.45833
1591.999	5456.45833
1595.029	5464.125
1598.056	5500.79167
1601.081	5481.79167
1604.104	5456.45833
1607.125	5382.125
1610.144	5273.125
1613.16	5125.45833
1616.174	5036.125
1619.186	4878.79167
1622.196	4709.125
1625.203	4578.79167
1628.209	4500.45833
1631.212	4452.79167
1634.213	4372.45833
1637.212	4288.79167
1640.209	4165.79167
1643.203	4062.45833
1646.196	3937.125
1649.186	3806.45833
1652.174	3697.125
1655.16	3582.79167
1658.144	3448.79167
1661.125	3321.79167
1664.105	3148.45833
1667.082	3018.79167
1670.057	2849.45833
1673.03	2689.125
1676.001	2529.125
1678.97	2379.79167
1681.937	2259.45833
1684.901	2139.79167
1687.863	2072.79167
1690.824	1991.79167
1693.782	1968.45833
1696.738	1885.125
1699.692	1847.125
1702.643	1804.125
1705.593	1767.45833
1708.54	1760.45833
1711.486	1748.125
1714.429	1703.45833
1717.37	1706.79167
1720.309	1662.45833
1723.246	1662.45833
1726.181	1643.79167
1729.113	1630.45833
1732.044	1639.79167
1734.972	1595.125
1737.899	1585.79167
1740.823	1585.125
1743.745	1579.45833
1746.665	1523.125
1749.583	1506.45833
1752.499	1469.79167
1755.413	1457.125
1758.325	1427.125
1761.235	1429.125
1764.142	1392.125
1767.048	1388.79167
1769.951	1394.79167
1772.852	1357.125
1775.752	1360.79167
1778.649	1356.79167
1781.544	1358.125
1784.437	1324.125
1787.328	1321.45833
1790.217	1310.45833
1793.104	1291.45833
1795.989	1304.125
1798.872	1294.125
1801.753	1304.79167
1804.631	1314.45833
1807.508	1301.125
1810.383	1280.79167
1813.255	1292.125
1816.126	1277.125
1818.994	1266.45833
1821.861	1265.79167
1824.725	1255.45833
1827.587	1253.45833
1830.448	1264.79167
1833.306	1221.79167
1836.162	1240.79167
1839.017	1211.79167
1841.869	1219.79167
1844.719	1239.79167
1847.567	1201.125
1850.414	1204.45833
1853.258	1205.125
1856.1	1231.125
1858.94	1220.125
1861.778	1214.125
1864.614	1192.45833
1867.448	1192.79167
1870.28	1189.79167
1873.111	1221.45833
1875.939	1200.45833
1878.765	1202.79167
1881.589	1197.45833
1884.411	1198.79167
1887.231	1208.79167
1890.049	1178.45833
1892.865	1189.45833
1895.68	1176.45833
1898.492	1172.45833
1901.302	1161.45833
1904.11	1165.79167
1906.916	1152.79167
1909.721	1140.45833
1912.523	1158.125
1915.323	1129.79167
1918.122	1148.79167
1920.918	1154.79167
1923.712	1138.45833
1926.505	1132.125
1929.295	1131.79167
1932.084	1139.125
1934.87	1142.125
1937.655	1114.79167
1940.438	1116.79167
1943.218	1117.45833
1945.997	1129.79167
1948.774	1128.45833
1951.549	1129.125
1954.322	1114.79167
1957.093	1125.125
1959.862	1108.45833
1962.629	1116.125
1965.394	1104.125
1968.157	1098.125
1970.918	1105.45833
1973.678	1090.125
1976.435	1086.79167
1979.19	1085.125
1981.944	1081.79167
1984.696	1063.125
1987.445	1070.125
1990.193	1084.125
1992.939	1092.45833
1995.683	1082.45833
1998.425	1063.125
2001.165	1091.125
2003.903	1069.79167
2006.639	1067.79167
2009.374	1080.45833
2012.106	1076.125
2014.837	1039.125
2017.566	1068.79167
2020.292	1082.45833
2023.017	1066.79167
2025.74	1051.45833
2028.461	1061.45833
2031.18	1066.79167
2033.898	1048.125
2036.613	1050.125
2039.327	1057.45833
2042.038	1038.45833
2044.748	1031.45833
2047.456	1045.45833
2050.162	1029.125
2052.866	1027.45833
2055.568	1030.125
2058.268	1032.79167
2060.967	1032.125
2063.663	1023.79167
2066.358	1033.45833
2069.051	1023.79167
2071.742	1024.79167
2074.431	1043.79167
2077.118	1021.125
2079.804	1021.45833
2082.487	1031.45833
2085.169	1041.125
2087.849	1058.79167
2090.527	1038.125
2093.203	1058.125
2095.877	1076.125
2098.55	1083.79167
2101.22	1082.45833
2103.889	1103.79167
2106.556	1103.45833
2109.221	1165.45833
2111.884	1220.125
2114.546	1311.45833
2117.205	1418.45833
2119.863	1554.79167
2122.519	1684.45833
2125.173	1779.79167
2127.825	1876.125
2130.475	1873.125
2133.124	1825.45833
2135.771	1744.125
2138.416	1660.79167
2141.059	1552.45833
2143.7	1475.79167
2146.339	1393.125
2148.977	1299.125
2151.613	1268.79167
2154.247	1241.45833
2156.879	1205.45833
2159.51	1181.125
2162.138	1145.45833
2164.765	1141.79167
2167.39	1133.45833
2170.013	1112.45833
2172.634	1102.79167
2175.254	1081.79167
2177.872	1099.79167
2180.488	1060.79167
2183.102	1074.125
2185.714	1045.79167
2188.325	1019.79167
2190.934	1028.125
2193.541	1028.79167
2196.146	1005.125
2198.75	997.125
2201.351	991.125
2203.951	982.125
2206.549	991.125
2209.146	981.125
2211.74	974.79167
2214.333	986.125
2216.924	954.125
2219.514	953.45833
2222.101	936.45833
2224.687	956.45833
2227.271	937.79167
2229.853	923.125
2232.433	905.79167
2235.012	946.79167
2237.589	935.45833
2240.164	944.45833
2242.738	928.79167
2245.309	899.45833
2247.879	909.79167
2250.448	906.45833
2253.014	872.45833
2255.579	868.79167
2258.142	881.79167
2260.703	867.45833
2263.262	869.79167
2265.82	850.125
2268.376	855.125
2270.93	853.125
2273.483	842.125
2276.033	849.79167
2278.583	836.125
2281.13	830.79167
2283.675	826.125
2286.219	840.125
2288.761	830.79167
2291.302	834.45833
2293.841	828.125
2296.377	802.125
2298.913	824.45833
2301.446	827.125
2303.978	824.45833
2306.508	809.125
2309.037	806.125
2311.563	816.125
2314.088	824.79167
2316.612	796.125
2319.133	809.45833
2321.653	795.45833
2324.171	794.45833
2326.688	803.45833
2329.202	796.45833
2331.715	789.79167
2334.227	796.45833
2336.736	776.79167
2339.244	780.79167
2341.751	769.45833
2344.255	786.45833
2346.758	768.79167
2349.259	778.125
2351.759	776.79167
2354.257	776.79167
2356.753	774.45833
2359.247	769.79167
2361.74	782.45833
2364.231	776.45833
2366.721	782.125
2369.209	770.125
2371.695	768.125
2374.179	759.45833
2376.662	758.125
2379.143	781.79167
2381.622	754.79167
2384.1	772.79167
2386.576	748.79167
2389.051	772.79167
2391.524	766.45833
2393.995	771.79167
2396.464	759.125
2398.932	743.79167
2401.398	757.79167
2403.863	752.79167
2406.325	757.79167
2408.787	751.125
2411.246	747.79167
2413.704	749.45833
2416.16	734.45833
2418.615	747.79167
2421.068	749.125
2423.519	746.79167
2425.969	747.45833
2428.417	749.45833
2430.863	759.45833
2433.308	759.45833
2435.751	737.45833
2438.193	738.45833
2440.633	752.45833
2443.071	736.125
2445.508	728.45833
2447.943	738.45833
2450.376	727.125
2452.808	736.125
2455.238	720.125
2457.667	753.45833
2460.093	740.79167
2462.519	723.79167
2464.942	732.45833
2467.365	734.45833
2469.785	731.45833
2472.204	731.79167
2474.621	710.125
2477.037	738.45833
2479.451	700.125
2481.863	710.45833
2484.274	713.125
2486.683	719.125
2489.091	727.45833
2491.497	721.79167
2493.901	724.45833
2496.304	720.125
2498.705	723.79167
2501.105	725.45833
2503.503	736.79167
2505.899	718.79167
2508.294	729.125
2510.687	708.45833
2513.079	722.45833
2515.469	702.79167
2517.858	710.125
2520.245	715.79167
2522.63	711.79167
2525.014	708.45833
2527.396	706.125
2529.776	703.45833
2532.156	710.79167
2534.533	699.45833
2536.909	704.45833
2539.283	693.125
2541.656	705.125
2544.027	719.125
2546.397	709.125
2548.765	708.125
2551.131	701.125
2553.496	699.125
2555.86	718.79167
2558.221	707.45833
2560.582	701.45833
2562.94	686.45833
2565.298	701.45833
2567.653	718.125
2570.007	688.79167
2572.36	707.79167
2574.711	701.45833
2577.06	715.125
2579.408	695.45833
2581.754	704.79167
2584.099	694.79167
2586.442	697.45833
2588.784	710.45833
2591.124	707.79167
2593.463	700.125
2595.8	692.45833
2598.135	696.125
2600.469	696.45833
2602.802	707.45833
2605.133	710.125
2607.462	690.125
2609.79	692.125
2612.116	706.79167
2614.441	695.79167
2616.764	717.45833
2619.086	687.79167
2621.406	701.125
2623.725	710.79167
2626.042	711.125
2628.358	699.45833
2630.672	699.125
2632.985	717.79167
2635.296	717.125
2637.606	716.45833
2639.914	696.125
2642.22	721.45833
2644.525	711.79167
2646.829	727.125
2649.131	728.45833
2651.432	734.79167
2653.731	727.45833
2656.028	736.79167
2658.324	738.125
2660.619	714.125
2662.912	736.125
2665.204	718.125
2667.494	736.125
2669.782	716.79167
2672.07	740.79167
2674.355	745.125
2676.639	723.79167
2678.922	722.79167
2681.203	752.79167
2683.483	726.125
2685.761	730.125
2688.038	744.125
2690.313	750.45833
2692.587	738.45833
2694.859	752.125
2697.13	741.45833
2699.399	743.125
2701.667	750.79167
2703.933	764.79167
2706.198	770.79167
2708.461	768.79167
2710.723	780.125
2712.984	788.45833
2715.243	799.45833
2717.5	778.125
2719.757	796.125
2722.011	784.79167
2724.264	792.45833
2726.516	819.45833
2728.766	808.45833
2731.015	804.45833
2733.262	808.79167
2735.508	796.79167
2737.753	798.125
2739.996	776.45833
2742.237	783.45833
2744.477	789.79167
2746.716	779.45833
2748.953	774.79167
2751.189	789.45833
2753.423	776.79167
2755.656	767.45833
2757.887	775.79167
2760.117	765.79167
2762.346	757.79167
2764.573	769.125
2766.798	763.125
2769.022	765.45833
2771.245	780.125
2773.467	789.125
2775.686	779.45833
2777.905	799.79167
2780.122	795.79167
2782.337	808.45833
2784.552	805.125
2786.764	816.79167
2788.976	833.79167
2791.186	841.45833
2793.394	843.45833
2795.601	853.45833
2797.807	880.79167
2800.011	876.79167
2802.214	901.125
2804.415	902.45833
2806.615	906.125
2808.814	930.125
2811.011	928.45833
2813.206	938.45833
2815.401	948.125
2817.594	970.79167
2819.785	1005.79167
2821.975	975.125
2824.164	996.79167
2826.351	1025.79167
2828.537	1044.79167
2830.722	1071.125
2832.905	1068.125
2835.086	1096.79167
2837.267	1158.45833
2839.445	1189.79167
2841.623	1215.125
2843.799	1276.125
2845.974	1312.125
2848.147	1358.125
2850.319	1379.79167
2852.489	1414.125
2854.659	1444.125
2856.826	1468.45833
2858.993	1515.45833
2861.158	1486.45833
2863.321	1473.45833
2865.483	1511.79167
2867.644	1491.125
2869.804	1489.45833
2871.962	1491.125
2874.118	1461.45833
2876.274	1471.125
2878.428	1454.79167
2880.58	1459.79167
2882.731	1453.45833
2884.881	1451.79167
2887.03	1438.125
2889.177	1453.125
2891.322	1458.79167
2893.467	1446.125
2895.61	1452.79167
2897.751	1489.45833
2899.892	1473.45833
2902.03	1482.45833
2904.168	1485.45833
2906.304	1507.125
2908.439	1519.125
2910.572	1506.125
2912.704	1519.45833
2914.835	1526.79167
2916.965	1507.79167
2919.093	1513.45833
2921.219	1488.79167
2923.345	1493.45833
2925.469	1466.125
2927.591	1453.45833
2929.712	1400.45833
2931.832	1379.125
2933.951	1347.125
2936.068	1322.125
2938.184	1284.45833
2940.299	1253.45833
2942.412	1241.45833
2944.524	1164.45833
2946.634	1139.79167
2948.744	1088.79167
2950.851	1105.79167
2952.958	1062.125
2955.063	1026.79167
2957.167	1021.45833
2959.269	985.125
2961.371	996.45833
2963.471	954.125
2965.569	943.45833
2967.666	905.45833
2969.762	884.79167
2971.857	874.45833
2973.95	856.79167
2976.042	837.79167
2978.133	826.125
2980.222	792.45833
2982.31	770.79167
2984.396	751.125
2986.482	749.45833
2988.566	749.45833
2990.648	726.125
2992.73	713.45833
2994.81	714.79167
2996.889	711.45833
2998.966	699.125
3001.042	701.45833
3003.117	692.125
3005.191	696.45833
3007.263	690.79167
3009.334	679.79167
3011.403	670.125
3013.472	646.45833
3015.539	643.45833
3017.604	655.125
3019.669	605.79167
3021.732	616.79167
3023.794	614.79167
3025.854	602.79167
3027.914	601.125
3029.971	612.79167
3032.028	598.125
3034.083	599.79167
3036.137	591.125
3038.19	571.79167
3040.242	541.79167
3042.292	542.125
3044.341	535.125
3046.388	545.125
3048.435	526.45833
3050.48	536.125
3052.524	521.125
3054.566	501.125
3056.607	523.45833
3058.647	505.45833
3060.686	486.125
3062.723	473.125
3064.759	460.45833
3066.794	0.125
3068.828	-2.875
3070.86	-1.54167
