-0.839	395.20833
3.438	417.875
7.711	125.875
11.981	55.20833
16.247	49.54167
20.509	46.54167
24.768	49.54167
29.024	47.20833
33.276	46.54167
37.524	48.20833
41.769	41.54167
46.01	38.875
50.247	49.54167
54.481	62.875
58.712	69.875
62.939	55.875
67.162	65.875
71.382	55.54167
75.599	54.20833
79.812	68.20833
84.021	86.54167
88.227	60.20833
92.429	63.875
96.628	53.875
100.823	69.20833
105.015	79.875
109.204	81.20833
113.388	84.54167
117.57	79.875
121.748	95.54167
125.922	91.20833
130.093	102.54167
134.261	111.54167
138.425	107.875
142.585	155.54167
146.742	148.20833
150.896	175.54167
155.046	226.20833
159.193	346.875
163.336	594.875
167.476	1103.20833
171.613	2026.20833
175.746	3421.54167
179.875	5139.54167
184.002	6735.20833
188.124	7819.54167
192.244	8224.20833
196.36	8202.20833
200.472	7916.54167
204.581	7699.54167
208.687	7549.20833
212.79	7472.54167
216.889	7499.875
220.984	7577.54167
225.077	7630.875
229.165	7735.20833
233.251	7744.20833
237.333	7761.20833
241.412	7710.875
245.487	7639.20833
249.559	7556.875
253.628	7472.54167
257.694	7414.20833
261.756	7321.20833
265.814	7105.875
269.87	6942.875
273.922	6791.20833
277.97	6728.875
282.016	6702.20833
286.058	6745.54167
290.097	6846.20833
294.132	6855.875
298.164	6761.875
302.193	6400.875
306.219	5921.20833
310.241	5394.20833
314.26	4940.54167
318.276	4519.875
322.288	4221.54167
326.297	3983.875
330.303	3796.54167
334.305	3683.20833
338.305	3611.875
342.301	3554.875
346.294	3506.54167
350.283	3461.54167
354.269	3436.54167
358.252	3404.54167
362.232	3390.20833
366.209	3355.875
370.182	3299.875
374.152	3291.20833
378.119	3323.20833
382.083	3313.875
386.043	3312.54167
390	3246.54167
393.954	3232.875
397.905	3183.875
401.852	3185.20833
405.797	3136.54167
409.738	3079.875
413.676	3075.875
417.61	3044.54167
421.542	3012.20833
425.47	2998.875
429.396	2965.54167
433.318	2958.875
437.236	2941.20833
441.152	2944.20833
445.065	2890.875
448.974	2889.875
452.88	2841.875
456.783	2823.54167
460.683	2853.54167
464.58	2817.54167
468.473	2832.875
472.364	2834.875
476.251	2842.54167
480.135	2865.875
484.016	2908.875
487.894	2914.875
491.769	2930.20833
495.641	2927.54167
499.509	2927.875
503.375	2905.20833
507.237	2919.54167
511.096	2931.20833
514.952	3053.875
518.805	3188.875
522.655	3251.54167
526.502	3021.875
530.346	2909.875
534.187	2892.875
538.024	2906.54167
541.859	2894.20833
545.69	2913.20833
549.519	2896.875
553.344	2871.54167
557.166	2840.875
560.985	2789.20833
564.802	2767.54167
568.615	2711.875
572.425	2693.54167
576.232	2676.20833
580.036	2662.20833
583.836	2634.875
587.634	2657.875
591.429	2682.875
595.221	2706.54167
599.01	2753.54167
602.796	2798.875
606.578	2819.20833
610.358	2824.54167
614.135	2793.875
617.909	2775.875
621.679	2781.20833
625.447	2759.875
629.212	2736.54167
632.973	2800.875
636.732	2767.20833
640.488	2753.20833
644.241	2727.54167
647.991	2712.54167
651.737	2743.54167
655.481	2685.875
659.222	2688.20833
662.96	2677.875
666.695	2727.54167
670.427	2726.20833
674.156	2725.20833
677.882	2731.20833
681.605	2735.54167
685.325	2691.20833
689.043	2726.875
692.757	2700.54167
696.468	2716.20833
700.177	2715.20833
703.882	2694.875
707.585	2710.875
711.284	2704.20833
714.981	2722.20833
718.675	2743.20833
722.366	2751.54167
726.054	2712.54167
729.739	2743.54167
733.421	2721.54167
737.1	2743.875
740.777	2754.20833
744.45	2784.875
748.121	2795.54167
751.789	2843.875
755.453	2861.20833
759.115	2882.875
762.774	2926.875
766.431	2931.875
770.084	2974.54167
773.734	2983.54167
777.382	3065.54167
781.027	3089.875
784.669	3129.20833
788.308	3135.54167
791.944	3123.20833
795.577	3170.875
799.208	3224.20833
802.835	3196.54167
806.46	3244.875
810.082	3274.54167
813.701	3257.20833
817.317	3291.54167
820.931	3290.875
824.542	3300.54167
828.149	3260.54167
831.754	3281.54167
835.357	3283.875
838.956	3278.20833
842.553	3243.54167
846.146	3256.20833
849.737	3242.54167
853.326	3267.20833
856.911	3291.54167
860.493	3334.54167
864.073	3347.54167
867.65	3416.54167
871.225	3467.20833
874.796	3461.54167
878.365	3476.20833
881.931	3501.54167
885.494	3540.875
889.054	3529.875
892.612	3521.20833
896.166	3518.20833
899.719	3495.54167
903.268	3439.20833
906.814	3433.875
910.358	3396.20833
913.899	3363.875
917.438	3383.20833
920.973	3386.20833
924.506	3392.875
928.036	3448.20833
931.564	3484.20833
935.088	3524.54167
938.61	3514.54167
942.129	3571.54167
945.646	3671.875
949.16	3757.54167
952.671	3847.54167
956.179	3865.20833
959.685	3821.54167
963.188	3761.875
966.688	3684.54167
970.185	3591.20833
973.68	3528.54167
977.173	3510.54167
980.662	3506.875
984.149	3500.54167
987.633	3529.54167
991.114	3584.20833
994.593	3657.54167
998.069	3827.875
1001.542	3890.54167
1005.013	3805.875
1008.481	3614.875
1011.947	3535.875
1015.409	3537.54167
1018.869	3563.54167
1022.327	3518.20833
1025.782	3504.20833
1029.234	3508.20833
1032.683	3458.54167
1036.13	3313.54167
1039.574	3214.54167
1043.016	3115.875
1046.455	3045.54167
1049.891	3011.20833
1053.325	3008.20833
1056.756	3040.875
1060.184	3053.54167
1063.61	3074.875
1067.033	3084.54167
1070.454	3095.875
1073.872	3142.20833
1077.287	3127.20833
1080.7	3128.54167
1084.11	3124.54167
1087.517	3118.20833
1090.922	3096.875
1094.325	3071.875
1097.724	3048.875
1101.122	3042.20833
1104.516	3027.875
1107.908	3024.54167
1111.298	3082.20833
1114.684	3116.54167
1118.069	3146.54167
1121.45	3227.20833
1124.83	3205.54167
1128.206	3238.20833
1131.58	3302.875
1134.951	3395.54167
1138.32	3512.875
1141.687	3636.20833
1145.05	3746.875
1148.412	3770.875
1151.77	3769.20833
1155.126	3776.54167
1158.48	3778.875
1161.831	3814.875
1165.18	3860.54167
1168.525	3924.20833
1171.869	3957.20833
1175.21	4002.875
1178.548	4009.875
1181.884	4092.20833
1185.217	4073.875
1188.548	4168.54167
1191.877	4201.20833
1195.202	4293.20833
1198.526	4396.875
1201.846	4350.20833
1205.165	4380.54167
1208.48	4327.875
1211.794	4321.20833
1215.104	4316.20833
1218.413	4308.875
1221.719	4318.54167
1225.022	4289.54167
1228.323	4234.54167
1231.621	4232.875
1234.917	4227.20833
1238.21	4236.54167
1241.501	4268.54167
1244.79	4271.54167
1248.076	4264.875
1251.359	4306.875
1254.64	4398.875
1257.919	4393.20833
1261.195	4487.875
1264.468	4569.20833
1267.74	4625.54167
1271.008	4646.54167
1274.275	4614.54167
1277.538	4572.54167
1280.8	4565.875
1284.059	4535.20833
1287.315	4587.54167
1290.569	4610.875
1293.821	4628.875
1297.07	4668.875
1300.317	4674.875
1303.562	4657.20833
1306.803	4621.20833
1310.043	4561.54167
1313.28	4499.875
1316.515	4447.54167
1319.747	4400.875
1322.977	4336.20833
1326.204	4264.54167
1329.429	4257.20833
1332.652	4199.20833
1335.872	4167.20833
1339.09	4151.54167
1342.306	4134.20833
1345.519	4119.875
1348.729	4116.54167
1351.938	4063.54167
1355.144	3998.20833
1358.347	3985.875
1361.548	3974.54167
1364.747	3962.20833
1367.944	3947.875
1371.138	3997.54167
1374.329	4007.54167
1377.518	4077.20833
1380.705	4108.20833
1383.89	4085.20833
1387.072	3954.54167
1390.252	3822.875
1393.429	3675.20833
1396.605	3585.54167
1399.777	3456.875
1402.948	3449.54167
1406.116	3422.875
1409.282	3429.20833
1412.445	3438.20833
1415.606	3488.875
1418.765	3536.20833
1421.921	3628.54167
1425.075	3707.20833
1428.227	3819.875
1431.376	4001.54167
1434.524	4123.20833
1437.668	4215.875
1440.811	4244.20833
1443.951	4269.54167
1447.089	4293.54167
1450.224	4281.20833
1453.357	4266.54167
1456.488	4213.875
1459.617	4200.20833
1462.743	4134.875
1465.867	4054.54167
1468.989	4018.20833
1472.108	3946.20833
1475.225	3881.20833
1478.34	3833.54167
1481.453	3843.20833
1484.563	3868.20833
1487.671	3917.875
1490.776	4034.875
1493.88	4103.54167
1496.981	4170.54167
1500.08	4295.54167
1503.176	4320.54167
1506.271	4401.875
1509.363	4488.20833
1512.452	4499.54167
1515.54	4561.54167
1518.625	4697.20833
1521.708	4855.54167
1524.789	5046.20833
1527.867	5306.54167
1530.944	5627.20833
1534.018	5935.54167
1537.089	6160.20833
1540.159	6177.20833
1543.226	6099.54167
1546.291	5913.875
1549.354	5750.875
1552.415	5573.875
1555.473	5407.20833
1558.529	5346.54167
1561.583	5274.54167
1564.634	5212.20833
1567.684	5175.54167
1570.731	5183.54167
1573.776	5204.20833
1576.819	5228.54167
1579.859	5266.875
1582.898	5316.54167
1585.934	5316.875
1588.968	5366.20833
1591.999	5344.54167
1595.029	5297.54167
1598.056	5374.20833
1601.081	5354.875
1604.104	5347.20833
1607.125	5273.54167
1610.144	5126.875
1613.16	5071.875
1616.174	4896.875
1619.186	4773.54167
1622.196	4626.54167
1625.203	4522.54167
1628.209	4416.20833
1631.212	4368.20833
1634.213	4299.20833
1637.212	4224.54167
1640.209	4179.54167
1643.203	4025.54167
1646.196	3910.20833
1649.186	3776.54167
1652.174	3712.875
1655.16	3550.20833
1658.144	3411.875
1661.125	3285.875
1664.105	3151.54167
1667.082	2984.875
1670.057	2843.20833
1673.03	2660.875
1676.001	2501.875
1678.97	2350.875
1681.937	2203.875
1684.901	2107.20833
1687.863	2038.875
1690.824	1940.875
1693.782	1906.54167
1696.738	1839.875
1699.692	1816.54167
1702.643	1789.54167
1705.593	1738.875
1708.54	1701.54167
1711.486	1711.54167
1714.429	1659.875
1717.37	1655.875
1720.309	1613.54167
1723.246	1642.20833
1726.181	1589.20833
1729.113	1578.20833
1732.044	1563.20833
1734.972	1570.20833
1737.899	1561.54167
1740.823	1532.54167
1743.745	1544.875
1746.665	1489.54167
1749.583	1465.875
1752.499	1436.20833
1755.413	1428.875
1758.325	1386.54167
1761.235	1408.54167
1764.142	1364.20833
1767.048	1358.20833
1769.951	1354.20833
1772.852	1332.20833
1775.752	1320.20833
1778.649	1322.875
1781.544	1323.54167
1784.437	1300.875
1787.328	1309.20833
1790.217	1304.54167
1793.104	1265.54167
1795.989	1263.54167
1798.872	1262.54167
1801.753	1283.875
1804.631	1273.20833
1807.508	1288.54167
1810.383	1283.20833
1813.255	1265.875
1816.126	1248.875
1818.994	1249.20833
1821.861	1235.54167
1824.725	1231.20833
1827.587	1237.875
1830.448	1217.875
1833.306	1195.20833
1836.162	1214.20833
1839.017	1182.875
1841.869	1201.875
1844.719	1194.20833
1847.567	1178.875
1850.414	1187.54167
1853.258	1179.20833
1856.1	1178.875
1858.94	1195.20833
1861.778	1162.875
1864.614	1178.20833
1867.448	1174.20833
1870.28	1163.54167
1873.111	1190.875
1875.939	1175.875
1878.765	1195.20833
1881.589	1161.20833
1884.411	1166.20833
1887.231	1174.20833
1890.049	1163.54167
1892.865	1163.875
1895.68	1144.20833
1898.492	1136.20833
1901.302	1133.875
1904.11	1135.54167
1906.916	1132.20833
1909.721	1120.54167
1912.523	1128.20833
1915.323	1120.54167
1918.122	1104.875
1920.918	1114.54167
1923.712	1102.875
1926.505	1122.875
1929.295	1099.54167
1932.084	1117.875
1934.87	1120.875
1937.655	1106.875
1940.438	1081.875
1943.218	1096.54167
1945.997	1097.875
1948.774	1115.20833
1951.549	1111.54167
1954.322	1096.54167
1957.093	1106.54167
1959.862	1095.54167
1962.629	1089.20833
1965.394	1094.54167
1968.157	1067.875
1970.918	1092.20833
1973.678	1071.20833
1976.435	1064.875
1979.19	1072.20833
1981.944	1044.54167
1984.696	1062.875
1987.445	1040.54167
1990.193	1063.875
1992.939	1068.875
1995.683	1062.54167
1998.425	1024.875
2001.165	1071.875
2003.903	1029.875
2006.639	1045.20833
2009.374	1041.875
2012.106	1051.54167
2014.837	1024.54167
2017.566	1035.54167
2020.292	1031.54167
2023.017	1042.875
2025.74	1025.20833
2028.461	1022.875
2031.18	1031.54167
2033.898	1034.875
2036.613	1034.20833
2039.327	1031.20833
2042.038	1001.875
2044.748	1016.875
2047.456	1023.20833
2050.162	999.20833
2052.866	1014.54167
2055.568	1019.54167
2058.268	1021.20833
2060.967	1020.20833
2063.663	986.20833
2066.358	1012.54167
2069.051	996.20833
2071.742	1013.54167
2074.431	1026.54167
2077.118	1005.20833
2079.804	1021.54167
2082.487	1011.54167
2085.169	1030.875
2087.849	1052.875
2090.527	1031.20833
2093.203	1041.20833
2095.877	1058.875
2098.55	1065.54167
2101.22	1083.54167
2103.889	1106.54167
2106.556	1122.20833
2109.221	1191.20833
2111.884	1249.54167
2114.546	1363.875
2117.205	1459.54167
2119.863	1638.54167
2122.519	1778.20833
2125.173	1882.875
2127.825	2011.54167
2130.475	2033.20833
2133.124	1958.20833
2135.771	1858.875
2138.416	1760.54167
2141.059	1632.54167
2143.7	1545.20833
2146.339	1451.54167
2148.977	1354.875
2151.613	1325.20833
2154.247	1271.20833
2156.879	1232.20833
2159.51	1197.54167
2162.138	1162.20833
2164.765	1159.20833
2167.39	1129.875
2170.013	1144.20833
2172.634	1121.54167
2175.254	1090.875
2177.872	1133.20833
2180.488	1079.875
2183.102	1067.54167
2185.714	1061.54167
2188.325	1028.20833
2190.934	1033.54167
2193.541	1023.54167
2196.146	1011.54167
2198.75	991.875
2201.351	984.54167
2203.951	961.875
2206.549	989.20833
2209.146	959.54167
2211.74	953.875
2214.333	960.54167
2216.924	929.54167
2219.514	927.20833
2222.101	927.875
2224.687	943.875
2227.271	902.20833
2229.853	914.54167
2232.433	893.20833
2235.012	930.875
2237.589	910.875
2240.164	915.875
2242.738	900.20833
2245.309	903.54167
2247.879	891.20833
2250.448	899.20833
2253.014	872.54167
2255.579	851.20833
2258.142	864.54167
2260.703	845.20833
2263.262	855.875
2265.82	843.875
2268.376	855.20833
2270.93	831.20833
2273.483	827.54167
2276.033	837.20833
2278.583	828.875
2281.13	818.20833
2283.675	805.54167
2286.219	815.875
2288.761	811.20833
2291.302	826.875
2293.841	811.54167
2296.377	795.20833
2298.913	807.875
2301.446	816.20833
2303.978	799.54167
2306.508	793.20833
2309.037	798.20833
2311.563	799.54167
2314.088	808.54167
2316.612	783.875
2319.133	801.54167
2321.653	787.54167
2324.171	770.54167
2326.688	790.20833
2329.202	776.54167
2331.715	772.54167
2334.227	791.875
2336.736	772.875
2339.244	767.20833
2341.751	764.875
2344.255	764.875
2346.758	765.54167
2349.259	759.20833
2351.759	762.875
2354.257	757.20833
2356.753	751.20833
2359.247	760.54167
2361.74	755.875
2364.231	746.54167
2366.721	775.20833
2369.209	738.875
2371.695	754.20833
2374.179	747.54167
2376.662	758.54167
2379.143	764.875
2381.622	740.54167
2384.1	754.875
2386.576	746.875
2389.051	761.875
2391.524	780.54167
2393.995	765.20833
2396.464	740.54167
2398.932	735.20833
2401.398	761.20833
2403.863	740.875
2406.325	744.54167
2408.787	738.20833
2411.246	745.54167
2413.704	749.20833
2416.16	732.20833
2418.615	739.20833
2421.068	741.54167
2423.519	739.20833
2425.969	739.20833
2428.417	748.54167
2430.863	760.20833
2433.308	734.54167
2435.751	744.20833
2438.193	741.20833
2440.633	748.54167
2443.071	745.54167
2445.508	719.875
2447.943	721.875
2450.376	709.54167
2452.808	728.54167
2455.238	720.54167
2457.667	759.875
2460.093	722.875
2462.519	717.875
2464.942	712.54167
2467.365	730.54167
2469.785	733.875
2472.204	728.54167
2474.621	714.875
2477.037	731.54167
2479.451	722.54167
2481.863	710.875
2484.274	710.54167
2486.683	709.20833
2489.091	722.875
2491.497	712.875
2493.901	708.20833
2496.304	714.20833
2498.705	727.875
2501.105	708.54167
2503.503	732.875
2505.899	702.875
2508.294	729.20833
2510.687	695.54167
2513.079	702.875
2515.469	696.875
2517.858	717.20833
2520.245	711.20833
2522.63	707.875
2525.014	708.875
2527.396	697.54167
2529.776	700.20833
2532.156	704.875
2534.533	696.54167
2536.909	695.54167
2539.283	691.54167
2541.656	702.54167
2544.027	721.54167
2546.397	707.20833
2548.765	700.875
2551.131	705.20833
2553.496	698.20833
2555.86	697.20833
2558.221	707.54167
2560.582	709.875
2562.94	699.20833
2565.298	699.875
2567.653	721.20833
2570.007	687.54167
2572.36	703.54167
2574.711	695.20833
2577.06	710.54167
2579.408	700.875
2581.754	702.54167
2584.099	699.54167
2586.442	708.20833
2588.784	700.54167
2591.124	707.875
2593.463	702.54167
2595.8	698.20833
2598.135	703.20833
2600.469	695.54167
2602.802	713.875
2605.133	716.20833
2607.462	698.54167
2609.79	694.54167
2612.116	704.20833
2614.441	709.20833
2616.764	702.875
2619.086	705.875
2621.406	699.54167
2623.725	717.20833
2626.042	715.20833
2628.358	707.875
2630.672	709.875
2632.985	712.875
2635.296	707.54167
2637.606	705.20833
2639.914	705.875
2642.22	719.20833
2644.525	709.875
2646.829	723.20833
2649.131	725.54167
2651.432	738.875
2653.731	723.20833
2656.028	745.875
2658.324	725.875
2660.619	715.54167
2662.912	737.20833
2665.204	716.20833
2667.494	740.875
2669.782	722.54167
2672.07	726.875
2674.355	733.54167
2676.639	734.20833
2678.922	729.20833
2681.203	734.54167
2683.483	721.20833
2685.761	724.20833
2688.038	744.54167
2690.313	753.875
2692.587	745.875
2694.859	739.54167
2697.13	740.54167
2699.399	761.54167
2701.667	762.54167
2703.933	764.54167
2706.198	779.20833
2708.461	774.54167
2710.723	777.54167
2712.984	777.875
2715.243	784.54167
2717.5	780.875
2719.757	802.54167
2722.011	793.20833
2724.264	797.875
2726.516	831.20833
2728.766	791.875
2731.015	800.875
2733.262	812.20833
2735.508	794.54167
2737.753	813.875
2739.996	781.875
2742.237	794.875
2744.477	796.54167
2746.716	797.875
2748.953	777.875
2751.189	799.875
2753.423	776.20833
2755.656	775.20833
2757.887	775.875
2760.117	769.875
2762.346	773.20833
2764.573	764.54167
2766.798	785.875
2769.022	790.54167
2771.245	774.20833
2773.467	779.875
2775.686	789.20833
2777.905	797.20833
2780.122	798.20833
2782.337	810.875
2784.552	805.54167
2786.764	830.875
2788.976	822.20833
2791.186	836.875
2793.394	839.54167
2795.601	859.875
2797.807	865.875
2800.011	869.20833
2802.214	898.20833
2804.415	897.875
2806.615	901.875
2808.814	923.54167
2811.011	932.20833
2813.206	932.54167
2815.401	955.20833
2817.594	963.20833
2819.785	973.54167
2821.975	969.20833
2824.164	987.20833
2826.351	1015.20833
2828.537	1037.875
2830.722	1052.54167
2832.905	1066.54167
2835.086	1087.875
2837.267	1133.20833
2839.445	1170.875
2841.623	1182.20833
2843.799	1224.875
2845.974	1287.20833
2848.147	1322.875
2850.319	1366.20833
2852.489	1397.20833
2854.659	1400.20833
2856.826	1416.20833
2858.993	1449.54167
2861.158	1432.20833
2863.321	1424.875
2865.483	1466.875
2867.644	1464.875
2869.804	1452.20833
2871.962	1432.875
2874.118	1431.875
2876.274	1424.20833
2878.428	1437.875
2880.58	1416.54167
2882.731	1413.54167
2884.881	1401.875
2887.03	1414.875
2889.177	1421.20833
2891.322	1432.875
2893.467	1428.54167
2895.61	1438.54167
2897.751	1453.20833
2899.892	1448.20833
2902.03	1453.875
2904.168	1456.20833
2906.304	1477.54167
2908.439	1483.54167
2910.572	1458.875
2912.704	1494.875
2914.835	1482.20833
2916.965	1477.20833
2919.093	1493.54167
2921.219	1447.54167
2923.345	1468.54167
2925.469	1428.20833
2927.591	1434.20833
2929.712	1374.20833
2931.832	1370.875
2933.951	1337.54167
2936.068	1307.54167
2938.184	1289.54167
2940.299	1240.20833
2942.412	1215.54167
2944.524	1181.54167
2946.634	1151.875
2948.744	1086.20833
2950.851	1118.875
2952.958	1047.54167
2955.063	1046.54167
2957.167	1030.54167
2959.269	987.54167
2961.371	1014.54167
2963.471	962.875
2965.569	962.20833
2967.666	912.54167
2969.762	911.54167
2971.857	893.54167
2973.95	860.875
2976.042	853.20833
2978.133	829.875
2980.222	825.20833
2982.31	794.875
2984.396	773.875
2986.482	757.875
2988.566	761.875
2990.648	749.20833
2992.73	758.20833
2994.81	730.20833
2996.889	737.54167
2998.966	732.875
3001.042	730.875
3003.117	726.54167
3005.191	719.875
3007.263	716.20833
3009.334	695.54167
3011.403	693.54167
3013.472	669.54167
3015.539	676.875
3017.604	687.875
3019.669	638.20833
3021.732	647.54167
3023.794	653.20833
3025.854	628.20833
3027.914	629.875
3029.971	638.54167
3032.028	631.875
3034.083	631.875
3036.137	623.875
3038.19	599.20833
3040.242	586.20833
3042.292	578.875
3044.341	562.875
3046.388	587.20833
3048.435	557.20833
3050.48	558.875
3052.524	562.20833
3054.566	546.54167
3056.607	545.875
3058.647	545.875
3060.686	519.54167
3062.723	501.54167
3064.759	481.875
3066.794	1.54167
3068.828	-1.125
3070.86	-1.45833
