-0.839	397.29167
3.438	418.625
7.711	121.95833
11.981	50.625
16.247	46.625
20.509	44.29167
24.768	45.95833
29.024	48.95833
33.276	43.625
37.524	50.625
41.769	44.29167
46.01	39.29167
50.247	51.29167
54.481	62.625
58.712	63.95833
62.939	49.625
67.162	61.95833
71.382	61.29167
75.599	47.625
79.812	65.95833
84.021	83.95833
88.227	61.29167
92.429	68.625
96.628	53.625
100.823	68.95833
105.015	78.625
109.204	79.625
113.388	79.29167
117.57	75.95833
121.748	90.29167
125.922	86.95833
130.093	106.95833
134.261	113.29167
138.425	106.95833
142.585	154.95833
146.742	147.625
150.896	176.95833
155.046	224.625
159.193	340.29167
163.336	594.29167
167.476	1085.95833
171.613	2040.29167
175.746	3439.95833
179.875	5142.29167
184.002	6740.29167
188.124	7833.29167
192.244	8252.29167
196.36	8187.29167
200.472	7932.29167
204.581	7745.29167
208.687	7551.95833
212.79	7477.95833
216.889	7515.625
220.984	7600.29167
225.077	7650.95833
229.165	7695.625
233.251	7770.95833
237.333	7770.625
241.412	7745.95833
245.487	7648.625
249.559	7550.29167
253.628	7476.95833
257.694	7400.95833
261.756	7327.29167
265.814	7135.625
269.87	6968.95833
273.922	6778.95833
277.97	6709.95833
282.016	6741.95833
286.058	6717.29167
290.097	6854.625
294.132	6876.625
298.164	6705.625
302.193	6410.95833
306.219	5966.29167
310.241	5407.625
314.26	4944.625
318.276	4509.95833
322.288	4228.625
326.297	3985.625
330.303	3831.95833
334.305	3706.625
338.305	3647.625
342.301	3543.625
346.294	3495.29167
350.283	3465.95833
354.269	3424.29167
358.252	3413.29167
362.232	3373.29167
366.209	3346.29167
370.182	3336.29167
374.152	3307.95833
378.119	3315.95833
382.083	3308.625
386.043	3307.95833
390	3250.29167
393.954	3245.29167
397.905	3239.29167
401.852	3197.29167
405.797	3133.29167
409.738	3109.29167
413.676	3085.29167
417.61	3066.29167
421.542	3027.95833
425.47	3017.95833
429.396	2975.29167
433.318	2957.29167
437.236	2954.29167
441.152	2946.95833
445.065	2915.95833
448.974	2886.95833
452.88	2857.29167
456.783	2865.29167
460.683	2829.29167
464.58	2832.29167
468.473	2823.95833
472.364	2850.95833
476.251	2845.95833
480.135	2879.95833
484.016	2908.95833
487.894	2925.29167
491.769	2952.625
495.641	2920.625
499.509	2943.625
503.375	2936.625
507.237	2936.29167
511.096	2970.29167
514.952	3064.29167
518.805	3191.625
522.655	3249.95833
526.502	3027.95833
530.346	2899.625
534.187	2902.625
538.024	2907.625
541.859	2897.95833
545.69	2931.95833
549.519	2868.29167
553.344	2878.95833
557.166	2831.625
560.985	2817.29167
564.802	2744.625
568.615	2722.625
572.425	2679.95833
576.232	2653.95833
580.036	2680.95833
583.836	2680.29167
587.634	2676.95833
591.429	2677.625
595.221	2722.29167
599.01	2760.625
602.796	2797.29167
606.578	2820.625
610.358	2814.625
614.135	2781.625
617.909	2799.95833
621.679	2779.95833
625.447	2741.95833
629.212	2785.625
632.973	2778.95833
636.732	2774.95833
640.488	2759.625
644.241	2717.625
647.991	2714.29167
651.737	2719.95833
655.481	2715.29167
659.222	2691.625
662.96	2676.625
666.695	2711.625
670.427	2736.95833
674.156	2728.29167
677.882	2731.95833
681.605	2762.29167
685.325	2706.625
689.043	2714.625
692.757	2705.29167
696.468	2732.29167
700.177	2741.95833
703.882	2701.95833
707.585	2698.29167
711.284	2750.95833
714.981	2713.95833
718.675	2753.95833
722.366	2765.29167
726.054	2721.95833
729.739	2738.29167
733.421	2725.29167
737.1	2722.625
740.777	2759.95833
744.45	2778.625
748.121	2811.29167
751.789	2851.95833
755.453	2847.29167
759.115	2878.625
762.774	2927.29167
766.431	2938.29167
770.084	2967.625
773.734	3016.95833
777.382	3052.625
781.027	3131.95833
784.669	3097.29167
788.308	3173.95833
791.944	3173.29167
795.577	3194.29167
799.208	3199.625
802.835	3191.29167
806.46	3230.625
810.082	3264.95833
813.701	3291.95833
817.317	3293.95833
820.931	3302.29167
824.542	3305.29167
828.149	3287.29167
831.754	3279.625
835.357	3254.625
838.956	3275.95833
842.553	3271.625
846.146	3251.625
849.737	3268.625
853.326	3250.29167
856.911	3277.29167
860.493	3322.625
864.073	3339.625
867.65	3389.625
871.225	3439.29167
874.796	3462.29167
878.365	3490.29167
881.931	3509.95833
885.494	3541.625
889.054	3547.95833
892.612	3530.625
896.166	3515.95833
899.719	3489.29167
903.268	3428.625
906.814	3399.625
910.358	3391.625
913.899	3355.625
917.438	3364.95833
920.973	3380.95833
924.506	3383.625
928.036	3460.95833
931.564	3466.625
935.088	3505.29167
938.61	3550.625
942.129	3570.29167
945.646	3685.625
949.16	3774.29167
952.671	3815.625
956.179	3842.625
959.685	3793.95833
963.188	3740.29167
966.688	3687.95833
970.185	3602.29167
973.68	3533.95833
977.173	3519.625
980.662	3510.95833
984.149	3521.95833
987.633	3518.95833
991.114	3549.29167
994.593	3692.625
998.069	3820.625
1001.542	3908.95833
1005.013	3827.625
1008.481	3602.95833
1011.947	3549.29167
1015.409	3544.625
1018.869	3551.625
1022.327	3532.625
1025.782	3498.29167
1029.234	3498.29167
1032.683	3450.95833
1036.13	3342.29167
1039.574	3202.95833
1043.016	3113.95833
1046.455	3066.625
1049.891	3013.29167
1053.325	3039.29167
1056.756	3026.95833
1060.184	3069.29167
1063.61	3070.625
1067.033	3092.29167
1070.454	3079.29167
1073.872	3150.625
1077.287	3116.95833
1080.7	3126.625
1084.11	3155.95833
1087.517	3120.29167
1090.922	3105.625
1094.325	3057.95833
1097.724	3049.625
1101.122	3048.29167
1104.516	3029.95833
1107.908	3072.95833
1111.298	3091.95833
1114.684	3130.29167
1118.069	3137.95833
1121.45	3180.95833
1124.83	3203.29167
1128.206	3241.95833
1131.58	3291.29167
1134.951	3398.625
1138.32	3537.29167
1141.687	3652.29167
1145.05	3735.95833
1148.412	3765.29167
1151.77	3749.95833
1155.126	3768.625
1158.48	3785.29167
1161.831	3797.625
1165.18	3861.625
1168.525	3923.95833
1171.869	3940.625
1175.21	3993.29167
1178.548	4028.95833
1181.884	4066.625
1185.217	4077.95833
1188.548	4157.95833
1191.877	4214.625
1195.202	4278.95833
1198.526	4369.95833
1201.846	4374.29167
1205.165	4325.625
1208.48	4335.95833
1211.794	4316.29167
1215.104	4356.625
1218.413	4313.29167
1221.719	4329.95833
1225.022	4289.29167
1228.323	4219.29167
1231.621	4251.29167
1234.917	4240.29167
1238.21	4240.29167
1241.501	4243.29167
1244.79	4280.95833
1248.076	4287.29167
1251.359	4318.625
1254.64	4376.95833
1257.919	4431.29167
1261.195	4490.95833
1264.468	4537.95833
1267.74	4642.29167
1271.008	4623.29167
1274.275	4594.29167
1277.538	4531.95833
1280.8	4507.29167
1284.059	4547.29167
1287.315	4602.29167
1290.569	4631.95833
1293.821	4669.625
1297.07	4653.29167
1300.317	4665.625
1303.562	4655.625
1306.803	4611.95833
1310.043	4571.95833
1313.28	4499.29167
1316.515	4470.95833
1319.747	4401.29167
1322.977	4328.29167
1326.204	4281.29167
1329.429	4209.95833
1332.652	4207.95833
1335.872	4159.95833
1339.09	4164.95833
1342.306	4129.95833
1345.519	4097.625
1348.729	4105.625
1351.938	4065.29167
1355.144	3995.625
1358.347	3967.625
1361.548	3966.29167
1364.747	3971.95833
1367.944	3968.29167
1371.138	4020.29167
1374.329	4043.95833
1377.518	4074.95833
1380.705	4103.625
1383.89	4069.29167
1387.072	3950.95833
1390.252	3819.625
1393.429	3697.625
1396.605	3587.95833
1399.777	3532.29167
1402.948	3473.625
1406.116	3442.29167
1409.282	3410.95833
1412.445	3434.29167
1415.606	3513.95833
1418.765	3548.95833
1421.921	3634.95833
1425.075	3729.95833
1428.227	3840.95833
1431.376	4012.29167
1434.524	4140.625
1437.668	4206.625
1440.811	4236.625
1443.951	4288.29167
1447.089	4291.95833
1450.224	4270.95833
1453.357	4281.95833
1456.488	4249.29167
1459.617	4183.29167
1462.743	4146.29167
1465.867	4047.29167
1468.989	3993.95833
1472.108	3903.29167
1475.225	3894.625
1478.34	3811.625
1481.453	3850.625
1484.563	3856.95833
1487.671	3928.95833
1490.776	4010.625
1493.88	4087.625
1496.981	4184.95833
1500.08	4292.29167
1503.176	4325.29167
1506.271	4392.625
1509.363	4446.625
1512.452	4526.29167
1515.54	4588.29167
1518.625	4666.625
1521.708	4851.95833
1524.789	5056.29167
1527.867	5310.625
1530.944	5662.625
1534.018	5890.95833
1537.089	6167.625
1540.159	6179.95833
1543.226	6089.29167
1546.291	5913.95833
1549.354	5721.29167
1552.415	5567.29167
1555.473	5402.625
1558.529	5334.29167
1561.583	5274.625
1564.634	5177.95833
1567.684	5206.95833
1570.731	5145.95833
1573.776	5210.625
1576.819	5242.95833
1579.859	5296.95833
1582.898	5310.625
1585.934	5344.625
1588.968	5370.95833
1591.999	5315.29167
1595.029	5331.625
1598.056	5365.29167
1601.081	5371.95833
1604.104	5334.95833
1607.125	5276.95833
1610.144	5160.95833
1613.16	5016.95833
1616.174	4902.625
1619.186	4780.625
1622.196	4670.29167
1625.203	4499.95833
1628.209	4405.95833
1631.212	4361.29167
1634.213	4303.95833
1637.212	4252.95833
1640.209	4135.95833
1643.203	4043.95833
1646.196	3936.29167
1649.186	3770.625
1652.174	3683.625
1655.16	3556.625
1658.144	3434.95833
1661.125	3276.95833
1664.105	3127.29167
1667.082	3006.29167
1670.057	2835.95833
1673.03	2669.29167
1676.001	2487.625
1678.97	2349.29167
1681.937	2222.625
1684.901	2097.29167
1687.863	2044.29167
1690.824	1947.29167
1693.782	1924.625
1696.738	1841.29167
1699.692	1815.95833
1702.643	1761.95833
1705.593	1746.625
1708.54	1716.625
1711.486	1725.625
1714.429	1675.625
1717.37	1659.625
1720.309	1642.95833
1723.246	1644.95833
1726.181	1594.95833
1729.113	1608.625
1732.044	1584.29167
1734.972	1542.95833
1737.899	1541.625
1740.823	1550.95833
1743.745	1532.29167
1746.665	1496.95833
1749.583	1461.95833
1752.499	1442.625
1755.413	1422.29167
1758.325	1412.625
1761.235	1395.625
1764.142	1369.95833
1767.048	1360.625
1769.951	1362.625
1772.852	1348.95833
1775.752	1313.625
1778.649	1338.625
1781.544	1331.29167
1784.437	1299.95833
1787.328	1296.625
1790.217	1286.625
1793.104	1277.29167
1795.989	1280.95833
1798.872	1279.625
1801.753	1278.29167
1804.631	1279.95833
1807.508	1271.95833
1810.383	1264.95833
1813.255	1256.95833
1816.126	1253.95833
1818.994	1250.625
1821.861	1235.29167
1824.725	1233.625
1827.587	1242.29167
1830.448	1230.95833
1833.306	1202.29167
1836.162	1203.95833
1839.017	1197.29167
1841.869	1186.29167
1844.719	1196.29167
1847.567	1179.95833
1850.414	1189.95833
1853.258	1182.29167
1856.1	1203.29167
1858.94	1205.625
1861.778	1184.95833
1864.614	1172.29167
1867.448	1189.625
1870.28	1160.625
1873.111	1194.625
1875.939	1179.625
1878.765	1178.29167
1881.589	1164.95833
1884.411	1165.625
1887.231	1179.95833
1890.049	1161.95833
1892.865	1159.95833
1895.68	1147.95833
1898.492	1148.29167
1901.302	1131.95833
1904.11	1129.95833
1906.916	1144.29167
1909.721	1127.95833
1912.523	1138.95833
1915.323	1110.625
1918.122	1127.95833
1920.918	1125.625
1923.712	1109.625
1926.505	1118.625
1929.295	1097.95833
1932.084	1115.625
1934.87	1106.625
1937.655	1101.625
1940.438	1106.625
1943.218	1100.95833
1945.997	1112.625
1948.774	1113.29167
1951.549	1107.625
1954.322	1075.95833
1957.093	1116.625
1959.862	1091.95833
1962.629	1091.29167
1965.394	1083.95833
1968.157	1075.95833
1970.918	1085.29167
1973.678	1077.625
1976.435	1080.625
1979.19	1065.95833
1981.944	1046.29167
1984.696	1058.625
1987.445	1042.625
1990.193	1060.29167
1992.939	1069.95833
1995.683	1060.625
1998.425	1049.29167
2001.165	1072.625
2003.903	1049.95833
2006.639	1051.95833
2009.374	1037.95833
2012.106	1059.95833
2014.837	1011.625
2017.566	1047.29167
2020.292	1055.95833
2023.017	1041.625
2025.74	1027.95833
2028.461	1039.95833
2031.18	1024.29167
2033.898	1017.29167
2036.613	1028.29167
2039.327	1023.625
2042.038	1008.625
2044.748	1028.95833
2047.456	1024.95833
2050.162	1003.625
2052.866	1013.95833
2055.568	1009.625
2058.268	1007.625
2060.967	1022.29167
2063.663	1002.95833
2066.358	1008.29167
2069.051	1003.29167
2071.742	1017.95833
2074.431	1015.95833
2077.118	1020.625
2079.804	1011.95833
2082.487	1008.625
2085.169	1036.625
2087.849	1032.95833
2090.527	1038.625
2093.203	1040.29167
2095.877	1050.29167
2098.55	1054.29167
2101.22	1097.625
2103.889	1107.625
2106.556	1130.29167
2109.221	1182.625
2111.884	1251.95833
2114.546	1355.29167
2117.205	1478.625
2119.863	1639.95833
2122.519	1772.625
2125.173	1903.29167
2127.825	2010.29167
2130.475	2005.29167
2133.124	1950.95833
2135.771	1843.95833
2138.416	1756.625
2141.059	1647.95833
2143.7	1538.625
2146.339	1452.625
2148.977	1351.625
2151.613	1330.29167
2154.247	1269.29167
2156.879	1231.625
2159.51	1195.625
2162.138	1164.625
2164.765	1145.625
2167.39	1128.95833
2170.013	1129.95833
2172.634	1113.625
2175.254	1098.95833
2177.872	1130.29167
2180.488	1073.95833
2183.102	1068.625
2185.714	1054.29167
2188.325	1032.625
2190.934	1036.29167
2193.541	1026.29167
2196.146	1000.29167
2198.75	987.95833
2201.351	984.95833
2203.951	957.29167
2206.549	988.625
2209.146	955.95833
2211.74	953.95833
2214.333	956.29167
2216.924	934.625
2219.514	942.29167
2222.101	923.625
2224.687	947.29167
2227.271	923.625
2229.853	909.95833
2232.433	903.95833
2235.012	926.625
2237.589	913.95833
2240.164	921.625
2242.738	903.625
2245.309	895.625
2247.879	903.95833
2250.448	900.29167
2253.014	867.95833
2255.579	863.625
2258.142	855.29167
2260.703	846.29167
2263.262	845.95833
2265.82	844.625
2268.376	841.29167
2270.93	837.625
2273.483	815.95833
2276.033	836.95833
2278.583	825.29167
2281.13	822.625
2283.675	810.625
2286.219	806.29167
2288.761	823.625
2291.302	818.29167
2293.841	815.29167
2296.377	801.625
2298.913	805.95833
2301.446	813.29167
2303.978	804.95833
2306.508	790.29167
2309.037	795.625
2311.563	802.29167
2314.088	803.29167
2316.612	781.29167
2319.133	791.95833
2321.653	794.29167
2324.171	778.625
2326.688	805.29167
2329.202	780.29167
2331.715	782.625
2334.227	790.95833
2336.736	775.625
2339.244	765.625
2341.751	762.625
2344.255	769.625
2346.758	769.95833
2349.259	765.625
2351.759	755.625
2354.257	761.29167
2356.753	749.95833
2359.247	751.625
2361.74	764.29167
2364.231	761.29167
2366.721	768.29167
2369.209	748.95833
2371.695	757.29167
2374.179	751.95833
2376.662	756.29167
2379.143	774.29167
2381.622	763.29167
2384.1	762.29167
2386.576	744.29167
2389.051	762.95833
2391.524	760.625
2393.995	766.29167
2396.464	746.29167
2398.932	744.625
2401.398	748.29167
2403.863	742.95833
2406.325	736.29167
2408.787	747.29167
2411.246	740.95833
2413.704	736.625
2416.16	730.625
2418.615	736.95833
2421.068	747.625
2423.519	745.29167
2425.969	731.29167
2428.417	745.95833
2430.863	749.625
2433.308	754.625
2435.751	746.625
2438.193	731.625
2440.633	744.95833
2443.071	726.95833
2445.508	708.95833
2447.943	732.95833
2450.376	728.29167
2452.808	741.95833
2455.238	725.95833
2457.667	750.625
2460.093	729.625
2462.519	716.29167
2464.942	710.29167
2467.365	735.625
2469.785	725.95833
2472.204	723.95833
2474.621	711.29167
2477.037	739.625
2479.451	704.95833
2481.863	706.29167
2484.274	700.625
2486.683	704.625
2489.091	712.625
2491.497	714.95833
2493.901	714.29167
2496.304	712.95833
2498.705	719.29167
2501.105	708.95833
2503.503	730.29167
2505.899	702.95833
2508.294	735.95833
2510.687	707.95833
2513.079	703.29167
2515.469	707.29167
2517.858	696.29167
2520.245	720.625
2522.63	711.625
2525.014	696.625
2527.396	692.625
2529.776	692.95833
2532.156	708.625
2534.533	693.29167
2536.909	703.29167
2539.283	702.625
2541.656	698.625
2544.027	732.29167
2546.397	697.29167
2548.765	706.95833
2551.131	703.95833
2553.496	695.29167
2555.86	705.625
2558.221	711.29167
2560.582	699.625
2562.94	692.29167
2565.298	690.625
2567.653	718.625
2570.007	687.29167
2572.36	711.29167
2574.711	700.95833
2577.06	711.95833
2579.408	700.95833
2581.754	696.29167
2584.099	709.625
2586.442	697.625
2588.784	707.29167
2591.124	716.625
2593.463	702.95833
2595.8	711.95833
2598.135	688.95833
2600.469	698.625
2602.802	708.29167
2605.133	715.625
2607.462	689.95833
2609.79	700.29167
2612.116	703.95833
2614.441	703.29167
2616.764	706.625
2619.086	696.625
2621.406	687.95833
2623.725	708.625
2626.042	707.625
2628.358	700.95833
2630.672	705.625
2632.985	718.29167
2635.296	708.29167
2637.606	705.625
2639.914	710.95833
2642.22	727.95833
2644.525	707.95833
2646.829	720.29167
2649.131	735.95833
2651.432	719.625
2653.731	718.29167
2656.028	740.625
2658.324	733.625
2660.619	730.95833
2662.912	727.95833
2665.204	730.95833
2667.494	733.625
2669.782	731.625
2672.07	738.625
2674.355	748.29167
2676.639	729.625
2678.922	718.625
2681.203	741.95833
2683.483	712.29167
2685.761	722.29167
2688.038	747.29167
2690.313	758.29167
2692.587	741.29167
2694.859	737.625
2697.13	738.95833
2699.399	751.29167
2701.667	771.95833
2703.933	767.95833
2706.198	768.29167
2708.461	778.29167
2710.723	779.95833
2712.984	784.625
2715.243	799.29167
2717.5	791.625
2719.757	797.625
2722.011	785.625
2724.264	792.29167
2726.516	827.29167
2728.766	800.625
2731.015	803.625
2733.262	802.625
2735.508	803.625
2737.753	799.29167
2739.996	794.29167
2742.237	790.29167
2744.477	799.29167
2746.716	795.625
2748.953	794.625
2751.189	790.29167
2753.423	778.95833
2755.656	786.95833
2757.887	766.625
2760.117	781.625
2762.346	761.625
2764.573	763.625
2766.798	780.29167
2769.022	787.95833
2771.245	783.29167
2773.467	789.625
2775.686	799.625
2777.905	814.29167
2780.122	802.29167
2782.337	808.95833
2784.552	808.95833
2786.764	823.95833
2788.976	829.29167
2791.186	839.95833
2793.394	848.625
2795.601	857.625
2797.807	878.95833
2800.011	879.625
2802.214	896.29167
2804.415	891.625
2806.615	899.29167
2808.814	921.29167
2811.011	942.625
2813.206	929.625
2815.401	959.625
2817.594	966.29167
2819.785	984.625
2821.975	976.95833
2824.164	993.625
2826.351	1007.95833
2828.537	1024.29167
2830.722	1040.29167
2832.905	1055.95833
2835.086	1087.625
2837.267	1125.625
2839.445	1164.625
2841.623	1183.625
2843.799	1219.29167
2845.974	1272.625
2848.147	1329.625
2850.319	1351.625
2852.489	1386.625
2854.659	1407.625
2856.826	1430.95833
2858.993	1448.625
2861.158	1427.625
2863.321	1438.29167
2865.483	1455.95833
2867.644	1460.625
2869.804	1445.95833
2871.962	1431.625
2874.118	1447.625
2876.274	1435.95833
2878.428	1416.95833
2880.58	1418.625
2882.731	1410.625
2884.881	1405.625
2887.03	1421.29167
2889.177	1420.29167
2891.322	1431.29167
2893.467	1414.95833
2895.61	1432.625
2897.751	1464.95833
2899.892	1434.95833
2902.03	1474.29167
2904.168	1470.95833
2906.304	1476.95833
2908.439	1497.625
2910.572	1479.29167
2912.704	1477.625
2914.835	1466.625
2916.965	1463.625
2919.093	1491.29167
2921.219	1449.95833
2923.345	1463.625
2925.469	1438.625
2927.591	1410.29167
2929.712	1378.29167
2931.832	1375.95833
2933.951	1341.29167
2936.068	1315.29167
2938.184	1289.29167
2940.299	1240.625
2942.412	1221.29167
2944.524	1173.95833
2946.634	1153.95833
2948.744	1099.95833
2950.851	1118.625
2952.958	1054.625
2955.063	1042.95833
2957.167	1020.625
2959.269	1001.29167
2961.371	990.95833
2963.471	955.95833
2965.569	964.95833
2967.666	926.625
2969.762	919.95833
2971.857	889.625
2973.95	855.95833
2976.042	857.29167
2978.133	833.95833
2980.222	822.625
2982.31	792.625
2984.396	775.625
2986.482	774.625
2988.566	769.29167
2990.648	760.95833
2992.73	760.29167
2994.81	736.625
2996.889	733.625
2998.966	726.625
3001.042	726.29167
3003.117	724.95833
3005.191	723.625
3007.263	717.29167
3009.334	699.95833
3011.403	706.95833
3013.472	664.95833
3015.539	674.95833
3017.604	682.625
3019.669	640.29167
3021.732	647.625
3023.794	649.625
3025.854	636.29167
3027.914	620.625
3029.971	636.29167
3032.028	630.625
3034.083	636.29167
3036.137	628.625
3038.19	591.625
3040.242	590.29167
3042.292	568.29167
3044.341	557.625
3046.388	577.625
3048.435	547.29167
3050.48	570.625
3052.524	562.29167
3054.566	532.95833
3056.607	552.625
3058.647	535.625
3060.686	520.625
3062.723	491.625
3064.759	482.29167
3066.794	-0.04167
3068.828	0.29167
3070.86	-1.70833
