-0.839	388.25
3.438	421.91667
7.711	121.91667
11.981	52.25
16.247	41.25
20.509	40.58333
24.768	44.25
29.024	47.91667
33.276	41.25
37.524	49.58333
41.769	40.91667
46.01	34.25
50.247	49.25
54.481	59.58333
58.712	63.91667
62.939	45.25
67.162	61.58333
71.382	56.91667
75.599	45.25
79.812	59.58333
84.021	78.25
88.227	57.91667
92.429	58.25
96.628	44.25
100.823	63.91667
105.015	69.58333
109.204	72.25
113.388	72.91667
117.57	62.25
121.748	81.25
125.922	67.91667
130.093	90.25
134.261	93.58333
138.425	87.91667
142.585	122.25
146.742	119.91667
150.896	141.25
155.046	163.25
159.193	255.58333
163.336	429.91667
167.476	772.58333
171.613	1428.25
175.746	2391.58333
179.875	3564.25
184.002	4688.25
188.124	5509.25
192.244	5732.25
196.36	5700.58333
200.472	5575.91667
204.581	5419.58333
208.687	5281.58333
212.79	5205.25
216.889	5227.58333
220.984	5282.25
225.077	5268.91667
229.165	5295.25
233.251	5302.25
237.333	5338.25
241.412	5297.58333
245.487	5274.25
249.559	5222.25
253.628	5186.25
257.694	5149.91667
261.756	5115.25
265.814	5056.25
269.87	4902.58333
273.922	4856.91667
277.97	4812.25
282.016	4841.58333
286.058	4867.58333
290.097	5003.58333
294.132	5032.58333
298.164	5014.58333
302.193	4787.25
306.219	4444.25
310.241	4102.91667
314.26	3739.58333
318.276	3488.25
322.288	3252.58333
326.297	3092.25
330.303	2981.25
334.305	2881.25
338.305	2812.91667
342.301	2777.91667
346.294	2727.25
350.283	2699.25
354.269	2688.58333
358.252	2676.91667
362.232	2642.91667
366.209	2627.25
370.182	2571.58333
374.152	2589.91667
378.119	2585.58333
382.083	2562.91667
386.043	2602.58333
390	2566.58333
393.954	2547.91667
397.905	2514.25
401.852	2515.91667
405.797	2496.58333
409.738	2475.25
413.676	2478.91667
417.61	2474.25
421.542	2461.58333
425.47	2437.91667
429.396	2417.25
433.318	2411.25
437.236	2404.25
441.152	2407.91667
445.065	2366.91667
448.974	2365.25
452.88	2346.58333
456.783	2332.91667
460.683	2321.91667
464.58	2320.58333
468.473	2324.91667
472.364	2325.91667
476.251	2354.25
480.135	2379.91667
484.016	2425.25
487.894	2414.58333
491.769	2432.91667
495.641	2442.25
499.509	2442.25
503.375	2460.58333
507.237	2489.25
511.096	2517.25
514.952	2772.91667
518.805	3083.25
522.655	3224.25
526.502	2760.58333
530.346	2469.58333
534.187	2433.58333
538.024	2428.25
541.859	2413.58333
545.69	2427.58333
549.519	2418.91667
553.344	2376.91667
557.166	2348.91667
560.985	2325.91667
564.802	2290.25
568.615	2261.91667
572.425	2244.25
576.232	2220.91667
580.036	2224.91667
583.836	2214.58333
587.634	2230.25
591.429	2233.58333
595.221	2284.25
599.01	2292.58333
602.796	2319.25
606.578	2339.58333
610.358	2343.58333
614.135	2319.58333
617.909	2342.91667
621.679	2316.91667
625.447	2269.91667
629.212	2289.91667
632.973	2309.58333
636.732	2276.91667
640.488	2297.25
644.241	2244.58333
647.991	2245.91667
651.737	2296.58333
655.481	2235.25
659.222	2245.58333
662.96	2264.91667
666.695	2278.91667
670.427	2297.91667
674.156	2291.25
677.882	2288.91667
681.605	2255.58333
685.325	2249.58333
689.043	2259.91667
692.757	2232.58333
696.468	2252.91667
700.177	2233.25
703.882	2221.58333
707.585	2224.91667
711.284	2215.25
714.981	2216.25
718.675	2249.91667
722.366	2243.91667
726.054	2229.58333
729.739	2209.58333
733.421	2217.58333
737.1	2214.91667
740.777	2236.58333
744.45	2230.58333
748.121	2266.58333
751.789	2303.58333
755.453	2293.58333
759.115	2292.58333
762.774	2330.91667
766.431	2329.91667
770.084	2359.58333
773.734	2364.25
777.382	2419.25
781.027	2426.25
784.669	2438.58333
788.308	2430.58333
791.944	2460.58333
795.577	2492.58333
799.208	2533.91667
802.835	2524.91667
806.46	2540.25
810.082	2555.91667
813.701	2547.91667
817.317	2578.25
820.931	2586.25
824.542	2564.25
828.149	2517.25
831.754	2511.91667
835.357	2490.91667
838.956	2524.91667
842.553	2466.91667
846.146	2457.91667
849.737	2445.91667
853.326	2449.58333
856.911	2456.91667
860.493	2471.91667
864.073	2475.91667
867.65	2543.25
871.225	2545.91667
874.796	2546.25
878.365	2556.58333
881.931	2609.58333
885.494	2611.91667
889.054	2596.58333
892.612	2606.91667
896.166	2570.25
899.719	2567.25
903.268	2534.58333
906.814	2523.25
910.358	2517.91667
913.899	2486.91667
917.438	2494.58333
920.973	2478.91667
924.506	2536.58333
928.036	2557.91667
931.564	2609.91667
935.088	2662.58333
938.61	2666.91667
942.129	2697.91667
945.646	2763.25
949.16	2801.25
952.671	2833.25
956.179	2868.58333
959.685	2833.25
963.188	2820.58333
966.688	2786.91667
970.185	2728.91667
973.68	2661.91667
977.173	2617.25
980.662	2587.58333
984.149	2589.25
987.633	2539.58333
991.114	2560.91667
994.593	2620.58333
998.069	2672.91667
1001.542	2747.91667
1005.013	2681.58333
1008.481	2541.91667
1011.947	2498.58333
1015.409	2498.58333
1018.869	2500.25
1022.327	2487.25
1025.782	2474.91667
1029.234	2481.91667
1032.683	2483.58333
1036.13	2406.25
1039.574	2306.25
1043.016	2280.25
1046.455	2233.91667
1049.891	2192.25
1053.325	2227.91667
1056.756	2207.91667
1060.184	2229.25
1063.61	2239.25
1067.033	2252.91667
1070.454	2248.25
1073.872	2275.91667
1077.287	2265.25
1080.7	2292.58333
1084.11	2276.25
1087.517	2269.25
1090.922	2252.58333
1094.325	2222.58333
1097.724	2213.25
1101.122	2205.25
1104.516	2201.58333
1107.908	2195.58333
1111.298	2244.25
1114.684	2240.91667
1118.069	2277.91667
1121.45	2310.58333
1124.83	2311.58333
1128.206	2316.58333
1131.58	2373.25
1134.951	2426.25
1138.32	2492.25
1141.687	2575.25
1145.05	2654.25
1148.412	2647.25
1151.77	2647.58333
1155.126	2641.25
1158.48	2617.25
1161.831	2644.58333
1165.18	2654.58333
1168.525	2684.25
1171.869	2729.91667
1175.21	2741.58333
1178.548	2775.25
1181.884	2803.58333
1185.217	2842.58333
1188.548	2917.58333
1191.877	2991.25
1195.202	3068.58333
1198.526	3118.58333
1201.846	3152.25
1205.165	3147.91667
1208.48	3134.58333
1211.794	3137.25
1215.104	3130.58333
1218.413	3138.91667
1221.719	3150.58333
1225.022	3100.25
1228.323	3048.58333
1231.621	3051.25
1234.917	2998.58333
1238.21	3055.58333
1241.501	3001.25
1244.79	2998.58333
1248.076	3008.58333
1251.359	3014.25
1254.64	3079.25
1257.919	3096.58333
1261.195	3119.25
1264.468	3195.91667
1267.74	3230.25
1271.008	3218.91667
1274.275	3243.91667
1277.538	3213.58333
1280.8	3196.58333
1284.059	3182.25
1287.315	3213.25
1290.569	3255.25
1293.821	3277.25
1297.07	3300.91667
1300.317	3286.58333
1303.562	3283.91667
1306.803	3254.91667
1310.043	3242.25
1313.28	3207.58333
1316.515	3179.58333
1319.747	3170.91667
1322.977	3127.58333
1326.204	3083.58333
1329.429	3061.58333
1332.652	3053.91667
1335.872	3056.25
1339.09	3015.58333
1342.306	3010.91667
1345.519	2958.25
1348.729	2918.25
1351.938	2893.58333
1355.144	2838.25
1358.347	2789.91667
1361.548	2781.91667
1364.747	2816.58333
1367.944	2751.91667
1371.138	2740.25
1374.329	2782.25
1377.518	2788.91667
1380.705	2793.25
1383.89	2790.91667
1387.072	2718.25
1390.252	2631.25
1393.429	2551.58333
1396.605	2488.58333
1399.777	2427.91667
1402.948	2404.25
1406.116	2409.58333
1409.282	2414.91667
1412.445	2422.58333
1415.606	2459.58333
1418.765	2499.58333
1421.921	2538.25
1425.075	2612.25
1428.227	2691.91667
1431.376	2781.58333
1434.524	2865.58333
1437.668	2929.58333
1440.811	2968.58333
1443.951	2986.25
1447.089	2989.58333
1450.224	2989.25
1453.357	2974.91667
1456.488	2953.25
1459.617	2909.91667
1462.743	2891.25
1465.867	2802.58333
1468.989	2805.25
1472.108	2742.25
1475.225	2713.58333
1478.34	2679.91667
1481.453	2672.91667
1484.563	2682.58333
1487.671	2717.25
1490.776	2751.58333
1493.88	2782.25
1496.981	2845.91667
1500.08	2876.91667
1503.176	2919.25
1506.271	2968.25
1509.363	2984.91667
1512.452	3046.91667
1515.54	3085.25
1518.625	3153.91667
1521.708	3205.91667
1524.789	3325.91667
1527.867	3436.91667
1530.944	3611.58333
1534.018	3750.91667
1537.089	3887.25
1540.159	3915.91667
1543.226	3873.91667
1546.291	3791.91667
1549.354	3698.58333
1552.415	3629.25
1555.473	3508.25
1558.529	3446.91667
1561.583	3416.58333
1564.634	3386.58333
1567.684	3361.91667
1570.731	3352.58333
1573.776	3405.25
1576.819	3432.58333
1579.859	3459.58333
1582.898	3500.91667
1585.934	3539.91667
1588.968	3513.91667
1591.999	3533.91667
1595.029	3544.25
1598.056	3579.58333
1601.081	3606.91667
1604.104	3560.25
1607.125	3542.58333
1610.144	3460.25
1613.16	3370.91667
1616.174	3279.91667
1619.186	3190.58333
1622.196	3151.58333
1625.203	3052.58333
1628.209	3000.25
1631.212	2987.58333
1634.213	2992.91667
1637.212	2955.25
1640.209	2891.91667
1643.203	2802.58333
1646.196	2735.58333
1649.186	2629.25
1652.174	2528.91667
1655.16	2470.58333
1658.144	2426.91667
1661.125	2288.91667
1664.105	2200.58333
1667.082	2113.91667
1670.057	1985.25
1673.03	1888.58333
1676.001	1777.58333
1678.97	1656.25
1681.937	1577.58333
1684.901	1491.58333
1687.863	1473.58333
1690.824	1403.91667
1693.782	1393.91667
1696.738	1332.91667
1699.692	1320.25
1702.643	1286.25
1705.593	1277.25
1708.54	1252.58333
1711.486	1270.58333
1714.429	1223.91667
1717.37	1234.91667
1720.309	1205.25
1723.246	1217.25
1726.181	1173.25
1729.113	1186.58333
1732.044	1160.58333
1734.972	1159.58333
1737.899	1155.58333
1740.823	1153.58333
1743.745	1169.91667
1746.665	1119.91667
1749.583	1107.91667
1752.499	1091.58333
1755.413	1085.58333
1758.325	1052.91667
1761.235	1060.91667
1764.142	1028.58333
1767.048	1029.91667
1769.951	1022.25
1772.852	1020.58333
1775.752	1003.58333
1778.649	1016.58333
1781.544	1033.91667
1784.437	991.91667
1787.328	1001.91667
1790.217	1001.58333
1793.104	974.58333
1795.989	983.58333
1798.872	959.25
1801.753	969.91667
1804.631	985.58333
1807.508	995.58333
1810.383	981.91667
1813.255	965.25
1816.126	965.91667
1818.994	963.91667
1821.861	972.58333
1824.725	955.91667
1827.587	969.91667
1830.448	951.91667
1833.306	932.91667
1836.162	969.91667
1839.017	928.58333
1841.869	944.25
1844.719	938.58333
1847.567	934.58333
1850.414	925.58333
1853.258	926.58333
1856.1	928.58333
1858.94	933.25
1861.778	935.91667
1864.614	925.58333
1867.448	924.25
1870.28	911.58333
1873.111	943.91667
1875.939	925.91667
1878.765	941.91667
1881.589	920.58333
1884.411	923.58333
1887.231	934.58333
1890.049	914.91667
1892.865	915.25
1895.68	904.91667
1898.492	908.58333
1901.302	907.58333
1904.11	912.91667
1906.916	889.91667
1909.721	886.58333
1912.523	900.58333
1915.323	881.91667
1918.122	905.91667
1920.918	898.25
1923.712	882.25
1926.505	895.91667
1929.295	871.25
1932.084	900.58333
1934.87	894.25
1937.655	892.58333
1940.438	877.91667
1943.218	890.58333
1945.997	892.58333
1948.774	896.58333
1951.549	895.25
1954.322	887.58333
1957.093	895.25
1959.862	879.25
1962.629	880.25
1965.394	879.58333
1968.157	861.91667
1970.918	879.91667
1973.678	884.58333
1976.435	877.58333
1979.19	871.58333
1981.944	866.91667
1984.696	863.91667
1987.445	863.25
1990.193	864.91667
1992.939	886.58333
1995.683	862.58333
1998.425	852.58333
2001.165	887.25
2003.903	855.91667
2006.639	863.25
2009.374	859.25
2012.106	879.91667
2014.837	849.58333
2017.566	870.25
2020.292	865.25
2023.017	867.25
2025.74	874.58333
2028.461	858.25
2031.18	858.25
2033.898	848.91667
2036.613	877.58333
2039.327	866.25
2042.038	846.58333
2044.748	864.58333
2047.456	867.25
2050.162	836.25
2052.866	862.25
2055.568	871.25
2058.268	856.58333
2060.967	872.25
2063.663	849.91667
2066.358	852.25
2069.051	843.25
2071.742	856.25
2074.431	854.91667
2077.118	856.58333
2079.804	851.91667
2082.487	856.58333
2085.169	876.58333
2087.849	883.25
2090.527	867.58333
2093.203	875.58333
2095.877	884.25
2098.55	890.58333
2101.22	900.91667
2103.889	898.58333
2106.556	911.91667
2109.221	953.58333
2111.884	967.91667
2114.546	1010.25
2117.205	1075.25
2119.863	1126.25
2122.519	1196.91667
2125.173	1244.58333
2127.825	1307.58333
2130.475	1305.25
2133.124	1267.25
2135.771	1222.91667
2138.416	1188.25
2141.059	1126.25
2143.7	1106.58333
2146.339	1051.25
2148.977	1002.25
2151.613	998.25
2154.247	977.91667
2156.879	946.91667
2159.51	954.25
2162.138	930.58333
2164.765	936.58333
2167.39	915.91667
2170.013	932.91667
2172.634	919.58333
2175.254	902.58333
2177.872	942.58333
2180.488	899.91667
2183.102	897.58333
2185.714	883.58333
2188.325	878.25
2190.934	883.25
2193.541	889.58333
2196.146	871.58333
2198.75	866.91667
2201.351	864.25
2203.951	851.25
2206.549	871.25
2209.146	861.25
2211.74	854.25
2214.333	865.25
2216.924	839.25
2219.514	855.58333
2222.101	843.91667
2224.687	862.91667
2227.271	848.25
2229.853	859.91667
2232.433	841.91667
2235.012	859.58333
2237.589	851.58333
2240.164	858.25
2242.738	859.58333
2245.309	846.58333
2247.879	853.58333
2250.448	854.91667
2253.014	832.25
2255.579	844.91667
2258.142	836.58333
2260.703	814.25
2263.262	839.58333
2265.82	829.91667
2268.376	844.91667
2270.93	826.25
2273.483	828.58333
2276.033	842.25
2278.583	832.91667
2281.13	815.25
2283.675	826.91667
2286.219	828.58333
2288.761	833.58333
2291.302	836.25
2293.841	834.58333
2296.377	817.58333
2298.913	828.91667
2301.446	859.25
2303.978	825.91667
2306.508	836.25
2309.037	835.91667
2311.563	840.58333
2314.088	851.91667
2316.612	824.25
2319.133	849.91667
2321.653	831.58333
2324.171	834.91667
2326.688	855.25
2329.202	847.91667
2331.715	838.25
2334.227	840.91667
2336.736	835.25
2339.244	845.25
2341.751	821.58333
2344.255	856.91667
2346.758	832.91667
2349.259	835.25
2351.759	848.91667
2354.257	834.91667
2356.753	837.25
2359.247	839.91667
2361.74	865.25
2364.231	848.25
2366.721	851.25
2369.209	852.91667
2371.695	862.58333
2374.179	854.58333
2376.662	856.25
2379.143	870.25
2381.622	859.91667
2384.1	860.58333
2386.576	856.25
2389.051	890.91667
2391.524	892.91667
2393.995	878.91667
2396.464	873.25
2398.932	861.58333
2401.398	867.25
2403.863	865.58333
2406.325	876.58333
2408.787	880.91667
2411.246	866.91667
2413.704	873.25
2416.16	884.91667
2418.615	893.25
2421.068	900.58333
2423.519	893.91667
2425.969	888.58333
2428.417	896.91667
2430.863	932.25
2433.308	916.91667
2435.751	903.25
2438.193	913.58333
2440.633	907.25
2443.071	907.25
2445.508	893.25
2447.943	911.25
2450.376	907.91667
2452.808	924.25
2455.238	911.58333
2457.667	936.91667
2460.093	916.25
2462.519	924.91667
2464.942	912.58333
2467.365	921.58333
2469.785	942.58333
2472.204	929.25
2474.621	928.25
2477.037	948.91667
2479.451	919.25
2481.863	913.91667
2484.274	933.58333
2486.683	941.58333
2489.091	946.91667
2491.497	936.91667
2493.901	944.91667
2496.304	940.58333
2498.705	959.25
2501.105	938.91667
2503.503	988.91667
2505.899	946.58333
2508.294	978.58333
2510.687	945.91667
2513.079	956.25
2515.469	954.58333
2517.858	954.58333
2520.245	979.91667
2522.63	981.25
2525.014	964.58333
2527.396	975.58333
2529.776	970.58333
2532.156	994.58333
2534.533	974.25
2536.909	966.91667
2539.283	979.25
2541.656	978.91667
2544.027	1009.25
2546.397	1005.58333
2548.765	990.25
2551.131	991.25
2553.496	1006.91667
2555.86	1002.25
2558.221	1014.91667
2560.582	989.58333
2562.94	997.91667
2565.298	998.25
2567.653	1023.25
2570.007	1009.25
2572.36	1010.25
2574.711	1004.25
2577.06	1042.58333
2579.408	1031.58333
2581.754	1029.91667
2584.099	1037.25
2586.442	1033.25
2588.784	1055.25
2591.124	1052.58333
2593.463	1046.25
2595.8	1042.91667
2598.135	1034.91667
2600.469	1040.25
2602.802	1068.91667
2605.133	1059.58333
2607.462	1060.91667
2609.79	1039.91667
2612.116	1076.58333
2614.441	1072.91667
2616.764	1071.58333
2619.086	1070.25
2621.406	1059.58333
2623.725	1107.91667
2626.042	1087.58333
2628.358	1085.25
2630.672	1090.91667
2632.985	1098.25
2635.296	1096.91667
2637.606	1101.25
2639.914	1108.25
2642.22	1112.25
2644.525	1128.25
2646.829	1134.58333
2649.131	1130.25
2651.432	1160.58333
2653.731	1144.25
2656.028	1159.91667
2658.324	1159.58333
2660.619	1160.25
2662.912	1162.25
2665.204	1144.58333
2667.494	1171.25
2669.782	1147.58333
2672.07	1173.91667
2674.355	1177.91667
2676.639	1173.25
2678.922	1188.25
2681.203	1183.91667
2683.483	1171.91667
2685.761	1179.91667
2688.038	1192.58333
2690.313	1197.91667
2692.587	1204.58333
2694.859	1183.91667
2697.13	1207.58333
2699.399	1191.25
2701.667	1226.91667
2703.933	1228.91667
2706.198	1235.25
2708.461	1242.25
2710.723	1241.58333
2712.984	1248.25
2715.243	1263.91667
2717.5	1254.91667
2719.757	1275.91667
2722.011	1284.58333
2724.264	1292.91667
2726.516	1299.58333
2728.766	1291.91667
2731.015	1309.25
2733.262	1299.25
2735.508	1301.25
2737.753	1305.25
2739.996	1275.25
2742.237	1284.25
2744.477	1305.91667
2746.716	1304.91667
2748.953	1284.91667
2751.189	1302.25
2753.423	1281.58333
2755.656	1284.58333
2757.887	1287.58333
2760.117	1278.91667
2762.346	1283.58333
2764.573	1285.91667
2766.798	1281.58333
2769.022	1308.91667
2771.245	1313.58333
2773.467	1294.25
2775.686	1321.58333
2777.905	1317.58333
2780.122	1326.58333
2782.337	1340.91667
2784.552	1343.58333
2786.764	1368.58333
2788.976	1357.58333
2791.186	1370.91667
2793.394	1378.91667
2795.601	1380.91667
2797.807	1414.91667
2800.011	1412.58333
2802.214	1431.91667
2804.415	1435.91667
2806.615	1427.25
2808.814	1434.58333
2811.011	1446.25
2813.206	1436.25
2815.401	1460.58333
2817.594	1481.58333
2819.785	1480.91667
2821.975	1459.58333
2824.164	1479.58333
2826.351	1498.58333
2828.537	1501.91667
2830.722	1539.91667
2832.905	1534.91667
2835.086	1557.91667
2837.267	1593.25
2839.445	1623.25
2841.623	1629.25
2843.799	1660.58333
2845.974	1688.25
2848.147	1726.58333
2850.319	1756.25
2852.489	1780.91667
2854.659	1789.25
2856.826	1816.25
2858.993	1838.25
2861.158	1825.25
2863.321	1821.58333
2865.483	1858.25
2867.644	1853.91667
2869.804	1828.91667
2871.962	1825.91667
2874.118	1835.25
2876.274	1825.91667
2878.428	1819.25
2880.58	1812.58333
2882.731	1805.25
2884.881	1809.25
2887.03	1806.91667
2889.177	1806.25
2891.322	1821.91667
2893.467	1819.91667
2895.61	1817.25
2897.751	1847.58333
2899.892	1844.58333
2902.03	1850.58333
2904.168	1854.58333
2906.304	1892.25
2908.439	1901.58333
2910.572	1883.91667
2912.704	1887.91667
2914.835	1902.91667
2916.965	1908.25
2919.093	1918.25
2921.219	1871.91667
2923.345	1919.25
2925.469	1871.58333
2927.591	1865.25
2929.712	1818.25
2931.832	1811.91667
2933.951	1793.91667
2936.068	1771.91667
2938.184	1757.91667
2940.299	1729.91667
2942.412	1725.25
2944.524	1690.58333
2946.634	1680.58333
2948.744	1638.25
2950.851	1663.91667
2952.958	1629.58333
2955.063	1638.58333
2957.167	1613.25
2959.269	1602.91667
2961.371	1622.25
2963.471	1582.91667
2965.569	1613.25
2967.666	1562.91667
2969.762	1565.58333
2971.857	1539.91667
2973.95	1533.25
2976.042	1525.91667
2978.133	1484.25
2980.222	1481.25
2982.31	1458.91667
2984.396	1441.25
2986.482	1434.25
2988.566	1433.58333
2990.648	1433.25
2992.73	1420.58333
2994.81	1416.25
2996.889	1442.25
2998.966	1411.91667
3001.042	1431.91667
3003.117	1424.58333
3005.191	1431.25
3007.263	1420.58333
3009.334	1419.25
3011.403	1382.25
3013.472	1359.91667
3015.539	1386.91667
3017.604	1362.25
3019.669	1316.91667
3021.732	1335.25
3023.794	1340.91667
3025.854	1307.91667
3027.914	1302.58333
3029.971	1330.25
3032.028	1321.25
3034.083	1327.58333
3036.137	1315.58333
3038.19	1261.91667
3040.242	1244.25
3042.292	1223.25
3044.341	1193.91667
3046.388	1215.58333
3048.435	1180.91667
3050.48	1187.25
3052.524	1186.91667
3054.566	1154.91667
3056.607	1153.25
3058.647	1149.58333
3060.686	1115.25
3062.723	1063.58333
3064.759	1047.25
3066.794	-0.08333
3068.828	-0.41667
3070.86	-1.75
