-0.839	389.54167
3.438	420.20833
7.711	122.20833
11.981	53.875
16.247	43.20833
20.509	42.875
24.768	40.875
29.024	45.875
33.276	43.54167
37.524	46.875
41.769	36.875
46.01	32.20833
50.247	47.20833
54.481	58.20833
58.712	64.54167
62.939	44.875
67.162	55.875
71.382	55.20833
75.599	47.54167
79.812	61.54167
84.021	76.20833
88.227	54.20833
92.429	58.20833
96.628	44.54167
100.823	62.54167
105.015	71.54167
109.204	68.54167
113.388	71.20833
117.57	66.54167
121.748	83.54167
125.922	67.20833
130.093	89.20833
134.261	94.20833
138.425	85.54167
142.585	123.54167
146.742	119.875
150.896	140.20833
155.046	160.875
159.193	254.54167
163.336	422.54167
167.476	770.54167
171.613	1426.20833
175.746	2384.875
179.875	3556.875
184.002	4658.20833
188.124	5449.875
192.244	5732.20833
196.36	5700.20833
200.472	5543.54167
204.581	5406.875
208.687	5211.875
212.79	5162.20833
216.889	5174.54167
220.984	5189.54167
225.077	5227.54167
229.165	5307.20833
233.251	5283.875
237.333	5268.20833
241.412	5236.20833
245.487	5260.20833
249.559	5137.54167
253.628	5152.875
257.694	5118.54167
261.756	5064.54167
265.814	4997.875
269.87	4894.54167
273.922	4815.875
277.97	4774.875
282.016	4817.20833
286.058	4836.20833
290.097	4934.875
294.132	5016.54167
298.164	4951.20833
302.193	4759.54167
306.219	4433.54167
310.241	4090.20833
314.26	3711.875
318.276	3407.875
322.288	3229.875
326.297	3040.875
330.303	2928.875
334.305	2848.875
338.305	2797.20833
342.301	2732.20833
346.294	2694.54167
350.283	2653.54167
354.269	2635.20833
358.252	2651.875
362.232	2605.20833
366.209	2583.875
370.182	2561.20833
374.152	2551.54167
378.119	2538.875
382.083	2539.875
386.043	2536.875
390	2507.875
393.954	2477.54167
397.905	2467.20833
401.852	2470.54167
405.797	2451.54167
409.738	2441.20833
413.676	2437.54167
417.61	2428.875
421.542	2405.20833
425.47	2409.20833
429.396	2380.875
433.318	2380.54167
437.236	2362.20833
441.152	2380.875
445.065	2309.875
448.974	2326.54167
452.88	2284.20833
456.783	2286.20833
460.683	2266.875
464.58	2298.20833
468.473	2272.20833
472.364	2306.875
476.251	2300.875
480.135	2325.875
484.016	2360.54167
487.894	2385.54167
491.769	2362.54167
495.641	2386.54167
499.509	2388.54167
503.375	2399.875
507.237	2412.54167
511.096	2480.54167
514.952	2764.875
518.805	3074.875
522.655	3165.54167
526.502	2731.20833
530.346	2451.20833
534.187	2383.875
538.024	2388.875
541.859	2368.20833
545.69	2396.54167
549.519	2342.20833
553.344	2323.875
557.166	2307.54167
560.985	2266.20833
564.802	2251.54167
568.615	2216.54167
572.425	2184.54167
576.232	2163.875
580.036	2182.875
583.836	2201.54167
587.634	2193.20833
591.429	2184.20833
595.221	2235.54167
599.01	2268.20833
602.796	2294.875
606.578	2296.54167
610.358	2295.875
614.135	2285.54167
617.909	2293.20833
621.679	2248.875
625.447	2228.20833
629.212	2255.20833
632.973	2247.54167
636.732	2245.54167
640.488	2235.875
644.241	2203.875
647.991	2200.875
651.737	2231.54167
655.481	2194.20833
659.222	2203.875
662.96	2215.54167
666.695	2237.875
670.427	2253.875
674.156	2244.875
677.882	2233.54167
681.605	2246.875
685.325	2198.54167
689.043	2204.20833
692.757	2182.20833
696.468	2199.20833
700.177	2188.20833
703.882	2180.20833
707.585	2193.54167
711.284	2184.875
714.981	2183.875
718.675	2200.54167
722.366	2215.54167
726.054	2210.54167
729.739	2180.54167
733.421	2202.20833
737.1	2183.875
740.777	2194.875
744.45	2208.20833
748.121	2213.875
751.789	2269.20833
755.453	2241.54167
759.115	2246.875
762.774	2288.875
766.431	2283.54167
770.084	2311.54167
773.734	2344.54167
777.382	2362.20833
781.027	2382.875
784.669	2397.20833
788.308	2402.54167
791.944	2438.20833
795.577	2455.54167
799.208	2452.54167
802.835	2490.20833
806.46	2494.54167
810.082	2511.20833
813.701	2515.20833
817.317	2547.54167
820.931	2540.875
824.542	2511.875
828.149	2490.54167
831.754	2468.20833
835.357	2465.875
838.956	2462.54167
842.553	2447.875
846.146	2417.54167
849.737	2413.875
853.326	2415.20833
856.911	2416.20833
860.493	2445.54167
864.073	2462.875
867.65	2489.20833
871.225	2526.54167
874.796	2528.875
878.365	2555.54167
881.931	2543.20833
885.494	2562.20833
889.054	2566.54167
892.612	2568.875
896.166	2556.20833
899.719	2526.20833
903.268	2514.20833
906.814	2484.875
910.358	2508.20833
913.899	2469.54167
917.438	2470.54167
920.973	2470.875
924.506	2513.875
928.036	2549.20833
931.564	2584.20833
935.088	2620.875
938.61	2623.54167
942.129	2649.20833
945.646	2728.20833
949.16	2775.20833
952.671	2820.875
956.179	2823.54167
959.685	2795.54167
963.188	2800.875
966.688	2739.875
970.185	2713.875
973.68	2631.875
977.173	2595.54167
980.662	2546.875
984.149	2534.54167
987.633	2512.20833
991.114	2542.54167
994.593	2585.875
998.069	2652.54167
1001.542	2712.54167
1005.013	2648.875
1008.481	2505.20833
1011.947	2489.875
1015.409	2473.54167
1018.869	2452.54167
1022.327	2472.20833
1025.782	2458.54167
1029.234	2485.54167
1032.683	2430.54167
1036.13	2358.20833
1039.574	2277.875
1043.016	2218.54167
1046.455	2195.20833
1049.891	2185.875
1053.325	2177.875
1056.756	2180.875
1060.184	2196.20833
1063.61	2191.54167
1067.033	2235.54167
1070.454	2213.54167
1073.872	2254.54167
1077.287	2254.875
1080.7	2258.20833
1084.11	2270.54167
1087.517	2237.54167
1090.922	2229.20833
1094.325	2184.20833
1097.724	2172.875
1101.122	2174.875
1104.516	2175.20833
1107.908	2181.54167
1111.298	2207.875
1114.684	2214.875
1118.069	2254.875
1121.45	2266.20833
1124.83	2288.875
1128.206	2312.20833
1131.58	2327.20833
1134.951	2399.875
1138.32	2452.875
1141.687	2569.20833
1145.05	2613.54167
1148.412	2640.20833
1151.77	2616.54167
1155.126	2652.875
1158.48	2622.54167
1161.831	2620.875
1165.18	2646.54167
1168.525	2688.20833
1171.869	2713.54167
1175.21	2729.54167
1178.548	2756.875
1181.884	2801.20833
1185.217	2825.875
1188.548	2880.54167
1191.877	2958.875
1195.202	3068.875
1198.526	3084.54167
1201.846	3115.54167
1205.165	3085.875
1208.48	3120.20833
1211.794	3089.20833
1215.104	3094.20833
1218.413	3135.54167
1221.719	3076.875
1225.022	3073.20833
1228.323	3015.20833
1231.621	3009.54167
1234.917	2975.875
1238.21	3009.875
1241.501	2982.875
1244.79	2971.54167
1248.076	2976.875
1251.359	2996.20833
1254.64	3062.54167
1257.919	3057.54167
1261.195	3096.54167
1264.468	3145.54167
1267.74	3212.875
1271.008	3188.54167
1274.275	3182.875
1277.538	3177.20833
1280.8	3159.54167
1284.059	3146.54167
1287.315	3217.875
1290.569	3215.54167
1293.821	3263.875
1297.07	3267.875
1300.317	3286.54167
1303.562	3286.20833
1306.803	3242.54167
1310.043	3220.20833
1313.28	3177.875
1316.515	3160.54167
1319.747	3110.875
1322.977	3078.54167
1326.204	3059.20833
1329.429	3025.875
1332.652	3012.20833
1335.872	3010.20833
1339.09	2984.20833
1342.306	2971.20833
1345.519	2914.875
1348.729	2860.875
1351.938	2820.20833
1355.144	2793.20833
1358.347	2745.54167
1361.548	2760.20833
1364.747	2769.20833
1367.944	2748.875
1371.138	2742.20833
1374.329	2746.875
1377.518	2757.875
1380.705	2770.20833
1383.89	2751.20833
1387.072	2681.875
1390.252	2611.54167
1393.429	2508.54167
1396.605	2452.875
1399.777	2389.20833
1402.948	2376.20833
1406.116	2392.54167
1409.282	2399.54167
1412.445	2402.20833
1415.606	2430.875
1418.765	2487.54167
1421.921	2536.54167
1425.075	2583.875
1428.227	2654.20833
1431.376	2749.875
1434.524	2860.875
1437.668	2918.54167
1440.811	2938.20833
1443.951	2950.875
1447.089	2952.54167
1450.224	2979.875
1453.357	2950.20833
1456.488	2920.875
1459.617	2895.54167
1462.743	2835.54167
1465.867	2797.875
1468.989	2780.20833
1472.108	2723.20833
1475.225	2691.875
1478.34	2649.54167
1481.453	2654.875
1484.563	2654.54167
1487.671	2695.875
1490.776	2741.20833
1493.88	2765.54167
1496.981	2839.875
1500.08	2871.20833
1503.176	2910.20833
1506.271	2947.20833
1509.363	2993.875
1512.452	3016.20833
1515.54	3048.20833
1518.625	3115.54167
1521.708	3191.875
1524.789	3313.875
1527.867	3424.54167
1530.944	3603.54167
1534.018	3736.54167
1537.089	3871.54167
1540.159	3914.875
1543.226	3861.20833
1546.291	3764.875
1549.354	3700.54167
1552.415	3615.875
1555.473	3504.54167
1558.529	3421.54167
1561.583	3432.54167
1564.634	3372.20833
1567.684	3356.54167
1570.731	3365.20833
1573.776	3387.20833
1576.819	3421.54167
1579.859	3443.20833
1582.898	3479.54167
1585.934	3500.875
1588.968	3513.20833
1591.999	3511.20833
1595.029	3539.54167
1598.056	3543.875
1601.081	3587.875
1604.104	3546.875
1607.125	3547.20833
1610.144	3426.20833
1613.16	3357.20833
1616.174	3281.875
1619.186	3185.875
1622.196	3081.54167
1625.203	3011.20833
1628.209	2998.875
1631.212	2980.20833
1634.213	2922.20833
1637.212	2929.54167
1640.209	2857.54167
1643.203	2781.20833
1646.196	2694.20833
1649.186	2574.20833
1652.174	2531.20833
1655.16	2438.54167
1658.144	2372.875
1661.125	2263.875
1664.105	2160.875
1667.082	2067.875
1670.057	1969.20833
1673.03	1851.54167
1676.001	1764.20833
1678.97	1656.875
1681.937	1580.875
1684.901	1483.875
1687.863	1464.20833
1690.824	1394.54167
1693.782	1372.20833
1696.738	1315.54167
1699.692	1292.875
1702.643	1273.20833
1705.593	1250.875
1708.54	1247.20833
1711.486	1224.875
1714.429	1211.20833
1717.37	1205.20833
1720.309	1195.54167
1723.246	1192.54167
1726.181	1156.54167
1729.113	1166.875
1732.044	1144.875
1734.972	1149.54167
1737.899	1138.875
1740.823	1135.875
1743.745	1134.20833
1746.665	1101.54167
1749.583	1097.20833
1752.499	1075.20833
1755.413	1053.875
1758.325	1046.875
1761.235	1042.20833
1764.142	1016.20833
1767.048	1011.875
1769.951	1005.20833
1772.852	1009.20833
1775.752	994.20833
1778.649	998.875
1781.544	1041.54167
1784.437	1060.20833
1787.328	1011.875
1790.217	995.20833
1793.104	964.20833
1795.989	958.875
1798.872	952.875
1801.753	981.20833
1804.631	971.875
1807.508	982.20833
1810.383	957.875
1813.255	952.875
1816.126	962.875
1818.994	953.875
1821.861	955.20833
1824.725	959.20833
1827.587	937.875
1830.448	945.875
1833.306	925.20833
1836.162	932.54167
1839.017	914.20833
1841.869	929.875
1844.719	921.54167
1847.567	915.875
1850.414	902.20833
1853.258	904.875
1856.1	910.875
1858.94	929.54167
1861.778	913.54167
1864.614	900.20833
1867.448	922.54167
1870.28	902.20833
1873.111	925.54167
1875.939	914.20833
1878.765	938.20833
1881.589	914.54167
1884.411	917.54167
1887.231	925.20833
1890.049	903.875
1892.865	902.20833
1895.68	885.20833
1898.492	898.875
1901.302	887.20833
1904.11	892.875
1906.916	884.54167
1909.721	878.20833
1912.523	885.54167
1915.323	865.875
1918.122	871.20833
1920.918	889.20833
1923.712	870.20833
1926.505	885.20833
1929.295	861.875
1932.084	877.20833
1934.87	887.875
1937.655	877.20833
1940.438	872.20833
1943.218	888.54167
1945.997	878.20833
1948.774	892.875
1951.549	897.20833
1954.322	878.20833
1957.093	880.20833
1959.862	867.875
1962.629	887.54167
1965.394	863.54167
1968.157	854.54167
1970.918	865.20833
1973.678	851.20833
1976.435	863.20833
1979.19	862.20833
1981.944	844.875
1984.696	859.20833
1987.445	851.54167
1990.193	857.875
1992.939	862.875
1995.683	868.875
1998.425	853.54167
2001.165	876.54167
2003.903	854.875
2006.639	854.20833
2009.374	851.54167
2012.106	860.54167
2014.837	835.875
2017.566	864.875
2020.292	856.20833
2023.017	849.875
2025.74	848.875
2028.461	855.54167
2031.18	860.875
2033.898	851.875
2036.613	859.20833
2039.327	858.20833
2042.038	838.20833
2044.748	842.54167
2047.456	853.54167
2050.162	833.875
2052.866	843.54167
2055.568	846.54167
2058.268	856.54167
2060.967	859.875
2063.663	825.20833
2066.358	847.20833
2069.051	841.20833
2071.742	856.875
2074.431	855.54167
2077.118	847.54167
2079.804	842.875
2082.487	849.875
2085.169	863.20833
2087.849	884.54167
2090.527	864.54167
2093.203	880.54167
2095.877	870.54167
2098.55	875.20833
2101.22	904.20833
2103.889	903.875
2106.556	915.20833
2109.221	944.20833
2111.884	955.875
2114.546	1019.20833
2117.205	1066.875
2119.863	1120.875
2122.519	1181.875
2125.173	1229.875
2127.825	1310.54167
2130.475	1290.20833
2133.124	1262.20833
2135.771	1217.875
2138.416	1184.54167
2141.059	1119.20833
2143.7	1105.875
2146.339	1048.875
2148.977	998.54167
2151.613	1000.875
2154.247	975.875
2156.879	960.54167
2159.51	942.875
2162.138	923.20833
2164.765	933.20833
2167.39	902.54167
2170.013	932.54167
2172.634	917.54167
2175.254	898.20833
2177.872	933.875
2180.488	890.54167
2183.102	899.54167
2185.714	886.875
2188.325	874.875
2190.934	873.20833
2193.541	883.875
2196.146	861.875
2198.75	870.875
2201.351	860.20833
2203.951	846.20833
2206.549	867.875
2209.146	860.54167
2211.74	852.20833
2214.333	863.20833
2216.924	849.875
2219.514	845.875
2222.101	840.20833
2224.687	870.54167
2227.271	851.20833
2229.853	849.54167
2232.433	844.875
2235.012	863.54167
2237.589	863.20833
2240.164	866.875
2242.738	853.875
2245.309	848.875
2247.879	834.875
2250.448	865.875
2253.014	832.54167
2255.579	822.20833
2258.142	831.875
2260.703	823.20833
2263.262	829.875
2265.82	822.20833
2268.376	833.875
2270.93	816.54167
2273.483	821.875
2276.033	842.20833
2278.583	826.875
2281.13	821.20833
2283.675	814.54167
2286.219	841.20833
2288.761	834.875
2291.302	833.875
2293.841	838.54167
2296.377	816.875
2298.913	834.875
2301.446	842.875
2303.978	839.54167
2306.508	838.54167
2309.037	833.875
2311.563	837.54167
2314.088	859.875
2316.612	822.875
2319.133	837.20833
2321.653	834.875
2324.171	834.875
2326.688	842.54167
2329.202	836.20833
2331.715	840.54167
2334.227	841.875
2336.736	842.20833
2339.244	836.875
2341.751	827.54167
2344.255	844.875
2346.758	830.875
2349.259	831.20833
2351.759	840.20833
2354.257	847.54167
2356.753	837.875
2359.247	853.20833
2361.74	863.20833
2364.231	852.20833
2366.721	861.875
2369.209	853.20833
2371.695	851.875
2374.179	852.875
2376.662	851.875
2379.143	871.20833
2381.622	860.20833
2384.1	863.875
2386.576	872.20833
2389.051	878.875
2391.524	890.875
2393.995	883.20833
2396.464	877.20833
2398.932	862.875
2401.398	887.20833
2403.863	882.54167
2406.325	866.20833
2408.787	879.875
2411.246	874.20833
2413.704	878.54167
2416.16	892.875
2418.615	881.20833
2421.068	887.54167
2423.519	887.54167
2425.969	892.875
2428.417	889.875
2430.863	917.875
2433.308	908.875
2435.751	906.54167
2438.193	893.875
2440.633	910.54167
2443.071	920.875
2445.508	903.875
2447.943	905.54167
2450.376	899.20833
2452.808	920.875
2455.238	908.20833
2457.667	951.875
2460.093	927.20833
2462.519	921.20833
2464.942	925.54167
2467.365	924.20833
2469.785	928.20833
2472.204	931.875
2474.621	934.20833
2477.037	950.54167
2479.451	925.20833
2481.863	932.875
2484.274	931.875
2486.683	946.54167
2489.091	957.20833
2491.497	942.54167
2493.901	940.875
2496.304	935.875
2498.705	952.54167
2501.105	946.20833
2503.503	979.875
2505.899	949.875
2508.294	984.875
2510.687	956.20833
2513.079	975.20833
2515.469	971.20833
2517.858	953.20833
2520.245	995.875
2522.63	974.20833
2525.014	959.875
2527.396	981.54167
2529.776	967.20833
2532.156	980.20833
2534.533	973.875
2536.909	984.20833
2539.283	969.20833
2541.656	986.54167
2544.027	1017.20833
2546.397	1004.875
2548.765	992.875
2551.131	1000.54167
2553.496	1006.54167
2555.86	1007.54167
2558.221	1005.20833
2560.582	1009.875
2562.94	994.875
2565.298	1011.54167
2567.653	1043.54167
2570.007	1014.875
2572.36	1025.54167
2574.711	1028.20833
2577.06	1037.20833
2579.408	1042.875
2581.754	1035.20833
2584.099	1037.20833
2586.442	1037.875
2588.784	1046.54167
2591.124	1035.875
2593.463	1055.20833
2595.8	1053.875
2598.135	1043.875
2600.469	1051.875
2602.802	1074.20833
2605.133	1074.875
2607.462	1051.875
2609.79	1060.20833
2612.116	1086.20833
2614.441	1061.20833
2616.764	1082.54167
2619.086	1082.54167
2621.406	1086.20833
2623.725	1107.875
2626.042	1110.20833
2628.358	1093.875
2630.672	1084.54167
2632.985	1130.20833
2635.296	1126.875
2637.606	1144.875
2639.914	1117.20833
2642.22	1127.54167
2644.525	1128.54167
2646.829	1131.875
2649.131	1144.54167
2651.432	1150.875
2653.731	1140.54167
2656.028	1163.54167
2658.324	1163.875
2660.619	1165.54167
2662.912	1185.20833
2665.204	1161.54167
2667.494	1177.875
2669.782	1170.875
2672.07	1180.20833
2674.355	1194.875
2676.639	1184.54167
2678.922	1193.875
2681.203	1195.54167
2683.483	1176.20833
2685.761	1184.20833
2688.038	1196.875
2690.313	1225.20833
2692.587	1200.875
2694.859	1199.20833
2697.13	1205.875
2699.399	1220.875
2701.667	1251.20833
2703.933	1235.54167
2706.198	1238.54167
2708.461	1249.20833
2710.723	1265.54167
2712.984	1269.20833
2715.243	1278.20833
2717.5	1273.54167
2719.757	1283.875
2722.011	1298.875
2724.264	1302.54167
2726.516	1321.54167
2728.766	1316.20833
2731.015	1318.875
2733.262	1318.54167
2735.508	1312.20833
2737.753	1321.54167
2739.996	1303.875
2742.237	1312.54167
2744.477	1314.54167
2746.716	1318.54167
2748.953	1297.875
2751.189	1314.875
2753.423	1302.54167
2755.656	1301.54167
2757.887	1300.20833
2760.117	1301.54167
2762.346	1291.875
2764.573	1298.20833
2766.798	1319.54167
2769.022	1327.20833
2771.245	1314.20833
2773.467	1322.20833
2775.686	1333.54167
2777.905	1329.20833
2780.122	1353.875
2782.337	1349.875
2784.552	1351.875
2786.764	1373.875
2788.976	1381.875
2791.186	1392.20833
2793.394	1392.54167
2795.601	1421.20833
2797.807	1406.875
2800.011	1441.20833
2802.214	1428.875
2804.415	1449.54167
2806.615	1435.20833
2808.814	1452.875
2811.011	1459.20833
2813.206	1456.875
2815.401	1485.54167
2817.594	1504.20833
2819.785	1502.54167
2821.975	1493.20833
2824.164	1494.20833
2826.351	1504.875
2828.537	1534.20833
2830.722	1559.20833
2832.905	1546.54167
2835.086	1592.54167
2837.267	1616.54167
2839.445	1633.875
2841.623	1640.20833
2843.799	1687.54167
2845.974	1719.20833
2848.147	1774.20833
2850.319	1764.20833
2852.489	1809.20833
2854.659	1795.54167
2856.826	1823.875
2858.993	1849.875
2861.158	1838.875
2863.321	1839.20833
2865.483	1863.875
2867.644	1847.20833
2869.804	1855.875
2871.962	1852.875
2874.118	1838.20833
2876.274	1847.875
2878.428	1812.875
2880.58	1808.54167
2882.731	1829.54167
2884.881	1825.875
2887.03	1815.20833
2889.177	1823.20833
2891.322	1855.20833
2893.467	1837.54167
2895.61	1841.20833
2897.751	1875.54167
2899.892	1861.875
2902.03	1864.875
2904.168	1896.54167
2906.304	1910.54167
2908.439	1911.875
2910.572	1912.20833
2912.704	1923.875
2914.835	1900.20833
2916.965	1922.20833
2919.093	1945.875
2921.219	1896.54167
2923.345	1929.20833
2925.469	1874.20833
2927.591	1889.54167
2929.712	1841.54167
2931.832	1848.875
2933.951	1831.875
2936.068	1804.875
2938.184	1757.875
2940.299	1756.54167
2942.412	1735.20833
2944.524	1693.20833
2946.634	1696.54167
2948.744	1657.20833
2950.851	1677.875
2952.958	1647.875
2955.063	1631.54167
2957.167	1643.54167
2959.269	1604.875
2961.371	1635.20833
2963.471	1600.20833
2965.569	1620.875
2967.666	1582.20833
2969.762	1575.875
2971.857	1564.54167
2973.95	1533.875
2976.042	1528.20833
2978.133	1506.54167
2980.222	1497.54167
2982.31	1465.20833
2984.396	1440.54167
2986.482	1448.875
2988.566	1450.875
2990.648	1447.20833
2992.73	1432.54167
2994.81	1428.54167
2996.889	1449.54167
2998.966	1445.875
3001.042	1463.20833
3003.117	1447.875
3005.191	1444.20833
3007.263	1428.54167
3009.334	1425.20833
3011.403	1405.20833
3013.472	1380.875
3015.539	1371.20833
3017.604	1382.20833
3019.669	1331.875
3021.732	1339.20833
3023.794	1351.54167
3025.854	1349.54167
3027.914	1342.875
3029.971	1357.20833
3032.028	1337.875
3034.083	1343.20833
3036.137	1326.875
3038.19	1286.54167
3040.242	1252.54167
3042.292	1230.875
3044.341	1209.20833
3046.388	1225.20833
3048.435	1194.54167
3050.48	1204.54167
3052.524	1204.20833
3054.566	1187.54167
3056.607	1181.20833
3058.647	1157.875
3060.686	1124.20833
3062.723	1095.20833
3064.759	1050.20833
3066.794	0.875
3068.828	0.54167
3070.86	-2.45833
