-0.839	392.41667
3.438	419.08333
7.711	120.75
11.981	52.08333
16.247	46.41667
20.509	48.08333
24.768	44.41667
29.024	46.75
33.276	46.41667
37.524	53.41667
41.769	40.41667
46.01	43.75
50.247	54.75
54.481	61.08333
58.712	69.75
62.939	55.41667
67.162	62.08333
71.382	61.08333
75.599	49.08333
79.812	64.75
84.021	81.41667
88.227	61.08333
92.429	65.08333
96.628	57.08333
100.823	72.08333
105.015	83.08333
109.204	81.41667
113.388	82.75
117.57	79.08333
121.748	95.41667
125.922	85.41667
130.093	110.75
134.261	113.75
138.425	111.41667
142.585	148.41667
146.742	150.08333
150.896	182.41667
155.046	220.75
159.193	342.41667
163.336	590.08333
167.476	1097.08333
171.613	2047.08333
175.746	3433.41667
179.875	5143.08333
184.002	6757.41667
188.124	7876.08333
192.244	8247.41667
196.36	8200.08333
200.472	7938.41667
204.581	7728.41667
208.687	7552.75
212.79	7478.41667
216.889	7498.41667
220.984	7587.41667
225.077	7639.41667
229.165	7736.41667
233.251	7790.08333
237.333	7796.75
241.412	7721.75
245.487	7649.08333
249.559	7593.75
253.628	7516.41667
257.694	7417.08333
261.756	7329.08333
265.814	7170.75
269.87	6973.75
273.922	6820.41667
277.97	6739.75
282.016	6711.08333
286.058	6743.75
290.097	6816.41667
294.132	6897.41667
298.164	6752.08333
302.193	6403.75
306.219	5926.08333
310.241	5421.75
314.26	4926.08333
318.276	4547.41667
322.288	4253.75
326.297	3991.41667
330.303	3807.75
334.305	3695.41667
338.305	3594.41667
342.301	3544.08333
346.294	3500.41667
350.283	3489.08333
354.269	3458.41667
358.252	3434.41667
362.232	3382.75
366.209	3380.41667
370.182	3341.41667
374.152	3320.08333
378.119	3317.08333
382.083	3304.41667
386.043	3336.08333
390	3273.75
393.954	3230.08333
397.905	3192.08333
401.852	3174.41667
405.797	3151.75
409.738	3132.75
413.676	3098.08333
417.61	3078.08333
421.542	3043.08333
425.47	3006.08333
429.396	2991.41667
433.318	2963.08333
437.236	2955.08333
441.152	2962.08333
445.065	2894.41667
448.974	2918.08333
452.88	2886.41667
456.783	2859.08333
460.683	2823.41667
464.58	2855.75
468.473	2864.41667
472.364	2837.08333
476.251	2866.75
480.135	2897.75
484.016	2919.75
487.894	2913.08333
491.769	2955.08333
495.641	2935.41667
499.509	2948.41667
503.375	2941.08333
507.237	2948.75
511.096	2952.75
514.952	3095.75
518.805	3221.75
522.655	3238.75
526.502	3059.08333
530.346	2908.75
534.187	2911.41667
538.024	2918.41667
541.859	2912.75
545.69	2943.41667
549.519	2900.75
553.344	2899.08333
557.166	2844.08333
560.985	2819.08333
564.802	2778.41667
568.615	2737.75
572.425	2709.41667
576.232	2675.75
580.036	2661.08333
583.836	2672.41667
587.634	2691.41667
591.429	2674.08333
595.221	2731.75
599.01	2753.41667
602.796	2798.41667
606.578	2825.08333
610.358	2841.75
614.135	2818.41667
617.909	2808.41667
621.679	2798.41667
625.447	2769.08333
629.212	2779.75
632.973	2787.75
636.732	2762.75
640.488	2771.41667
644.241	2730.08333
647.991	2728.41667
651.737	2753.08333
655.481	2694.75
659.222	2710.08333
662.96	2706.41667
666.695	2729.75
670.427	2758.41667
674.156	2736.75
677.882	2742.75
681.605	2733.75
685.325	2713.08333
689.043	2721.75
692.757	2702.41667
696.468	2730.08333
700.177	2724.41667
703.882	2711.08333
707.585	2705.41667
711.284	2727.75
714.981	2742.75
718.675	2750.75
722.366	2771.41667
726.054	2759.41667
729.739	2737.08333
733.421	2751.41667
737.1	2749.08333
740.777	2771.75
744.45	2799.41667
748.121	2807.41667
751.789	2900.41667
755.453	2865.75
759.115	2871.08333
762.774	2913.75
766.431	2938.75
770.084	2987.41667
773.734	2999.41667
777.382	3058.75
781.027	3101.08333
784.669	3138.41667
788.308	3132.75
791.944	3186.08333
795.577	3169.41667
799.208	3228.75
802.835	3245.75
806.46	3264.41667
810.082	3260.08333
813.701	3289.41667
817.317	3311.08333
820.931	3302.75
824.542	3316.41667
828.149	3332.75
831.754	3295.75
835.357	3284.75
838.956	3288.75
842.553	3265.41667
846.146	3257.75
849.737	3251.75
853.326	3263.75
856.911	3274.75
860.493	3336.75
864.073	3355.41667
867.65	3411.08333
871.225	3492.08333
874.796	3474.75
878.365	3462.75
881.931	3511.41667
885.494	3531.08333
889.054	3531.41667
892.612	3561.75
896.166	3521.08333
899.719	3518.41667
903.268	3460.41667
906.814	3408.08333
910.358	3415.75
913.899	3372.75
917.438	3379.41667
920.973	3370.08333
924.506	3409.75
928.036	3449.75
931.564	3491.75
935.088	3521.41667
938.61	3553.75
942.129	3579.75
945.646	3672.75
949.16	3775.75
952.671	3845.08333
956.179	3855.41667
959.685	3813.75
963.188	3740.41667
966.688	3704.08333
970.185	3627.08333
973.68	3539.41667
977.173	3530.41667
980.662	3522.41667
984.149	3541.41667
987.633	3563.41667
991.114	3604.08333
994.593	3707.08333
998.069	3816.41667
1001.542	3891.75
1005.013	3824.08333
1008.481	3601.75
1011.947	3537.75
1015.409	3529.41667
1018.869	3545.75
1022.327	3533.75
1025.782	3526.08333
1029.234	3514.41667
1032.683	3473.75
1036.13	3339.08333
1039.574	3199.41667
1043.016	3152.75
1046.455	3074.75
1049.891	3045.08333
1053.325	3040.08333
1056.756	3049.41667
1060.184	3055.41667
1063.61	3098.08333
1067.033	3110.08333
1070.454	3109.41667
1073.872	3146.08333
1077.287	3130.41667
1080.7	3152.41667
1084.11	3162.08333
1087.517	3130.75
1090.922	3108.08333
1094.325	3088.08333
1097.724	3054.08333
1101.122	3044.41667
1104.516	3058.41667
1107.908	3039.41667
1111.298	3101.08333
1114.684	3131.08333
1118.069	3159.41667
1121.45	3208.75
1124.83	3211.08333
1128.206	3251.75
1131.58	3281.75
1134.951	3394.08333
1138.32	3503.75
1141.687	3664.75
1145.05	3743.41667
1148.412	3766.75
1151.77	3778.75
1155.126	3775.75
1158.48	3772.08333
1161.831	3815.41667
1165.18	3845.75
1168.525	3913.08333
1171.869	3940.41667
1175.21	4009.75
1178.548	4031.75
1181.884	4048.08333
1185.217	4082.41667
1188.548	4168.08333
1191.877	4248.75
1195.202	4296.41667
1198.526	4358.08333
1201.846	4357.41667
1205.165	4354.75
1208.48	4341.08333
1211.794	4331.08333
1215.104	4326.75
1218.413	4343.75
1221.719	4315.75
1225.022	4277.41667
1228.323	4261.75
1231.621	4232.08333
1234.917	4245.75
1238.21	4273.75
1241.501	4278.08333
1244.79	4259.75
1248.076	4266.41667
1251.359	4300.41667
1254.64	4394.08333
1257.919	4393.75
1261.195	4497.75
1264.468	4569.08333
1267.74	4633.41667
1271.008	4663.75
1274.275	4629.08333
1277.538	4573.75
1280.8	4547.08333
1284.059	4560.75
1287.315	4599.08333
1290.569	4629.08333
1293.821	4660.41667
1297.07	4637.41667
1300.317	4688.75
1303.562	4665.75
1306.803	4627.08333
1310.043	4578.08333
1313.28	4497.08333
1316.515	4448.75
1319.747	4400.75
1322.977	4335.41667
1326.204	4278.75
1329.429	4211.08333
1332.652	4210.75
1335.872	4173.08333
1339.09	4131.41667
1342.306	4148.41667
1345.519	4143.41667
1348.729	4085.41667
1351.938	4063.41667
1355.144	3997.41667
1358.347	3973.41667
1361.548	3978.41667
1364.747	3978.75
1367.944	3977.41667
1371.138	3999.41667
1374.329	4048.41667
1377.518	4087.08333
1380.705	4147.75
1383.89	4079.75
1387.072	3974.41667
1390.252	3819.41667
1393.429	3717.08333
1396.605	3597.75
1399.777	3506.75
1402.948	3457.75
1406.116	3436.08333
1409.282	3454.41667
1412.445	3464.08333
1415.606	3530.41667
1418.765	3550.75
1421.921	3642.75
1425.075	3726.75
1428.227	3863.75
1431.376	3991.41667
1434.524	4125.75
1437.668	4223.41667
1440.811	4241.75
1443.951	4272.41667
1447.089	4298.08333
1450.224	4264.75
1453.357	4254.75
1456.488	4229.41667
1459.617	4191.75
1462.743	4135.75
1465.867	4063.41667
1468.989	4007.75
1472.108	3940.41667
1475.225	3887.08333
1478.34	3850.08333
1481.453	3840.41667
1484.563	3861.08333
1487.671	3920.08333
1490.776	4008.75
1493.88	4110.41667
1496.981	4184.75
1500.08	4269.75
1503.176	4335.08333
1506.271	4406.41667
1509.363	4481.41667
1512.452	4479.08333
1515.54	4573.08333
1518.625	4671.41667
1521.708	4826.75
1524.789	5070.75
1527.867	5306.41667
1530.944	5634.08333
1534.018	5942.75
1537.089	6143.41667
1540.159	6177.08333
1543.226	6106.08333
1546.291	5913.75
1549.354	5757.08333
1552.415	5568.08333
1555.473	5430.75
1558.529	5310.08333
1561.583	5259.08333
1564.634	5188.75
1567.684	5154.41667
1570.731	5152.08333
1573.776	5186.75
1576.819	5226.75
1579.859	5251.08333
1582.898	5319.41667
1585.934	5343.08333
1588.968	5354.75
1591.999	5341.41667
1595.029	5323.41667
1598.056	5372.75
1601.081	5357.75
1604.104	5328.41667
1607.125	5283.75
1610.144	5169.75
1613.16	5010.75
1616.174	4898.41667
1619.186	4772.08333
1622.196	4627.41667
1625.203	4482.75
1628.209	4420.75
1631.212	4389.41667
1634.213	4313.08333
1637.212	4270.75
1640.209	4204.41667
1643.203	4064.41667
1646.196	3932.41667
1649.186	3801.08333
1652.174	3716.08333
1655.16	3604.08333
1658.144	3452.08333
1661.125	3296.08333
1664.105	3161.41667
1667.082	2993.75
1670.057	2838.75
1673.03	2673.75
1676.001	2527.41667
1678.97	2359.08333
1681.937	2216.08333
1684.901	2108.41667
1687.863	2044.08333
1690.824	1961.75
1693.782	1914.41667
1696.738	1846.08333
1699.692	1825.75
1702.643	1769.08333
1705.593	1751.75
1708.54	1739.41667
1711.486	1721.75
1714.429	1676.75
1717.37	1668.75
1720.309	1645.08333
1723.246	1638.08333
1726.181	1599.08333
1729.113	1597.41667
1732.044	1575.75
1734.972	1557.75
1737.899	1566.08333
1740.823	1551.08333
1743.745	1545.75
1746.665	1492.41667
1749.583	1463.08333
1752.499	1462.75
1755.413	1430.08333
1758.325	1411.08333
1761.235	1412.08333
1764.142	1374.41667
1767.048	1366.75
1769.951	1356.75
1772.852	1346.08333
1775.752	1333.75
1778.649	1320.75
1781.544	1327.08333
1784.437	1300.75
1787.328	1305.08333
1790.217	1294.75
1793.104	1277.75
1795.989	1273.41667
1798.872	1264.75
1801.753	1283.41667
1804.631	1266.41667
1807.508	1284.41667
1810.383	1270.41667
1813.255	1255.41667
1816.126	1256.08333
1818.994	1248.41667
1821.861	1258.75
1824.725	1228.41667
1827.587	1236.08333
1830.448	1225.75
1833.306	1211.08333
1836.162	1216.75
1839.017	1196.08333
1841.869	1206.41667
1844.719	1195.41667
1847.567	1183.41667
1850.414	1173.75
1853.258	1179.75
1856.1	1185.75
1858.94	1209.41667
1861.778	1184.41667
1864.614	1175.41667
1867.448	1201.08333
1870.28	1182.08333
1873.111	1179.75
1875.939	1174.75
1878.765	1200.08333
1881.589	1170.08333
1884.411	1164.41667
1887.231	1177.41667
1890.049	1167.75
1892.865	1144.75
1895.68	1156.08333
1898.492	1157.08333
1901.302	1147.75
1904.11	1140.75
1906.916	1140.41667
1909.721	1139.75
1912.523	1144.75
1915.323	1120.08333
1918.122	1126.75
1920.918	1125.41667
1923.712	1119.75
1926.505	1116.08333
1929.295	1105.75
1932.084	1130.41667
1934.87	1112.08333
1937.655	1098.75
1940.438	1103.75
1943.218	1104.75
1945.997	1115.75
1948.774	1118.75
1951.549	1111.08333
1954.322	1115.08333
1957.093	1097.08333
1959.862	1091.41667
1962.629	1093.75
1965.394	1083.41667
1968.157	1066.08333
1970.918	1088.75
1973.678	1087.75
1976.435	1085.08333
1979.19	1067.41667
1981.944	1062.41667
1984.696	1070.75
1987.445	1055.75
1990.193	1064.75
1992.939	1075.41667
1995.683	1067.41667
1998.425	1038.08333
2001.165	1071.41667
2003.903	1056.08333
2006.639	1049.08333
2009.374	1053.08333
2012.106	1060.08333
2014.837	1025.75
2017.566	1066.08333
2020.292	1039.41667
2023.017	1058.08333
2025.74	1045.08333
2028.461	1039.41667
2031.18	1044.41667
2033.898	1015.41667
2036.613	1040.75
2039.327	1034.08333
2042.038	1024.08333
2044.748	1029.41667
2047.456	1024.41667
2050.162	996.75
2052.866	1025.75
2055.568	1012.08333
2058.268	1019.08333
2060.967	1022.08333
2063.663	1004.08333
2066.358	1024.08333
2069.051	1006.41667
2071.742	1017.41667
2074.431	1031.41667
2077.118	1015.41667
2079.804	1013.08333
2082.487	1022.08333
2085.169	1025.08333
2087.849	1044.75
2090.527	1040.08333
2093.203	1043.41667
2095.877	1067.41667
2098.55	1075.41667
2101.22	1090.08333
2103.889	1113.41667
2106.556	1134.75
2109.221	1197.08333
2111.884	1245.41667
2114.546	1343.75
2117.205	1475.08333
2119.863	1632.41667
2122.519	1768.08333
2125.173	1913.08333
2127.825	2012.75
2130.475	2018.41667
2133.124	1952.41667
2135.771	1859.08333
2138.416	1758.08333
2141.059	1635.41667
2143.7	1534.08333
2146.339	1443.75
2148.977	1350.08333
2151.613	1322.08333
2154.247	1273.08333
2156.879	1225.08333
2159.51	1198.75
2162.138	1168.75
2164.765	1153.08333
2167.39	1121.75
2170.013	1133.08333
2172.634	1119.75
2175.254	1097.75
2177.872	1132.08333
2180.488	1061.41667
2183.102	1065.41667
2185.714	1056.41667
2188.325	1035.08333
2190.934	1033.75
2193.541	1018.41667
2196.146	1004.41667
2198.75	993.41667
2201.351	985.75
2203.951	967.08333
2206.549	986.08333
2209.146	961.08333
2211.74	946.75
2214.333	958.75
2216.924	939.41667
2219.514	938.08333
2222.101	926.41667
2224.687	954.08333
2227.271	926.75
2229.853	919.41667
2232.433	912.75
2235.012	918.41667
2237.589	921.75
2240.164	918.08333
2242.738	903.08333
2245.309	893.41667
2247.879	895.41667
2250.448	900.08333
2253.014	864.41667
2255.579	868.08333
2258.142	860.41667
2260.703	847.08333
2263.262	844.75
2265.82	859.41667
2268.376	855.08333
2270.93	835.41667
2273.483	836.08333
2276.033	838.08333
2278.583	829.41667
2281.13	824.41667
2283.675	818.08333
2286.219	814.41667
2288.761	814.41667
2291.302	816.75
2293.841	823.08333
2296.377	796.41667
2298.913	808.75
2301.446	814.75
2303.978	798.08333
2306.508	802.41667
2309.037	799.41667
2311.563	805.41667
2314.088	811.75
2316.612	784.75
2319.133	802.41667
2321.653	793.41667
2324.171	778.08333
2326.688	785.08333
2329.202	779.41667
2331.715	794.41667
2334.227	785.41667
2336.736	768.41667
2339.244	774.75
2341.751	765.75
2344.255	772.41667
2346.758	777.41667
2349.259	751.41667
2351.759	770.41667
2354.257	756.75
2356.753	759.75
2359.247	760.75
2361.74	776.41667
2364.231	759.08333
2366.721	778.08333
2369.209	748.41667
2371.695	746.75
2374.179	759.08333
2376.662	741.41667
2379.143	770.41667
2381.622	758.08333
2384.1	758.75
2386.576	750.08333
2389.051	775.75
2391.524	757.41667
2393.995	765.41667
2396.464	747.08333
2398.932	735.08333
2401.398	741.75
2403.863	744.08333
2406.325	746.08333
2408.787	752.41667
2411.246	738.08333
2413.704	734.08333
2416.16	740.08333
2418.615	743.41667
2421.068	745.08333
2423.519	737.75
2425.969	729.08333
2428.417	741.75
2430.863	758.08333
2433.308	744.75
2435.751	738.41667
2438.193	736.08333
2440.633	744.08333
2443.071	752.41667
2445.508	729.41667
2447.943	731.75
2450.376	719.41667
2452.808	737.75
2455.238	726.75
2457.667	760.75
2460.093	720.08333
2462.519	719.75
2464.942	714.41667
2467.365	734.08333
2469.785	738.41667
2472.204	729.08333
2474.621	723.75
2477.037	728.41667
2479.451	704.75
2481.863	708.08333
2484.274	720.75
2486.683	718.41667
2489.091	717.75
2491.497	716.75
2493.901	714.08333
2496.304	710.41667
2498.705	723.08333
2501.105	703.75
2503.503	737.75
2505.899	708.41667
2508.294	739.08333
2510.687	703.41667
2513.079	714.75
2515.469	704.75
2517.858	710.75
2520.245	721.41667
2522.63	710.41667
2525.014	709.08333
2527.396	702.41667
2529.776	702.75
2532.156	713.75
2534.533	707.75
2536.909	697.08333
2539.283	688.75
2541.656	696.08333
2544.027	727.41667
2546.397	705.41667
2548.765	707.08333
2551.131	695.41667
2553.496	698.75
2555.86	699.75
2558.221	711.75
2560.582	693.75
2562.94	688.41667
2565.298	695.75
2567.653	709.41667
2570.007	677.75
2572.36	706.75
2574.711	699.75
2577.06	722.41667
2579.408	707.41667
2581.754	691.41667
2584.099	704.41667
2586.442	689.41667
2588.784	703.08333
2591.124	716.75
2593.463	700.75
2595.8	706.08333
2598.135	687.08333
2600.469	695.41667
2602.802	712.08333
2605.133	715.08333
2607.462	690.41667
2609.79	693.41667
2612.116	707.75
2614.441	703.08333
2616.764	705.08333
2619.086	697.08333
2621.406	702.41667
2623.725	710.75
2626.042	717.75
2628.358	704.41667
2630.672	700.08333
2632.985	717.08333
2635.296	716.41667
2637.606	714.75
2639.914	696.41667
2642.22	721.08333
2644.525	705.41667
2646.829	718.75
2649.131	728.75
2651.432	733.08333
2653.731	719.41667
2656.028	739.08333
2658.324	726.08333
2660.619	717.41667
2662.912	741.08333
2665.204	720.75
2667.494	740.41667
2669.782	727.75
2672.07	746.08333
2674.355	738.75
2676.639	726.75
2678.922	735.08333
2681.203	733.08333
2683.483	722.41667
2685.761	733.41667
2688.038	745.75
2690.313	761.41667
2692.587	751.41667
2694.859	741.41667
2697.13	748.08333
2699.399	755.08333
2701.667	760.75
2703.933	768.75
2706.198	770.41667
2708.461	775.08333
2710.723	785.08333
2712.984	784.75
2715.243	791.75
2717.5	791.41667
2719.757	803.41667
2722.011	785.08333
2724.264	803.75
2726.516	830.41667
2728.766	805.75
2731.015	806.75
2733.262	807.41667
2735.508	804.41667
2737.753	793.41667
2739.996	794.08333
2742.237	788.41667
2744.477	797.08333
2746.716	794.41667
2748.953	781.75
2751.189	775.08333
2753.423	771.75
2755.656	791.08333
2757.887	768.08333
2760.117	774.41667
2762.346	778.08333
2764.573	765.75
2766.798	774.41667
2769.022	777.41667
2771.245	781.75
2773.467	779.75
2775.686	782.41667
2777.905	796.08333
2780.122	803.08333
2782.337	815.75
2784.552	808.41667
2786.764	821.75
2788.976	819.41667
2791.186	834.75
2793.394	854.08333
2795.601	854.75
2797.807	869.08333
2800.011	872.41667
2802.214	896.08333
2804.415	893.41667
2806.615	893.41667
2808.814	930.08333
2811.011	926.08333
2813.206	938.41667
2815.401	941.75
2817.594	958.41667
2819.785	980.75
2821.975	976.41667
2824.164	980.41667
2826.351	1005.41667
2828.537	1025.75
2830.722	1042.75
2832.905	1060.08333
2835.086	1093.08333
2837.267	1131.41667
2839.445	1166.08333
2841.623	1200.75
2843.799	1219.75
2845.974	1270.75
2848.147	1330.08333
2850.319	1348.41667
2852.489	1377.41667
2854.659	1396.75
2856.826	1422.75
2858.993	1439.08333
2861.158	1433.08333
2863.321	1435.41667
2865.483	1470.41667
2867.644	1441.41667
2869.804	1458.75
2871.962	1429.08333
2874.118	1435.41667
2876.274	1439.08333
2878.428	1422.75
2880.58	1422.08333
2882.731	1399.08333
2884.881	1412.75
2887.03	1421.75
2889.177	1421.41667
2891.322	1414.75
2893.467	1413.75
2895.61	1424.75
2897.751	1458.08333
2899.892	1458.41667
2902.03	1461.08333
2904.168	1478.41667
2906.304	1460.75
2908.439	1495.08333
2910.572	1453.41667
2912.704	1475.08333
2914.835	1491.75
2916.965	1471.41667
2919.093	1496.41667
2921.219	1431.75
2923.345	1472.08333
2925.469	1446.08333
2927.591	1420.41667
2929.712	1379.41667
2931.832	1380.08333
2933.951	1337.41667
2936.068	1305.08333
2938.184	1277.75
2940.299	1237.75
2942.412	1206.41667
2944.524	1166.08333
2946.634	1154.41667
2948.744	1088.41667
2950.851	1096.41667
2952.958	1054.41667
2955.063	1039.08333
2957.167	1033.75
2959.269	1000.75
2961.371	1005.08333
2963.471	960.08333
2965.569	959.75
2967.666	937.75
2969.762	910.08333
2971.857	884.75
2973.95	865.08333
2976.042	844.41667
2978.133	837.75
2980.222	812.75
2982.31	782.08333
2984.396	760.08333
2986.482	758.75
2988.566	762.75
2990.648	751.41667
2992.73	746.08333
2994.81	734.08333
2996.889	739.41667
2998.966	719.08333
3001.042	725.75
3003.117	725.75
3005.191	728.75
3007.263	708.08333
3009.334	701.41667
3011.403	701.75
3013.472	673.08333
3015.539	674.41667
3017.604	686.08333
3019.669	640.75
3021.732	641.41667
3023.794	654.41667
3025.854	618.41667
3027.914	627.08333
3029.971	639.75
3032.028	629.41667
3034.083	629.41667
3036.137	612.41667
3038.19	599.75
3040.242	596.75
3042.292	570.08333
3044.341	560.75
3046.388	578.08333
3048.435	550.75
3050.48	559.41667
3052.524	560.41667
3054.566	538.08333
3056.607	543.75
3058.647	531.75
3060.686	519.75
3062.723	487.41667
3064.759	481.41667
3066.794	1.41667
3068.828	-0.91667
3070.86	-0.91667
