-0.839	376.83333
3.438	421.16667
7.711	122.83333
11.981	54.5
16.247	42.16667
20.509	40.5
24.768	40.16667
29.024	45.5
33.276	42.83333
37.524	46.16667
41.769	35.83333
46.01	34.5
50.247	51.5
54.481	57.83333
58.712	61.16667
62.939	47.83333
67.162	56.83333
71.382	56.16667
75.599	43.83333
79.812	63.16667
84.021	78.16667
88.227	56.83333
92.429	57.16667
96.628	46.83333
100.823	61.5
105.015	71.16667
109.204	68.5
113.388	68.83333
117.57	64.83333
121.748	78.16667
125.922	71.83333
130.093	87.5
134.261	88.16667
138.425	79.16667
142.585	122.5
146.742	118.5
150.896	136.5
155.046	160.5
159.193	254.16667
163.336	419.16667
167.476	764.5
171.613	1414.5
175.746	2372.16667
179.875	3557.16667
184.002	4660.5
188.124	5412.83333
192.244	5711.5
196.36	5690.83333
200.472	5515.5
204.581	5369.83333
208.687	5248.16667
212.79	5169.83333
216.889	5149.16667
220.984	5198.5
225.077	5209.16667
229.165	5232.83333
233.251	5239.5
237.333	5259.5
241.412	5211.16667
245.487	5220.5
249.559	5142.83333
253.628	5119.83333
257.694	5062.83333
261.756	5071.5
265.814	4955.16667
269.87	4873.5
273.922	4788.16667
277.97	4802.5
282.016	4780.5
286.058	4824.5
290.097	4894.16667
294.132	5018.5
298.164	4919.83333
302.193	4729.5
306.219	4398.5
310.241	4024.83333
314.26	3691.83333
318.276	3416.16667
322.288	3205.16667
326.297	2999.5
330.303	2907.83333
334.305	2837.83333
338.305	2750.5
342.301	2729.83333
346.294	2686.5
350.283	2654.83333
354.269	2628.83333
358.252	2609.83333
362.232	2578.5
366.209	2570.83333
370.182	2524.83333
374.152	2522.5
378.119	2489.83333
382.083	2501.16667
386.043	2493.5
390	2484.5
393.954	2477.83333
397.905	2451.83333
401.852	2475.16667
405.797	2438.5
409.738	2416.5
413.676	2396.16667
417.61	2401.5
421.542	2402.16667
425.47	2376.83333
429.396	2367.83333
433.318	2351.5
437.236	2337.5
441.152	2349.16667
445.065	2290.83333
448.974	2288.83333
452.88	2271.16667
456.783	2254.83333
460.683	2266.5
464.58	2260.16667
468.473	2242.5
472.364	2260.5
476.251	2263.16667
480.135	2318.16667
484.016	2329.83333
487.894	2344.16667
491.769	2356.83333
495.641	2376.5
499.509	2385.16667
503.375	2392.5
507.237	2399.83333
511.096	2476.16667
514.952	2719.5
518.805	3022.83333
522.655	3156.16667
526.502	2711.83333
530.346	2420.16667
534.187	2380.83333
538.024	2375.16667
541.859	2352.5
545.69	2362.83333
549.519	2337.16667
553.344	2322.16667
557.166	2284.16667
560.985	2238.5
564.802	2225.5
568.615	2188.16667
572.425	2179.83333
576.232	2161.5
580.036	2160.16667
583.836	2167.5
587.634	2163.5
591.429	2178.16667
595.221	2211.16667
599.01	2224.83333
602.796	2249.83333
606.578	2294.83333
610.358	2272.16667
614.135	2267.5
617.909	2264.5
621.679	2229.16667
625.447	2211.83333
629.212	2227.5
632.973	2231.83333
636.732	2210.5
640.488	2207.16667
644.241	2176.16667
647.991	2192.5
651.737	2216.83333
655.481	2185.5
659.222	2191.16667
662.96	2182.83333
666.695	2209.16667
670.427	2216.16667
674.156	2231.83333
677.882	2238.83333
681.605	2186.83333
685.325	2182.16667
689.043	2187.16667
692.757	2165.83333
696.468	2171.16667
700.177	2178.16667
703.882	2153.5
707.585	2142.83333
711.284	2164.16667
714.981	2186.16667
718.675	2178.16667
722.366	2168.16667
726.054	2157.5
729.739	2168.83333
733.421	2181.16667
737.1	2167.83333
740.777	2178.83333
744.45	2185.16667
748.121	2212.16667
751.789	2235.83333
755.453	2238.83333
759.115	2246.5
762.774	2250.16667
766.431	2270.5
770.084	2303.5
773.734	2317.16667
777.382	2360.83333
781.027	2361.83333
784.669	2391.83333
788.308	2388.16667
791.944	2408.83333
795.577	2446.83333
799.208	2429.83333
802.835	2447.83333
806.46	2459.5
810.082	2488.5
813.701	2498.83333
817.317	2527.16667
820.931	2517.83333
824.542	2501.16667
828.149	2490.5
831.754	2452.16667
835.357	2426.16667
838.956	2440.5
842.553	2435.5
846.146	2419.83333
849.737	2382.83333
853.326	2404.5
856.911	2402.16667
860.493	2424.16667
864.073	2455.5
867.65	2483.16667
871.225	2521.5
874.796	2511.16667
878.365	2526.5
881.931	2542.83333
885.494	2555.5
889.054	2564.16667
892.612	2590.83333
896.166	2540.5
899.719	2516.5
903.268	2493.5
906.814	2472.5
910.358	2485.5
913.899	2445.16667
917.438	2476.5
920.973	2452.16667
924.506	2503.5
928.036	2537.83333
931.564	2580.5
935.088	2605.5
938.61	2619.16667
942.129	2619.16667
945.646	2717.5
949.16	2766.16667
952.671	2806.83333
956.179	2819.83333
959.685	2787.5
963.188	2759.16667
966.688	2740.83333
970.185	2668.5
973.68	2610.83333
977.173	2581.83333
980.662	2530.5
984.149	2535.5
987.633	2496.5
991.114	2510.16667
994.593	2563.5
998.069	2623.83333
1001.542	2696.83333
1005.013	2636.5
1008.481	2493.5
1011.947	2450.5
1015.409	2439.83333
1018.869	2477.83333
1022.327	2466.16667
1025.782	2462.16667
1029.234	2439.5
1032.683	2403.5
1036.13	2348.16667
1039.574	2269.5
1043.016	2206.5
1046.455	2171.83333
1049.891	2169.5
1053.325	2167.83333
1056.756	2156.83333
1060.184	2181.16667
1063.61	2191.5
1067.033	2227.5
1070.454	2206.83333
1073.872	2253.83333
1077.287	2253.83333
1080.7	2258.5
1084.11	2247.83333
1087.517	2241.83333
1090.922	2218.16667
1094.325	2188.16667
1097.724	2172.16667
1101.122	2150.83333
1104.516	2165.5
1107.908	2177.16667
1111.298	2194.5
1114.684	2206.16667
1118.069	2248.16667
1121.45	2262.83333
1124.83	2260.5
1128.206	2321.16667
1131.58	2334.83333
1134.951	2391.16667
1138.32	2462.83333
1141.687	2542.5
1145.05	2594.5
1148.412	2609.16667
1151.77	2596.5
1155.126	2605.5
1158.48	2597.5
1161.831	2624.16667
1165.18	2628.5
1168.525	2678.16667
1171.869	2709.16667
1175.21	2707.83333
1178.548	2759.83333
1181.884	2777.83333
1185.217	2807.5
1188.548	2870.5
1191.877	2957.83333
1195.202	3049.16667
1198.526	3088.5
1201.846	3088.16667
1205.165	3095.16667
1208.48	3103.83333
1211.794	3071.5
1215.104	3117.5
1218.413	3114.83333
1221.719	3088.5
1225.022	3053.5
1228.323	3041.5
1231.621	2991.5
1234.917	2949.83333
1238.21	3003.16667
1241.501	2988.16667
1244.79	2959.5
1248.076	2949.5
1251.359	2980.5
1254.64	3065.16667
1257.919	3052.16667
1261.195	3095.16667
1264.468	3155.83333
1267.74	3157.16667
1271.008	3199.83333
1274.275	3165.16667
1277.538	3181.5
1280.8	3186.16667
1284.059	3168.5
1287.315	3205.83333
1290.569	3213.16667
1293.821	3269.83333
1297.07	3271.16667
1300.317	3304.83333
1303.562	3273.16667
1306.803	3240.16667
1310.043	3235.5
1313.28	3185.83333
1316.515	3155.16667
1319.747	3137.16667
1322.977	3072.5
1326.204	3057.16667
1329.429	3015.83333
1332.652	3014.16667
1335.872	3019.83333
1339.09	2964.5
1342.306	2952.83333
1345.519	2885.83333
1348.729	2852.5
1351.938	2826.16667
1355.144	2780.5
1358.347	2754.83333
1361.548	2749.83333
1364.747	2767.16667
1367.944	2735.16667
1371.138	2724.83333
1374.329	2733.5
1377.518	2727.5
1380.705	2776.16667
1383.89	2758.83333
1387.072	2665.83333
1390.252	2584.16667
1393.429	2520.16667
1396.605	2458.83333
1399.777	2405.16667
1402.948	2402.16667
1406.116	2374.5
1409.282	2394.83333
1412.445	2408.5
1415.606	2446.5
1418.765	2479.16667
1421.921	2520.16667
1425.075	2584.16667
1428.227	2668.5
1431.376	2756.16667
1434.524	2835.83333
1437.668	2933.5
1440.811	2946.5
1443.951	2954.5
1447.089	2958.83333
1450.224	2925.16667
1453.357	2933.16667
1456.488	2926.5
1459.617	2874.16667
1462.743	2841.5
1465.867	2796.16667
1468.989	2760.83333
1472.108	2723.16667
1475.225	2690.16667
1478.34	2657.5
1481.453	2659.5
1484.563	2653.5
1487.671	2684.83333
1490.776	2751.5
1493.88	2779.5
1496.981	2821.83333
1500.08	2861.83333
1503.176	2898.16667
1506.271	2938.5
1509.363	2976.83333
1512.452	3021.16667
1515.54	3068.16667
1518.625	3085.16667
1521.708	3192.16667
1524.789	3285.16667
1527.867	3420.83333
1530.944	3582.83333
1534.018	3740.5
1537.089	3866.16667
1540.159	3897.5
1543.226	3859.83333
1546.291	3784.5
1549.354	3690.16667
1552.415	3598.83333
1555.473	3501.83333
1558.529	3409.83333
1561.583	3406.16667
1564.634	3368.5
1567.684	3364.5
1570.731	3361.83333
1573.776	3407.16667
1576.819	3396.83333
1579.859	3438.16667
1582.898	3484.83333
1585.934	3516.5
1588.968	3545.83333
1591.999	3521.16667
1595.029	3508.16667
1598.056	3568.83333
1601.081	3586.5
1604.104	3577.83333
1607.125	3544.16667
1610.144	3435.5
1613.16	3337.5
1616.174	3272.83333
1619.186	3135.83333
1622.196	3101.16667
1625.203	3007.83333
1628.209	2971.83333
1631.212	2956.83333
1634.213	2933.16667
1637.212	2889.16667
1640.209	2843.5
1643.203	2776.5
1646.196	2673.5
1649.186	2587.16667
1652.174	2510.16667
1655.16	2430.83333
1658.144	2371.83333
1661.125	2255.16667
1664.105	2160.16667
1667.082	2074.5
1670.057	1967.83333
1673.03	1863.16667
1676.001	1752.5
1678.97	1642.5
1681.937	1561.16667
1684.901	1476.16667
1687.863	1435.16667
1690.824	1389.16667
1693.782	1379.83333
1696.738	1312.83333
1699.692	1293.83333
1702.643	1258.83333
1705.593	1245.5
1708.54	1231.16667
1711.486	1264.83333
1714.429	1218.16667
1717.37	1211.16667
1720.309	1174.16667
1723.246	1195.83333
1726.181	1170.5
1729.113	1151.83333
1732.044	1158.83333
1734.972	1140.16667
1737.899	1160.5
1740.823	1131.5
1743.745	1138.83333
1746.665	1098.5
1749.583	1100.5
1752.499	1092.5
1755.413	1063.83333
1758.325	1040.16667
1761.235	1034.5
1764.142	1008.5
1767.048	1015.5
1769.951	1012.83333
1772.852	989.5
1775.752	983.5
1778.649	990.5
1781.544	990.16667
1784.437	970.83333
1787.328	990.16667
1790.217	972.16667
1793.104	966.5
1795.989	943.83333
1798.872	932.83333
1801.753	966.16667
1804.631	975.5
1807.508	962.5
1810.383	962.16667
1813.255	947.83333
1816.126	949.5
1818.994	952.16667
1821.861	947.5
1824.725	943.16667
1827.587	945.16667
1830.448	933.83333
1833.306	916.16667
1836.162	933.5
1839.017	916.83333
1841.869	931.83333
1844.719	912.16667
1847.567	901.5
1850.414	901.16667
1853.258	903.5
1856.1	927.83333
1858.94	927.5
1861.778	920.5
1864.614	911.16667
1867.448	912.5
1870.28	887.83333
1873.111	923.16667
1875.939	906.5
1878.765	931.83333
1881.589	899.5
1884.411	901.5
1887.231	920.83333
1890.049	907.16667
1892.865	916.5
1895.68	891.83333
1898.492	914.83333
1901.302	878.5
1904.11	884.83333
1906.916	878.16667
1909.721	884.5
1912.523	894.16667
1915.323	868.83333
1918.122	875.16667
1920.918	884.83333
1923.712	877.5
1926.505	884.5
1929.295	859.5
1932.084	882.16667
1934.87	889.16667
1937.655	865.16667
1940.438	868.5
1943.218	866.5
1945.997	881.83333
1948.774	891.16667
1951.549	878.16667
1954.322	877.16667
1957.093	876.5
1959.862	868.5
1962.629	869.5
1965.394	862.5
1968.157	851.16667
1970.918	876.5
1973.678	852.83333
1976.435	876.16667
1979.19	857.5
1981.944	847.5
1984.696	857.83333
1987.445	843.5
1990.193	855.5
1992.939	867.5
1995.683	848.5
1998.425	845.5
2001.165	884.5
2003.903	856.5
2006.639	841.16667
2009.374	834.5
2012.106	860.16667
2014.837	829.83333
2017.566	862.5
2020.292	864.83333
2023.017	864.5
2025.74	854.5
2028.461	844.83333
2031.18	860.83333
2033.898	836.83333
2036.613	843.83333
2039.327	859.5
2042.038	842.5
2044.748	847.16667
2047.456	845.5
2050.162	827.5
2052.866	837.83333
2055.568	855.5
2058.268	851.16667
2060.967	845.16667
2063.663	833.83333
2066.358	858.5
2069.051	839.16667
2071.742	836.5
2074.431	857.16667
2077.118	833.16667
2079.804	836.5
2082.487	860.5
2085.169	862.83333
2087.849	867.16667
2090.527	850.5
2093.203	876.16667
2095.877	877.16667
2098.55	879.83333
2101.22	881.16667
2103.889	912.83333
2106.556	894.16667
2109.221	939.5
2111.884	966.5
2114.546	1014.16667
2117.205	1061.5
2119.863	1138.83333
2122.519	1192.83333
2125.173	1236.5
2127.825	1295.16667
2130.475	1298.5
2133.124	1257.16667
2135.771	1218.5
2138.416	1190.16667
2141.059	1125.83333
2143.7	1097.16667
2146.339	1041.5
2148.977	1011.5
2151.613	993.16667
2154.247	984.16667
2156.879	961.83333
2159.51	934.83333
2162.138	926.16667
2164.765	926.5
2167.39	907.5
2170.013	926.16667
2172.634	914.5
2175.254	906.16667
2177.872	931.83333
2180.488	878.16667
2183.102	910.5
2185.714	884.5
2188.325	864.83333
2190.934	881.83333
2193.541	881.16667
2196.146	877.16667
2198.75	864.5
2201.351	875.5
2203.951	856.83333
2206.549	870.5
2209.146	850.5
2211.74	845.16667
2214.333	853.83333
2216.924	847.83333
2219.514	852.16667
2222.101	847.83333
2224.687	866.16667
2227.271	838.5
2229.853	832.5
2232.433	837.16667
2235.012	870.83333
2237.589	859.5
2240.164	869.83333
2242.738	849.83333
2245.309	842.5
2247.879	861.16667
2250.448	869.83333
2253.014	825.5
2255.579	807.5
2258.142	836.5
2260.703	829.16667
2263.262	840.16667
2265.82	837.5
2268.376	831.16667
2270.93	816.16667
2273.483	828.16667
2276.033	830.5
2278.583	833.83333
2281.13	824.5
2283.675	822.16667
2286.219	830.5
2288.761	828.5
2291.302	840.5
2293.841	833.16667
2296.377	819.16667
2298.913	837.83333
2301.446	841.5
2303.978	839.16667
2306.508	833.83333
2309.037	848.16667
2311.563	849.5
2314.088	850.83333
2316.612	822.5
2319.133	837.5
2321.653	840.83333
2324.171	831.83333
2326.688	849.83333
2329.202	838.5
2331.715	848.83333
2334.227	837.16667
2336.736	839.83333
2339.244	834.83333
2341.751	838.83333
2344.255	845.83333
2346.758	841.5
2349.259	842.5
2351.759	857.16667
2354.257	838.83333
2356.753	846.16667
2359.247	850.16667
2361.74	852.16667
2364.231	862.5
2366.721	877.5
2369.209	859.16667
2371.695	851.16667
2374.179	866.5
2376.662	859.16667
2379.143	874.16667
2381.622	861.5
2384.1	886.83333
2386.576	865.5
2389.051	883.83333
2391.524	894.16667
2393.995	888.83333
2396.464	874.83333
2398.932	868.83333
2401.398	886.5
2403.863	880.83333
2406.325	880.16667
2408.787	884.5
2411.246	882.83333
2413.704	883.16667
2416.16	884.16667
2418.615	888.5
2421.068	898.16667
2423.519	888.83333
2425.969	890.5
2428.417	916.16667
2430.863	917.16667
2433.308	920.5
2435.751	916.16667
2438.193	904.83333
2440.633	911.5
2443.071	921.16667
2445.508	906.5
2447.943	906.83333
2450.376	902.5
2452.808	932.16667
2455.238	921.5
2457.667	948.5
2460.093	935.5
2462.519	921.16667
2464.942	920.16667
2467.365	944.16667
2469.785	929.5
2472.204	945.5
2474.621	947.83333
2477.037	957.5
2479.451	925.83333
2481.863	935.83333
2484.274	935.16667
2486.683	953.16667
2489.091	936.16667
2491.497	944.83333
2493.901	957.16667
2496.304	967.16667
2498.705	964.83333
2501.105	954.16667
2503.503	989.5
2505.899	959.83333
2508.294	981.5
2510.687	970.83333
2513.079	969.83333
2515.469	962.83333
2517.858	958.16667
2520.245	992.5
2522.63	987.16667
2525.014	981.5
2527.396	976.5
2529.776	982.5
2532.156	1000.83333
2534.533	974.83333
2536.909	984.16667
2539.283	976.16667
2541.656	991.16667
2544.027	1019.5
2546.397	1003.16667
2548.765	1020.5
2551.131	1004.5
2553.496	1015.5
2555.86	1008.5
2558.221	1005.83333
2560.582	1014.83333
2562.94	1002.83333
2565.298	1010.5
2567.653	1036.16667
2570.007	1003.16667
2572.36	1027.83333
2574.711	1030.16667
2577.06	1061.83333
2579.408	1044.16667
2581.754	1048.16667
2584.099	1049.83333
2586.442	1057.5
2588.784	1051.83333
2591.124	1069.5
2593.463	1060.83333
2595.8	1070.83333
2598.135	1043.83333
2600.469	1062.5
2602.802	1084.16667
2605.133	1078.5
2607.462	1063.16667
2609.79	1061.83333
2612.116	1065.16667
2614.441	1072.83333
2616.764	1085.5
2619.086	1089.16667
2621.406	1088.83333
2623.725	1112.83333
2626.042	1103.16667
2628.358	1098.83333
2630.672	1106.16667
2632.985	1124.83333
2635.296	1121.5
2637.606	1107.83333
2639.914	1113.16667
2642.22	1145.16667
2644.525	1136.5
2646.829	1147.83333
2649.131	1164.5
2651.432	1160.16667
2653.731	1167.83333
2656.028	1187.16667
2658.324	1164.16667
2660.619	1173.5
2662.912	1175.83333
2665.204	1170.5
2667.494	1192.83333
2669.782	1182.5
2672.07	1176.83333
2674.355	1200.16667
2676.639	1188.16667
2678.922	1192.5
2681.203	1207.83333
2683.483	1176.16667
2685.761	1186.83333
2688.038	1203.5
2690.313	1220.5
2692.587	1211.16667
2694.859	1205.5
2697.13	1205.5
2699.399	1221.16667
2701.667	1235.83333
2703.933	1244.16667
2706.198	1254.83333
2708.461	1244.5
2710.723	1273.83333
2712.984	1257.5
2715.243	1280.83333
2717.5	1262.83333
2719.757	1299.16667
2722.011	1281.83333
2724.264	1304.83333
2726.516	1316.16667
2728.766	1307.16667
2731.015	1316.5
2733.262	1320.5
2735.508	1323.5
2737.753	1315.5
2739.996	1315.5
2742.237	1303.83333
2744.477	1330.16667
2746.716	1317.5
2748.953	1307.16667
2751.189	1314.5
2753.423	1304.83333
2755.656	1314.83333
2757.887	1311.5
2760.117	1318.16667
2762.346	1313.83333
2764.573	1307.16667
2766.798	1318.16667
2769.022	1323.5
2771.245	1331.83333
2773.467	1341.83333
2775.686	1343.16667
2777.905	1338.16667
2780.122	1357.5
2782.337	1377.83333
2784.552	1361.16667
2786.764	1385.5
2788.976	1392.16667
2791.186	1400.16667
2793.394	1399.5
2795.601	1421.5
2797.807	1441.5
2800.011	1438.83333
2802.214	1445.83333
2804.415	1448.83333
2806.615	1450.5
2808.814	1487.5
2811.011	1479.5
2813.206	1460.16667
2815.401	1489.16667
2817.594	1494.83333
2819.785	1500.83333
2821.975	1488.5
2824.164	1520.16667
2826.351	1506.5
2828.537	1537.5
2830.722	1556.16667
2832.905	1558.83333
2835.086	1578.83333
2837.267	1622.5
2839.445	1645.16667
2841.623	1658.5
2843.799	1699.16667
2845.974	1731.16667
2848.147	1764.5
2850.319	1774.83333
2852.489	1817.83333
2854.659	1818.83333
2856.826	1849.5
2858.993	1866.83333
2861.158	1856.83333
2863.321	1850.83333
2865.483	1876.16667
2867.644	1866.5
2869.804	1859.16667
2871.962	1850.5
2874.118	1854.83333
2876.274	1848.5
2878.428	1848.83333
2880.58	1835.5
2882.731	1812.83333
2884.881	1822.16667
2887.03	1832.83333
2889.177	1836.5
2891.322	1840.5
2893.467	1840.16667
2895.61	1838.16667
2897.751	1898.5
2899.892	1864.16667
2902.03	1883.83333
2904.168	1891.83333
2906.304	1894.5
2908.439	1936.5
2910.572	1894.16667
2912.704	1930.83333
2914.835	1928.5
2916.965	1935.5
2919.093	1937.83333
2921.219	1903.16667
2923.345	1925.16667
2925.469	1901.16667
2927.591	1883.83333
2929.712	1864.16667
2931.832	1838.83333
2933.951	1829.5
2936.068	1811.16667
2938.184	1779.16667
2940.299	1745.5
2942.412	1741.5
2944.524	1712.16667
2946.634	1696.5
2948.744	1659.5
2950.851	1695.83333
2952.958	1642.83333
2955.063	1650.83333
2957.167	1632.16667
2959.269	1623.16667
2961.371	1651.5
2963.471	1604.5
2965.569	1617.5
2967.666	1608.83333
2969.762	1590.16667
2971.857	1557.5
2973.95	1572.16667
2976.042	1548.16667
2978.133	1522.16667
2980.222	1512.83333
2982.31	1464.5
2984.396	1444.83333
2986.482	1460.83333
2988.566	1468.5
2990.648	1456.5
2992.73	1443.5
2994.81	1433.83333
2996.889	1444.5
2998.966	1439.16667
3001.042	1456.5
3003.117	1444.5
3005.191	1456.83333
3007.263	1426.5
3009.334	1416.16667
3011.403	1434.5
3013.472	1394.83333
3015.539	1372.83333
3017.604	1390.5
3019.669	1349.5
3021.732	1328.5
3023.794	1371.83333
3025.854	1347.83333
3027.914	1342.83333
3029.971	1357.16667
3032.028	1347.5
3034.083	1354.83333
3036.137	1333.83333
3038.19	1287.83333
3040.242	1272.16667
3042.292	1230.16667
3044.341	1226.83333
3046.388	1238.83333
3048.435	1204.16667
3050.48	1228.83333
3052.524	1202.16667
3054.566	1189.5
3056.607	1169.5
3058.647	1163.16667
3060.686	1125.16667
3062.723	1095.83333
3064.759	1049.16667
3066.794	1.16667
3068.828	-2.16667
3070.86	-0.83333
