-0.839	400.83333
3.438	439.83333
7.711	129.83333
11.981	47.83333
16.247	43.5
20.509	48.5
24.768	41.83333
29.024	41.16667
33.276	41.16667
37.524	44.5
41.769	40.16667
46.01	36.5
50.247	50.83333
54.481	58.83333
58.712	67.16667
62.939	44.5
67.162	61.5
71.382	54.16667
75.599	44.83333
79.812	61.5
84.021	83.5
88.227	56.83333
92.429	60.16667
96.628	48.83333
100.823	65.83333
105.015	73.5
109.204	76.16667
113.388	72.5
117.57	73.83333
121.748	86.16667
125.922	80.83333
130.093	94.5
134.261	104.5
138.425	94.16667
142.585	138.16667
146.742	134.16667
150.896	159.5
155.046	192.83333
159.193	320.16667
163.336	548.5
167.476	999.83333
171.613	1862.16667
175.746	3069.16667
179.875	4558.5
184.002	5916.5
188.124	6776.16667
192.244	7081.5
196.36	6904.16667
200.472	6634.83333
204.581	6366.83333
208.687	6100.83333
212.79	5928.5
216.889	5882.83333
220.984	5870.83333
225.077	5841.5
229.165	5828.16667
233.251	5828.16667
237.333	5786.83333
241.412	5752.83333
245.487	5673.5
249.559	5592.83333
253.628	5537.5
257.694	5476.5
261.756	5428.5
265.814	5323.16667
269.87	5135.5
273.922	5025.5
277.97	4963.16667
282.016	4940.16667
286.058	4969.16667
290.097	5060.5
294.132	5100.16667
298.164	5031.5
302.193	4811.16667
306.219	4452.83333
310.241	4047.83333
314.26	3660.16667
318.276	3370.5
322.288	3152.83333
326.297	2947.16667
330.303	2828.5
334.305	2751.16667
338.305	2657.83333
342.301	2615.16667
346.294	2590.5
350.283	2545.16667
354.269	2509.5
358.252	2506.83333
362.232	2485.16667
366.209	2436.83333
370.182	2410.16667
374.152	2388.16667
378.119	2388.16667
382.083	2385.83333
386.043	2398.83333
390	2359.83333
393.954	2331.5
397.905	2324.5
401.852	2334.5
405.797	2291.83333
409.738	2256.83333
413.676	2248.16667
417.61	2248.5
421.542	2221.16667
425.47	2212.83333
429.396	2171.83333
433.318	2156.5
437.236	2158.5
441.152	2168.83333
445.065	2114.83333
448.974	2114.5
452.88	2072.5
456.783	2067.83333
460.683	2052.83333
464.58	2060.16667
468.473	2061.5
472.364	2069.16667
476.251	2062.16667
480.135	2082.16667
484.016	2091.83333
487.894	2120.16667
491.769	2134.83333
495.641	2133.83333
499.509	2117.16667
503.375	2136.83333
507.237	2128.5
511.096	2149.83333
514.952	2258.83333
518.805	2321.83333
522.655	2374.16667
526.502	2211.5
530.346	2129.5
534.187	2130.16667
538.024	2121.16667
541.859	2110.83333
545.69	2129.5
549.519	2139.83333
553.344	2099.16667
557.166	2073.5
560.985	2055.5
564.802	2018.83333
568.615	1986.5
572.425	1962.83333
576.232	1947.16667
580.036	1956.16667
583.836	1940.83333
587.634	1937.83333
591.429	1960.16667
595.221	2001.16667
599.01	2021.5
602.796	2042.83333
606.578	2049.5
610.358	2067.5
614.135	2025.83333
617.909	2031.83333
621.679	2022.16667
625.447	1989.16667
629.212	2003.83333
632.973	2002.83333
636.732	2007.83333
640.488	2030.16667
644.241	1982.16667
647.991	1981.5
651.737	1997.16667
655.481	1968.83333
659.222	1951.16667
662.96	1954.5
666.695	1988.16667
670.427	2002.83333
674.156	2004.16667
677.882	1992.5
681.605	2002.16667
685.325	1985.16667
689.043	1984.5
692.757	1976.83333
696.468	1975.83333
700.177	1969.83333
703.882	1943.16667
707.585	1944.16667
711.284	1957.83333
714.981	1972.5
718.675	1977.83333
722.366	1998.16667
726.054	1974.5
729.739	1967.5
733.421	1977.5
737.1	1969.5
740.777	2018.5
744.45	2009.5
748.121	2006.16667
751.789	2076.83333
755.453	2059.5
759.115	2069.83333
762.774	2086.16667
766.431	2111.83333
770.084	2136.5
773.734	2122.5
777.382	2191.16667
781.027	2205.5
784.669	2223.16667
788.308	2216.16667
791.944	2258.5
795.577	2260.16667
799.208	2287.16667
802.835	2306.16667
806.46	2314.16667
810.082	2316.16667
813.701	2325.16667
817.317	2351.83333
820.931	2352.5
824.542	2370.16667
828.149	2345.5
831.754	2318.16667
835.357	2334.83333
838.956	2329.16667
842.553	2301.83333
846.146	2302.5
849.737	2296.16667
853.326	2313.5
856.911	2318.83333
860.493	2348.16667
864.073	2360.16667
867.65	2406.16667
871.225	2439.83333
874.796	2424.16667
878.365	2425.16667
881.931	2458.5
885.494	2466.83333
889.054	2477.83333
892.612	2475.5
896.166	2480.5
899.719	2442.5
903.268	2400.16667
906.814	2386.5
910.358	2364.83333
913.899	2346.16667
917.438	2379.16667
920.973	2339.83333
924.506	2376.5
928.036	2422.16667
931.564	2408.83333
935.088	2472.83333
938.61	2464.83333
942.129	2496.83333
945.646	2566.5
949.16	2613.16667
952.671	2673.16667
956.179	2687.5
959.685	2633.5
963.188	2620.83333
966.688	2579.5
970.185	2506.83333
973.68	2487.83333
977.173	2455.5
980.662	2447.5
984.149	2437.16667
987.633	2459.16667
991.114	2475.16667
994.593	2566.16667
998.069	2633.16667
1001.542	2714.16667
1005.013	2647.83333
1008.481	2525.83333
1011.947	2456.5
1015.409	2433.83333
1018.869	2454.83333
1022.327	2450.5
1025.782	2420.83333
1029.234	2413.83333
1032.683	2404.5
1036.13	2324.16667
1039.574	2240.83333
1043.016	2168.5
1046.455	2140.5
1049.891	2104.83333
1053.325	2128.5
1056.756	2126.5
1060.184	2155.83333
1063.61	2153.5
1067.033	2168.83333
1070.454	2168.83333
1073.872	2195.5
1077.287	2172.83333
1080.7	2191.5
1084.11	2202.83333
1087.517	2176.83333
1090.922	2146.5
1094.325	2139.16667
1097.724	2108.16667
1101.122	2136.5
1104.516	2091.83333
1107.908	2101.83333
1111.298	2159.5
1114.684	2169.16667
1118.069	2187.16667
1121.45	2230.16667
1124.83	2202.5
1128.206	2243.16667
1131.58	2294.16667
1134.951	2369.83333
1138.32	2445.83333
1141.687	2525.16667
1145.05	2604.83333
1148.412	2623.16667
1151.77	2610.5
1155.126	2613.83333
1158.48	2611.83333
1161.831	2623.83333
1165.18	2644.16667
1168.525	2682.16667
1171.869	2719.83333
1175.21	2727.83333
1178.548	2753.83333
1181.884	2765.83333
1185.217	2798.16667
1188.548	2867.5
1191.877	2905.16667
1195.202	2962.16667
1198.526	2980.16667
1201.846	2992.5
1205.165	2996.16667
1208.48	2984.5
1211.794	2970.5
1215.104	2975.83333
1218.413	2972.83333
1221.719	2981.83333
1225.022	2929.83333
1228.323	2926.83333
1231.621	2912.83333
1234.917	2879.5
1238.21	2930.16667
1241.501	2895.83333
1244.79	2890.83333
1248.076	2894.83333
1251.359	2933.16667
1254.64	2986.16667
1257.919	3036.16667
1261.195	3065.5
1264.468	3120.16667
1267.74	3180.16667
1271.008	3185.16667
1274.275	3150.83333
1277.538	3127.16667
1280.8	3133.5
1284.059	3102.16667
1287.315	3138.5
1290.569	3169.16667
1293.821	3198.83333
1297.07	3201.16667
1300.317	3230.16667
1303.562	3217.83333
1306.803	3176.5
1310.043	3148.16667
1313.28	3119.83333
1316.515	3071.83333
1319.747	3041.5
1322.977	3018.16667
1326.204	2970.5
1329.429	2897.83333
1332.652	2917.16667
1335.872	2883.83333
1339.09	2843.16667
1342.306	2833.83333
1345.519	2832.5
1348.729	2805.83333
1351.938	2766.16667
1355.144	2721.16667
1358.347	2712.83333
1361.548	2683.83333
1364.747	2735.16667
1367.944	2682.16667
1371.138	2710.83333
1374.329	2746.5
1377.518	2759.83333
1380.705	2801.5
1383.89	2792.5
1387.072	2701.5
1390.252	2596.83333
1393.429	2525.83333
1396.605	2437.16667
1399.777	2396.5
1402.948	2359.5
1406.116	2351.16667
1409.282	2353.5
1412.445	2357.16667
1415.606	2380.16667
1418.765	2415.16667
1421.921	2489.5
1425.075	2538.5
1428.227	2614.16667
1431.376	2732.5
1434.524	2814.16667
1437.668	2892.5
1440.811	2921.16667
1443.951	2964.5
1447.089	2943.16667
1450.224	2944.83333
1453.357	2909.16667
1456.488	2897.16667
1459.617	2858.83333
1462.743	2831.5
1465.867	2746.16667
1468.989	2724.83333
1472.108	2699.83333
1475.225	2633.16667
1478.34	2609.16667
1481.453	2601.16667
1484.563	2605.16667
1487.671	2654.83333
1490.776	2693.16667
1493.88	2770.83333
1496.981	2827.83333
1500.08	2873.83333
1503.176	2912.5
1506.271	2941.83333
1509.363	3005.5
1512.452	3024.5
1515.54	3058.16667
1518.625	3134.83333
1521.708	3236.5
1524.789	3367.83333
1527.867	3543.83333
1530.944	3724.5
1534.018	3926.16667
1537.089	4075.5
1540.159	4118.5
1543.226	4069.83333
1546.291	3953.16667
1549.354	3866.16667
1552.415	3743.16667
1555.473	3647.16667
1558.529	3582.83333
1561.583	3537.83333
1564.634	3479.16667
1567.684	3481.83333
1570.731	3481.83333
1573.776	3512.16667
1576.819	3542.5
1579.859	3547.16667
1582.898	3587.16667
1585.934	3623.83333
1588.968	3644.83333
1591.999	3603.5
1595.029	3611.5
1598.056	3649.83333
1601.081	3655.16667
1604.104	3630.83333
1607.125	3577.83333
1610.144	3538.83333
1613.16	3445.5
1616.174	3360.5
1619.186	3259.83333
1622.196	3197.83333
1625.203	3082.16667
1628.209	3036.16667
1631.212	2982.5
1634.213	2938.83333
1637.212	2921.16667
1640.209	2853.16667
1643.203	2779.83333
1646.196	2713.83333
1649.186	2611.5
1652.174	2569.5
1655.16	2484.16667
1658.144	2411.5
1661.125	2301.83333
1664.105	2202.16667
1667.082	2123.5
1670.057	2014.16667
1673.03	1869.83333
1676.001	1756.83333
1678.97	1639.83333
1681.937	1546.5
1684.901	1464.16667
1687.863	1411.83333
1690.824	1340.83333
1693.782	1324.16667
1696.738	1275.5
1699.692	1255.83333
1702.643	1216.83333
1705.593	1206.5
1708.54	1188.83333
1711.486	1189.5
1714.429	1146.83333
1717.37	1136.16667
1720.309	1119.5
1723.246	1128.5
1726.181	1088.83333
1729.113	1113.5
1732.044	1082.16667
1734.972	1082.5
1737.899	1073.5
1740.823	1078.5
1743.745	1071.16667
1746.665	1026.16667
1749.583	1003.16667
1752.499	999.16667
1755.413	979.5
1758.325	946.16667
1761.235	961.16667
1764.142	934.83333
1767.048	926.16667
1769.951	929.83333
1772.852	905.5
1775.752	911.5
1778.649	924.5
1781.544	911.5
1784.437	877.5
1787.328	903.83333
1790.217	884.83333
1793.104	855.83333
1795.989	856.16667
1798.872	861.16667
1801.753	877.16667
1804.631	879.16667
1807.508	867.5
1810.383	870.5
1813.255	858.16667
1816.126	854.16667
1818.994	847.16667
1821.861	846.83333
1824.725	845.16667
1827.587	846.83333
1830.448	840.5
1833.306	815.16667
1836.162	824.5
1839.017	824.16667
1841.869	825.5
1844.719	822.16667
1847.567	813.16667
1850.414	806.5
1853.258	805.16667
1856.1	813.5
1858.94	820.83333
1861.778	820.83333
1864.614	798.5
1867.448	810.83333
1870.28	782.83333
1873.111	822.83333
1875.939	809.16667
1878.765	815.16667
1881.589	794.83333
1884.411	792.16667
1887.231	802.83333
1890.049	794.5
1892.865	799.5
1895.68	785.16667
1898.492	795.83333
1901.302	779.16667
1904.11	787.83333
1906.916	770.16667
1909.721	773.5
1912.523	772.16667
1915.323	762.16667
1918.122	761.5
1920.918	772.5
1923.712	763.5
1926.505	756.16667
1929.295	756.16667
1932.084	768.5
1934.87	765.5
1937.655	752.16667
1940.438	753.5
1943.218	756.5
1945.997	753.83333
1948.774	761.16667
1951.549	767.16667
1954.322	752.5
1957.093	762.16667
1959.862	766.5
1962.629	745.16667
1965.394	729.83333
1968.157	718.5
1970.918	745.5
1973.678	722.83333
1976.435	742.16667
1979.19	726.83333
1981.944	719.16667
1984.696	726.83333
1987.445	717.16667
1990.193	713.83333
1992.939	739.5
1995.683	725.5
1998.425	714.83333
2001.165	733.16667
2003.903	725.16667
2006.639	721.16667
2009.374	717.83333
2012.106	730.83333
2014.837	694.16667
2017.566	717.83333
2020.292	720.16667
2023.017	724.83333
2025.74	707.83333
2028.461	705.16667
2031.18	717.5
2033.898	691.83333
2036.613	707.5
2039.327	720.83333
2042.038	697.83333
2044.748	708.16667
2047.456	714.16667
2050.162	686.83333
2052.866	687.16667
2055.568	709.83333
2058.268	695.83333
2060.967	701.5
2063.663	690.83333
2066.358	685.5
2069.051	678.16667
2071.742	682.83333
2074.431	697.16667
2077.118	700.5
2079.804	675.16667
2082.487	690.5
2085.169	700.16667
2087.849	717.5
2090.527	682.5
2093.203	704.5
2095.877	707.16667
2098.55	705.83333
2101.22	723.5
2103.889	724.5
2106.556	729.5
2109.221	753.5
2111.884	782.5
2114.546	836.83333
2117.205	887.83333
2119.863	973.83333
2122.519	1039.83333
2125.173	1087.83333
2127.825	1178.83333
2130.475	1177.5
2133.124	1138.83333
2135.771	1092.16667
2138.416	1061.5
2141.059	973.16667
2143.7	940.16667
2146.339	881.5
2148.977	839.16667
2151.613	831.83333
2154.247	791.16667
2156.879	772.16667
2159.51	749.83333
2162.138	734.5
2164.765	745.16667
2167.39	730.83333
2170.013	743.83333
2172.634	732.16667
2175.254	711.83333
2177.872	741.5
2180.488	694.83333
2183.102	706.83333
2185.714	696.16667
2188.325	676.5
2190.934	686.16667
2193.541	684.16667
2196.146	665.83333
2198.75	670.5
2201.351	660.16667
2203.951	641.16667
2206.549	677.5
2209.146	647.5
2211.74	647.16667
2214.333	667.5
2216.924	635.5
2219.514	642.16667
2222.101	637.5
2224.687	659.83333
2227.271	631.16667
2229.853	630.83333
2232.433	612.5
2235.012	635.83333
2237.589	638.16667
2240.164	625.5
2242.738	623.5
2245.309	625.5
2247.879	624.5
2250.448	624.16667
2253.014	614.5
2255.579	590.83333
2258.142	612.83333
2260.703	598.5
2263.262	583.16667
2265.82	597.16667
2268.376	607.16667
2270.93	580.83333
2273.483	584.16667
2276.033	599.83333
2278.583	585.5
2281.13	580.16667
2283.675	567.16667
2286.219	586.83333
2288.761	587.83333
2291.302	582.5
2293.841	591.5
2296.377	568.83333
2298.913	569.83333
2301.446	583.83333
2303.978	563.5
2306.508	574.5
2309.037	572.83333
2311.563	579.5
2314.088	581.5
2316.612	562.5
2319.133	582.16667
2321.653	576.16667
2324.171	565.5
2326.688	581.5
2329.202	570.83333
2331.715	576.5
2334.227	570.83333
2336.736	559.83333
2339.244	560.83333
2341.751	552.83333
2344.255	554.16667
2346.758	554.5
2349.259	550.16667
2351.759	562.16667
2354.257	553.83333
2356.753	546.83333
2359.247	556.16667
2361.74	556.83333
2364.231	557.16667
2366.721	563.5
2369.209	553.83333
2371.695	565.5
2374.179	548.16667
2376.662	550.16667
2379.143	562.5
2381.622	553.83333
2384.1	569.16667
2386.576	551.16667
2389.051	573.83333
2391.524	578.83333
2393.995	565.5
2396.464	564.16667
2398.932	550.16667
2401.398	553.16667
2403.863	557.83333
2406.325	551.83333
2408.787	550.83333
2411.246	562.16667
2413.704	556.16667
2416.16	555.5
2418.615	556.5
2421.068	562.5
2423.519	556.83333
2425.969	555.16667
2428.417	563.5
2430.863	578.16667
2433.308	564.83333
2435.751	559.83333
2438.193	550.16667
2440.633	564.83333
2443.071	554.83333
2445.508	549.83333
2447.943	551.83333
2450.376	542.16667
2452.808	549.83333
2455.238	545.16667
2457.667	580.5
2460.093	555.5
2462.519	545.5
2464.942	547.83333
2467.365	560.16667
2469.785	554.83333
2472.204	556.5
2474.621	550.5
2477.037	583.83333
2479.451	547.5
2481.863	544.16667
2484.274	542.16667
2486.683	554.16667
2489.091	554.5
2491.497	560.16667
2493.901	558.5
2496.304	548.83333
2498.705	558.5
2501.105	550.5
2503.503	585.16667
2505.899	547.83333
2508.294	570.83333
2510.687	555.5
2513.079	557.5
2515.469	548.16667
2517.858	547.16667
2520.245	571.5
2522.63	549.5
2525.014	554.5
2527.396	563.83333
2529.776	556.16667
2532.156	560.16667
2534.533	543.5
2536.909	548.5
2539.283	548.5
2541.656	557.16667
2544.027	577.5
2546.397	552.16667
2548.765	557.16667
2551.131	556.5
2553.496	571.83333
2555.86	566.5
2558.221	560.5
2560.582	564.16667
2562.94	551.83333
2565.298	559.83333
2567.653	583.16667
2570.007	554.83333
2572.36	572.5
2574.711	561.16667
2577.06	576.5
2579.408	564.83333
2581.754	566.16667
2584.099	557.83333
2586.442	577.83333
2588.784	566.16667
2591.124	574.83333
2593.463	570.83333
2595.8	568.83333
2598.135	576.83333
2600.469	575.16667
2602.802	581.16667
2605.133	584.5
2607.462	572.5
2609.79	561.16667
2612.116	582.5
2614.441	572.83333
2616.764	589.16667
2619.086	571.16667
2621.406	577.5
2623.725	587.16667
2626.042	586.83333
2628.358	567.16667
2630.672	591.83333
2632.985	601.5
2635.296	595.5
2637.606	597.5
2639.914	583.16667
2642.22	591.16667
2644.525	582.83333
2646.829	595.83333
2649.131	606.16667
2651.432	610.16667
2653.731	605.16667
2656.028	620.5
2658.324	607.16667
2660.619	592.83333
2662.912	626.83333
2665.204	600.83333
2667.494	624.83333
2669.782	616.16667
2672.07	621.16667
2674.355	631.83333
2676.639	609.83333
2678.922	612.16667
2681.203	627.83333
2683.483	614.5
2685.761	618.5
2688.038	631.16667
2690.313	638.5
2692.587	631.83333
2694.859	629.16667
2697.13	628.5
2699.399	637.16667
2701.667	640.83333
2703.933	653.83333
2706.198	647.83333
2708.461	663.83333
2710.723	664.16667
2712.984	659.16667
2715.243	680.83333
2717.5	653.5
2719.757	674.5
2722.011	672.83333
2724.264	696.16667
2726.516	708.83333
2728.766	687.83333
2731.015	683.83333
2733.262	682.83333
2735.508	687.16667
2737.753	683.5
2739.996	680.16667
2742.237	680.5
2744.477	691.83333
2746.716	693.5
2748.953	672.83333
2751.189	668.16667
2753.423	668.16667
2755.656	674.16667
2757.887	665.16667
2760.117	669.83333
2762.346	659.16667
2764.573	667.83333
2766.798	659.83333
2769.022	661.5
2771.245	674.5
2773.467	676.16667
2775.686	672.16667
2777.905	690.5
2780.122	687.5
2782.337	693.83333
2784.552	691.16667
2786.764	712.83333
2788.976	697.83333
2791.186	720.83333
2793.394	713.83333
2795.601	741.83333
2797.807	732.83333
2800.011	737.5
2802.214	755.16667
2804.415	751.16667
2806.615	753.5
2808.814	770.16667
2811.011	777.5
2813.206	767.83333
2815.401	794.16667
2817.594	804.83333
2819.785	823.5
2821.975	806.16667
2824.164	810.16667
2826.351	824.5
2828.537	860.5
2830.722	854.5
2832.905	872.83333
2835.086	898.5
2837.267	925.5
2839.445	958.5
2841.623	973.83333
2843.799	993.5
2845.974	1041.83333
2848.147	1068.83333
2850.319	1085.16667
2852.489	1119.16667
2854.659	1115.5
2856.826	1156.16667
2858.993	1178.16667
2861.158	1147.16667
2863.321	1161.83333
2865.483	1181.16667
2867.644	1167.5
2869.804	1165.5
2871.962	1152.5
2874.118	1171.83333
2876.274	1160.16667
2878.428	1143.16667
2880.58	1148.16667
2882.731	1142.16667
2884.881	1142.16667
2887.03	1152.16667
2889.177	1160.16667
2891.322	1168.16667
2893.467	1151.83333
2895.61	1175.5
2897.751	1186.83333
2899.892	1187.16667
2902.03	1182.5
2904.168	1208.16667
2906.304	1203.16667
2908.439	1222.16667
2910.572	1213.16667
2912.704	1217.83333
2914.835	1225.83333
2916.965	1231.83333
2919.093	1235.5
2921.219	1205.5
2923.345	1214.83333
2925.469	1194.5
2927.591	1196.5
2929.712	1157.16667
2931.832	1143.5
2933.951	1127.5
2936.068	1105.16667
2938.184	1085.16667
2940.299	1059.16667
2942.412	1043.16667
2944.524	1012.83333
2946.634	1014.83333
2948.744	953.5
2950.851	982.16667
2952.958	933.5
2955.063	934.5
2957.167	914.16667
2959.269	896.5
2961.371	917.5
2963.471	875.16667
2965.569	881.83333
2967.666	846.16667
2969.762	846.5
2971.857	824.83333
2973.95	810.5
2976.042	802.16667
2978.133	786.5
2980.222	768.16667
2982.31	754.83333
2984.396	744.83333
2986.482	744.16667
2988.566	747.83333
2990.648	729.5
2992.73	719.5
2994.81	716.16667
2996.889	716.83333
2998.966	712.83333
3001.042	717.83333
3003.117	713.5
3005.191	716.5
3007.263	708.5
3009.334	702.83333
3011.403	693.16667
3013.472	675.83333
3015.539	682.16667
3017.604	694.16667
3019.669	654.16667
3021.732	652.5
3023.794	657.83333
3025.854	642.16667
3027.914	630.83333
3029.971	645.83333
3032.028	644.83333
3034.083	626.16667
3036.137	640.16667
3038.19	617.16667
3040.242	594.83333
3042.292	588.83333
3044.341	578.5
3046.388	600.83333
3048.435	563.83333
3050.48	584.16667
3052.524	590.83333
3054.566	560.5
3056.607	572.5
3058.647	551.5
3060.686	532.83333
3062.723	527.16667
3064.759	503.16667
3066.794	0.83333
3068.828	-1.83333
3070.86	-2.16667
