-0.839	395.20833
3.438	422.54167
7.711	125.54167
11.981	52.875
16.247	45.875
20.509	47.875
24.768	46.54167
29.024	45.54167
33.276	44.20833
37.524	50.20833
41.769	47.875
46.01	41.875
50.247	51.20833
54.481	64.875
58.712	66.875
62.939	48.54167
67.162	60.54167
71.382	62.875
75.599	47.54167
79.812	62.54167
84.021	78.875
88.227	62.54167
92.429	67.54167
96.628	52.20833
100.823	68.20833
105.015	80.54167
109.204	82.54167
113.388	79.20833
117.57	79.20833
121.748	92.54167
125.922	86.20833
130.093	111.54167
134.261	110.54167
138.425	109.20833
142.585	150.875
146.742	147.875
150.896	181.875
155.046	220.875
159.193	349.20833
163.336	599.875
167.476	1109.875
171.613	2019.54167
175.746	3439.875
179.875	5153.20833
184.002	6749.875
188.124	7861.54167
192.244	8204.875
196.36	8188.875
200.472	7947.875
204.581	7746.54167
208.687	7581.54167
212.79	7498.875
216.889	7504.20833
220.984	7578.54167
225.077	7621.54167
229.165	7715.54167
233.251	7773.20833
237.333	7800.20833
241.412	7779.20833
245.487	7695.20833
249.559	7583.875
253.628	7525.20833
257.694	7428.20833
261.756	7355.54167
265.814	7178.20833
269.87	6992.875
273.922	6846.20833
277.97	6782.54167
282.016	6707.20833
286.058	6756.20833
290.097	6858.54167
294.132	6838.54167
298.164	6736.54167
302.193	6456.20833
306.219	5970.54167
310.241	5416.20833
314.26	4930.54167
318.276	4554.54167
322.288	4253.54167
326.297	3986.20833
330.303	3824.875
334.305	3742.875
338.305	3633.875
342.301	3577.54167
346.294	3534.20833
350.283	3462.20833
354.269	3444.20833
358.252	3427.20833
362.232	3407.20833
366.209	3371.20833
370.182	3357.20833
374.152	3345.20833
378.119	3348.54167
382.083	3334.54167
386.043	3353.875
390	3273.20833
393.954	3271.54167
397.905	3207.54167
401.852	3198.875
405.797	3179.875
409.738	3115.875
413.676	3121.875
417.61	3104.20833
421.542	3062.20833
425.47	3018.875
429.396	3001.875
433.318	2983.54167
437.236	2947.875
441.152	2981.54167
445.065	2904.20833
448.974	2939.875
452.88	2867.54167
456.783	2873.20833
460.683	2849.875
464.58	2854.875
468.473	2861.20833
472.364	2881.54167
476.251	2894.875
480.135	2900.875
484.016	2931.875
487.894	2949.875
491.769	2970.20833
495.641	2980.20833
499.509	2960.875
503.375	2959.875
507.237	2972.54167
511.096	2988.20833
514.952	3117.54167
518.805	3254.875
522.655	3276.20833
526.502	3059.875
530.346	2922.20833
534.187	2939.875
538.024	2938.54167
541.859	2922.875
545.69	2955.20833
549.519	2919.20833
553.344	2906.875
557.166	2858.54167
560.985	2837.875
564.802	2785.54167
568.615	2756.54167
572.425	2705.54167
576.232	2698.54167
580.036	2693.875
583.836	2693.875
587.634	2694.20833
591.429	2703.54167
595.221	2736.54167
599.01	2773.875
602.796	2821.875
606.578	2859.54167
610.358	2855.875
614.135	2818.54167
617.909	2814.875
621.679	2830.875
625.447	2776.20833
629.212	2781.54167
632.973	2800.20833
636.732	2796.875
640.488	2765.875
644.241	2760.875
647.991	2732.875
651.737	2760.20833
655.481	2715.20833
659.222	2734.875
662.96	2711.54167
666.695	2734.875
670.427	2762.875
674.156	2749.875
677.882	2781.20833
681.605	2721.875
685.325	2722.20833
689.043	2723.54167
692.757	2735.54167
696.468	2729.20833
700.177	2760.54167
703.882	2741.875
707.585	2727.20833
711.284	2757.875
714.981	2732.20833
718.675	2771.875
722.366	2797.20833
726.054	2773.54167
729.739	2743.54167
733.421	2772.875
737.1	2751.875
740.777	2779.54167
744.45	2811.20833
748.121	2834.20833
751.789	2879.875
755.453	2882.54167
759.115	2897.20833
762.774	2937.875
766.431	2966.54167
770.084	3007.875
773.734	3024.20833
777.382	3095.875
781.027	3129.20833
784.669	3138.20833
788.308	3162.20833
791.944	3175.20833
795.577	3226.54167
799.208	3265.875
802.835	3257.875
806.46	3266.54167
810.082	3284.54167
813.701	3269.875
817.317	3315.54167
820.931	3330.875
824.542	3341.54167
828.149	3308.54167
831.754	3281.20833
835.357	3266.54167
838.956	3277.20833
842.553	3283.875
846.146	3261.54167
849.737	3264.20833
853.326	3299.54167
856.911	3295.875
860.493	3328.875
864.073	3349.875
867.65	3403.20833
871.225	3462.875
874.796	3463.54167
878.365	3496.54167
881.931	3501.875
885.494	3528.54167
889.054	3529.20833
892.612	3531.20833
896.166	3526.20833
899.719	3490.54167
903.268	3456.875
906.814	3430.54167
910.358	3402.54167
913.899	3376.875
917.438	3397.54167
920.973	3383.54167
924.506	3432.20833
928.036	3467.54167
931.564	3485.875
935.088	3541.54167
938.61	3570.875
942.129	3587.54167
945.646	3691.54167
949.16	3768.54167
952.671	3842.54167
956.179	3882.875
959.685	3781.20833
963.188	3777.875
966.688	3697.875
970.185	3631.20833
973.68	3574.54167
977.173	3531.875
980.662	3538.54167
984.149	3551.875
987.633	3531.54167
991.114	3608.875
994.593	3718.20833
998.069	3822.875
1001.542	3947.54167
1005.013	3824.54167
1008.481	3627.875
1011.947	3538.875
1015.409	3546.875
1018.869	3562.54167
1022.327	3559.875
1025.782	3509.875
1029.234	3526.54167
1032.683	3460.54167
1036.13	3353.54167
1039.574	3217.20833
1043.016	3142.20833
1046.455	3089.875
1049.891	3036.54167
1053.325	3061.20833
1056.756	3046.54167
1060.184	3110.54167
1063.61	3097.54167
1067.033	3112.875
1070.454	3124.54167
1073.872	3134.54167
1077.287	3161.20833
1080.7	3150.875
1084.11	3161.54167
1087.517	3142.54167
1090.922	3125.54167
1094.325	3085.875
1097.724	3029.54167
1101.122	3043.20833
1104.516	3041.20833
1107.908	3073.875
1111.298	3101.20833
1114.684	3145.875
1118.069	3198.875
1121.45	3197.54167
1124.83	3211.54167
1128.206	3243.20833
1131.58	3333.20833
1134.951	3387.875
1138.32	3518.20833
1141.687	3659.20833
1145.05	3752.20833
1148.412	3764.20833
1151.77	3792.875
1155.126	3763.875
1158.48	3770.875
1161.831	3802.875
1165.18	3854.54167
1168.525	3885.20833
1171.869	3962.20833
1175.21	3975.20833
1178.548	4019.54167
1181.884	4035.20833
1185.217	4067.20833
1188.548	4137.875
1191.877	4222.54167
1195.202	4274.20833
1198.526	4349.875
1201.846	4382.54167
1205.165	4385.54167
1208.48	4352.875
1211.794	4333.875
1215.104	4334.20833
1218.413	4367.54167
1221.719	4337.875
1225.022	4313.54167
1228.323	4240.54167
1231.621	4270.54167
1234.917	4228.54167
1238.21	4277.875
1241.501	4251.54167
1244.79	4260.54167
1248.076	4276.20833
1251.359	4317.20833
1254.64	4390.20833
1257.919	4431.54167
1261.195	4503.54167
1264.468	4581.54167
1267.74	4638.20833
1271.008	4652.20833
1274.275	4643.20833
1277.538	4556.20833
1280.8	4558.54167
1284.059	4559.20833
1287.315	4574.54167
1290.569	4611.875
1293.821	4672.875
1297.07	4674.54167
1300.317	4687.54167
1303.562	4645.875
1306.803	4625.875
1310.043	4562.54167
1313.28	4495.54167
1316.515	4430.20833
1319.747	4419.54167
1322.977	4332.54167
1326.204	4324.875
1329.429	4229.54167
1332.652	4180.875
1335.872	4174.20833
1339.09	4176.20833
1342.306	4140.875
1345.519	4183.54167
1348.729	4113.875
1351.938	4083.54167
1355.144	4044.54167
1358.347	3981.20833
1361.548	3999.54167
1364.747	4018.54167
1367.944	3987.54167
1371.138	4021.54167
1374.329	4066.54167
1377.518	4091.20833
1380.705	4149.20833
1383.89	4099.875
1387.072	3991.20833
1390.252	3857.875
1393.429	3702.20833
1396.605	3597.20833
1399.777	3483.20833
1402.948	3472.875
1406.116	3477.54167
1409.282	3456.875
1412.445	3461.20833
1415.606	3510.54167
1418.765	3590.20833
1421.921	3634.875
1425.075	3736.20833
1428.227	3851.20833
1431.376	4012.20833
1434.524	4111.54167
1437.668	4192.875
1440.811	4263.20833
1443.951	4277.20833
1447.089	4295.875
1450.224	4278.54167
1453.357	4252.54167
1456.488	4260.875
1459.617	4175.54167
1462.743	4136.875
1465.867	4041.875
1468.989	4010.875
1472.108	3953.54167
1475.225	3870.875
1478.34	3844.20833
1481.453	3831.875
1484.563	3863.875
1487.671	3911.54167
1490.776	3998.20833
1493.88	4090.875
1496.981	4175.20833
1500.08	4249.54167
1503.176	4317.20833
1506.271	4384.875
1509.363	4449.875
1512.452	4489.875
1515.54	4583.54167
1518.625	4652.54167
1521.708	4858.875
1524.789	5038.54167
1527.867	5311.54167
1530.944	5631.54167
1534.018	5966.20833
1537.089	6113.875
1540.159	6162.20833
1543.226	6109.20833
1546.291	5923.54167
1549.354	5736.54167
1552.415	5583.875
1555.473	5390.54167
1558.529	5297.54167
1561.583	5230.875
1564.634	5156.875
1567.684	5180.54167
1570.731	5170.20833
1573.776	5166.54167
1576.819	5184.875
1579.859	5252.20833
1582.898	5320.875
1585.934	5337.875
1588.968	5364.20833
1591.999	5307.875
1595.029	5314.20833
1598.056	5374.875
1601.081	5341.54167
1604.104	5364.20833
1607.125	5254.20833
1610.144	5153.54167
1613.16	5018.20833
1616.174	4921.20833
1619.186	4787.875
1622.196	4647.20833
1625.203	4527.54167
1628.209	4447.875
1631.212	4382.875
1634.213	4322.20833
1637.212	4301.875
1640.209	4207.875
1643.203	4102.875
1646.196	3971.20833
1649.186	3817.20833
1652.174	3718.875
1655.16	3603.54167
1658.144	3465.20833
1661.125	3323.20833
1664.105	3179.54167
1667.082	3017.875
1670.057	2872.54167
1673.03	2699.20833
1676.001	2523.54167
1678.97	2376.20833
1681.937	2227.54167
1684.901	2128.54167
1687.863	2044.20833
1690.824	1980.875
1693.782	1939.875
1696.738	1853.54167
1699.692	1810.20833
1702.643	1786.875
1705.593	1769.875
1708.54	1736.20833
1711.486	1731.875
1714.429	1682.875
1717.37	1668.20833
1720.309	1644.875
1723.246	1637.875
1726.181	1602.875
1729.113	1626.20833
1732.044	1591.20833
1734.972	1576.20833
1737.899	1566.20833
1740.823	1550.20833
1743.745	1564.54167
1746.665	1501.54167
1749.583	1476.20833
1752.499	1472.54167
1755.413	1445.875
1758.325	1416.20833
1761.235	1409.875
1764.142	1369.875
1767.048	1381.20833
1769.951	1366.20833
1772.852	1342.20833
1775.752	1346.875
1778.649	1343.875
1781.544	1345.20833
1784.437	1314.875
1787.328	1318.54167
1790.217	1313.54167
1793.104	1295.20833
1795.989	1287.54167
1798.872	1278.20833
1801.753	1298.20833
1804.631	1292.20833
1807.508	1289.20833
1810.383	1271.54167
1813.255	1290.875
1816.126	1265.875
1818.994	1268.875
1821.861	1258.20833
1824.725	1241.54167
1827.587	1260.54167
1830.448	1228.875
1833.306	1218.875
1836.162	1233.20833
1839.017	1211.20833
1841.869	1218.20833
1844.719	1202.20833
1847.567	1195.54167
1850.414	1181.54167
1853.258	1182.20833
1856.1	1202.20833
1858.94	1218.875
1861.778	1202.20833
1864.614	1189.54167
1867.448	1188.875
1870.28	1178.875
1873.111	1220.54167
1875.939	1193.875
1878.765	1206.875
1881.589	1172.54167
1884.411	1183.875
1887.231	1191.54167
1890.049	1182.20833
1892.865	1169.54167
1895.68	1172.875
1898.492	1168.20833
1901.302	1145.20833
1904.11	1150.875
1906.916	1133.875
1909.721	1136.875
1912.523	1152.54167
1915.323	1133.20833
1918.122	1140.54167
1920.918	1129.875
1923.712	1120.20833
1926.505	1120.54167
1929.295	1117.54167
1932.084	1123.875
1934.87	1123.20833
1937.655	1112.54167
1940.438	1109.20833
1943.218	1114.875
1945.997	1116.875
1948.774	1127.20833
1951.549	1127.20833
1954.322	1113.875
1957.093	1111.20833
1959.862	1102.875
1962.629	1123.54167
1965.394	1098.20833
1968.157	1085.54167
1970.918	1086.875
1973.678	1080.20833
1976.435	1088.875
1979.19	1079.54167
1981.944	1069.875
1984.696	1072.20833
1987.445	1062.20833
1990.193	1081.875
1992.939	1109.54167
1995.683	1072.20833
1998.425	1053.875
2001.165	1072.54167
2003.903	1042.875
2006.639	1052.20833
2009.374	1056.875
2012.106	1065.875
2014.837	1035.875
2017.566	1067.875
2020.292	1054.875
2023.017	1062.875
2025.74	1051.875
2028.461	1037.54167
2031.18	1049.54167
2033.898	1040.875
2036.613	1035.54167
2039.327	1048.20833
2042.038	1032.20833
2044.748	1037.20833
2047.456	1041.20833
2050.162	1013.20833
2052.866	1012.875
2055.568	1027.875
2058.268	1016.20833
2060.967	1031.54167
2063.663	1007.875
2066.358	1017.875
2069.051	1015.54167
2071.742	1027.875
2074.431	1017.54167
2077.118	1012.20833
2079.804	1029.54167
2082.487	1031.875
2085.169	1037.875
2087.849	1062.20833
2090.527	1031.20833
2093.203	1049.875
2095.877	1062.54167
2098.55	1069.54167
2101.22	1091.20833
2103.889	1119.54167
2106.556	1148.875
2109.221	1197.20833
2111.884	1268.20833
2114.546	1352.54167
2117.205	1481.875
2119.863	1622.54167
2122.519	1786.54167
2125.173	1908.20833
2127.825	2004.20833
2130.475	2007.54167
2133.124	1963.20833
2135.771	1853.875
2138.416	1768.875
2141.059	1628.875
2143.7	1546.54167
2146.339	1452.54167
2148.977	1364.875
2151.613	1317.20833
2154.247	1274.20833
2156.879	1237.20833
2159.51	1197.54167
2162.138	1171.54167
2164.765	1165.54167
2167.39	1137.20833
2170.013	1135.875
2172.634	1132.875
2175.254	1112.875
2177.872	1131.54167
2180.488	1086.20833
2183.102	1074.875
2185.714	1052.875
2188.325	1030.54167
2190.934	1036.54167
2193.541	1039.54167
2196.146	1014.20833
2198.75	1000.20833
2201.351	989.875
2203.951	966.54167
2206.549	980.875
2209.146	974.875
2211.74	963.875
2214.333	978.20833
2216.924	946.875
2219.514	948.875
2222.101	917.20833
2224.687	939.54167
2227.271	908.20833
2229.853	922.54167
2232.433	929.20833
2235.012	935.20833
2237.589	915.54167
2240.164	938.20833
2242.738	915.875
2245.309	902.20833
2247.879	905.875
2250.448	911.20833
2253.014	878.20833
2255.579	879.54167
2258.142	866.20833
2260.703	859.54167
2263.262	850.54167
2265.82	853.54167
2268.376	851.20833
2270.93	829.54167
2273.483	832.20833
2276.033	847.54167
2278.583	836.20833
2281.13	826.54167
2283.675	805.20833
2286.219	818.54167
2288.761	818.20833
2291.302	831.20833
2293.841	826.20833
2296.377	806.20833
2298.913	810.875
2301.446	827.54167
2303.978	799.54167
2306.508	813.20833
2309.037	796.20833
2311.563	812.20833
2314.088	806.54167
2316.612	787.54167
2319.133	805.875
2321.653	793.20833
2324.171	786.54167
2326.688	792.20833
2329.202	783.875
2331.715	790.54167
2334.227	791.20833
2336.736	783.54167
2339.244	769.20833
2341.751	756.54167
2344.255	784.875
2346.758	777.20833
2349.259	771.875
2351.759	763.54167
2354.257	768.875
2356.753	762.20833
2359.247	760.20833
2361.74	772.875
2364.231	766.54167
2366.721	769.54167
2369.209	759.54167
2371.695	757.54167
2374.179	768.875
2376.662	749.875
2379.143	771.54167
2381.622	756.875
2384.1	765.20833
2386.576	752.875
2389.051	763.875
2391.524	765.20833
2393.995	775.20833
2396.464	757.20833
2398.932	744.54167
2401.398	746.875
2403.863	747.54167
2406.325	751.875
2408.787	740.20833
2411.246	744.875
2413.704	731.875
2416.16	739.54167
2418.615	740.54167
2421.068	754.20833
2423.519	744.875
2425.969	739.20833
2428.417	753.875
2430.863	766.54167
2433.308	753.20833
2435.751	747.875
2438.193	739.20833
2440.633	743.54167
2443.071	736.20833
2445.508	723.54167
2447.943	729.875
2450.376	725.54167
2452.808	740.20833
2455.238	724.20833
2457.667	746.54167
2460.093	737.875
2462.519	717.54167
2464.942	723.54167
2467.365	725.20833
2469.785	723.875
2472.204	734.20833
2474.621	720.875
2477.037	738.54167
2479.451	716.20833
2481.863	707.20833
2484.274	713.54167
2486.683	723.875
2489.091	728.20833
2491.497	727.54167
2493.901	718.20833
2496.304	730.20833
2498.705	721.875
2501.105	713.875
2503.503	730.875
2505.899	700.875
2508.294	730.875
2510.687	707.20833
2513.079	704.20833
2515.469	711.875
2517.858	697.875
2520.245	731.54167
2522.63	713.875
2525.014	696.20833
2527.396	706.875
2529.776	704.54167
2532.156	718.54167
2534.533	693.875
2536.909	695.20833
2539.283	685.875
2541.656	708.20833
2544.027	731.20833
2546.397	707.875
2548.765	701.20833
2551.131	703.20833
2553.496	705.20833
2555.86	712.875
2558.221	699.875
2560.582	691.20833
2562.94	693.875
2565.298	707.54167
2567.653	705.875
2570.007	696.20833
2572.36	711.54167
2574.711	692.54167
2577.06	723.875
2579.408	703.875
2581.754	712.54167
2584.099	710.875
2586.442	699.20833
2588.784	706.875
2591.124	703.54167
2593.463	695.875
2595.8	696.20833
2598.135	703.20833
2600.469	696.875
2602.802	718.20833
2605.133	712.54167
2607.462	698.54167
2609.79	695.20833
2612.116	696.20833
2614.441	702.20833
2616.764	698.54167
2619.086	712.54167
2621.406	700.20833
2623.725	715.20833
2626.042	701.875
2628.358	714.54167
2630.672	695.875
2632.985	712.20833
2635.296	708.875
2637.606	719.54167
2639.914	703.20833
2642.22	721.54167
2644.525	715.875
2646.829	728.54167
2649.131	719.54167
2651.432	738.875
2653.731	727.54167
2656.028	743.20833
2658.324	730.875
2660.619	727.20833
2662.912	741.54167
2665.204	723.875
2667.494	738.20833
2669.782	725.875
2672.07	737.54167
2674.355	747.875
2676.639	750.54167
2678.922	730.875
2681.203	737.875
2683.483	729.54167
2685.761	728.20833
2688.038	740.875
2690.313	752.875
2692.587	752.20833
2694.859	745.54167
2697.13	752.54167
2699.399	753.54167
2701.667	761.20833
2703.933	770.54167
2706.198	757.875
2708.461	776.875
2710.723	773.20833
2712.984	778.54167
2715.243	789.875
2717.5	778.54167
2719.757	798.20833
2722.011	783.20833
2724.264	804.875
2726.516	814.875
2728.766	799.875
2731.015	807.20833
2733.262	802.875
2735.508	805.20833
2737.753	791.54167
2739.996	779.54167
2742.237	793.875
2744.477	805.54167
2746.716	797.54167
2748.953	780.54167
2751.189	786.20833
2753.423	776.54167
2755.656	770.54167
2757.887	768.54167
2760.117	766.20833
2762.346	766.875
2764.573	771.54167
2766.798	764.875
2769.022	783.54167
2771.245	779.20833
2773.467	780.875
2775.686	796.54167
2777.905	807.54167
2780.122	810.875
2782.337	803.20833
2784.552	806.875
2786.764	825.20833
2788.976	830.875
2791.186	829.54167
2793.394	841.54167
2795.601	862.54167
2797.807	871.20833
2800.011	881.54167
2802.214	884.875
2804.415	898.875
2806.615	894.20833
2808.814	921.20833
2811.011	924.54167
2813.206	912.54167
2815.401	955.875
2817.594	957.54167
2819.785	971.54167
2821.975	964.875
2824.164	986.20833
2826.351	995.54167
2828.537	1038.54167
2830.722	1046.875
2832.905	1059.875
2835.086	1103.20833
2837.267	1136.54167
2839.445	1148.875
2841.623	1191.54167
2843.799	1240.875
2845.974	1270.54167
2848.147	1307.20833
2850.319	1342.875
2852.489	1384.54167
2854.659	1394.875
2856.826	1432.20833
2858.993	1448.54167
2861.158	1423.875
2863.321	1429.20833
2865.483	1447.875
2867.644	1445.20833
2869.804	1449.54167
2871.962	1423.54167
2874.118	1427.54167
2876.274	1433.875
2878.428	1424.20833
2880.58	1403.20833
2882.731	1411.20833
2884.881	1406.875
2887.03	1403.875
2889.177	1427.875
2891.322	1427.20833
2893.467	1415.875
2895.61	1433.20833
2897.751	1462.20833
2899.892	1446.875
2902.03	1468.20833
2904.168	1467.20833
2906.304	1468.54167
2908.439	1485.54167
2910.572	1470.54167
2912.704	1482.875
2914.835	1503.54167
2916.965	1472.20833
2919.093	1490.54167
2921.219	1459.54167
2923.345	1472.875
2925.469	1446.875
2927.591	1406.875
2929.712	1378.875
2931.832	1362.875
2933.951	1342.54167
2936.068	1308.875
2938.184	1271.875
2940.299	1245.875
2942.412	1204.20833
2944.524	1158.875
2946.634	1134.875
2948.744	1086.20833
2950.851	1102.20833
2952.958	1052.54167
2955.063	1039.54167
2957.167	1013.20833
2959.269	988.875
2961.371	1005.875
2963.471	959.875
2965.569	952.875
2967.666	915.54167
2969.762	907.20833
2971.857	876.875
2973.95	861.20833
2976.042	861.54167
2978.133	832.54167
2980.222	816.20833
2982.31	786.875
2984.396	771.54167
2986.482	755.875
2988.566	765.875
2990.648	752.54167
2992.73	741.54167
2994.81	730.875
2996.889	727.54167
2998.966	726.20833
3001.042	721.875
3003.117	715.875
3005.191	719.54167
3007.263	723.20833
3009.334	700.54167
3011.403	683.875
3013.472	668.875
3015.539	667.54167
3017.604	673.875
3019.669	638.20833
3021.732	640.875
3023.794	644.20833
3025.854	631.875
3027.914	626.54167
3029.971	633.54167
3032.028	634.875
3034.083	628.20833
3036.137	620.20833
3038.19	600.20833
3040.242	585.20833
3042.292	568.875
3044.341	560.20833
3046.388	573.54167
3048.435	543.20833
3050.48	568.54167
3052.524	544.875
3054.566	538.875
3056.607	543.875
3058.647	532.20833
3060.686	503.54167
3062.723	494.875
3064.759	485.20833
3066.794	2.20833
3068.828	0.54167
3070.86	-3.45833
