-0.839	397.20833
3.438	429.20833
7.711	118.54167
11.981	54.875
16.247	45.54167
20.509	45.20833
24.768	45.875
29.024	44.54167
33.276	41.54167
37.524	50.875
41.769	40.875
46.01	36.20833
50.247	51.54167
54.481	66.20833
58.712	68.54167
62.939	48.875
67.162	63.54167
71.382	60.20833
75.599	50.20833
79.812	69.20833
84.021	82.54167
88.227	63.875
92.429	64.875
96.628	52.875
100.823	70.875
105.015	78.875
109.204	80.20833
113.388	79.20833
117.57	77.20833
121.748	92.20833
125.922	83.54167
130.093	100.875
134.261	116.54167
138.425	104.20833
142.585	150.54167
146.742	152.20833
150.896	174.54167
155.046	217.54167
159.193	343.20833
163.336	590.54167
167.476	1096.875
171.613	2040.54167
175.746	3438.20833
179.875	5156.875
184.002	6723.875
188.124	7844.875
192.244	8237.875
196.36	8190.20833
200.472	7957.20833
204.581	7718.875
208.687	7519.54167
212.79	7453.20833
216.889	7504.20833
220.984	7539.875
225.077	7606.20833
229.165	7713.54167
233.251	7752.54167
237.333	7761.54167
241.412	7698.54167
245.487	7647.20833
249.559	7565.875
253.628	7475.875
257.694	7401.20833
261.756	7297.875
265.814	7156.875
269.87	6930.54167
273.922	6786.875
277.97	6725.54167
282.016	6684.20833
286.058	6740.20833
290.097	6838.54167
294.132	6880.875
298.164	6719.54167
302.193	6417.20833
306.219	5918.20833
310.241	5404.54167
314.26	4953.54167
318.276	4536.54167
322.288	4206.54167
326.297	3964.20833
330.303	3811.20833
334.305	3695.54167
338.305	3599.54167
342.301	3527.20833
346.294	3502.20833
350.283	3463.54167
354.269	3442.20833
358.252	3371.875
362.232	3366.20833
366.209	3336.875
370.182	3325.875
374.152	3302.20833
378.119	3303.20833
382.083	3266.875
386.043	3295.54167
390	3238.20833
393.954	3205.875
397.905	3190.20833
401.852	3163.875
405.797	3107.875
409.738	3076.20833
413.676	3075.20833
417.61	3061.875
421.542	3034.20833
425.47	2970.20833
429.396	2956.875
433.318	2939.20833
437.236	2938.54167
441.152	2944.20833
445.065	2881.54167
448.974	2874.875
452.88	2858.875
456.783	2831.54167
460.683	2813.54167
464.58	2839.20833
468.473	2829.875
472.364	2832.54167
476.251	2835.20833
480.135	2867.875
484.016	2876.54167
487.894	2918.54167
491.769	2914.54167
495.641	2915.20833
499.509	2920.20833
503.375	2925.20833
507.237	2907.54167
511.096	2952.54167
514.952	3042.20833
518.805	3178.875
522.655	3231.875
526.502	3025.20833
530.346	2903.54167
534.187	2900.875
538.024	2895.54167
541.859	2898.875
545.69	2916.875
549.519	2881.54167
553.344	2863.20833
557.166	2808.54167
560.985	2801.875
564.802	2745.54167
568.615	2703.54167
572.425	2675.20833
576.232	2661.20833
580.036	2643.20833
583.836	2664.20833
587.634	2669.54167
591.429	2653.20833
595.221	2710.20833
599.01	2733.875
602.796	2794.875
606.578	2820.54167
610.358	2804.875
614.135	2796.20833
617.909	2794.54167
621.679	2784.875
625.447	2732.20833
629.212	2763.875
632.973	2760.20833
636.732	2764.875
640.488	2761.875
644.241	2730.875
647.991	2718.20833
651.737	2732.54167
655.481	2695.20833
659.222	2681.875
662.96	2681.875
666.695	2693.20833
670.427	2734.54167
674.156	2737.875
677.882	2702.875
681.605	2719.20833
685.325	2696.54167
689.043	2715.875
692.757	2700.875
696.468	2677.54167
700.177	2705.20833
703.882	2707.875
707.585	2719.875
711.284	2713.54167
714.981	2710.54167
718.675	2743.20833
722.366	2728.54167
726.054	2734.54167
729.739	2732.875
733.421	2717.54167
737.1	2721.20833
740.777	2751.875
744.45	2728.875
748.121	2812.20833
751.789	2841.20833
755.453	2840.875
759.115	2861.875
762.774	2913.875
766.431	2928.54167
770.084	2976.20833
773.734	2989.54167
777.382	3068.20833
781.027	3096.875
784.669	3098.20833
788.308	3131.54167
791.944	3148.875
795.577	3178.875
799.208	3184.875
802.835	3229.54167
806.46	3254.20833
810.082	3270.875
813.701	3268.20833
817.317	3313.875
820.931	3295.20833
824.542	3337.54167
828.149	3279.875
831.754	3252.20833
835.357	3261.54167
838.956	3286.54167
842.553	3254.20833
846.146	3251.20833
849.737	3250.54167
853.326	3277.54167
856.911	3270.54167
860.493	3324.875
864.073	3369.20833
867.65	3401.54167
871.225	3445.54167
874.796	3462.54167
878.365	3482.20833
881.931	3495.54167
885.494	3533.54167
889.054	3549.875
892.612	3544.20833
896.166	3520.20833
899.719	3469.54167
903.268	3427.20833
906.814	3440.20833
910.358	3381.54167
913.899	3357.875
917.438	3378.875
920.973	3375.20833
924.506	3405.875
928.036	3466.20833
931.564	3478.54167
935.088	3531.20833
938.61	3551.20833
942.129	3569.875
945.646	3697.54167
949.16	3764.20833
952.671	3853.20833
956.179	3850.20833
959.685	3816.20833
963.188	3737.54167
966.688	3666.875
970.185	3602.54167
973.68	3539.875
977.173	3526.54167
980.662	3494.54167
984.149	3501.20833
987.633	3523.54167
991.114	3571.875
994.593	3708.20833
998.069	3804.54167
1001.542	3912.875
1005.013	3796.20833
1008.481	3589.54167
1011.947	3524.54167
1015.409	3519.20833
1018.869	3530.54167
1022.327	3523.20833
1025.782	3459.875
1029.234	3500.54167
1032.683	3446.875
1036.13	3337.54167
1039.574	3185.54167
1043.016	3116.54167
1046.455	3041.54167
1049.891	3008.54167
1053.325	3027.20833
1056.756	3019.54167
1060.184	3054.875
1063.61	3061.54167
1067.033	3090.54167
1070.454	3100.20833
1073.872	3119.20833
1077.287	3102.20833
1080.7	3110.54167
1084.11	3113.875
1087.517	3120.875
1090.922	3086.54167
1094.325	3055.875
1097.724	3035.875
1101.122	3042.20833
1104.516	3023.20833
1107.908	3039.875
1111.298	3090.875
1114.684	3121.875
1118.069	3156.875
1121.45	3207.54167
1124.83	3202.20833
1128.206	3235.875
1131.58	3288.875
1134.951	3397.20833
1138.32	3495.20833
1141.687	3649.54167
1145.05	3751.20833
1148.412	3776.20833
1151.77	3768.875
1155.126	3762.20833
1158.48	3796.875
1161.831	3819.875
1165.18	3834.54167
1168.525	3914.54167
1171.869	3939.54167
1175.21	3989.20833
1178.548	4035.54167
1181.884	4066.54167
1185.217	4087.875
1188.548	4167.875
1191.877	4230.54167
1195.202	4326.20833
1198.526	4346.20833
1201.846	4363.875
1205.165	4360.54167
1208.48	4343.20833
1211.794	4317.20833
1215.104	4343.20833
1218.413	4358.875
1221.719	4322.54167
1225.022	4276.54167
1228.323	4274.875
1231.621	4234.54167
1234.917	4213.875
1238.21	4246.875
1241.501	4224.54167
1244.79	4255.54167
1248.076	4284.875
1251.359	4348.54167
1254.64	4398.875
1257.919	4451.875
1261.195	4480.54167
1264.468	4575.54167
1267.74	4661.54167
1271.008	4664.54167
1274.275	4596.875
1277.538	4535.875
1280.8	4551.875
1284.059	4567.875
1287.315	4586.20833
1290.569	4620.20833
1293.821	4639.20833
1297.07	4658.20833
1300.317	4677.875
1303.562	4651.20833
1306.803	4622.20833
1310.043	4559.875
1313.28	4491.20833
1316.515	4476.54167
1319.747	4411.875
1322.977	4328.20833
1326.204	4267.20833
1329.429	4213.875
1332.652	4188.20833
1335.872	4190.54167
1339.09	4147.20833
1342.306	4154.20833
1345.519	4144.20833
1348.729	4066.54167
1351.938	4084.54167
1355.144	4004.54167
1358.347	3957.54167
1361.548	3959.20833
1364.747	3973.875
1367.944	3952.54167
1371.138	3982.875
1374.329	4065.20833
1377.518	4091.54167
1380.705	4109.875
1383.89	4060.54167
1387.072	3965.875
1390.252	3837.54167
1393.429	3693.54167
1396.605	3580.875
1399.777	3496.20833
1402.948	3425.20833
1406.116	3412.875
1409.282	3466.20833
1412.445	3460.54167
1415.606	3480.54167
1418.765	3523.20833
1421.921	3636.875
1425.075	3718.20833
1428.227	3850.875
1431.376	3987.20833
1434.524	4109.20833
1437.668	4202.54167
1440.811	4244.875
1443.951	4285.875
1447.089	4289.20833
1450.224	4287.875
1453.357	4270.20833
1456.488	4227.875
1459.617	4161.875
1462.743	4120.875
1465.867	4034.875
1468.989	4001.20833
1472.108	3942.20833
1475.225	3877.54167
1478.34	3818.20833
1481.453	3838.875
1484.563	3843.54167
1487.671	3892.875
1490.776	3991.875
1493.88	4082.54167
1496.981	4201.875
1500.08	4264.54167
1503.176	4338.54167
1506.271	4412.54167
1509.363	4467.875
1512.452	4519.54167
1515.54	4596.54167
1518.625	4718.54167
1521.708	4858.875
1524.789	5070.54167
1527.867	5315.20833
1530.944	5636.875
1534.018	5968.54167
1537.089	6193.875
1540.159	6177.875
1543.226	6097.875
1546.291	5954.20833
1549.354	5770.20833
1552.415	5572.20833
1555.473	5458.20833
1558.529	5331.54167
1561.583	5272.20833
1564.634	5208.875
1567.684	5188.20833
1570.731	5188.20833
1573.776	5204.875
1576.819	5238.20833
1579.859	5253.54167
1582.898	5318.54167
1585.934	5349.875
1588.968	5360.20833
1591.999	5365.54167
1595.029	5349.20833
1598.056	5382.875
1601.081	5378.54167
1604.104	5367.54167
1607.125	5275.20833
1610.144	5185.54167
1613.16	5023.20833
1616.174	4864.20833
1619.186	4780.54167
1622.196	4598.54167
1625.203	4491.54167
1628.209	4388.20833
1631.212	4351.54167
1634.213	4292.20833
1637.212	4215.875
1640.209	4147.20833
1643.203	4047.54167
1646.196	3914.20833
1649.186	3771.20833
1652.174	3664.875
1655.16	3502.875
1658.144	3424.875
1661.125	3279.20833
1664.105	3101.20833
1667.082	2974.20833
1670.057	2838.20833
1673.03	2665.54167
1676.001	2489.875
1678.97	2340.875
1681.937	2219.20833
1684.901	2104.875
1687.863	2024.20833
1690.824	1939.875
1693.782	1921.875
1696.738	1836.875
1699.692	1813.20833
1702.643	1753.20833
1705.593	1741.54167
1708.54	1716.20833
1711.486	1702.20833
1714.429	1674.875
1717.37	1635.20833
1720.309	1642.875
1723.246	1621.20833
1726.181	1571.54167
1729.113	1578.54167
1732.044	1581.20833
1734.972	1546.20833
1737.899	1550.20833
1740.823	1527.54167
1743.745	1540.875
1746.665	1487.20833
1749.583	1462.20833
1752.499	1453.54167
1755.413	1426.875
1758.325	1394.875
1761.235	1405.54167
1764.142	1364.20833
1767.048	1369.875
1769.951	1328.875
1772.852	1333.20833
1775.752	1320.54167
1778.649	1317.20833
1781.544	1317.875
1784.437	1289.20833
1787.328	1291.54167
1790.217	1289.54167
1793.104	1257.875
1795.989	1255.875
1798.872	1264.875
1801.753	1271.54167
1804.631	1272.54167
1807.508	1268.875
1810.383	1265.20833
1813.255	1247.54167
1816.126	1235.875
1818.994	1237.20833
1821.861	1237.20833
1824.725	1222.20833
1827.587	1223.20833
1830.448	1229.20833
1833.306	1196.875
1836.162	1206.54167
1839.017	1195.20833
1841.869	1176.54167
1844.719	1186.875
1847.567	1171.875
1850.414	1166.20833
1853.258	1173.54167
1856.1	1195.20833
1858.94	1192.20833
1861.778	1172.875
1864.614	1165.54167
1867.448	1182.54167
1870.28	1161.875
1873.111	1182.20833
1875.939	1158.54167
1878.765	1194.20833
1881.589	1162.54167
1884.411	1165.875
1887.231	1175.54167
1890.049	1156.875
1892.865	1147.875
1895.68	1142.875
1898.492	1127.20833
1901.302	1130.54167
1904.11	1130.54167
1906.916	1123.20833
1909.721	1113.20833
1912.523	1113.20833
1915.323	1106.20833
1918.122	1116.20833
1920.918	1115.20833
1923.712	1107.20833
1926.505	1112.875
1929.295	1093.875
1932.084	1115.54167
1934.87	1107.54167
1937.655	1089.875
1940.438	1088.875
1943.218	1105.20833
1945.997	1098.54167
1948.774	1099.875
1951.549	1100.875
1954.322	1109.875
1957.093	1094.54167
1959.862	1094.20833
1962.629	1067.875
1965.394	1073.20833
1968.157	1076.54167
1970.918	1069.20833
1973.678	1069.54167
1976.435	1074.54167
1979.19	1065.54167
1981.944	1060.20833
1984.696	1064.20833
1987.445	1054.875
1990.193	1047.20833
1992.939	1058.875
1995.683	1062.20833
1998.425	1021.20833
2001.165	1059.54167
2003.903	1036.54167
2006.639	1044.54167
2009.374	1040.20833
2012.106	1054.875
2014.837	1014.875
2017.566	1049.54167
2020.292	1041.54167
2023.017	1040.20833
2025.74	1021.875
2028.461	1018.875
2031.18	1021.54167
2033.898	1007.875
2036.613	1018.20833
2039.327	1029.54167
2042.038	1014.54167
2044.748	1021.875
2047.456	1022.54167
2050.162	1001.20833
2052.866	1019.20833
2055.568	1016.875
2058.268	1013.54167
2060.967	1013.54167
2063.663	988.875
2066.358	1005.875
2069.051	991.54167
2071.742	1009.54167
2074.431	1013.20833
2077.118	1005.54167
2079.804	1000.20833
2082.487	1014.54167
2085.169	1031.875
2087.849	1038.20833
2090.527	1036.875
2093.203	1045.20833
2095.877	1059.54167
2098.55	1062.54167
2101.22	1089.54167
2103.889	1106.875
2106.556	1116.20833
2109.221	1193.20833
2111.884	1235.54167
2114.546	1348.875
2117.205	1471.54167
2119.863	1629.875
2122.519	1771.54167
2125.173	1907.20833
2127.825	2011.20833
2130.475	2004.20833
2133.124	1953.54167
2135.771	1862.20833
2138.416	1759.20833
2141.059	1637.875
2143.7	1550.875
2146.339	1423.20833
2148.977	1355.875
2151.613	1315.875
2154.247	1260.875
2156.879	1228.875
2159.51	1193.54167
2162.138	1150.54167
2164.765	1134.54167
2167.39	1123.20833
2170.013	1126.875
2172.634	1120.875
2175.254	1102.20833
2177.872	1125.20833
2180.488	1067.875
2183.102	1068.54167
2185.714	1051.54167
2188.325	1029.875
2190.934	1030.54167
2193.541	1026.54167
2196.146	1000.20833
2198.75	984.875
2201.351	984.20833
2203.951	967.54167
2206.549	984.54167
2209.146	959.20833
2211.74	940.20833
2214.333	950.54167
2216.924	933.875
2219.514	929.875
2222.101	922.875
2224.687	939.875
2227.271	915.875
2229.853	909.875
2232.433	903.20833
2235.012	924.20833
2237.589	915.20833
2240.164	908.54167
2242.738	906.20833
2245.309	889.54167
2247.879	889.875
2250.448	894.875
2253.014	859.20833
2255.579	852.875
2258.142	845.20833
2260.703	829.54167
2263.262	842.875
2265.82	840.54167
2268.376	840.54167
2270.93	817.54167
2273.483	828.54167
2276.033	841.54167
2278.583	821.20833
2281.13	825.54167
2283.675	798.875
2286.219	812.20833
2288.761	810.20833
2291.302	820.875
2293.841	825.875
2296.377	794.875
2298.913	794.875
2301.446	811.20833
2303.978	798.875
2306.508	793.54167
2309.037	798.875
2311.563	792.54167
2314.088	805.54167
2316.612	782.20833
2319.133	788.20833
2321.653	791.54167
2324.171	775.54167
2326.688	785.875
2329.202	788.875
2331.715	771.875
2334.227	767.54167
2336.736	770.875
2339.244	767.875
2341.751	761.54167
2344.255	763.875
2346.758	765.20833
2349.259	751.875
2351.759	756.20833
2354.257	757.20833
2356.753	757.875
2359.247	755.20833
2361.74	763.875
2364.231	762.875
2366.721	765.20833
2369.209	753.20833
2371.695	764.20833
2374.179	747.20833
2376.662	739.54167
2379.143	761.54167
2381.622	750.54167
2384.1	743.875
2386.576	749.54167
2389.051	765.20833
2391.524	755.875
2393.995	774.54167
2396.464	746.54167
2398.932	740.20833
2401.398	741.54167
2403.863	745.54167
2406.325	736.20833
2408.787	738.875
2411.246	738.54167
2413.704	736.54167
2416.16	734.54167
2418.615	731.20833
2421.068	743.875
2423.519	732.875
2425.969	737.20833
2428.417	742.54167
2430.863	760.20833
2433.308	740.20833
2435.751	726.875
2438.193	726.54167
2440.633	728.20833
2443.071	732.54167
2445.508	719.20833
2447.943	726.54167
2450.376	714.20833
2452.808	722.875
2455.238	724.875
2457.667	762.20833
2460.093	722.875
2462.519	712.54167
2464.942	716.20833
2467.365	723.875
2469.785	718.875
2472.204	724.54167
2474.621	715.54167
2477.037	730.875
2479.451	706.54167
2481.863	695.20833
2484.274	714.54167
2486.683	712.875
2489.091	717.54167
2491.497	719.875
2493.901	719.20833
2496.304	723.875
2498.705	709.875
2501.105	703.20833
2503.503	734.20833
2505.899	703.875
2508.294	725.20833
2510.687	708.20833
2513.079	706.54167
2515.469	699.20833
2517.858	700.54167
2520.245	728.875
2522.63	706.54167
2525.014	691.54167
2527.396	702.875
2529.776	700.54167
2532.156	705.875
2534.533	686.54167
2536.909	705.54167
2539.283	677.20833
2541.656	695.54167
2544.027	724.875
2546.397	703.54167
2548.765	694.20833
2551.131	701.54167
2553.496	701.875
2555.86	697.875
2558.221	693.20833
2560.582	696.20833
2562.94	676.54167
2565.298	689.54167
2567.653	725.20833
2570.007	689.54167
2572.36	700.54167
2574.711	695.875
2577.06	722.20833
2579.408	697.875
2581.754	699.20833
2584.099	694.875
2586.442	704.20833
2588.784	714.20833
2591.124	718.20833
2593.463	703.875
2595.8	716.54167
2598.135	689.54167
2600.469	692.54167
2602.802	724.875
2605.133	715.875
2607.462	693.20833
2609.79	682.875
2612.116	699.20833
2614.441	702.54167
2616.764	703.54167
2619.086	712.875
2621.406	702.54167
2623.725	715.875
2626.042	705.54167
2628.358	700.54167
2630.672	700.20833
2632.985	717.54167
2635.296	706.875
2637.606	706.54167
2639.914	701.875
2642.22	716.875
2644.525	716.875
2646.829	726.54167
2649.131	732.875
2651.432	737.54167
2653.731	725.875
2656.028	729.20833
2658.324	733.20833
2660.619	714.875
2662.912	742.20833
2665.204	723.54167
2667.494	740.54167
2669.782	735.54167
2672.07	733.54167
2674.355	737.20833
2676.639	736.54167
2678.922	724.20833
2681.203	746.875
2683.483	726.875
2685.761	716.20833
2688.038	740.20833
2690.313	755.54167
2692.587	737.20833
2694.859	739.54167
2697.13	748.875
2699.399	752.54167
2701.667	768.20833
2703.933	764.20833
2706.198	769.20833
2708.461	767.54167
2710.723	783.54167
2712.984	777.54167
2715.243	805.54167
2717.5	781.875
2719.757	804.20833
2722.011	795.20833
2724.264	812.54167
2726.516	815.875
2728.766	804.20833
2731.015	811.875
2733.262	797.54167
2735.508	816.54167
2737.753	805.54167
2739.996	782.20833
2742.237	786.54167
2744.477	793.875
2746.716	795.20833
2748.953	781.54167
2751.189	789.20833
2753.423	773.20833
2755.656	787.20833
2757.887	777.54167
2760.117	777.54167
2762.346	775.875
2764.573	763.20833
2766.798	767.20833
2769.022	780.875
2771.245	777.54167
2773.467	784.20833
2775.686	790.20833
2777.905	795.875
2780.122	800.20833
2782.337	798.54167
2784.552	806.875
2786.764	816.875
2788.976	826.20833
2791.186	836.54167
2793.394	841.875
2795.601	861.875
2797.807	868.20833
2800.011	878.875
2802.214	884.20833
2804.415	893.875
2806.615	895.54167
2808.814	917.54167
2811.011	929.54167
2813.206	933.54167
2815.401	951.875
2817.594	967.875
2819.785	984.54167
2821.975	981.875
2824.164	986.54167
2826.351	1012.20833
2828.537	1042.20833
2830.722	1052.20833
2832.905	1048.20833
2835.086	1095.54167
2837.267	1131.20833
2839.445	1171.875
2841.623	1183.54167
2843.799	1232.54167
2845.974	1280.54167
2848.147	1317.20833
2850.319	1358.20833
2852.489	1388.20833
2854.659	1401.20833
2856.826	1423.54167
2858.993	1439.20833
2861.158	1442.54167
2863.321	1438.875
2865.483	1451.875
2867.644	1444.20833
2869.804	1444.54167
2871.962	1441.875
2874.118	1455.20833
2876.274	1426.875
2878.428	1423.20833
2880.58	1421.54167
2882.731	1400.20833
2884.881	1417.20833
2887.03	1422.54167
2889.177	1421.54167
2891.322	1429.20833
2893.467	1431.54167
2895.61	1436.20833
2897.751	1458.54167
2899.892	1438.875
2902.03	1447.20833
2904.168	1462.875
2906.304	1467.20833
2908.439	1498.875
2910.572	1471.875
2912.704	1483.20833
2914.835	1508.54167
2916.965	1480.20833
2919.093	1492.54167
2921.219	1434.875
2923.345	1468.20833
2925.469	1444.20833
2927.591	1410.875
2929.712	1374.20833
2931.832	1381.54167
2933.951	1347.875
2936.068	1306.875
2938.184	1276.20833
2940.299	1236.875
2942.412	1200.54167
2944.524	1168.54167
2946.634	1154.20833
2948.744	1098.54167
2950.851	1104.875
2952.958	1061.875
2955.063	1044.54167
2957.167	1020.20833
2959.269	991.875
2961.371	993.54167
2963.471	956.875
2965.569	967.20833
2967.666	919.20833
2969.762	901.875
2971.857	887.54167
2973.95	860.875
2976.042	858.875
2978.133	836.54167
2980.222	817.875
2982.31	797.54167
2984.396	777.54167
2986.482	758.875
2988.566	771.20833
2990.648	751.875
2992.73	749.54167
2994.81	729.875
2996.889	745.20833
2998.966	713.875
3001.042	727.54167
3003.117	729.20833
3005.191	721.54167
3007.263	704.875
3009.334	709.54167
3011.403	687.20833
3013.472	676.54167
3015.539	667.20833
3017.604	680.54167
3019.669	636.54167
3021.732	634.875
3023.794	643.20833
3025.854	632.20833
3027.914	635.20833
3029.971	638.875
3032.028	631.20833
3034.083	632.54167
3036.137	624.20833
3038.19	594.54167
3040.242	588.54167
3042.292	578.54167
3044.341	557.54167
3046.388	584.875
3048.435	549.875
3050.48	564.54167
3052.524	553.20833
3054.566	538.875
3056.607	544.54167
3058.647	541.20833
3060.686	513.54167
3062.723	499.875
3064.759	485.54167
3066.794	-0.125
3068.828	0.875
3070.86	-2.79167
