-0.839	389.58333
3.438	424.91667
7.711	118.58333
11.981	47.58333
16.247	44.91667
20.509	36.58333
24.768	44.91667
29.024	45.58333
33.276	41.58333
37.524	44.25
41.769	41.91667
46.01	34.25
50.247	52.25
54.481	61.58333
58.712	62.58333
62.939	47.91667
67.162	56.91667
71.382	56.25
75.599	43.25
79.812	61.25
84.021	78.91667
88.227	58.58333
92.429	60.58333
96.628	45.25
100.823	58.58333
105.015	73.58333
109.204	68.58333
113.388	67.91667
117.57	66.25
121.748	80.91667
125.922	71.58333
130.093	87.58333
134.261	90.58333
138.425	83.91667
142.585	127.58333
146.742	120.25
150.896	135.91667
155.046	161.25
159.193	251.91667
163.336	432.25
167.476	766.58333
171.613	1415.91667
175.746	2363.25
179.875	3569.58333
184.002	4688.58333
188.124	5456.58333
192.244	5775.91667
196.36	5694.91667
200.472	5554.25
204.581	5432.25
208.687	5234.25
212.79	5198.25
216.889	5179.58333
220.984	5248.91667
225.077	5279.91667
229.165	5290.91667
233.251	5301.25
237.333	5331.91667
241.412	5278.25
245.487	5246.91667
249.559	5195.91667
253.628	5147.91667
257.694	5125.91667
261.756	5081.58333
265.814	5020.25
269.87	4920.91667
273.922	4842.25
277.97	4818.91667
282.016	4820.58333
286.058	4859.25
290.097	4970.58333
294.132	5048.91667
298.164	4999.58333
302.193	4759.91667
306.219	4415.91667
310.241	4063.91667
314.26	3742.58333
318.276	3436.58333
322.288	3234.25
326.297	3066.58333
330.303	2946.25
334.305	2853.25
338.305	2805.91667
342.301	2757.58333
346.294	2722.91667
350.283	2682.25
354.269	2673.25
358.252	2663.58333
362.232	2621.91667
366.209	2611.91667
370.182	2567.58333
374.152	2548.91667
378.119	2550.58333
382.083	2533.91667
386.043	2546.25
390	2524.25
393.954	2509.58333
397.905	2500.91667
401.852	2498.58333
405.797	2478.25
409.738	2452.91667
413.676	2454.58333
417.61	2446.25
421.542	2433.91667
425.47	2417.25
429.396	2400.25
433.318	2403.58333
437.236	2381.91667
441.152	2386.91667
445.065	2343.25
448.974	2340.91667
452.88	2332.91667
456.783	2312.58333
460.683	2311.25
464.58	2321.58333
468.473	2307.91667
472.364	2322.25
476.251	2332.25
480.135	2365.25
484.016	2396.58333
487.894	2389.25
491.769	2414.91667
495.641	2400.25
499.509	2432.58333
503.375	2432.58333
507.237	2437.58333
511.096	2511.25
514.952	2761.25
518.805	3073.91667
522.655	3193.91667
526.502	2749.25
530.346	2461.25
534.187	2420.91667
538.024	2395.25
541.859	2378.25
545.69	2404.58333
549.519	2379.91667
553.344	2347.25
557.166	2309.91667
560.985	2296.25
564.802	2262.58333
568.615	2256.25
572.425	2203.58333
576.232	2201.91667
580.036	2182.25
583.836	2210.58333
587.634	2222.25
591.429	2187.58333
595.221	2258.91667
599.01	2275.25
602.796	2292.58333
606.578	2313.58333
610.358	2328.58333
614.135	2310.91667
617.909	2295.91667
621.679	2275.25
625.447	2262.91667
629.212	2273.25
632.973	2269.58333
636.732	2263.25
640.488	2242.91667
644.241	2230.58333
647.991	2248.25
651.737	2242.25
655.481	2230.58333
659.222	2229.58333
662.96	2239.58333
666.695	2258.25
670.427	2272.58333
674.156	2271.91667
677.882	2262.91667
681.605	2256.58333
685.325	2214.58333
689.043	2221.25
692.757	2219.58333
696.468	2227.91667
700.177	2241.58333
703.882	2214.91667
707.585	2194.58333
711.284	2207.25
714.981	2211.91667
718.675	2228.25
722.366	2233.25
726.054	2195.91667
729.739	2198.25
733.421	2212.91667
737.1	2187.91667
740.777	2212.91667
744.45	2224.91667
748.121	2228.91667
751.789	2260.58333
755.453	2252.25
759.115	2287.58333
762.774	2309.91667
766.431	2324.58333
770.084	2342.25
773.734	2339.25
777.382	2383.25
781.027	2407.91667
784.669	2383.25
788.308	2418.58333
791.944	2440.25
795.577	2504.25
799.208	2504.58333
802.835	2504.58333
806.46	2523.25
810.082	2541.58333
813.701	2529.58333
817.317	2560.58333
820.931	2546.58333
824.542	2558.25
828.149	2494.91667
831.754	2479.58333
835.357	2488.58333
838.956	2483.91667
842.553	2478.91667
846.146	2439.25
849.737	2419.58333
853.326	2435.58333
856.911	2414.58333
860.493	2484.91667
864.073	2460.91667
867.65	2525.91667
871.225	2527.25
874.796	2537.58333
878.365	2565.25
881.931	2580.25
885.494	2601.91667
889.054	2588.58333
892.612	2599.25
896.166	2572.58333
899.719	2548.91667
903.268	2531.58333
906.814	2514.25
910.358	2515.91667
913.899	2479.25
917.438	2498.58333
920.973	2477.58333
924.506	2542.91667
928.036	2559.25
931.564	2602.91667
935.088	2632.25
938.61	2640.91667
942.129	2661.58333
945.646	2744.25
949.16	2789.25
952.671	2824.58333
956.179	2848.91667
959.685	2825.58333
963.188	2797.91667
966.688	2774.58333
970.185	2696.58333
973.68	2631.58333
977.173	2588.25
980.662	2546.91667
984.149	2536.25
987.633	2527.25
991.114	2548.25
994.593	2615.58333
998.069	2638.91667
1001.542	2714.58333
1005.013	2673.91667
1008.481	2532.58333
1011.947	2492.91667
1015.409	2485.91667
1018.869	2491.91667
1022.327	2485.91667
1025.782	2486.91667
1029.234	2480.58333
1032.683	2451.58333
1036.13	2382.25
1039.574	2288.25
1043.016	2252.91667
1046.455	2205.58333
1049.891	2195.58333
1053.325	2191.58333
1056.756	2200.25
1060.184	2199.58333
1063.61	2244.25
1067.033	2257.58333
1070.454	2242.58333
1073.872	2255.58333
1077.287	2275.25
1080.7	2276.25
1084.11	2277.25
1087.517	2263.58333
1090.922	2243.25
1094.325	2223.91667
1097.724	2171.58333
1101.122	2206.91667
1104.516	2185.91667
1107.908	2193.58333
1111.298	2249.25
1114.684	2233.25
1118.069	2249.58333
1121.45	2288.58333
1124.83	2290.25
1128.206	2303.91667
1131.58	2360.25
1134.951	2407.91667
1138.32	2484.58333
1141.687	2562.25
1145.05	2606.25
1148.412	2643.25
1151.77	2644.91667
1155.126	2622.91667
1158.48	2635.91667
1161.831	2646.58333
1165.18	2644.25
1168.525	2684.58333
1171.869	2695.91667
1175.21	2738.25
1178.548	2771.91667
1181.884	2805.91667
1185.217	2826.58333
1188.548	2899.25
1191.877	2984.58333
1195.202	3063.25
1198.526	3119.58333
1201.846	3129.91667
1205.165	3138.58333
1208.48	3137.25
1211.794	3114.91667
1215.104	3114.91667
1218.413	3143.58333
1221.719	3115.91667
1225.022	3071.58333
1228.323	3045.25
1231.621	3020.91667
1234.917	2991.58333
1238.21	3009.91667
1241.501	2998.25
1244.79	2974.58333
1248.076	2969.25
1251.359	3020.58333
1254.64	3069.58333
1257.919	3077.58333
1261.195	3123.25
1264.468	3174.58333
1267.74	3219.25
1271.008	3215.91667
1274.275	3212.58333
1277.538	3157.58333
1280.8	3198.25
1284.059	3190.91667
1287.315	3217.91667
1290.569	3238.25
1293.821	3247.91667
1297.07	3261.25
1300.317	3288.91667
1303.562	3285.91667
1306.803	3242.58333
1310.043	3224.91667
1313.28	3191.91667
1316.515	3182.58333
1319.747	3135.58333
1322.977	3120.91667
1326.204	3083.25
1329.429	3059.91667
1332.652	3057.58333
1335.872	3029.58333
1339.09	3011.25
1342.306	2962.58333
1345.519	2941.91667
1348.729	2895.25
1351.938	2867.58333
1355.144	2807.58333
1358.347	2786.25
1361.548	2789.91667
1364.747	2779.25
1367.944	2744.91667
1371.138	2756.91667
1374.329	2755.58333
1377.518	2760.91667
1380.705	2789.25
1383.89	2773.58333
1387.072	2716.25
1390.252	2598.58333
1393.429	2532.58333
1396.605	2482.58333
1399.777	2412.91667
1402.948	2397.25
1406.116	2389.58333
1409.282	2413.58333
1412.445	2429.25
1415.606	2455.91667
1418.765	2477.25
1421.921	2539.58333
1425.075	2588.25
1428.227	2662.91667
1431.376	2763.58333
1434.524	2865.25
1437.668	2941.91667
1440.811	2940.58333
1443.951	2961.25
1447.089	2984.58333
1450.224	2979.91667
1453.357	2951.91667
1456.488	2953.25
1459.617	2897.58333
1462.743	2869.25
1465.867	2800.58333
1468.989	2776.58333
1472.108	2742.25
1475.225	2686.58333
1478.34	2638.58333
1481.453	2661.25
1484.563	2664.91667
1487.671	2705.58333
1490.776	2738.58333
1493.88	2774.58333
1496.981	2844.91667
1500.08	2873.25
1503.176	2926.91667
1506.271	2946.91667
1509.363	3004.91667
1512.452	3025.25
1515.54	3073.91667
1518.625	3126.25
1521.708	3192.25
1524.789	3294.58333
1527.867	3439.25
1530.944	3623.25
1534.018	3785.58333
1537.089	3886.25
1540.159	3912.91667
1543.226	3865.58333
1546.291	3788.25
1549.354	3713.58333
1552.415	3610.25
1555.473	3491.25
1558.529	3425.58333
1561.583	3431.25
1564.634	3374.91667
1567.684	3365.91667
1570.731	3396.91667
1573.776	3410.91667
1576.819	3424.58333
1579.859	3437.58333
1582.898	3483.91667
1585.934	3529.25
1588.968	3537.58333
1591.999	3524.58333
1595.029	3539.25
1598.056	3555.91667
1601.081	3600.91667
1604.104	3579.91667
1607.125	3519.91667
1610.144	3446.25
1613.16	3357.91667
1616.174	3290.25
1619.186	3182.91667
1622.196	3104.25
1625.203	3046.25
1628.209	2979.25
1631.212	2979.91667
1634.213	2950.91667
1637.212	2937.25
1640.209	2891.91667
1643.203	2800.58333
1646.196	2711.25
1649.186	2597.58333
1652.174	2543.58333
1655.16	2450.25
1658.144	2404.91667
1661.125	2282.25
1664.105	2190.25
1667.082	2090.25
1670.057	1986.25
1673.03	1852.58333
1676.001	1792.58333
1678.97	1661.58333
1681.937	1579.25
1684.901	1501.58333
1687.863	1451.25
1690.824	1404.25
1693.782	1391.91667
1696.738	1327.58333
1699.692	1312.91667
1702.643	1283.58333
1705.593	1266.58333
1708.54	1237.58333
1711.486	1251.91667
1714.429	1223.91667
1717.37	1219.25
1720.309	1184.25
1723.246	1183.58333
1726.181	1182.91667
1729.113	1169.58333
1732.044	1148.91667
1734.972	1150.25
1737.899	1162.25
1740.823	1136.91667
1743.745	1147.91667
1746.665	1110.58333
1749.583	1090.91667
1752.499	1079.91667
1755.413	1063.91667
1758.325	1046.58333
1761.235	1056.91667
1764.142	1024.91667
1767.048	1026.91667
1769.951	1017.25
1772.852	1015.91667
1775.752	1002.58333
1778.649	1009.58333
1781.544	1018.25
1784.437	975.58333
1787.328	1000.25
1790.217	997.91667
1793.104	974.91667
1795.989	953.58333
1798.872	968.91667
1801.753	976.91667
1804.631	965.58333
1807.508	991.91667
1810.383	977.25
1813.255	963.25
1816.126	968.25
1818.994	967.25
1821.861	962.58333
1824.725	951.91667
1827.587	953.91667
1830.448	952.91667
1833.306	934.58333
1836.162	932.25
1839.017	932.91667
1841.869	924.91667
1844.719	934.25
1847.567	911.91667
1850.414	909.91667
1853.258	909.58333
1856.1	937.58333
1858.94	943.91667
1861.778	924.58333
1864.614	914.58333
1867.448	931.91667
1870.28	909.58333
1873.111	929.58333
1875.939	918.25
1878.765	939.58333
1881.589	915.25
1884.411	922.25
1887.231	922.25
1890.049	923.25
1892.865	915.91667
1895.68	906.25
1898.492	903.25
1901.302	897.25
1904.11	901.25
1906.916	901.58333
1909.721	887.25
1912.523	897.25
1915.323	887.58333
1918.122	881.58333
1920.918	896.25
1923.712	869.25
1926.505	886.25
1929.295	883.25
1932.084	893.58333
1934.87	882.25
1937.655	878.91667
1940.438	881.91667
1943.218	883.25
1945.997	888.25
1948.774	909.58333
1951.549	885.58333
1954.322	882.58333
1957.093	889.58333
1959.862	887.91667
1962.629	871.25
1965.394	869.25
1968.157	859.91667
1970.918	866.91667
1973.678	856.58333
1976.435	875.91667
1979.19	862.25
1981.944	850.58333
1984.696	858.25
1987.445	857.91667
1990.193	860.91667
1992.939	886.58333
1995.683	857.58333
1998.425	853.91667
2001.165	887.25
2003.903	849.58333
2006.639	858.25
2009.374	858.91667
2012.106	864.25
2014.837	842.25
2017.566	866.91667
2020.292	869.91667
2023.017	867.91667
2025.74	849.58333
2028.461	851.58333
2031.18	864.91667
2033.898	844.91667
2036.613	855.91667
2039.327	855.25
2042.038	844.58333
2044.748	855.91667
2047.456	857.58333
2050.162	845.25
2052.866	848.25
2055.568	856.25
2058.268	857.25
2060.967	858.91667
2063.663	832.25
2066.358	858.25
2069.051	843.91667
2071.742	856.91667
2074.431	861.58333
2077.118	841.58333
2079.804	855.91667
2082.487	857.58333
2085.169	874.25
2087.849	876.91667
2090.527	862.91667
2093.203	865.91667
2095.877	871.58333
2098.55	869.58333
2101.22	905.91667
2103.889	907.91667
2106.556	911.91667
2109.221	921.91667
2111.884	961.91667
2114.546	1024.58333
2117.205	1066.91667
2119.863	1138.91667
2122.519	1190.25
2125.173	1234.58333
2127.825	1301.25
2130.475	1307.25
2133.124	1267.91667
2135.771	1229.25
2138.416	1177.25
2141.059	1128.58333
2143.7	1095.91667
2146.339	1038.25
2148.977	1002.58333
2151.613	991.25
2154.247	974.91667
2156.879	966.25
2159.51	939.91667
2162.138	926.91667
2164.765	931.58333
2167.39	917.58333
2170.013	933.91667
2172.634	915.25
2175.254	905.91667
2177.872	942.25
2180.488	894.58333
2183.102	889.91667
2185.714	895.25
2188.325	880.58333
2190.934	882.25
2193.541	880.25
2196.146	860.25
2198.75	853.25
2201.351	860.91667
2203.951	857.58333
2206.549	871.91667
2209.146	872.58333
2211.74	852.91667
2214.333	855.58333
2216.924	837.58333
2219.514	853.58333
2222.101	842.25
2224.687	869.91667
2227.271	841.91667
2229.853	848.25
2232.433	836.91667
2235.012	862.25
2237.589	865.91667
2240.164	865.25
2242.738	853.91667
2245.309	843.25
2247.879	853.58333
2250.448	870.58333
2253.014	831.91667
2255.579	832.25
2258.142	833.91667
2260.703	816.58333
2263.262	827.25
2265.82	817.91667
2268.376	838.25
2270.93	823.25
2273.483	810.91667
2276.033	837.58333
2278.583	831.25
2281.13	827.91667
2283.675	814.91667
2286.219	839.25
2288.761	832.58333
2291.302	838.25
2293.841	838.91667
2296.377	816.25
2298.913	841.91667
2301.446	834.58333
2303.978	837.25
2306.508	841.25
2309.037	840.58333
2311.563	841.58333
2314.088	842.91667
2316.612	834.25
2319.133	843.58333
2321.653	829.91667
2324.171	830.58333
2326.688	847.58333
2329.202	831.91667
2331.715	840.25
2334.227	832.91667
2336.736	842.58333
2339.244	835.58333
2341.751	842.91667
2344.255	851.91667
2346.758	837.91667
2349.259	833.91667
2351.759	841.58333
2354.257	839.58333
2356.753	844.25
2359.247	851.91667
2361.74	849.25
2364.231	849.91667
2366.721	851.58333
2369.209	846.91667
2371.695	855.58333
2374.179	840.91667
2376.662	859.91667
2379.143	868.25
2381.622	861.91667
2384.1	869.91667
2386.576	856.25
2389.051	888.91667
2391.524	893.91667
2393.995	888.58333
2396.464	875.58333
2398.932	874.91667
2401.398	884.58333
2403.863	873.91667
2406.325	882.58333
2408.787	867.58333
2411.246	878.58333
2413.704	880.25
2416.16	878.91667
2418.615	893.25
2421.068	901.91667
2423.519	894.58333
2425.969	890.91667
2428.417	889.25
2430.863	918.91667
2433.308	913.25
2435.751	904.58333
2438.193	906.25
2440.633	911.91667
2443.071	902.58333
2445.508	903.25
2447.943	906.91667
2450.376	906.91667
2452.808	915.91667
2455.238	899.25
2457.667	942.25
2460.093	917.25
2462.519	917.58333
2464.942	916.25
2467.365	944.91667
2469.785	928.25
2472.204	926.58333
2474.621	934.25
2477.037	965.25
2479.451	930.25
2481.863	920.91667
2484.274	931.91667
2486.683	935.91667
2489.091	951.91667
2491.497	945.25
2493.901	947.25
2496.304	945.58333
2498.705	949.58333
2501.105	956.58333
2503.503	981.58333
2505.899	950.91667
2508.294	972.58333
2510.687	962.25
2513.079	963.91667
2515.469	969.25
2517.858	956.91667
2520.245	980.58333
2522.63	961.91667
2525.014	961.91667
2527.396	966.91667
2529.776	953.91667
2532.156	988.91667
2534.533	973.58333
2536.909	968.58333
2539.283	965.58333
2541.656	996.25
2544.027	1012.58333
2546.397	1006.25
2548.765	972.91667
2551.131	1004.25
2553.496	1006.58333
2555.86	1005.25
2558.221	1005.58333
2560.582	1010.25
2562.94	1001.25
2565.298	1015.58333
2567.653	1036.58333
2570.007	1018.25
2572.36	1027.91667
2574.711	1023.25
2577.06	1037.25
2579.408	1033.91667
2581.754	1048.91667
2584.099	1031.25
2586.442	1041.91667
2588.784	1054.58333
2591.124	1041.58333
2593.463	1042.91667
2595.8	1034.58333
2598.135	1032.58333
2600.469	1063.25
2602.802	1076.25
2605.133	1057.58333
2607.462	1060.25
2609.79	1057.91667
2612.116	1077.91667
2614.441	1064.91667
2616.764	1069.25
2619.086	1086.91667
2621.406	1086.91667
2623.725	1106.91667
2626.042	1106.58333
2628.358	1091.25
2630.672	1093.25
2632.985	1123.91667
2635.296	1124.91667
2637.606	1117.58333
2639.914	1105.58333
2642.22	1120.58333
2644.525	1125.58333
2646.829	1141.25
2649.131	1138.58333
2651.432	1145.58333
2653.731	1140.58333
2656.028	1171.58333
2658.324	1160.58333
2660.619	1154.25
2662.912	1177.58333
2665.204	1148.25
2667.494	1185.58333
2669.782	1154.91667
2672.07	1186.25
2674.355	1182.25
2676.639	1175.58333
2678.922	1179.25
2681.203	1176.91667
2683.483	1173.25
2685.761	1187.58333
2688.038	1191.91667
2690.313	1215.91667
2692.587	1187.58333
2694.859	1206.91667
2697.13	1205.91667
2699.399	1215.25
2701.667	1225.25
2703.933	1224.91667
2706.198	1236.25
2708.461	1253.25
2710.723	1248.58333
2712.984	1251.91667
2715.243	1260.91667
2717.5	1262.58333
2719.757	1289.58333
2722.011	1265.58333
2724.264	1296.58333
2726.516	1309.91667
2728.766	1304.58333
2731.015	1304.91667
2733.262	1309.91667
2735.508	1306.25
2737.753	1315.25
2739.996	1276.91667
2742.237	1302.25
2744.477	1312.25
2746.716	1321.58333
2748.953	1303.58333
2751.189	1303.91667
2753.423	1293.91667
2755.656	1293.58333
2757.887	1291.58333
2760.117	1306.25
2762.346	1301.91667
2764.573	1305.58333
2766.798	1295.25
2769.022	1305.25
2771.245	1311.58333
2773.467	1312.58333
2775.686	1326.25
2777.905	1339.91667
2780.122	1326.25
2782.337	1339.91667
2784.552	1342.25
2786.764	1375.25
2788.976	1364.58333
2791.186	1380.25
2793.394	1384.91667
2795.601	1393.25
2797.807	1403.25
2800.011	1418.58333
2802.214	1436.58333
2804.415	1421.58333
2806.615	1440.25
2808.814	1450.58333
2811.011	1443.58333
2813.206	1459.25
2815.401	1481.58333
2817.594	1476.58333
2819.785	1490.91667
2821.975	1478.58333
2824.164	1499.25
2826.351	1503.25
2828.537	1520.91667
2830.722	1528.58333
2832.905	1525.91667
2835.086	1567.58333
2837.267	1621.25
2839.445	1627.91667
2841.623	1630.25
2843.799	1657.25
2845.974	1690.91667
2848.147	1749.25
2850.319	1751.91667
2852.489	1786.91667
2854.659	1803.58333
2856.826	1817.58333
2858.993	1844.91667
2861.158	1818.58333
2863.321	1833.91667
2865.483	1866.58333
2867.644	1843.25
2869.804	1841.25
2871.962	1840.25
2874.118	1851.58333
2876.274	1825.91667
2878.428	1834.25
2880.58	1804.25
2882.731	1808.91667
2884.881	1800.25
2887.03	1821.91667
2889.177	1819.91667
2891.322	1847.25
2893.467	1834.91667
2895.61	1834.25
2897.751	1864.25
2899.892	1846.25
2902.03	1848.91667
2904.168	1881.25
2906.304	1873.91667
2908.439	1911.91667
2910.572	1875.58333
2912.704	1907.91667
2914.835	1931.58333
2916.965	1899.91667
2919.093	1933.25
2921.219	1887.25
2923.345	1916.91667
2925.469	1887.58333
2927.591	1881.91667
2929.712	1839.58333
2931.832	1824.58333
2933.951	1817.91667
2936.068	1786.91667
2938.184	1764.58333
2940.299	1736.25
2942.412	1732.58333
2944.524	1686.58333
2946.634	1689.58333
2948.744	1629.58333
2950.851	1682.91667
2952.958	1630.58333
2955.063	1640.25
2957.167	1642.91667
2959.269	1589.25
2961.371	1651.25
2963.471	1590.25
2965.569	1595.25
2967.666	1591.58333
2969.762	1570.91667
2971.857	1555.91667
2973.95	1542.25
2976.042	1536.58333
2978.133	1501.25
2980.222	1489.25
2982.31	1461.58333
2984.396	1427.25
2986.482	1438.58333
2988.566	1452.58333
2990.648	1425.58333
2992.73	1440.91667
2994.81	1433.58333
2996.889	1425.58333
2998.966	1428.91667
3001.042	1444.91667
3003.117	1438.58333
3005.191	1432.25
3007.263	1432.25
3009.334	1425.91667
3011.403	1398.25
3013.472	1368.25
3015.539	1356.91667
3017.604	1377.91667
3019.669	1331.25
3021.732	1334.25
3023.794	1329.25
3025.854	1325.25
3027.914	1326.91667
3029.971	1343.58333
3032.028	1336.91667
3034.083	1327.91667
3036.137	1312.58333
3038.19	1258.58333
3040.242	1238.58333
3042.292	1234.91667
3044.341	1198.58333
3046.388	1208.25
3048.435	1169.25
3050.48	1204.91667
3052.524	1181.91667
3054.566	1168.91667
3056.607	1171.91667
3058.647	1144.58333
3060.686	1112.58333
3062.723	1080.25
3064.759	1048.58333
3066.794	1.91667
3068.828	-0.41667
3070.86	-2.08333
