-0.839	382.20833
3.438	411.54167
7.711	121.875
11.981	52.54167
16.247	45.20833
20.509	40.20833
24.768	45.54167
29.024	40.54167
33.276	36.20833
37.524	44.54167
41.769	38.875
46.01	33.875
50.247	50.875
54.481	58.54167
58.712	64.875
62.939	43.875
67.162	56.54167
71.382	54.875
75.599	47.20833
79.812	60.20833
84.021	79.54167
88.227	58.875
92.429	60.875
96.628	48.54167
100.823	63.54167
105.015	69.875
109.204	70.54167
113.388	66.54167
117.57	68.875
121.748	84.54167
125.922	74.20833
130.093	87.54167
134.261	94.54167
138.425	90.54167
142.585	125.54167
146.742	119.875
150.896	138.54167
155.046	161.875
159.193	252.54167
163.336	416.875
167.476	775.54167
171.613	1395.20833
175.746	2362.875
179.875	3511.875
184.002	4620.54167
188.124	5415.54167
192.244	5687.875
196.36	5608.54167
200.472	5467.875
204.581	5322.20833
208.687	5194.20833
212.79	5113.875
216.889	5155.54167
220.984	5131.875
225.077	5169.20833
229.165	5210.54167
233.251	5219.20833
237.333	5221.54167
241.412	5195.54167
245.487	5157.875
249.559	5100.875
253.628	5076.875
257.694	5005.20833
261.756	4997.875
265.814	4911.20833
269.87	4829.875
273.922	4721.20833
277.97	4719.875
282.016	4711.54167
286.058	4776.20833
290.097	4915.54167
294.132	4945.54167
298.164	4912.54167
302.193	4700.54167
306.219	4358.54167
310.241	3999.54167
314.26	3657.20833
318.276	3390.875
322.288	3166.54167
326.297	2979.20833
330.303	2875.20833
334.305	2765.54167
338.305	2718.20833
342.301	2666.20833
346.294	2640.875
350.283	2600.54167
354.269	2565.875
358.252	2568.875
362.232	2535.54167
366.209	2529.875
370.182	2502.54167
374.152	2478.875
378.119	2487.54167
382.083	2462.54167
386.043	2486.20833
390	2457.20833
393.954	2429.54167
397.905	2419.875
401.852	2416.875
405.797	2379.54167
409.738	2363.20833
413.676	2376.875
417.61	2378.54167
421.542	2357.20833
425.47	2327.20833
429.396	2304.20833
433.318	2303.875
437.236	2292.54167
441.152	2307.54167
445.065	2236.20833
448.974	2260.54167
452.88	2239.875
456.783	2220.54167
460.683	2202.20833
464.58	2225.54167
468.473	2207.875
472.364	2245.20833
476.251	2243.875
480.135	2258.875
484.016	2292.20833
487.894	2305.54167
491.769	2308.54167
495.641	2336.875
499.509	2296.54167
503.375	2336.875
507.237	2362.875
511.096	2414.875
514.952	2691.54167
518.805	3006.20833
522.655	3120.20833
526.502	2676.875
530.346	2365.875
534.187	2338.20833
538.024	2315.875
541.859	2316.54167
545.69	2317.20833
549.519	2304.54167
553.344	2267.54167
557.166	2233.54167
560.985	2234.20833
564.802	2192.875
568.615	2155.54167
572.425	2140.54167
576.232	2123.54167
580.036	2109.20833
583.836	2143.20833
587.634	2131.875
591.429	2133.54167
595.221	2171.20833
599.01	2179.54167
602.796	2221.875
606.578	2237.20833
610.358	2237.20833
614.135	2225.875
617.909	2223.20833
621.679	2210.875
625.447	2178.875
629.212	2190.20833
632.973	2190.20833
636.732	2187.54167
640.488	2184.875
644.241	2138.54167
647.991	2148.20833
651.737	2168.54167
655.481	2143.875
659.222	2143.875
662.96	2130.54167
666.695	2184.54167
670.427	2172.54167
674.156	2196.54167
677.882	2153.54167
681.605	2146.20833
685.325	2140.875
689.043	2141.875
692.757	2133.20833
696.468	2152.875
700.177	2144.54167
703.882	2110.875
707.585	2123.875
711.284	2111.20833
714.981	2138.875
718.675	2143.20833
722.366	2145.875
726.054	2131.20833
729.739	2135.54167
733.421	2118.875
737.1	2130.20833
740.777	2147.20833
744.45	2132.20833
748.121	2174.20833
751.789	2206.20833
755.453	2178.54167
759.115	2201.875
762.774	2228.20833
766.431	2228.875
770.084	2248.20833
773.734	2270.54167
777.382	2312.20833
781.027	2327.20833
784.669	2335.54167
788.308	2346.54167
791.944	2372.20833
795.577	2401.20833
799.208	2409.875
802.835	2411.20833
806.46	2423.20833
810.082	2451.875
813.701	2450.875
817.317	2484.875
820.931	2467.20833
824.542	2473.20833
828.149	2438.54167
831.754	2405.54167
835.357	2416.54167
838.956	2407.875
842.553	2403.875
846.146	2377.54167
849.737	2385.54167
853.326	2363.20833
856.911	2376.54167
860.493	2406.54167
864.073	2416.875
867.65	2434.20833
871.225	2484.20833
874.796	2490.875
878.365	2498.875
881.931	2517.20833
885.494	2529.20833
889.054	2524.20833
892.612	2557.875
896.166	2527.875
899.719	2485.20833
903.268	2471.875
906.814	2450.20833
910.358	2445.54167
913.899	2403.20833
917.438	2422.54167
920.973	2414.875
924.506	2449.875
928.036	2496.875
931.564	2528.20833
935.088	2550.20833
938.61	2578.875
942.129	2604.54167
945.646	2673.20833
949.16	2739.875
952.671	2767.875
956.179	2773.54167
959.685	2746.20833
963.188	2734.875
966.688	2678.875
970.185	2625.20833
973.68	2556.20833
977.173	2551.54167
980.662	2505.875
984.149	2474.20833
987.633	2454.54167
991.114	2467.54167
994.593	2540.54167
998.069	2575.54167
1001.542	2656.875
1005.013	2570.875
1008.481	2451.20833
1011.947	2423.54167
1015.409	2411.54167
1018.869	2418.875
1022.327	2431.875
1025.782	2420.54167
1029.234	2411.20833
1032.683	2387.54167
1036.13	2302.54167
1039.574	2224.54167
1043.016	2191.875
1046.455	2156.875
1049.891	2121.54167
1053.325	2146.875
1056.756	2147.875
1060.184	2174.54167
1063.61	2171.875
1067.033	2187.54167
1070.454	2188.20833
1073.872	2214.20833
1077.287	2222.875
1080.7	2220.20833
1084.11	2212.875
1087.517	2210.875
1090.922	2167.20833
1094.325	2152.54167
1097.724	2130.875
1101.122	2142.54167
1104.516	2108.875
1107.908	2129.875
1111.298	2158.54167
1114.684	2188.875
1118.069	2207.875
1121.45	2248.20833
1124.83	2248.54167
1128.206	2260.875
1131.58	2309.54167
1134.951	2357.875
1138.32	2419.875
1141.687	2514.875
1145.05	2571.54167
1148.412	2577.54167
1151.77	2574.20833
1155.126	2578.54167
1158.48	2582.54167
1161.831	2587.54167
1165.18	2622.875
1168.525	2638.20833
1171.869	2674.54167
1175.21	2709.54167
1178.548	2709.20833
1181.884	2773.54167
1185.217	2772.54167
1188.548	2878.54167
1191.877	2922.875
1195.202	3010.875
1198.526	3046.54167
1201.846	3087.875
1205.165	3074.54167
1208.48	3093.20833
1211.794	3060.20833
1215.104	3058.875
1218.413	3075.20833
1221.719	3057.875
1225.022	3025.875
1228.323	2972.54167
1231.621	2956.54167
1234.917	2940.20833
1238.21	2938.20833
1241.501	2925.54167
1244.79	2926.20833
1248.076	2936.875
1251.359	2943.875
1254.64	2992.875
1257.919	2994.54167
1261.195	3065.20833
1264.468	3117.875
1267.74	3126.875
1271.008	3163.54167
1274.275	3121.875
1277.538	3119.54167
1280.8	3107.54167
1284.059	3127.875
1287.315	3129.875
1290.569	3195.875
1293.821	3227.54167
1297.07	3234.54167
1300.317	3225.54167
1303.562	3243.54167
1306.803	3199.875
1310.043	3165.54167
1313.28	3147.54167
1316.515	3113.875
1319.747	3102.54167
1322.977	3065.875
1326.204	2999.20833
1329.429	2983.20833
1332.652	2982.54167
1335.872	2952.54167
1339.09	2930.20833
1342.306	2882.875
1345.519	2852.20833
1348.729	2824.54167
1351.938	2773.875
1355.144	2738.54167
1358.347	2708.20833
1361.548	2718.875
1364.747	2726.54167
1367.944	2678.54167
1371.138	2678.20833
1374.329	2693.54167
1377.518	2735.54167
1380.705	2744.875
1383.89	2720.20833
1387.072	2638.54167
1390.252	2543.54167
1393.429	2483.875
1396.605	2425.20833
1399.777	2349.54167
1402.948	2362.20833
1406.116	2350.54167
1409.282	2357.54167
1412.445	2357.54167
1415.606	2401.54167
1418.765	2424.875
1421.921	2485.875
1425.075	2537.54167
1428.227	2624.875
1431.376	2718.875
1434.524	2810.20833
1437.668	2852.54167
1440.811	2884.54167
1443.951	2920.20833
1447.089	2895.875
1450.224	2909.875
1453.357	2887.875
1456.488	2898.20833
1459.617	2838.875
1462.743	2813.20833
1465.867	2764.20833
1468.989	2726.875
1472.108	2687.20833
1475.225	2654.54167
1478.34	2624.54167
1481.453	2611.875
1484.563	2620.20833
1487.671	2655.20833
1490.776	2702.875
1493.88	2739.54167
1496.981	2780.875
1500.08	2824.20833
1503.176	2863.54167
1506.271	2912.54167
1509.363	2955.875
1512.452	2975.20833
1515.54	3026.875
1518.625	3077.875
1521.708	3179.20833
1524.789	3248.875
1527.867	3411.54167
1530.944	3542.20833
1534.018	3713.875
1537.089	3816.54167
1540.159	3872.875
1543.226	3850.20833
1546.291	3735.54167
1549.354	3652.54167
1552.415	3560.20833
1555.473	3475.54167
1558.529	3388.54167
1561.583	3354.54167
1564.634	3336.54167
1567.684	3337.54167
1570.731	3348.54167
1573.776	3351.20833
1576.819	3393.54167
1579.859	3416.20833
1582.898	3437.54167
1585.934	3441.875
1588.968	3484.54167
1591.999	3467.54167
1595.029	3491.20833
1598.056	3537.20833
1601.081	3554.875
1604.104	3543.54167
1607.125	3493.54167
1610.144	3392.20833
1613.16	3298.20833
1616.174	3257.20833
1619.186	3141.875
1622.196	3044.54167
1625.203	2991.54167
1628.209	2900.875
1631.212	2881.875
1634.213	2899.875
1637.212	2835.875
1640.209	2786.20833
1643.203	2707.20833
1646.196	2620.54167
1649.186	2522.54167
1652.174	2462.20833
1655.16	2388.20833
1658.144	2308.54167
1661.125	2225.20833
1664.105	2106.20833
1667.082	2024.54167
1670.057	1938.20833
1673.03	1812.54167
1676.001	1713.20833
1678.97	1625.54167
1681.937	1538.20833
1684.901	1459.20833
1687.863	1414.875
1690.824	1357.20833
1693.782	1355.54167
1696.738	1285.54167
1699.692	1288.54167
1702.643	1247.20833
1705.593	1232.54167
1708.54	1217.875
1711.486	1224.875
1714.429	1175.20833
1717.37	1187.54167
1720.309	1167.20833
1723.246	1174.54167
1726.181	1141.875
1729.113	1131.875
1732.044	1138.20833
1734.972	1113.54167
1737.899	1130.875
1740.823	1117.875
1743.745	1120.20833
1746.665	1077.875
1749.583	1064.54167
1752.499	1060.54167
1755.413	1042.20833
1758.325	1014.875
1761.235	1015.54167
1764.142	993.875
1767.048	1002.54167
1769.951	985.20833
1772.852	991.20833
1775.752	982.875
1778.649	987.20833
1781.544	988.20833
1784.437	947.20833
1787.328	977.20833
1790.217	965.875
1793.104	940.20833
1795.989	934.875
1798.872	939.54167
1801.753	962.20833
1804.631	941.20833
1807.508	965.54167
1810.383	956.20833
1813.255	953.20833
1816.126	952.54167
1818.994	930.20833
1821.861	930.20833
1824.725	937.54167
1827.587	928.875
1830.448	919.54167
1833.306	899.20833
1836.162	912.875
1839.017	901.875
1841.869	922.875
1844.719	915.875
1847.567	888.20833
1850.414	882.20833
1853.258	892.54167
1856.1	893.875
1858.94	914.875
1861.778	906.54167
1864.614	889.54167
1867.448	892.20833
1870.28	871.875
1873.111	911.875
1875.939	900.54167
1878.765	916.54167
1881.589	892.54167
1884.411	888.20833
1887.231	895.875
1890.049	884.20833
1892.865	897.20833
1895.68	892.875
1898.492	890.875
1901.302	863.20833
1904.11	877.875
1906.916	877.54167
1909.721	865.875
1912.523	883.875
1915.323	850.54167
1918.122	871.875
1920.918	869.20833
1923.712	865.20833
1926.505	876.20833
1929.295	846.54167
1932.084	869.875
1934.87	870.875
1937.655	863.54167
1940.438	876.54167
1943.218	858.54167
1945.997	860.54167
1948.774	887.54167
1951.549	883.875
1954.322	862.875
1957.093	885.54167
1959.862	854.875
1962.629	855.20833
1965.394	853.54167
1968.157	838.54167
1970.918	864.20833
1973.678	858.875
1976.435	853.20833
1979.19	854.875
1981.944	849.20833
1984.696	847.20833
1987.445	824.20833
1990.193	844.54167
1992.939	862.54167
1995.683	837.20833
1998.425	843.54167
2001.165	861.875
2003.903	843.20833
2006.639	838.20833
2009.374	849.54167
2012.106	858.54167
2014.837	820.54167
2017.566	853.875
2020.292	855.20833
2023.017	851.875
2025.74	853.20833
2028.461	834.20833
2031.18	843.875
2033.898	825.875
2036.613	856.875
2039.327	849.20833
2042.038	832.54167
2044.748	846.54167
2047.456	845.875
2050.162	828.875
2052.866	834.875
2055.568	852.20833
2058.268	832.875
2060.967	842.20833
2063.663	828.54167
2066.358	841.20833
2069.051	840.875
2071.742	837.875
2074.431	849.875
2077.118	840.875
2079.804	836.54167
2082.487	842.20833
2085.169	861.54167
2087.849	866.20833
2090.527	853.875
2093.203	866.20833
2095.877	884.20833
2098.55	865.54167
2101.22	891.54167
2103.889	896.54167
2106.556	896.20833
2109.221	932.54167
2111.884	953.20833
2114.546	1011.54167
2117.205	1066.54167
2119.863	1126.875
2122.519	1175.875
2125.173	1233.875
2127.825	1291.875
2130.475	1281.875
2133.124	1257.875
2135.771	1217.875
2138.416	1180.54167
2141.059	1133.54167
2143.7	1091.20833
2146.339	1042.20833
2148.977	996.54167
2151.613	994.875
2154.247	955.875
2156.879	947.875
2159.51	941.54167
2162.138	909.875
2164.765	906.20833
2167.39	911.875
2170.013	924.54167
2172.634	917.54167
2175.254	891.20833
2177.872	934.875
2180.488	900.54167
2183.102	891.54167
2185.714	883.875
2188.325	859.20833
2190.934	879.875
2193.541	877.54167
2196.146	867.875
2198.75	856.54167
2201.351	876.875
2203.951	843.875
2206.549	875.20833
2209.146	856.54167
2211.74	850.20833
2214.333	870.875
2216.924	842.54167
2219.514	852.20833
2222.101	829.20833
2224.687	858.20833
2227.271	840.20833
2229.853	845.20833
2232.433	833.54167
2235.012	865.20833
2237.589	858.54167
2240.164	865.20833
2242.738	843.54167
2245.309	844.20833
2247.879	848.875
2250.448	855.875
2253.014	845.54167
2255.579	839.54167
2258.142	836.54167
2260.703	825.875
2263.262	828.54167
2265.82	825.20833
2268.376	843.875
2270.93	829.54167
2273.483	827.875
2276.033	836.54167
2278.583	834.54167
2281.13	832.875
2283.675	817.875
2286.219	834.20833
2288.761	832.875
2291.302	845.20833
2293.841	851.875
2296.377	831.54167
2298.913	836.54167
2301.446	842.20833
2303.978	844.54167
2306.508	834.875
2309.037	843.20833
2311.563	851.20833
2314.088	857.54167
2316.612	825.20833
2319.133	855.875
2321.653	843.875
2324.171	832.20833
2326.688	842.54167
2329.202	859.20833
2331.715	848.54167
2334.227	846.54167
2336.736	842.54167
2339.244	838.20833
2341.751	835.20833
2344.255	859.20833
2346.758	842.875
2349.259	845.875
2351.759	854.875
2354.257	861.875
2356.753	852.20833
2359.247	859.20833
2361.74	868.875
2364.231	862.20833
2366.721	869.20833
2369.209	869.875
2371.695	867.875
2374.179	869.875
2376.662	867.20833
2379.143	890.54167
2381.622	875.54167
2384.1	892.875
2386.576	888.54167
2389.051	881.54167
2391.524	905.20833
2393.995	900.54167
2396.464	880.20833
2398.932	887.54167
2401.398	897.54167
2403.863	883.20833
2406.325	881.875
2408.787	895.20833
2411.246	893.875
2413.704	888.54167
2416.16	893.20833
2418.615	905.20833
2421.068	914.875
2423.519	905.875
2425.969	893.875
2428.417	920.54167
2430.863	944.54167
2433.308	935.20833
2435.751	914.54167
2438.193	920.875
2440.633	918.875
2443.071	935.875
2445.508	919.875
2447.943	926.875
2450.376	918.875
2452.808	943.875
2455.238	923.54167
2457.667	964.875
2460.093	941.875
2462.519	941.54167
2464.942	953.54167
2467.365	959.875
2469.785	937.54167
2472.204	947.875
2474.621	933.54167
2477.037	975.875
2479.451	937.20833
2481.863	950.54167
2484.274	958.20833
2486.683	961.875
2489.091	959.875
2491.497	972.20833
2493.901	964.54167
2496.304	957.875
2498.705	984.54167
2501.105	974.54167
2503.503	1001.20833
2505.899	977.54167
2508.294	996.54167
2510.687	973.875
2513.079	975.54167
2515.469	967.20833
2517.858	988.54167
2520.245	1003.54167
2522.63	1006.20833
2525.014	989.20833
2527.396	990.54167
2529.776	991.875
2532.156	1004.20833
2534.533	986.20833
2536.909	1005.875
2539.283	994.20833
2541.656	993.20833
2544.027	1033.20833
2546.397	1034.54167
2548.765	1024.20833
2551.131	1025.54167
2553.496	1026.54167
2555.86	1035.875
2558.221	1039.875
2560.582	1023.20833
2562.94	1021.875
2565.298	1040.875
2567.653	1059.875
2570.007	1047.875
2572.36	1062.54167
2574.711	1047.20833
2577.06	1067.20833
2579.408	1063.20833
2581.754	1069.20833
2584.099	1060.54167
2586.442	1071.54167
2588.784	1073.20833
2591.124	1096.20833
2593.463	1065.875
2595.8	1062.875
2598.135	1075.54167
2600.469	1076.54167
2602.802	1103.54167
2605.133	1091.875
2607.462	1096.20833
2609.79	1086.54167
2612.116	1099.54167
2614.441	1108.20833
2616.764	1104.20833
2619.086	1122.875
2621.406	1120.875
2623.725	1126.20833
2626.042	1124.875
2628.358	1130.875
2630.672	1131.20833
2632.985	1137.20833
2635.296	1139.54167
2637.606	1139.20833
2639.914	1138.54167
2642.22	1151.20833
2644.525	1142.875
2646.829	1168.20833
2649.131	1181.54167
2651.432	1175.20833
2653.731	1188.875
2656.028	1188.20833
2658.324	1190.54167
2660.619	1186.875
2662.912	1203.20833
2665.204	1177.875
2667.494	1211.20833
2669.782	1210.875
2672.07	1217.875
2674.355	1224.54167
2676.639	1212.20833
2678.922	1203.54167
2681.203	1225.54167
2683.483	1210.20833
2685.761	1213.875
2688.038	1230.875
2690.313	1245.875
2692.587	1252.875
2694.859	1246.20833
2697.13	1249.20833
2699.399	1261.875
2701.667	1272.54167
2703.933	1268.875
2706.198	1290.875
2708.461	1278.875
2710.723	1300.875
2712.984	1285.20833
2715.243	1306.875
2717.5	1292.20833
2719.757	1313.875
2722.011	1330.875
2724.264	1316.20833
2726.516	1350.875
2728.766	1335.54167
2731.015	1340.54167
2733.262	1341.54167
2735.508	1344.54167
2737.753	1345.875
2739.996	1325.54167
2742.237	1329.20833
2744.477	1348.875
2746.716	1354.54167
2748.953	1334.20833
2751.189	1351.875
2753.423	1339.20833
2755.656	1326.20833
2757.887	1349.875
2760.117	1348.54167
2762.346	1341.875
2764.573	1333.54167
2766.798	1331.20833
2769.022	1357.20833
2771.245	1360.54167
2773.467	1360.54167
2775.686	1363.875
2777.905	1371.875
2780.122	1378.20833
2782.337	1396.20833
2784.552	1385.875
2786.764	1425.54167
2788.976	1408.875
2791.186	1425.875
2793.394	1441.54167
2795.601	1444.875
2797.807	1459.875
2800.011	1482.875
2802.214	1476.54167
2804.415	1483.54167
2806.615	1481.875
2808.814	1501.875
2811.011	1516.20833
2813.206	1502.875
2815.401	1514.875
2817.594	1523.54167
2819.785	1532.20833
2821.975	1523.875
2824.164	1528.54167
2826.351	1559.54167
2828.537	1577.875
2830.722	1587.875
2832.905	1599.875
2835.086	1615.20833
2837.267	1653.20833
2839.445	1684.54167
2841.623	1669.20833
2843.799	1711.20833
2845.974	1751.20833
2848.147	1776.20833
2850.319	1808.20833
2852.489	1828.54167
2854.659	1847.875
2856.826	1854.875
2858.993	1889.20833
2861.158	1877.54167
2863.321	1887.20833
2865.483	1905.875
2867.644	1890.54167
2869.804	1921.20833
2871.962	1901.875
2874.118	1889.54167
2876.274	1866.20833
2878.428	1858.54167
2880.58	1852.20833
2882.731	1857.20833
2884.881	1852.54167
2887.03	1867.54167
2889.177	1860.20833
2891.322	1883.20833
2893.467	1849.54167
2895.61	1862.875
2897.751	1902.20833
2899.892	1893.875
2902.03	1895.20833
2904.168	1911.875
2906.304	1937.875
2908.439	1937.875
2910.572	1925.875
2912.704	1950.20833
2914.835	1959.54167
2916.965	1948.54167
2919.093	1973.54167
2921.219	1922.54167
2923.345	1960.875
2925.469	1942.20833
2927.591	1924.875
2929.712	1893.875
2931.832	1890.54167
2933.951	1855.20833
2936.068	1829.54167
2938.184	1812.20833
2940.299	1790.20833
2942.412	1778.875
2944.524	1730.54167
2946.634	1747.20833
2948.744	1714.875
2950.851	1734.54167
2952.958	1681.20833
2955.063	1690.54167
2957.167	1679.54167
2959.269	1654.875
2961.371	1676.875
2963.471	1661.20833
2965.569	1666.20833
2967.666	1628.54167
2969.762	1609.54167
2971.857	1607.54167
2973.95	1580.20833
2976.042	1586.875
2978.133	1553.20833
2980.222	1531.20833
2982.31	1514.875
2984.396	1488.54167
2986.482	1495.20833
2988.566	1487.54167
2990.648	1482.54167
2992.73	1506.20833
2994.81	1466.54167
2996.889	1479.54167
2998.966	1485.875
3001.042	1485.875
3003.117	1485.54167
3005.191	1489.875
3007.263	1482.20833
3009.334	1475.875
3011.403	1443.20833
3013.472	1422.20833
3015.539	1420.54167
3017.604	1411.54167
3019.669	1376.20833
3021.732	1383.20833
3023.794	1380.20833
3025.854	1373.54167
3027.914	1388.875
3029.971	1402.20833
3032.028	1364.54167
3034.083	1374.54167
3036.137	1350.20833
3038.19	1318.54167
3040.242	1296.875
3042.292	1264.875
3044.341	1241.20833
3046.388	1259.20833
3048.435	1231.875
3050.48	1241.54167
3052.524	1219.54167
3054.566	1212.875
3056.607	1208.875
3058.647	1179.20833
3060.686	1160.54167
3062.723	1117.875
3064.759	1095.54167
3066.794	0.20833
3068.828	-0.45833
3070.86	-2.45833
