-0.839	395.125
3.438	424.45833
7.711	120.125
11.981	52.125
16.247	46.79167
20.509	43.125
24.768	43.125
29.024	43.79167
33.276	43.45833
37.524	48.125
41.769	38.79167
46.01	37.79167
50.247	49.45833
54.481	59.79167
58.712	65.45833
62.939	42.125
67.162	59.45833
71.382	58.125
75.599	47.125
79.812	64.125
84.021	78.79167
88.227	55.45833
92.429	57.79167
96.628	48.45833
100.823	65.45833
105.015	70.45833
109.204	72.125
113.388	69.79167
117.57	69.45833
121.748	82.125
125.922	71.79167
130.093	90.79167
134.261	93.45833
138.425	88.45833
142.585	125.45833
146.742	121.79167
150.896	137.79167
155.046	164.125
159.193	258.125
163.336	426.45833
167.476	773.45833
171.613	1443.45833
175.746	2437.45833
179.875	3642.79167
184.002	4782.125
188.124	5567.125
192.244	5834.45833
196.36	5807.125
200.472	5662.79167
204.581	5524.79167
208.687	5388.79167
212.79	5293.79167
216.889	5336.125
220.984	5388.125
225.077	5393.125
229.165	5463.45833
233.251	5463.125
237.333	5478.79167
241.412	5404.45833
245.487	5410.45833
249.559	5334.45833
253.628	5295.125
257.694	5272.45833
261.756	5256.79167
265.814	5173.45833
269.87	5055.45833
273.922	4932.45833
277.97	4963.125
282.016	4936.125
286.058	4989.125
290.097	5087.79167
294.132	5168.45833
298.164	5110.125
302.193	4919.79167
306.219	4558.125
310.241	4191.79167
314.26	3855.79167
318.276	3598.125
322.288	3362.45833
326.297	3192.79167
330.303	3056.45833
334.305	2972.79167
338.305	2928.79167
342.301	2869.45833
346.294	2830.45833
350.283	2813.125
354.269	2786.79167
358.252	2771.79167
362.232	2739.125
366.209	2731.79167
370.182	2697.45833
374.152	2677.45833
378.119	2683.45833
382.083	2661.79167
386.043	2668.79167
390	2646.79167
393.954	2652.79167
397.905	2647.45833
401.852	2613.125
405.797	2602.45833
409.738	2566.79167
413.676	2589.79167
417.61	2590.79167
421.542	2564.79167
425.47	2529.125
429.396	2546.79167
433.318	2503.125
437.236	2504.125
441.152	2523.45833
445.065	2463.79167
448.974	2472.79167
452.88	2445.79167
456.783	2472.79167
460.683	2429.125
464.58	2423.79167
468.473	2439.79167
472.364	2439.125
476.251	2459.125
480.135	2492.79167
484.016	2510.79167
487.894	2524.125
491.769	2541.125
495.641	2546.125
499.509	2561.125
503.375	2557.45833
507.237	2574.79167
511.096	2616.45833
514.952	2892.125
518.805	3194.79167
522.655	3293.125
526.502	2849.125
530.346	2574.125
534.187	2537.125
538.024	2523.45833
541.859	2501.79167
545.69	2530.79167
549.519	2496.45833
553.344	2455.79167
557.166	2444.45833
560.985	2404.125
564.802	2417.125
568.615	2350.125
572.425	2345.125
576.232	2335.125
580.036	2319.45833
583.836	2325.125
587.634	2326.45833
591.429	2319.125
595.221	2363.45833
599.01	2412.79167
602.796	2440.125
606.578	2434.79167
610.358	2438.79167
614.135	2413.79167
617.909	2428.125
621.679	2407.125
625.447	2374.125
629.212	2399.45833
632.973	2393.79167
636.732	2359.45833
640.488	2376.79167
644.241	2340.125
647.991	2347.125
651.737	2359.125
655.481	2351.79167
659.222	2359.125
662.96	2358.45833
666.695	2380.45833
670.427	2415.79167
674.156	2410.45833
677.882	2398.125
681.605	2372.45833
685.325	2337.79167
689.043	2359.45833
692.757	2345.79167
696.468	2337.79167
700.177	2353.79167
703.882	2323.125
707.585	2328.45833
711.284	2325.45833
714.981	2316.79167
718.675	2333.125
722.366	2336.125
726.054	2334.45833
729.739	2320.45833
733.421	2332.45833
737.1	2304.79167
740.777	2329.45833
744.45	2334.45833
748.121	2343.79167
751.789	2411.125
755.453	2382.125
759.115	2398.79167
762.774	2419.125
766.431	2432.79167
770.084	2447.45833
773.734	2455.125
777.382	2494.125
781.027	2519.125
784.669	2515.125
788.308	2541.79167
791.944	2561.125
795.577	2580.45833
799.208	2625.125
802.835	2619.79167
806.46	2637.79167
810.082	2653.79167
813.701	2658.79167
817.317	2671.125
820.931	2652.79167
824.542	2667.45833
828.149	2631.45833
831.754	2591.79167
835.357	2587.79167
838.956	2580.125
842.553	2573.45833
846.146	2550.79167
849.737	2511.125
853.326	2545.79167
856.911	2530.45833
860.493	2568.79167
864.073	2566.125
867.65	2619.125
871.225	2651.125
874.796	2646.125
878.365	2655.125
881.931	2677.125
885.494	2713.45833
889.054	2690.79167
892.612	2714.125
896.166	2696.125
899.719	2641.79167
903.268	2638.79167
906.814	2602.45833
910.358	2598.79167
913.899	2574.45833
917.438	2596.125
920.973	2572.125
924.506	2618.79167
928.036	2659.125
931.564	2685.45833
935.088	2732.45833
938.61	2757.79167
942.129	2774.125
945.646	2814.79167
949.16	2889.79167
952.671	2943.125
956.179	2963.125
959.685	2909.125
963.188	2923.79167
966.688	2894.45833
970.185	2812.45833
973.68	2733.45833
977.173	2707.79167
980.662	2668.125
984.149	2664.45833
987.633	2645.79167
991.114	2663.79167
994.593	2715.125
998.069	2779.125
1001.542	2847.45833
1005.013	2775.79167
1008.481	2638.45833
1011.947	2594.45833
1015.409	2601.45833
1018.869	2596.45833
1022.327	2602.79167
1025.782	2583.79167
1029.234	2577.79167
1032.683	2549.45833
1036.13	2493.45833
1039.574	2397.125
1043.016	2346.79167
1046.455	2284.79167
1049.891	2277.79167
1053.325	2281.79167
1056.756	2285.45833
1060.184	2320.125
1063.61	2328.79167
1067.033	2312.45833
1070.454	2328.79167
1073.872	2373.45833
1077.287	2354.125
1080.7	2373.45833
1084.11	2360.45833
1087.517	2369.79167
1090.922	2324.79167
1094.325	2313.125
1097.724	2268.125
1101.122	2289.45833
1104.516	2278.79167
1107.908	2283.45833
1111.298	2323.125
1114.684	2324.45833
1118.069	2357.79167
1121.45	2387.45833
1124.83	2375.79167
1128.206	2406.45833
1131.58	2462.125
1134.951	2493.79167
1138.32	2563.79167
1141.687	2662.125
1145.05	2713.45833
1148.412	2746.45833
1151.77	2720.79167
1155.126	2711.125
1158.48	2711.45833
1161.831	2724.125
1165.18	2738.79167
1168.525	2758.125
1171.869	2797.125
1175.21	2817.79167
1178.548	2851.45833
1181.884	2889.45833
1185.217	2921.79167
1188.548	2996.45833
1191.877	3044.79167
1195.202	3149.79167
1198.526	3211.125
1201.846	3228.79167
1205.165	3223.79167
1208.48	3207.79167
1211.794	3218.125
1215.104	3228.125
1218.413	3244.45833
1221.719	3240.125
1225.022	3179.45833
1228.323	3137.125
1231.621	3133.125
1234.917	3098.45833
1238.21	3122.45833
1241.501	3085.79167
1244.79	3093.125
1248.076	3098.45833
1251.359	3114.125
1254.64	3185.79167
1257.919	3161.125
1261.195	3227.125
1264.468	3245.45833
1267.74	3317.79167
1271.008	3290.79167
1274.275	3301.125
1277.538	3288.45833
1280.8	3298.45833
1284.059	3308.125
1287.315	3331.45833
1290.569	3335.125
1293.821	3365.125
1297.07	3377.45833
1300.317	3386.79167
1303.562	3368.125
1306.803	3353.79167
1310.043	3340.79167
1313.28	3292.79167
1316.515	3268.125
1319.747	3242.125
1322.977	3210.125
1326.204	3192.125
1329.429	3136.79167
1332.652	3144.125
1335.872	3143.125
1339.09	3106.79167
1342.306	3086.45833
1345.519	3045.45833
1348.729	3000.125
1351.938	2951.45833
1355.144	2904.125
1358.347	2889.125
1361.548	2863.125
1364.747	2886.45833
1367.944	2836.79167
1371.138	2863.45833
1374.329	2863.125
1377.518	2888.125
1380.705	2886.45833
1383.89	2878.79167
1387.072	2781.79167
1390.252	2723.45833
1393.429	2640.79167
1396.605	2574.125
1399.777	2507.45833
1402.948	2501.45833
1406.116	2471.79167
1409.282	2503.125
1412.445	2523.45833
1415.606	2556.125
1418.765	2584.125
1421.921	2637.45833
1425.075	2682.79167
1428.227	2738.125
1431.376	2869.125
1434.524	2982.45833
1437.668	3033.125
1440.811	3043.45833
1443.951	3072.125
1447.089	3078.125
1450.224	3061.45833
1453.357	3077.79167
1456.488	3043.45833
1459.617	3000.79167
1462.743	2978.45833
1465.867	2884.45833
1468.989	2866.45833
1472.108	2847.79167
1475.225	2799.79167
1478.34	2747.125
1481.453	2760.45833
1484.563	2757.45833
1487.671	2783.45833
1490.776	2850.79167
1493.88	2854.125
1496.981	2915.125
1500.08	2970.45833
1503.176	3012.79167
1506.271	3038.45833
1509.363	3083.45833
1512.452	3128.79167
1515.54	3149.79167
1518.625	3197.45833
1521.708	3304.45833
1524.789	3415.45833
1527.867	3540.79167
1530.944	3708.79167
1534.018	3871.125
1537.089	3987.79167
1540.159	4018.79167
1543.226	3969.125
1546.291	3886.125
1549.354	3792.125
1552.415	3712.79167
1555.473	3595.79167
1558.529	3538.79167
1561.583	3497.45833
1564.634	3449.45833
1567.684	3464.125
1570.731	3441.45833
1573.776	3485.45833
1576.819	3499.45833
1579.859	3538.79167
1582.898	3553.79167
1585.934	3619.79167
1588.968	3635.125
1591.999	3602.125
1595.029	3597.125
1598.056	3632.125
1601.081	3664.125
1604.104	3649.79167
1607.125	3609.125
1610.144	3519.45833
1613.16	3458.79167
1616.174	3358.79167
1619.186	3300.79167
1622.196	3190.125
1625.203	3130.45833
1628.209	3079.125
1631.212	3087.45833
1634.213	3062.125
1637.212	3078.45833
1640.209	3016.79167
1643.203	2930.45833
1646.196	2842.125
1649.186	2729.45833
1652.174	2682.45833
1655.16	2571.45833
1658.144	2510.79167
1661.125	2367.79167
1664.105	2268.45833
1667.082	2160.45833
1670.057	2063.79167
1673.03	1941.125
1676.001	1829.125
1678.97	1719.125
1681.937	1624.125
1684.901	1553.79167
1687.863	1511.45833
1690.824	1446.125
1693.782	1437.79167
1696.738	1371.125
1699.692	1358.125
1702.643	1323.125
1705.593	1294.45833
1708.54	1293.45833
1711.486	1287.45833
1714.429	1261.125
1717.37	1269.79167
1720.309	1237.125
1723.246	1263.45833
1726.181	1225.45833
1729.113	1240.79167
1732.044	1207.79167
1734.972	1189.79167
1737.899	1199.125
1740.823	1191.45833
1743.745	1196.45833
1746.665	1148.79167
1749.583	1138.45833
1752.499	1133.45833
1755.413	1116.125
1758.325	1096.125
1761.235	1093.45833
1764.142	1055.79167
1767.048	1078.79167
1769.951	1053.79167
1772.852	1059.79167
1775.752	1050.125
1778.649	1055.125
1781.544	1053.45833
1784.437	1035.79167
1787.328	1045.45833
1790.217	1021.125
1793.104	1021.45833
1795.989	1014.79167
1798.872	1007.45833
1801.753	1030.45833
1804.631	1025.79167
1807.508	1022.125
1810.383	1008.125
1813.255	1004.125
1816.126	1013.45833
1818.994	999.125
1821.861	994.125
1824.725	995.45833
1827.587	1001.45833
1830.448	985.45833
1833.306	968.125
1836.162	979.79167
1839.017	964.45833
1841.869	963.45833
1844.719	963.125
1847.567	957.125
1850.414	945.125
1853.258	940.79167
1856.1	977.45833
1858.94	979.45833
1861.778	965.45833
1864.614	942.45833
1867.448	953.125
1870.28	949.79167
1873.111	981.45833
1875.939	953.45833
1878.765	972.125
1881.589	949.79167
1884.411	961.125
1887.231	958.79167
1890.049	950.125
1892.865	940.125
1895.68	941.45833
1898.492	936.125
1901.302	930.125
1904.11	925.125
1906.916	926.45833
1909.721	921.125
1912.523	930.79167
1915.323	907.45833
1918.122	911.125
1920.918	916.45833
1923.712	911.125
1926.505	922.45833
1929.295	913.79167
1932.084	919.125
1934.87	931.125
1937.655	915.45833
1940.438	913.45833
1943.218	913.125
1945.997	921.45833
1948.774	933.45833
1951.549	928.45833
1954.322	906.45833
1957.093	915.79167
1959.862	897.79167
1962.629	920.45833
1965.394	902.79167
1968.157	894.45833
1970.918	903.125
1973.678	894.125
1976.435	898.45833
1979.19	893.79167
1981.944	892.125
1984.696	887.125
1987.445	880.45833
1990.193	891.125
1992.939	916.45833
1995.683	886.79167
1998.425	877.125
2001.165	902.45833
2003.903	874.45833
2006.639	877.125
2009.374	888.79167
2012.106	889.79167
2014.837	868.125
2017.566	880.45833
2020.292	886.79167
2023.017	871.79167
2025.74	880.79167
2028.461	865.125
2031.18	881.79167
2033.898	873.125
2036.613	883.125
2039.327	888.45833
2042.038	874.79167
2044.748	887.79167
2047.456	880.125
2050.162	852.79167
2052.866	869.79167
2055.568	885.79167
2058.268	861.45833
2060.967	873.45833
2063.663	864.45833
2066.358	856.45833
2069.051	872.79167
2071.742	878.125
2074.431	872.125
2077.118	861.79167
2079.804	859.125
2082.487	878.79167
2085.169	881.79167
2087.849	885.125
2090.527	875.79167
2093.203	881.45833
2095.877	908.45833
2098.55	900.45833
2101.22	926.79167
2103.889	926.125
2106.556	930.79167
2109.221	961.45833
2111.884	969.125
2114.546	1026.125
2117.205	1089.125
2119.863	1146.45833
2122.519	1196.125
2125.173	1256.125
2127.825	1318.125
2130.475	1322.45833
2133.124	1291.79167
2135.771	1245.125
2138.416	1217.79167
2141.059	1145.45833
2143.7	1127.45833
2146.339	1064.45833
2148.977	1025.79167
2151.613	1032.79167
2154.247	987.45833
2156.879	971.45833
2159.51	954.45833
2162.138	942.125
2164.765	932.125
2167.39	909.125
2170.013	944.79167
2172.634	939.79167
2175.254	916.79167
2177.872	950.125
2180.488	908.45833
2183.102	918.125
2185.714	896.79167
2188.325	887.125
2190.934	893.45833
2193.541	886.79167
2196.146	872.45833
2198.75	861.45833
2201.351	876.45833
2203.951	856.125
2206.549	886.45833
2209.146	866.79167
2211.74	861.79167
2214.333	871.79167
2216.924	845.79167
2219.514	859.45833
2222.101	842.79167
2224.687	864.45833
2227.271	851.125
2229.853	864.45833
2232.433	839.125
2235.012	861.125
2237.589	866.45833
2240.164	862.79167
2242.738	855.45833
2245.309	848.79167
2247.879	868.79167
2250.448	859.79167
2253.014	835.45833
2255.579	839.79167
2258.142	835.79167
2260.703	831.79167
2263.262	831.45833
2265.82	834.125
2268.376	847.45833
2270.93	825.125
2273.483	822.125
2276.033	833.79167
2278.583	823.79167
2281.13	823.45833
2283.675	819.79167
2286.219	831.79167
2288.761	838.125
2291.302	835.79167
2293.841	840.45833
2296.377	818.79167
2298.913	830.125
2301.446	843.79167
2303.978	835.125
2306.508	830.45833
2309.037	827.45833
2311.563	837.45833
2314.088	850.45833
2316.612	838.45833
2319.133	833.125
2321.653	832.79167
2324.171	825.125
2326.688	850.45833
2329.202	831.79167
2331.715	845.45833
2334.227	843.79167
2336.736	824.125
2339.244	829.79167
2341.751	823.45833
2344.255	850.45833
2346.758	836.45833
2349.259	831.125
2351.759	828.45833
2354.257	834.79167
2356.753	823.45833
2359.247	846.125
2361.74	858.125
2364.231	837.45833
2366.721	847.125
2369.209	854.45833
2371.695	847.45833
2374.179	839.45833
2376.662	842.79167
2379.143	861.79167
2381.622	849.125
2384.1	850.79167
2386.576	856.45833
2389.051	867.79167
2391.524	874.125
2393.995	860.125
2396.464	865.125
2398.932	848.45833
2401.398	868.125
2403.863	865.45833
2406.325	853.79167
2408.787	868.79167
2411.246	869.45833
2413.704	855.79167
2416.16	871.79167
2418.615	873.79167
2421.068	874.125
2423.519	875.125
2425.969	885.79167
2428.417	887.79167
2430.863	899.125
2433.308	898.45833
2435.751	904.45833
2438.193	877.45833
2440.633	889.45833
2443.071	897.45833
2445.508	883.45833
2447.943	903.45833
2450.376	880.125
2452.808	896.125
2455.238	882.45833
2457.667	919.125
2460.093	897.125
2462.519	897.79167
2464.942	904.125
2467.365	909.45833
2469.785	914.45833
2472.204	910.125
2474.621	905.79167
2477.037	929.79167
2479.451	913.79167
2481.863	898.45833
2484.274	897.79167
2486.683	921.45833
2489.091	936.79167
2491.497	925.45833
2493.901	923.45833
2496.304	925.125
2498.705	926.45833
2501.105	922.45833
2503.503	944.125
2505.899	925.125
2508.294	947.79167
2510.687	940.45833
2513.079	922.125
2515.469	926.79167
2517.858	949.125
2520.245	942.45833
2522.63	940.125
2525.014	953.79167
2527.396	954.45833
2529.776	941.79167
2532.156	952.79167
2534.533	946.125
2536.909	948.125
2539.283	952.125
2541.656	956.45833
2544.027	977.79167
2546.397	968.79167
2548.765	970.45833
2551.131	967.45833
2553.496	967.125
2555.86	984.45833
2558.221	982.79167
2560.582	971.79167
2562.94	961.79167
2565.298	975.45833
2567.653	1001.125
2570.007	985.45833
2572.36	999.125
2574.711	982.125
2577.06	1007.45833
2579.408	987.45833
2581.754	1003.125
2584.099	1013.45833
2586.442	999.45833
2588.784	1025.79167
2591.124	1016.125
2593.463	1014.45833
2595.8	1025.79167
2598.135	1005.79167
2600.469	1014.45833
2602.802	1026.45833
2605.133	1041.125
2607.462	1010.79167
2609.79	1012.45833
2612.116	1036.125
2614.441	1036.125
2616.764	1033.79167
2619.086	1041.79167
2621.406	1036.79167
2623.725	1064.79167
2626.042	1053.125
2628.358	1060.125
2630.672	1057.125
2632.985	1077.79167
2635.296	1079.45833
2637.606	1086.79167
2639.914	1063.45833
2642.22	1077.45833
2644.525	1089.125
2646.829	1084.79167
2649.131	1112.45833
2651.432	1112.45833
2653.731	1104.79167
2656.028	1114.79167
2658.324	1129.125
2660.619	1110.79167
2662.912	1136.79167
2665.204	1112.125
2667.494	1141.45833
2669.782	1122.79167
2672.07	1135.79167
2674.355	1148.45833
2676.639	1134.79167
2678.922	1121.125
2681.203	1149.79167
2683.483	1130.45833
2685.761	1130.45833
2688.038	1163.79167
2690.313	1158.125
2692.587	1143.79167
2694.859	1150.45833
2697.13	1163.45833
2699.399	1159.45833
2701.667	1181.125
2703.933	1177.79167
2706.198	1190.45833
2708.461	1204.45833
2710.723	1212.125
2712.984	1199.125
2715.243	1213.125
2717.5	1222.79167
2719.757	1225.45833
2722.011	1222.45833
2724.264	1253.45833
2726.516	1263.125
2728.766	1248.45833
2731.015	1238.125
2733.262	1254.45833
2735.508	1258.45833
2737.753	1241.45833
2739.996	1240.79167
2742.237	1241.125
2744.477	1259.45833
2746.716	1252.45833
2748.953	1251.45833
2751.189	1255.79167
2753.423	1232.79167
2755.656	1235.45833
2757.887	1246.125
2760.117	1253.125
2762.346	1243.79167
2764.573	1222.45833
2766.798	1240.125
2769.022	1246.79167
2771.245	1246.79167
2773.467	1257.125
2775.686	1261.125
2777.905	1274.125
2780.122	1286.45833
2782.337	1288.125
2784.552	1292.125
2786.764	1300.45833
2788.976	1305.125
2791.186	1316.125
2793.394	1319.79167
2795.601	1341.79167
2797.807	1362.125
2800.011	1357.45833
2802.214	1367.45833
2804.415	1381.125
2806.615	1381.45833
2808.814	1390.45833
2811.011	1381.125
2813.206	1400.45833
2815.401	1407.79167
2817.594	1437.79167
2819.785	1443.125
2821.975	1405.45833
2824.164	1435.125
2826.351	1448.45833
2828.537	1467.45833
2830.722	1472.79167
2832.905	1484.125
2835.086	1534.79167
2837.267	1568.125
2839.445	1564.45833
2841.623	1586.125
2843.799	1629.45833
2845.974	1662.125
2848.147	1678.79167
2850.319	1701.79167
2852.489	1727.45833
2854.659	1735.79167
2856.826	1754.45833
2858.993	1794.79167
2861.158	1773.45833
2863.321	1776.125
2865.483	1798.45833
2867.644	1792.79167
2869.804	1774.79167
2871.962	1783.79167
2874.118	1786.45833
2876.274	1786.79167
2878.428	1760.79167
2880.58	1763.79167
2882.731	1745.79167
2884.881	1752.79167
2887.03	1744.79167
2889.177	1767.79167
2891.322	1783.125
2893.467	1759.45833
2895.61	1774.125
2897.751	1812.45833
2899.892	1789.125
2902.03	1821.79167
2904.168	1814.125
2906.304	1837.45833
2908.439	1855.79167
2910.572	1828.45833
2912.704	1862.79167
2914.835	1853.79167
2916.965	1855.45833
2919.093	1864.79167
2921.219	1827.45833
2923.345	1865.125
2925.469	1819.79167
2927.591	1816.45833
2929.712	1776.125
2931.832	1771.125
2933.951	1752.79167
2936.068	1731.45833
2938.184	1706.125
2940.299	1680.45833
2942.412	1660.79167
2944.524	1633.125
2946.634	1632.125
2948.744	1582.45833
2950.851	1609.79167
2952.958	1571.79167
2955.063	1580.79167
2957.167	1574.125
2959.269	1540.79167
2961.371	1571.45833
2963.471	1519.45833
2965.569	1538.45833
2967.666	1509.125
2969.762	1505.125
2971.857	1483.125
2973.95	1460.45833
2976.042	1452.125
2978.133	1433.79167
2980.222	1433.45833
2982.31	1401.79167
2984.396	1375.125
2986.482	1374.125
2988.566	1379.125
2990.648	1360.125
2992.73	1360.79167
2994.81	1360.79167
2996.889	1379.45833
2998.966	1358.79167
3001.042	1365.125
3003.117	1365.45833
3005.191	1350.45833
3007.263	1362.125
3009.334	1372.125
3011.403	1342.125
3013.472	1316.125
3015.539	1314.45833
3017.604	1309.79167
3019.669	1263.79167
3021.732	1279.45833
3023.794	1268.45833
3025.854	1257.125
3027.914	1263.45833
3029.971	1276.79167
3032.028	1269.45833
3034.083	1273.79167
3036.137	1235.125
3038.19	1212.79167
3040.242	1176.79167
3042.292	1157.45833
3044.341	1154.79167
3046.388	1162.79167
3048.435	1132.125
3050.48	1133.79167
3052.524	1137.79167
3054.566	1122.125
3056.607	1120.125
3058.647	1086.79167
3060.686	1065.79167
3062.723	1017.45833
3064.759	1000.125
3066.794	1.45833
3068.828	-0.20833
3070.86	-2.875
