-0.839	385.58333
3.438	412.91667
7.711	115.58333
11.981	55.91667
16.247	48.58333
20.509	47.58333
24.768	47.91667
29.024	48.25
33.276	47.25
37.524	49.58333
41.769	40.25
46.01	38.91667
50.247	53.91667
54.481	65.91667
58.712	64.58333
62.939	53.91667
67.162	63.58333
71.382	57.91667
75.599	49.91667
79.812	68.25
84.021	81.25
88.227	61.91667
92.429	64.58333
96.628	52.25
100.823	71.25
105.015	73.58333
109.204	81.25
113.388	83.91667
117.57	82.25
121.748	91.58333
125.922	87.25
130.093	106.91667
134.261	112.25
138.425	106.58333
142.585	153.25
146.742	148.58333
150.896	177.58333
155.046	218.58333
159.193	348.58333
163.336	603.91667
167.476	1095.25
171.613	2008.25
175.746	3405.25
179.875	5076.91667
184.002	6597.58333
188.124	7691.91667
192.244	8063.25
196.36	8046.58333
200.472	7823.58333
204.581	7617.91667
208.687	7434.25
212.79	7382.25
216.889	7464.91667
220.984	7545.58333
225.077	7635.58333
229.165	7731.91667
233.251	7811.25
237.333	7833.58333
241.412	7820.25
245.487	7781.58333
249.559	7721.58333
253.628	7663.91667
257.694	7633.58333
261.756	7580.58333
265.814	7418.58333
269.87	7238.91667
273.922	7098.58333
277.97	7088.91667
282.016	7089.25
286.058	7177.58333
290.097	7295.25
294.132	7385.25
298.164	7292.58333
302.193	6895.58333
306.219	6402.25
310.241	5829.25
314.26	5265.91667
318.276	4801.91667
322.288	4448.58333
326.297	4192.25
330.303	3976.91667
334.305	3808.25
338.305	3698.58333
342.301	3671.25
346.294	3604.58333
350.283	3573.25
354.269	3531.58333
358.252	3517.58333
362.232	3483.91667
366.209	3439.58333
370.182	3411.58333
374.152	3369.58333
378.119	3383.91667
382.083	3373.58333
386.043	3376.91667
390	3336.91667
393.954	3287.58333
397.905	3250.91667
401.852	3248.58333
405.797	3192.25
409.738	3169.58333
413.676	3168.91667
417.61	3140.58333
421.542	3088.91667
425.47	3085.58333
429.396	3050.91667
433.318	3025.91667
437.236	3023.58333
441.152	3029.58333
445.065	2968.91667
448.974	2924.91667
452.88	2929.91667
456.783	2907.25
460.683	2915.58333
464.58	2882.25
468.473	2928.25
472.364	2907.91667
476.251	2947.25
480.135	2938.25
484.016	2958.58333
487.894	2981.91667
491.769	2986.25
495.641	3005.91667
499.509	2986.58333
503.375	3004.91667
507.237	2994.91667
511.096	2986.91667
514.952	3097.58333
518.805	3222.25
522.655	3230.58333
526.502	3094.25
530.346	2989.91667
534.187	2978.58333
538.024	2967.25
541.859	2978.91667
545.69	2979.25
549.519	2969.91667
553.344	2974.91667
557.166	2911.58333
560.985	2873.58333
564.802	2829.91667
568.615	2794.25
572.425	2766.91667
576.232	2745.58333
580.036	2751.91667
583.836	2733.91667
587.634	2745.25
591.429	2746.58333
595.221	2776.58333
599.01	2816.58333
602.796	2862.58333
606.578	2865.58333
610.358	2864.58333
614.135	2864.25
617.909	2859.25
621.679	2852.58333
625.447	2828.58333
629.212	2851.91667
632.973	2844.25
636.732	2834.25
640.488	2867.25
644.241	2795.91667
647.991	2799.25
651.737	2819.58333
655.481	2782.58333
659.222	2778.91667
662.96	2782.58333
666.695	2806.91667
670.427	2826.58333
674.156	2837.58333
677.882	2801.25
681.605	2808.91667
685.325	2797.58333
689.043	2810.25
692.757	2777.91667
696.468	2807.91667
700.177	2829.91667
703.882	2803.58333
707.585	2797.25
711.284	2800.25
714.981	2809.91667
718.675	2830.91667
722.366	2829.91667
726.054	2825.91667
729.739	2839.58333
733.421	2840.25
737.1	2820.91667
740.777	2866.58333
744.45	2868.58333
748.121	2893.25
751.789	2926.91667
755.453	2918.91667
759.115	2953.91667
762.774	2999.25
766.431	3031.58333
770.084	3061.58333
773.734	3095.58333
777.382	3136.91667
781.027	3207.25
784.669	3201.25
788.308	3203.58333
791.944	3229.25
795.577	3294.91667
799.208	3283.25
802.835	3327.25
806.46	3352.25
810.082	3355.91667
813.701	3386.91667
817.317	3395.91667
820.931	3389.91667
824.542	3422.25
828.149	3399.91667
831.754	3362.91667
835.357	3362.91667
838.956	3362.91667
842.553	3330.25
846.146	3347.58333
849.737	3318.25
853.326	3358.58333
856.911	3346.58333
860.493	3412.25
864.073	3422.25
867.65	3485.91667
871.225	3542.58333
874.796	3546.58333
878.365	3540.91667
881.931	3571.25
885.494	3616.58333
889.054	3588.25
892.612	3608.25
896.166	3594.58333
899.719	3545.91667
903.268	3486.58333
906.814	3493.58333
910.358	3448.91667
913.899	3444.91667
917.438	3453.91667
920.973	3463.91667
924.506	3480.58333
928.036	3535.58333
931.564	3561.91667
935.088	3590.58333
938.61	3619.25
942.129	3655.25
945.646	3747.58333
949.16	3820.58333
952.671	3881.58333
956.179	3933.58333
959.685	3871.58333
963.188	3823.58333
966.688	3742.25
970.185	3666.58333
973.68	3609.91667
977.173	3577.25
980.662	3509.58333
984.149	3548.58333
987.633	3543.25
991.114	3611.91667
994.593	3703.25
998.069	3833.91667
1001.542	3962.58333
1005.013	3877.91667
1008.481	3672.25
1011.947	3611.58333
1015.409	3604.25
1018.869	3590.25
1022.327	3581.58333
1025.782	3561.58333
1029.234	3554.25
1032.683	3540.58333
1036.13	3391.91667
1039.574	3291.58333
1043.016	3192.25
1046.455	3142.25
1049.891	3109.91667
1053.325	3121.91667
1056.756	3122.58333
1060.184	3165.91667
1063.61	3158.91667
1067.033	3195.58333
1070.454	3177.25
1073.872	3219.91667
1077.287	3227.25
1080.7	3225.25
1084.11	3233.91667
1087.517	3239.58333
1090.922	3194.25
1094.325	3153.91667
1097.724	3113.25
1101.122	3093.91667
1104.516	3123.58333
1107.908	3126.25
1111.298	3165.58333
1114.684	3206.25
1118.069	3239.91667
1121.45	3283.25
1124.83	3303.25
1128.206	3343.58333
1131.58	3394.91667
1134.951	3486.58333
1138.32	3607.25
1141.687	3746.91667
1145.05	3826.91667
1148.412	3865.91667
1151.77	3886.58333
1155.126	3874.25
1158.48	3864.91667
1161.831	3924.25
1165.18	3954.25
1168.525	3995.91667
1171.869	4065.91667
1175.21	4083.25
1178.548	4109.58333
1181.884	4148.25
1185.217	4151.58333
1188.548	4248.25
1191.877	4309.91667
1195.202	4404.58333
1198.526	4443.91667
1201.846	4456.91667
1205.165	4428.91667
1208.48	4421.91667
1211.794	4392.25
1215.104	4421.25
1218.413	4386.58333
1221.719	4394.58333
1225.022	4355.25
1228.323	4308.25
1231.621	4322.25
1234.917	4292.91667
1238.21	4332.25
1241.501	4328.25
1244.79	4349.91667
1248.076	4367.58333
1251.359	4382.91667
1254.64	4467.25
1257.919	4481.91667
1261.195	4554.25
1264.468	4620.58333
1267.74	4678.25
1271.008	4710.58333
1274.275	4678.91667
1277.538	4667.58333
1280.8	4630.91667
1284.059	4662.91667
1287.315	4687.25
1290.569	4720.58333
1293.821	4744.25
1297.07	4738.25
1300.317	4727.25
1303.562	4746.25
1306.803	4698.58333
1310.043	4643.58333
1313.28	4572.58333
1316.515	4506.58333
1319.747	4454.91667
1322.977	4405.25
1326.204	4344.58333
1329.429	4262.58333
1332.652	4258.58333
1335.872	4236.25
1339.09	4211.25
1342.306	4198.25
1345.519	4190.25
1348.729	4125.58333
1351.938	4132.25
1355.144	4050.91667
1358.347	4036.58333
1361.548	4036.91667
1364.747	4077.58333
1367.944	4048.91667
1371.138	4079.25
1374.329	4137.91667
1377.518	4158.91667
1380.705	4216.91667
1383.89	4150.25
1387.072	4037.25
1390.252	3918.91667
1393.429	3754.91667
1396.605	3652.91667
1399.777	3600.91667
1402.948	3552.58333
1406.116	3507.58333
1409.282	3542.58333
1412.445	3513.58333
1415.606	3586.91667
1418.765	3627.91667
1421.921	3721.58333
1425.075	3797.25
1428.227	3939.91667
1431.376	4066.91667
1434.524	4239.91667
1437.668	4284.91667
1440.811	4368.58333
1443.951	4381.25
1447.089	4355.25
1450.224	4351.91667
1453.357	4326.25
1456.488	4294.91667
1459.617	4238.25
1462.743	4175.91667
1465.867	4105.91667
1468.989	4056.58333
1472.108	4012.25
1475.225	3954.25
1478.34	3901.25
1481.453	3911.25
1484.563	3910.58333
1487.671	3969.91667
1490.776	4061.91667
1493.88	4121.91667
1496.981	4236.25
1500.08	4337.25
1503.176	4393.91667
1506.271	4490.58333
1509.363	4559.58333
1512.452	4633.25
1515.54	4679.91667
1518.625	4787.58333
1521.708	4964.25
1524.789	5202.91667
1527.867	5497.58333
1530.944	5792.25
1534.018	6122.58333
1537.089	6302.58333
1540.159	6334.91667
1543.226	6198.58333
1546.291	6019.25
1549.354	5868.91667
1552.415	5666.91667
1555.473	5549.58333
1558.529	5418.25
1561.583	5361.58333
1564.634	5271.91667
1567.684	5333.25
1570.731	5289.58333
1573.776	5280.25
1576.819	5350.58333
1579.859	5407.58333
1582.898	5451.58333
1585.934	5464.25
1588.968	5508.25
1591.999	5463.58333
1595.029	5456.91667
1598.056	5489.58333
1601.081	5490.25
1604.104	5439.25
1607.125	5409.58333
1610.144	5279.25
1613.16	5156.58333
1616.174	5017.25
1619.186	4886.25
1622.196	4748.25
1625.203	4617.91667
1628.209	4492.58333
1631.212	4452.91667
1634.213	4353.58333
1637.212	4317.25
1640.209	4206.91667
1643.203	4101.25
1646.196	3975.58333
1649.186	3802.91667
1652.174	3727.58333
1655.16	3594.58333
1658.144	3489.91667
1661.125	3306.91667
1664.105	3177.25
1667.082	3023.25
1670.057	2867.58333
1673.03	2686.91667
1676.001	2549.25
1678.97	2401.25
1681.937	2273.91667
1684.901	2124.58333
1687.863	2077.58333
1690.824	1997.91667
1693.782	1952.25
1696.738	1875.25
1699.692	1846.58333
1702.643	1809.91667
1705.593	1780.25
1708.54	1772.25
1711.486	1760.91667
1714.429	1704.25
1717.37	1699.91667
1720.309	1689.25
1723.246	1677.25
1726.181	1633.91667
1729.113	1643.25
1732.044	1620.91667
1734.972	1614.25
1737.899	1588.91667
1740.823	1600.25
1743.745	1584.58333
1746.665	1520.25
1749.583	1519.25
1752.499	1481.58333
1755.413	1476.25
1758.325	1423.58333
1761.235	1435.25
1764.142	1408.58333
1767.048	1387.25
1769.951	1372.91667
1772.852	1373.25
1775.752	1352.58333
1778.649	1360.25
1781.544	1349.91667
1784.437	1328.25
1787.328	1341.58333
1790.217	1326.91667
1793.104	1298.58333
1795.989	1293.91667
1798.872	1291.58333
1801.753	1301.25
1804.631	1292.58333
1807.508	1309.58333
1810.383	1280.58333
1813.255	1278.58333
1816.126	1287.58333
1818.994	1267.91667
1821.861	1286.25
1824.725	1258.91667
1827.587	1267.25
1830.448	1253.91667
1833.306	1232.25
1836.162	1238.91667
1839.017	1219.58333
1841.869	1203.58333
1844.719	1228.25
1847.567	1215.25
1850.414	1214.58333
1853.258	1219.58333
1856.1	1205.58333
1858.94	1222.58333
1861.778	1213.25
1864.614	1189.91667
1867.448	1199.91667
1870.28	1192.25
1873.111	1223.25
1875.939	1197.91667
1878.765	1211.25
1881.589	1186.91667
1884.411	1192.91667
1887.231	1208.25
1890.049	1194.25
1892.865	1191.91667
1895.68	1183.91667
1898.492	1188.91667
1901.302	1160.91667
1904.11	1163.58333
1906.916	1165.25
1909.721	1142.58333
1912.523	1159.91667
1915.323	1127.91667
1918.122	1143.58333
1920.918	1151.25
1923.712	1133.25
1926.505	1141.25
1929.295	1117.91667
1932.084	1143.25
1934.87	1142.91667
1937.655	1129.25
1940.438	1120.58333
1943.218	1139.91667
1945.997	1140.25
1948.774	1133.58333
1951.549	1125.58333
1954.322	1133.58333
1957.093	1120.58333
1959.862	1116.25
1962.629	1113.58333
1965.394	1108.91667
1968.157	1106.91667
1970.918	1104.25
1973.678	1095.58333
1976.435	1101.91667
1979.19	1100.58333
1981.944	1096.91667
1984.696	1090.58333
1987.445	1071.91667
1990.193	1081.91667
1992.939	1100.58333
1995.683	1096.25
1998.425	1072.25
2001.165	1097.25
2003.903	1070.58333
2006.639	1073.25
2009.374	1078.91667
2012.106	1076.25
2014.837	1048.91667
2017.566	1075.91667
2020.292	1071.58333
2023.017	1077.91667
2025.74	1074.25
2028.461	1053.25
2031.18	1060.58333
2033.898	1037.58333
2036.613	1062.25
2039.327	1051.58333
2042.038	1035.58333
2044.748	1056.58333
2047.456	1042.58333
2050.162	1034.91667
2052.866	1035.58333
2055.568	1043.25
2058.268	1029.91667
2060.967	1047.25
2063.663	1008.25
2066.358	1039.91667
2069.051	1030.58333
2071.742	1038.25
2074.431	1051.25
2077.118	1043.58333
2079.804	1029.25
2082.487	1024.25
2085.169	1056.91667
2087.849	1056.58333
2090.527	1051.25
2093.203	1061.91667
2095.877	1075.58333
2098.55	1077.58333
2101.22	1091.91667
2103.889	1109.58333
2106.556	1133.58333
2109.221	1166.25
2111.884	1225.58333
2114.546	1312.25
2117.205	1419.58333
2119.863	1556.25
2122.519	1687.91667
2125.173	1774.91667
2127.825	1868.25
2130.475	1880.25
2133.124	1820.91667
2135.771	1742.25
2138.416	1662.91667
2141.059	1543.25
2143.7	1483.91667
2146.339	1379.91667
2148.977	1314.91667
2151.613	1284.25
2154.247	1241.91667
2156.879	1192.25
2159.51	1174.91667
2162.138	1146.91667
2164.765	1145.25
2167.39	1114.25
2170.013	1126.58333
2172.634	1102.25
2175.254	1093.58333
2177.872	1105.25
2180.488	1064.25
2183.102	1084.25
2185.714	1045.25
2188.325	1042.58333
2190.934	1037.25
2193.541	1033.91667
2196.146	1024.25
2198.75	1011.58333
2201.351	1007.91667
2203.951	985.25
2206.549	992.25
2209.146	986.25
2211.74	953.25
2214.333	985.25
2216.924	959.91667
2219.514	962.25
2222.101	946.25
2224.687	961.58333
2227.271	938.91667
2229.853	928.25
2232.433	928.25
2235.012	941.91667
2237.589	934.25
2240.164	941.58333
2242.738	933.25
2245.309	915.58333
2247.879	912.58333
2250.448	911.25
2253.014	893.91667
2255.579	869.91667
2258.142	874.25
2260.703	862.91667
2263.262	863.91667
2265.82	867.25
2268.376	867.58333
2270.93	853.25
2273.483	849.25
2276.033	853.58333
2278.583	841.91667
2281.13	835.58333
2283.675	823.25
2286.219	827.58333
2288.761	828.91667
2291.302	831.91667
2293.841	841.58333
2296.377	797.91667
2298.913	802.91667
2301.446	830.91667
2303.978	813.58333
2306.508	814.91667
2309.037	814.25
2311.563	804.91667
2314.088	821.58333
2316.612	797.91667
2319.133	800.25
2321.653	801.91667
2324.171	801.25
2326.688	802.58333
2329.202	798.58333
2331.715	796.25
2334.227	781.91667
2336.736	786.58333
2339.244	780.25
2341.751	770.25
2344.255	790.58333
2346.758	783.25
2349.259	780.58333
2351.759	776.25
2354.257	780.58333
2356.753	771.91667
2359.247	767.91667
2361.74	786.25
2364.231	778.58333
2366.721	783.25
2369.209	764.58333
2371.695	780.58333
2374.179	760.58333
2376.662	766.58333
2379.143	775.58333
2381.622	772.58333
2384.1	772.58333
2386.576	764.25
2389.051	778.58333
2391.524	781.91667
2393.995	774.25
2396.464	756.25
2398.932	758.58333
2401.398	763.91667
2403.863	753.58333
2406.325	745.91667
2408.787	760.91667
2411.246	746.91667
2413.704	737.58333
2416.16	749.58333
2418.615	748.58333
2421.068	753.58333
2423.519	744.91667
2425.969	737.25
2428.417	761.58333
2430.863	767.91667
2433.308	764.25
2435.751	743.58333
2438.193	738.91667
2440.633	757.91667
2443.071	750.58333
2445.508	730.25
2447.943	737.58333
2450.376	721.25
2452.808	741.58333
2455.238	730.58333
2457.667	753.58333
2460.093	738.58333
2462.519	711.25
2464.942	722.25
2467.365	742.25
2469.785	742.91667
2472.204	726.91667
2474.621	721.25
2477.037	752.25
2479.451	706.91667
2481.863	713.91667
2484.274	719.58333
2486.683	714.25
2489.091	727.58333
2491.497	727.91667
2493.901	724.25
2496.304	716.58333
2498.705	728.25
2501.105	714.91667
2503.503	733.91667
2505.899	717.91667
2508.294	744.91667
2510.687	713.58333
2513.079	714.91667
2515.469	708.91667
2517.858	703.58333
2520.245	736.58333
2522.63	711.58333
2525.014	695.91667
2527.396	707.58333
2529.776	707.91667
2532.156	710.91667
2534.533	700.58333
2536.909	710.91667
2539.283	695.25
2541.656	709.25
2544.027	724.58333
2546.397	709.25
2548.765	701.25
2551.131	708.91667
2553.496	693.91667
2555.86	716.58333
2558.221	712.91667
2560.582	700.58333
2562.94	685.25
2565.298	695.91667
2567.653	723.91667
2570.007	696.58333
2572.36	708.91667
2574.711	703.58333
2577.06	721.58333
2579.408	711.25
2581.754	697.91667
2584.099	700.25
2586.442	698.91667
2588.784	708.58333
2591.124	699.25
2593.463	714.58333
2595.8	705.91667
2598.135	680.91667
2600.469	705.58333
2602.802	710.91667
2605.133	715.58333
2607.462	699.91667
2609.79	694.91667
2612.116	708.91667
2614.441	704.91667
2616.764	705.25
2619.086	700.25
2621.406	689.91667
2623.725	719.58333
2626.042	717.25
2628.358	702.25
2630.672	699.58333
2632.985	712.91667
2635.296	714.25
2637.606	717.91667
2639.914	704.25
2642.22	716.25
2644.525	705.25
2646.829	713.25
2649.131	718.25
2651.432	730.25
2653.731	726.25
2656.028	745.25
2658.324	730.25
2660.619	720.91667
2662.912	734.25
2665.204	722.91667
2667.494	744.25
2669.782	719.91667
2672.07	754.91667
2674.355	742.25
2676.639	738.25
2678.922	732.25
2681.203	736.58333
2683.483	720.91667
2685.761	727.58333
2688.038	741.25
2690.313	758.58333
2692.587	749.58333
2694.859	742.25
2697.13	748.58333
2699.399	753.91667
2701.667	773.58333
2703.933	769.91667
2706.198	768.58333
2708.461	766.58333
2710.723	798.25
2712.984	771.58333
2715.243	795.91667
2717.5	785.91667
2719.757	798.25
2722.011	801.25
2724.264	810.58333
2726.516	810.58333
2728.766	808.58333
2731.015	803.58333
2733.262	804.91667
2735.508	794.91667
2737.753	806.91667
2739.996	779.58333
2742.237	783.58333
2744.477	803.25
2746.716	783.25
2748.953	772.58333
2751.189	779.91667
2753.423	774.25
2755.656	775.58333
2757.887	761.25
2760.117	772.58333
2762.346	780.25
2764.573	783.25
2766.798	766.25
2769.022	774.91667
2771.245	783.91667
2773.467	790.25
2775.686	777.58333
2777.905	809.25
2780.122	801.91667
2782.337	817.58333
2784.552	809.58333
2786.764	828.58333
2788.976	829.91667
2791.186	849.25
2793.394	849.58333
2795.601	866.91667
2797.807	877.25
2800.011	889.91667
2802.214	898.58333
2804.415	907.58333
2806.615	911.25
2808.814	927.25
2811.011	940.91667
2813.206	939.25
2815.401	957.25
2817.594	979.91667
2819.785	1006.58333
2821.975	980.91667
2824.164	1002.25
2826.351	1034.58333
2828.537	1045.25
2830.722	1075.91667
2832.905	1074.91667
2835.086	1118.58333
2837.267	1168.91667
2839.445	1198.91667
2841.623	1223.58333
2843.799	1265.58333
2845.974	1322.91667
2848.147	1358.25
2850.319	1417.25
2852.489	1432.25
2854.659	1457.91667
2856.826	1477.58333
2858.993	1503.58333
2861.158	1486.58333
2863.321	1472.58333
2865.483	1484.91667
2867.644	1496.91667
2869.804	1492.91667
2871.962	1472.58333
2874.118	1474.91667
2876.274	1474.91667
2878.428	1469.91667
2880.58	1474.58333
2882.731	1453.25
2884.881	1448.91667
2887.03	1452.58333
2889.177	1438.91667
2891.322	1475.25
2893.467	1453.58333
2895.61	1458.58333
2897.751	1511.58333
2899.892	1478.91667
2902.03	1493.58333
2904.168	1505.25
2906.304	1507.91667
2908.439	1520.25
2910.572	1502.91667
2912.704	1523.25
2914.835	1524.25
2916.965	1511.25
2919.093	1524.25
2921.219	1482.91667
2923.345	1497.91667
2925.469	1466.25
2927.591	1446.91667
2929.712	1411.58333
2931.832	1386.58333
2933.951	1358.91667
2936.068	1327.25
2938.184	1307.91667
2940.299	1244.91667
2942.412	1248.25
2944.524	1180.58333
2946.634	1152.25
2948.744	1101.91667
2950.851	1119.91667
2952.958	1063.58333
2955.063	1035.25
2957.167	1019.25
2959.269	970.25
2961.371	996.91667
2963.471	948.91667
2965.569	945.25
2967.666	911.25
2969.762	893.91667
2971.857	860.58333
2973.95	848.25
2976.042	838.25
2978.133	826.91667
2980.222	811.91667
2982.31	765.58333
2984.396	750.91667
2986.482	753.58333
2988.566	744.25
2990.648	730.58333
2992.73	726.91667
2994.81	705.91667
2996.889	713.25
2998.966	699.58333
3001.042	704.91667
3003.117	696.58333
3005.191	694.25
3007.263	684.91667
3009.334	681.25
3011.403	667.91667
3013.472	638.58333
3015.539	643.91667
3017.604	644.58333
3019.669	610.91667
3021.732	623.25
3023.794	620.25
3025.854	596.25
3027.914	594.25
3029.971	599.58333
3032.028	594.58333
3034.083	600.58333
3036.137	586.91667
3038.19	566.91667
3040.242	557.58333
3042.292	542.25
3044.341	532.58333
3046.388	549.91667
3048.435	521.58333
3050.48	538.25
3052.524	525.91667
3054.566	508.25
3056.607	520.25
3058.647	507.58333
3060.686	471.58333
3062.723	472.25
3064.759	451.91667
3066.794	-0.08333
3068.828	-1.08333
3070.86	-1.08333
