-0.839	639.54167
3.438	741.875
7.711	220.875
11.981	66.54167
16.247	45.875
20.509	48.20833
24.768	48.20833
29.024	53.20833
33.276	49.875
37.524	48.20833
41.769	49.54167
46.01	34.54167
50.247	50.54167
54.481	60.875
58.712	64.20833
62.939	50.875
67.162	69.20833
71.382	59.875
75.599	48.20833
79.812	60.54167
84.021	85.875
88.227	60.875
92.429	57.54167
96.628	58.54167
100.823	72.54167
105.015	83.875
109.204	73.54167
113.388	79.20833
117.57	77.54167
121.748	89.54167
125.922	82.875
130.093	103.20833
134.261	102.54167
138.425	106.875
142.585	145.875
146.742	137.875
150.896	169.20833
155.046	214.20833
159.193	332.875
163.336	560.875
167.476	1052.54167
171.613	1929.875
175.746	3242.54167
179.875	4852.875
184.002	6320.875
188.124	7428.54167
192.244	7808.875
196.36	7762.54167
200.472	7566.20833
204.581	7395.54167
208.687	7227.20833
212.79	7162.875
216.889	7177.20833
220.984	7171.54167
225.077	7195.875
229.165	7193.54167
233.251	7215.54167
237.333	7247.875
241.412	7190.20833
245.487	7116.54167
249.559	7045.54167
253.628	7032.20833
257.694	6929.20833
261.756	6890.54167
265.814	6759.875
269.87	6564.875
273.922	6362.875
277.97	6244.20833
282.016	6183.54167
286.058	6233.20833
290.097	6342.54167
294.132	6424.54167
298.164	6372.20833
302.193	6148.20833
306.219	5721.54167
310.241	5282.20833
314.26	4882.54167
318.276	4561.20833
322.288	4337.875
326.297	4161.54167
330.303	4012.54167
334.305	3932.20833
338.305	3885.875
342.301	3827.20833
346.294	3801.20833
350.283	3769.54167
354.269	3745.20833
358.252	3715.20833
362.232	3705.875
366.209	3689.875
370.182	3666.54167
374.152	3657.875
378.119	3657.20833
382.083	3636.875
386.043	3655.20833
390	3628.20833
393.954	3652.54167
397.905	3640.875
401.852	3638.875
405.797	3572.20833
409.738	3566.875
413.676	3563.54167
417.61	3570.20833
421.542	3565.54167
425.47	3531.20833
429.396	3510.54167
433.318	3489.875
437.236	3474.54167
441.152	3520.875
445.065	3468.54167
448.974	3485.20833
452.88	3435.54167
456.783	3392.54167
460.683	3395.875
464.58	3391.875
468.473	3390.54167
472.364	3421.875
476.251	3406.54167
480.135	3439.54167
484.016	3489.54167
487.894	3522.54167
491.769	3521.54167
495.641	3526.875
499.509	3550.20833
503.375	3527.54167
507.237	3517.54167
511.096	3498.875
514.952	3508.20833
518.805	3549.875
522.655	3563.875
526.502	3484.875
530.346	3509.20833
534.187	3509.20833
538.024	3538.54167
541.859	3547.875
545.69	3567.875
549.519	3554.20833
553.344	3522.20833
557.166	3484.875
560.985	3436.54167
564.802	3379.875
568.615	3310.54167
572.425	3287.54167
576.232	3255.20833
580.036	3263.875
583.836	3263.875
587.634	3287.875
591.429	3294.20833
595.221	3366.54167
599.01	3399.875
602.796	3397.20833
606.578	3419.20833
610.358	3444.54167
614.135	3390.20833
617.909	3368.20833
621.679	3350.54167
625.447	3324.54167
629.212	3327.54167
632.973	3352.20833
636.732	3328.20833
640.488	3339.20833
644.241	3295.875
647.991	3311.54167
651.737	3277.20833
655.481	3241.875
659.222	3260.54167
662.96	3271.54167
666.695	3269.875
670.427	3305.20833
674.156	3311.54167
677.882	3292.875
681.605	3305.20833
685.325	3275.20833
689.043	3275.54167
692.757	3244.54167
696.468	3237.54167
700.177	3223.875
703.882	3207.54167
707.585	3179.54167
711.284	3168.875
714.981	3162.875
718.675	3178.875
722.366	3190.875
726.054	3178.54167
729.739	3191.875
733.421	3161.20833
737.1	3169.875
740.777	3187.20833
744.45	3218.875
748.121	3244.20833
751.789	3267.875
755.453	3304.54167
759.115	3306.875
762.774	3309.54167
766.431	3332.54167
770.084	3359.20833
773.734	3382.54167
777.382	3435.20833
781.027	3463.54167
784.669	3472.20833
788.308	3468.54167
791.944	3465.20833
795.577	3508.20833
799.208	3516.54167
802.835	3498.54167
806.46	3546.20833
810.082	3530.875
813.701	3550.54167
817.317	3564.20833
820.931	3575.875
824.542	3550.875
828.149	3533.875
831.754	3500.875
835.357	3497.875
838.956	3530.54167
842.553	3512.20833
846.146	3466.54167
849.737	3455.54167
853.326	3478.875
856.911	3486.54167
860.493	3522.20833
864.073	3530.54167
867.65	3553.54167
871.225	3601.54167
874.796	3593.54167
878.365	3594.875
881.931	3625.54167
885.494	3643.875
889.054	3666.20833
892.612	3645.875
896.166	3576.875
899.719	3573.875
903.268	3533.54167
906.814	3511.875
910.358	3477.54167
913.899	3468.875
917.438	3459.875
920.973	3440.20833
924.506	3475.54167
928.036	3484.20833
931.564	3568.20833
935.088	3628.875
938.61	3645.54167
942.129	3667.54167
945.646	3771.54167
949.16	3820.875
952.671	3864.54167
956.179	3883.875
959.685	3833.20833
963.188	3816.54167
966.688	3759.54167
970.185	3636.20833
973.68	3578.20833
977.173	3509.20833
980.662	3485.20833
984.149	3485.54167
987.633	3474.875
991.114	3530.54167
994.593	3587.20833
998.069	3653.20833
1001.542	3742.20833
1005.013	3684.20833
1008.481	3522.20833
1011.947	3458.54167
1015.409	3419.20833
1018.869	3408.20833
1022.327	3433.875
1025.782	3404.54167
1029.234	3414.54167
1032.683	3314.20833
1036.13	3218.20833
1039.574	3119.875
1043.016	3048.20833
1046.455	2998.54167
1049.891	2976.875
1053.325	2985.875
1056.756	2992.54167
1060.184	3022.20833
1063.61	3031.875
1067.033	3052.875
1070.454	3058.20833
1073.872	3074.875
1077.287	3056.875
1080.7	3061.54167
1084.11	3035.54167
1087.517	3019.875
1090.922	2972.875
1094.325	2973.54167
1097.724	2937.875
1101.122	2949.20833
1104.516	2955.54167
1107.908	2965.54167
1111.298	2986.54167
1114.684	3009.54167
1118.069	3044.20833
1121.45	3104.875
1124.83	3101.54167
1128.206	3110.875
1131.58	3165.20833
1134.951	3232.54167
1138.32	3300.875
1141.687	3451.54167
1145.05	3545.54167
1148.412	3519.875
1151.77	3504.54167
1155.126	3479.54167
1158.48	3459.20833
1161.831	3485.875
1165.18	3489.20833
1168.525	3543.875
1171.869	3570.54167
1175.21	3596.20833
1178.548	3615.875
1181.884	3678.875
1185.217	3701.54167
1188.548	3780.54167
1191.877	3855.54167
1195.202	3949.20833
1198.526	4006.54167
1201.846	4061.875
1205.165	4038.875
1208.48	4045.54167
1211.794	3990.54167
1215.104	3997.875
1218.413	4003.54167
1221.719	4007.54167
1225.022	3948.875
1228.323	3890.20833
1231.621	3862.20833
1234.917	3833.20833
1238.21	3845.875
1241.501	3843.54167
1244.79	3841.54167
1248.076	3824.875
1251.359	3890.54167
1254.64	3958.54167
1257.919	3957.875
1261.195	4038.54167
1264.468	4088.20833
1267.74	4150.54167
1271.008	4159.20833
1274.275	4141.875
1277.538	4123.875
1280.8	4111.54167
1284.059	4089.54167
1287.315	4150.20833
1290.569	4140.20833
1293.821	4174.875
1297.07	4173.20833
1300.317	4195.20833
1303.562	4160.875
1306.803	4138.875
1310.043	4106.54167
1313.28	4077.54167
1316.515	4036.875
1319.747	3982.20833
1322.977	3962.875
1326.204	3924.875
1329.429	3890.875
1332.652	3865.875
1335.872	3839.54167
1339.09	3797.20833
1342.306	3760.20833
1345.519	3728.54167
1348.729	3693.875
1351.938	3670.20833
1355.144	3594.54167
1358.347	3567.54167
1361.548	3567.875
1364.747	3551.875
1367.944	3511.54167
1371.138	3523.54167
1374.329	3542.20833
1377.518	3593.875
1380.705	3600.20833
1383.89	3573.20833
1387.072	3440.20833
1390.252	3353.54167
1393.429	3225.20833
1396.605	3132.875
1399.777	3052.875
1402.948	3023.875
1406.116	2994.54167
1409.282	2999.875
1412.445	2975.20833
1415.606	3040.54167
1418.765	3060.54167
1421.921	3114.20833
1425.075	3177.54167
1428.227	3285.54167
1431.376	3414.54167
1434.524	3535.54167
1437.668	3602.875
1440.811	3677.875
1443.951	3680.54167
1447.089	3707.54167
1450.224	3691.20833
1453.357	3692.54167
1456.488	3677.20833
1459.617	3628.54167
1462.743	3569.54167
1465.867	3488.20833
1468.989	3429.20833
1472.108	3369.20833
1475.225	3293.20833
1478.34	3276.875
1481.453	3260.875
1484.563	3271.20833
1487.671	3297.875
1490.776	3341.54167
1493.88	3419.54167
1496.981	3422.54167
1500.08	3518.54167
1503.176	3565.20833
1506.271	3584.54167
1509.363	3621.875
1512.452	3659.875
1515.54	3692.20833
1518.625	3756.54167
1521.708	3842.875
1524.789	3962.20833
1527.867	4103.54167
1530.944	4295.875
1534.018	4455.20833
1537.089	4650.875
1540.159	4727.20833
1543.226	4738.54167
1546.291	4680.875
1549.354	4567.20833
1552.415	4469.20833
1555.473	4364.875
1558.529	4255.54167
1561.583	4189.54167
1564.634	4152.875
1567.684	4136.875
1570.731	4151.54167
1573.776	4176.20833
1576.819	4239.54167
1579.859	4290.20833
1582.898	4308.20833
1585.934	4386.20833
1588.968	4386.875
1591.999	4429.20833
1595.029	4411.54167
1598.056	4409.54167
1601.081	4446.54167
1604.104	4422.20833
1607.125	4369.54167
1610.144	4273.54167
1613.16	4217.54167
1616.174	4117.54167
1619.186	4043.875
1622.196	3933.875
1625.203	3855.875
1628.209	3772.20833
1631.212	3763.54167
1634.213	3722.875
1637.212	3704.20833
1640.209	3622.20833
1643.203	3509.875
1646.196	3397.20833
1649.186	3256.54167
1652.174	3137.20833
1655.16	3055.20833
1658.144	2951.54167
1661.125	2837.20833
1664.105	2749.875
1667.082	2622.20833
1670.057	2494.20833
1673.03	2347.20833
1676.001	2207.54167
1678.97	2057.875
1681.937	1937.875
1684.901	1829.54167
1687.863	1777.20833
1690.824	1703.875
1693.782	1649.875
1696.738	1590.875
1699.692	1558.875
1702.643	1510.54167
1705.593	1493.54167
1708.54	1483.54167
1711.486	1466.875
1714.429	1430.875
1717.37	1437.875
1720.309	1404.20833
1723.246	1402.20833
1726.181	1381.20833
1729.113	1355.54167
1732.044	1358.875
1734.972	1356.20833
1737.899	1350.20833
1740.823	1343.20833
1743.745	1322.54167
1746.665	1302.54167
1749.583	1272.20833
1752.499	1255.54167
1755.413	1238.20833
1758.325	1216.875
1761.235	1217.875
1764.142	1194.20833
1767.048	1180.875
1769.951	1181.20833
1772.852	1173.20833
1775.752	1162.20833
1778.649	1170.875
1781.544	1159.875
1784.437	1134.875
1787.328	1145.54167
1790.217	1122.20833
1793.104	1095.54167
1795.989	1100.20833
1798.872	1099.20833
1801.753	1109.20833
1804.631	1116.20833
1807.508	1108.54167
1810.383	1105.20833
1813.255	1091.875
1816.126	1080.54167
1818.994	1084.20833
1821.861	1074.20833
1824.725	1070.875
1827.587	1068.875
1830.448	1061.54167
1833.306	1041.875
1836.162	1048.20833
1839.017	1043.54167
1841.869	1031.875
1844.719	1034.54167
1847.567	1021.54167
1850.414	1003.875
1853.258	1010.54167
1856.1	1022.54167
1858.94	1023.20833
1861.778	1013.875
1864.614	1004.875
1867.448	1003.54167
1870.28	993.20833
1873.111	1017.54167
1875.939	1003.54167
1878.765	1014.20833
1881.589	988.875
1884.411	1006.54167
1887.231	1003.54167
1890.049	980.20833
1892.865	982.54167
1895.68	967.20833
1898.492	988.20833
1901.302	985.20833
1904.11	956.54167
1906.916	951.20833
1909.721	952.54167
1912.523	960.54167
1915.323	927.875
1918.122	929.54167
1920.918	953.20833
1923.712	928.54167
1926.505	935.875
1929.295	922.875
1932.084	928.54167
1934.87	921.54167
1937.655	918.20833
1940.438	914.875
1943.218	917.54167
1945.997	916.54167
1948.774	934.54167
1951.549	930.20833
1954.322	913.20833
1957.093	912.20833
1959.862	906.54167
1962.629	897.54167
1965.394	898.20833
1968.157	889.875
1970.918	889.875
1973.678	870.875
1976.435	885.875
1979.19	869.875
1981.944	866.20833
1984.696	874.875
1987.445	850.54167
1990.193	859.875
1992.939	872.54167
1995.683	851.20833
1998.425	842.54167
2001.165	871.875
2003.903	847.875
2006.639	857.875
2009.374	853.54167
2012.106	844.20833
2014.837	835.54167
2017.566	848.875
2020.292	845.54167
2023.017	838.54167
2025.74	841.54167
2028.461	824.875
2031.18	823.54167
2033.898	830.875
2036.613	821.875
2039.327	823.20833
2042.038	806.54167
2044.748	811.54167
2047.456	815.20833
2050.162	792.54167
2052.866	803.20833
2055.568	803.20833
2058.268	799.54167
2060.967	794.20833
2063.663	787.20833
2066.358	779.54167
2069.051	772.20833
2071.742	796.54167
2074.431	797.54167
2077.118	786.54167
2079.804	785.20833
2082.487	789.20833
2085.169	797.54167
2087.849	809.54167
2090.527	786.20833
2093.203	792.20833
2095.877	803.20833
2098.55	802.54167
2101.22	801.54167
2103.889	808.875
2106.556	808.875
2109.221	834.20833
2111.884	837.875
2114.546	897.20833
2117.205	951.20833
2119.863	1014.875
2122.519	1065.20833
2125.173	1127.20833
2127.825	1177.20833
2130.475	1184.20833
2133.124	1147.20833
2135.771	1106.875
2138.416	1065.20833
2141.059	993.875
2143.7	951.54167
2146.339	892.54167
2148.977	852.875
2151.613	849.20833
2154.247	810.54167
2156.879	808.20833
2159.51	777.20833
2162.138	764.20833
2164.765	759.875
2167.39	748.20833
2170.013	757.20833
2172.634	761.54167
2175.254	730.875
2177.872	763.54167
2180.488	734.20833
2183.102	728.20833
2185.714	718.54167
2188.325	702.54167
2190.934	708.875
2193.541	706.875
2196.146	702.875
2198.75	688.20833
2201.351	684.20833
2203.951	673.54167
2206.549	686.54167
2209.146	665.20833
2211.74	672.20833
2214.333	685.20833
2216.924	658.875
2219.514	651.20833
2222.101	660.875
2224.687	662.875
2227.271	650.54167
2229.853	653.54167
2232.433	639.54167
2235.012	649.875
2237.589	651.54167
2240.164	647.875
2242.738	644.20833
2245.309	635.54167
2247.879	646.875
2250.448	653.20833
2253.014	627.54167
2255.579	604.54167
2258.142	606.54167
2260.703	601.54167
2263.262	615.20833
2265.82	600.54167
2268.376	611.20833
2270.93	588.875
2273.483	591.54167
2276.033	594.20833
2278.583	590.54167
2281.13	588.54167
2283.675	567.875
2286.219	569.20833
2288.761	592.20833
2291.302	585.20833
2293.841	590.875
2296.377	568.54167
2298.913	575.20833
2301.446	585.875
2303.978	578.875
2306.508	554.20833
2309.037	563.875
2311.563	563.20833
2314.088	567.875
2316.612	553.54167
2319.133	556.54167
2321.653	556.20833
2324.171	549.54167
2326.688	561.54167
2329.202	547.20833
2331.715	544.20833
2334.227	561.54167
2336.736	549.875
2339.244	553.20833
2341.751	530.875
2344.255	551.54167
2346.758	549.54167
2349.259	531.20833
2351.759	528.54167
2354.257	529.54167
2356.753	520.20833
2359.247	539.54167
2361.74	538.875
2364.231	527.875
2366.721	533.20833
2369.209	522.875
2371.695	530.875
2374.179	524.875
2376.662	516.20833
2379.143	532.20833
2381.622	519.875
2384.1	521.54167
2386.576	518.54167
2389.051	532.54167
2391.524	538.20833
2393.995	521.20833
2396.464	520.875
2398.932	514.875
2401.398	502.20833
2403.863	509.875
2406.325	503.20833
2408.787	517.20833
2411.246	511.54167
2413.704	507.875
2416.16	506.54167
2418.615	507.875
2421.068	515.875
2423.519	506.54167
2425.969	501.20833
2428.417	497.875
2430.863	521.54167
2433.308	505.875
2435.751	497.54167
2438.193	503.54167
2440.633	505.20833
2443.071	507.20833
2445.508	494.54167
2447.943	489.54167
2450.376	491.54167
2452.808	494.875
2455.238	489.54167
2457.667	515.875
2460.093	488.54167
2462.519	476.20833
2464.942	487.20833
2467.365	490.20833
2469.785	491.875
2472.204	482.20833
2474.621	475.875
2477.037	496.20833
2479.451	465.875
2481.863	478.54167
2484.274	473.20833
2486.683	471.20833
2489.091	482.54167
2491.497	483.875
2493.901	479.20833
2496.304	468.20833
2498.705	480.54167
2501.105	470.54167
2503.503	496.54167
2505.899	466.875
2508.294	490.875
2510.687	476.20833
2513.079	471.875
2515.469	466.875
2517.858	466.20833
2520.245	473.54167
2522.63	465.20833
2525.014	457.20833
2527.396	453.54167
2529.776	458.20833
2532.156	463.20833
2534.533	455.875
2536.909	442.875
2539.283	450.875
2541.656	453.20833
2544.027	478.875
2546.397	458.20833
2548.765	450.875
2551.131	457.54167
2553.496	454.54167
2555.86	472.875
2558.221	463.54167
2560.582	450.875
2562.94	436.54167
2565.298	454.875
2567.653	462.54167
2570.007	433.54167
2572.36	453.20833
2574.711	449.875
2577.06	475.20833
2579.408	461.54167
2581.754	445.875
2584.099	461.54167
2586.442	450.54167
2588.784	453.54167
2591.124	453.875
2593.463	447.54167
2595.8	453.875
2598.135	439.875
2600.469	446.20833
2602.802	446.54167
2605.133	456.20833
2607.462	431.875
2609.79	442.20833
2612.116	455.20833
2614.441	454.54167
2616.764	443.20833
2619.086	446.20833
2621.406	432.54167
2623.725	448.54167
2626.042	458.875
2628.358	443.875
2630.672	441.20833
2632.985	459.875
2635.296	443.54167
2637.606	446.20833
2639.914	439.54167
2642.22	445.875
2644.525	443.20833
2646.829	448.20833
2649.131	468.20833
2651.432	466.20833
2653.731	454.54167
2656.028	465.875
2658.324	465.875
2660.619	447.875
2662.912	458.20833
2665.204	439.20833
2667.494	451.875
2669.782	450.20833
2672.07	466.20833
2674.355	468.54167
2676.639	460.54167
2678.922	449.875
2681.203	455.20833
2683.483	442.54167
2685.761	446.20833
2688.038	453.54167
2690.313	471.875
2692.587	458.875
2694.859	454.54167
2697.13	461.875
2699.399	470.20833
2701.667	477.875
2703.933	464.54167
2706.198	463.54167
2708.461	487.20833
2710.723	489.20833
2712.984	477.20833
2715.243	479.54167
2717.5	465.875
2719.757	490.54167
2722.011	481.875
2724.264	495.20833
2726.516	498.54167
2728.766	484.875
2731.015	491.20833
2733.262	492.20833
2735.508	495.54167
2737.753	487.875
2739.996	476.20833
2742.237	475.54167
2744.477	493.20833
2746.716	485.875
2748.953	473.20833
2751.189	493.54167
2753.423	473.54167
2755.656	464.54167
2757.887	461.54167
2760.117	465.20833
2762.346	450.875
2764.573	454.54167
2766.798	467.875
2769.022	460.875
2771.245	464.875
2773.467	467.20833
2775.686	479.54167
2777.905	468.875
2780.122	487.54167
2782.337	480.875
2784.552	468.875
2786.764	478.54167
2788.976	486.20833
2791.186	476.54167
2793.394	494.20833
2795.601	497.20833
2797.807	516.20833
2800.011	518.20833
2802.214	520.875
2804.415	521.54167
2806.615	515.20833
2808.814	513.875
2811.011	526.20833
2813.206	534.20833
2815.401	550.875
2817.594	548.54167
2819.785	568.20833
2821.975	552.20833
2824.164	558.875
2826.351	570.875
2828.537	586.875
2830.722	607.20833
2832.905	601.54167
2835.086	628.20833
2837.267	676.875
2839.445	662.54167
2841.623	691.54167
2843.799	723.875
2845.974	738.20833
2848.147	789.20833
2850.319	800.54167
2852.489	831.20833
2854.659	849.20833
2856.826	855.54167
2858.993	886.54167
2861.158	865.20833
2863.321	876.54167
2865.483	891.54167
2867.644	884.875
2869.804	874.875
2871.962	881.54167
2874.118	882.20833
2876.274	878.875
2878.428	877.54167
2880.58	866.54167
2882.731	866.875
2884.881	877.54167
2887.03	882.20833
2889.177	860.875
2891.322	883.875
2893.467	880.20833
2895.61	882.875
2897.751	910.20833
2899.892	896.875
2902.03	910.875
2904.168	908.54167
2906.304	929.875
2908.439	938.20833
2910.572	929.875
2912.704	938.20833
2914.835	938.54167
2916.965	937.875
2919.093	952.875
2921.219	924.54167
2923.345	936.875
2925.469	907.54167
2927.591	907.20833
2929.712	874.54167
2931.832	870.20833
2933.951	860.54167
2936.068	844.875
2938.184	822.875
2940.299	806.54167
2942.412	777.875
2944.524	759.875
2946.634	737.54167
2948.744	693.875
2950.851	695.875
2952.958	669.20833
2955.063	677.20833
2957.167	658.20833
2959.269	627.875
2961.371	656.20833
2963.471	609.20833
2965.569	613.20833
2967.666	594.20833
2969.762	580.20833
2971.857	570.54167
2973.95	550.20833
2976.042	543.54167
2978.133	534.20833
2980.222	520.20833
2982.31	498.20833
2984.396	485.54167
2986.482	486.54167
2988.566	483.54167
2990.648	479.875
2992.73	480.20833
2994.81	466.875
2996.889	468.54167
2998.966	469.54167
3001.042	471.20833
3003.117	464.20833
3005.191	461.54167
3007.263	454.54167
3009.334	443.54167
3011.403	453.875
3013.472	435.875
3015.539	448.20833
3017.604	440.20833
3019.669	405.54167
3021.732	417.54167
3023.794	416.20833
3025.854	409.20833
3027.914	411.875
3029.971	422.20833
3032.028	411.54167
3034.083	411.20833
3036.137	406.875
3038.19	396.20833
3040.242	374.20833
3042.292	369.20833
3044.341	372.20833
3046.388	378.20833
3048.435	362.54167
3050.48	384.54167
3052.524	373.54167
3054.566	355.20833
3056.607	366.20833
3058.647	352.875
3060.686	330.875
3062.723	329.875
3064.759	313.20833
3066.794	1.20833
3068.828	1.20833
3070.86	3.875
