-0.839	500.54167
3.438	599.54167
7.711	180.875
11.981	63.54167
16.247	48.875
20.509	51.875
24.768	47.54167
29.024	57.875
33.276	44.875
37.524	49.20833
41.769	45.54167
46.01	35.54167
50.247	49.54167
54.481	58.20833
58.712	63.54167
62.939	48.54167
67.162	65.20833
71.382	57.20833
75.599	44.20833
79.812	60.54167
84.021	80.875
88.227	62.20833
92.429	58.875
96.628	51.875
100.823	74.875
105.015	77.54167
109.204	67.875
113.388	73.20833
117.57	80.20833
121.748	84.54167
125.922	79.54167
130.093	100.54167
134.261	97.875
138.425	97.54167
142.585	140.20833
146.742	130.20833
150.896	152.875
155.046	193.20833
159.193	290.20833
163.336	486.875
167.476	883.20833
171.613	1635.875
175.746	2776.20833
179.875	4133.54167
184.002	5457.20833
188.124	6388.20833
192.244	6763.20833
196.36	6819.875
200.472	6654.54167
204.581	6515.20833
208.687	6431.875
212.79	6402.875
216.889	6421.54167
220.984	6460.54167
225.077	6512.54167
229.165	6554.20833
233.251	6617.20833
237.333	6624.20833
241.412	6563.20833
245.487	6511.875
249.559	6472.54167
253.628	6442.20833
257.694	6423.54167
261.756	6381.20833
265.814	6260.54167
269.87	6089.875
273.922	5895.54167
277.97	5796.875
282.016	5724.875
286.058	5761.20833
290.097	5948.54167
294.132	6032.20833
298.164	6060.54167
302.193	5730.54167
306.219	5356.875
310.241	4901.875
314.26	4512.54167
318.276	4173.875
322.288	3961.20833
326.297	3770.54167
330.303	3662.875
334.305	3577.875
338.305	3499.20833
342.301	3462.54167
346.294	3423.54167
350.283	3419.20833
354.269	3392.54167
358.252	3367.875
362.232	3354.20833
366.209	3332.54167
370.182	3291.54167
374.152	3286.875
378.119	3292.54167
382.083	3267.54167
386.043	3303.20833
390	3305.20833
393.954	3263.875
397.905	3281.875
401.852	3265.875
405.797	3237.875
409.738	3199.875
413.676	3209.54167
417.61	3200.20833
421.542	3193.875
425.47	3162.54167
429.396	3144.54167
433.318	3119.875
437.236	3113.20833
441.152	3151.20833
445.065	3098.20833
448.974	3056.20833
452.88	3073.20833
456.783	3026.20833
460.683	3029.54167
464.58	3043.20833
468.473	3041.54167
472.364	3029.54167
476.251	3068.20833
480.135	3092.20833
484.016	3141.20833
487.894	3152.875
491.769	3177.20833
495.641	3161.54167
499.509	3180.20833
503.375	3160.54167
507.237	3179.54167
511.096	3159.875
514.952	3168.20833
518.805	3267.20833
522.655	3264.20833
526.502	3195.875
530.346	3161.54167
534.187	3145.875
538.024	3176.875
541.859	3186.20833
545.69	3212.54167
549.519	3178.20833
553.344	3138.20833
557.166	3112.875
560.985	3065.20833
564.802	3013.20833
568.615	2953.20833
572.425	2909.20833
576.232	2930.875
580.036	2894.54167
583.836	2904.875
587.634	2923.54167
591.429	2937.875
595.221	3005.875
599.01	3039.20833
602.796	3049.54167
606.578	3071.875
610.358	3078.20833
614.135	3032.54167
617.909	3028.20833
621.679	2991.54167
625.447	2984.875
629.212	2983.20833
632.973	2974.875
636.732	2960.20833
640.488	2979.20833
644.241	2960.54167
647.991	2939.875
651.737	2966.54167
655.481	2933.54167
659.222	2913.20833
662.96	2902.875
666.695	2928.54167
670.427	2969.20833
674.156	2987.54167
677.882	2964.875
681.605	2951.20833
685.325	2924.54167
689.043	2897.875
692.757	2879.875
696.468	2888.875
700.177	2914.875
703.882	2870.54167
707.585	2842.54167
711.284	2830.54167
714.981	2839.54167
718.675	2857.20833
722.366	2864.54167
726.054	2851.875
729.739	2842.20833
733.421	2848.875
737.1	2848.54167
740.777	2877.20833
744.45	2872.875
748.121	2914.20833
751.789	2938.20833
755.453	2935.54167
759.115	2968.20833
762.774	2982.875
766.431	2993.54167
770.084	3023.20833
773.734	3060.875
777.382	3125.54167
781.027	3105.20833
784.669	3154.54167
788.308	3145.20833
791.944	3145.54167
795.577	3162.54167
799.208	3201.54167
802.835	3216.875
806.46	3237.54167
810.082	3226.54167
813.701	3236.875
817.317	3259.20833
820.931	3288.20833
824.542	3270.875
828.149	3204.875
831.754	3202.20833
835.357	3175.20833
838.956	3198.54167
842.553	3193.875
846.146	3162.875
849.737	3155.20833
853.326	3169.20833
856.911	3165.20833
860.493	3191.20833
864.073	3212.54167
867.65	3255.875
871.225	3278.54167
874.796	3285.54167
878.365	3292.54167
881.931	3328.875
885.494	3331.54167
889.054	3344.54167
892.612	3326.54167
896.166	3296.875
899.719	3280.20833
903.268	3223.875
906.814	3200.54167
910.358	3178.20833
913.899	3152.20833
917.438	3168.54167
920.973	3153.875
924.506	3186.20833
928.036	3228.875
931.564	3292.54167
935.088	3316.875
938.61	3322.875
942.129	3394.54167
945.646	3475.875
949.16	3524.20833
952.671	3569.54167
956.179	3569.20833
959.685	3529.54167
963.188	3513.875
966.688	3460.875
970.185	3370.54167
973.68	3306.875
977.173	3239.20833
980.662	3188.875
984.149	3197.875
987.633	3169.54167
991.114	3233.20833
994.593	3283.20833
998.069	3361.875
1001.542	3461.54167
1005.013	3404.875
1008.481	3216.20833
1011.947	3163.54167
1015.409	3169.20833
1018.869	3163.20833
1022.327	3144.54167
1025.782	3105.20833
1029.234	3097.875
1032.683	3078.54167
1036.13	2954.20833
1039.574	2865.54167
1043.016	2781.54167
1046.455	2741.20833
1049.891	2751.875
1053.325	2736.875
1056.756	2752.54167
1060.184	2779.54167
1063.61	2769.54167
1067.033	2803.20833
1070.454	2818.20833
1073.872	2837.875
1077.287	2819.875
1080.7	2797.54167
1084.11	2801.20833
1087.517	2783.54167
1090.922	2745.20833
1094.325	2732.54167
1097.724	2709.875
1101.122	2711.54167
1104.516	2722.54167
1107.908	2688.875
1111.298	2763.20833
1114.684	2790.20833
1118.069	2840.54167
1121.45	2853.54167
1124.83	2848.20833
1128.206	2871.875
1131.58	2935.20833
1134.951	2997.54167
1138.32	3091.875
1141.687	3224.20833
1145.05	3251.20833
1148.412	3284.54167
1151.77	3238.20833
1155.126	3234.20833
1158.48	3248.875
1161.831	3258.54167
1165.18	3230.875
1168.525	3298.875
1171.869	3329.54167
1175.21	3313.54167
1178.548	3354.54167
1181.884	3417.20833
1185.217	3430.875
1188.548	3498.875
1191.877	3572.54167
1195.202	3673.875
1198.526	3734.20833
1201.846	3768.875
1205.165	3772.20833
1208.48	3755.875
1211.794	3747.20833
1215.104	3712.875
1218.413	3731.20833
1221.719	3726.54167
1225.022	3662.20833
1228.323	3625.20833
1231.621	3598.54167
1234.917	3539.875
1238.21	3589.20833
1241.501	3544.54167
1244.79	3538.20833
1248.076	3549.20833
1251.359	3563.54167
1254.64	3631.875
1257.919	3645.875
1261.195	3750.20833
1264.468	3834.20833
1267.74	3835.54167
1271.008	3873.20833
1274.275	3853.20833
1277.538	3818.20833
1280.8	3808.20833
1284.059	3829.875
1287.315	3858.20833
1290.569	3876.875
1293.821	3868.20833
1297.07	3871.875
1300.317	3912.20833
1303.562	3897.54167
1306.803	3856.20833
1310.043	3855.875
1313.28	3816.54167
1316.515	3783.20833
1319.747	3757.875
1322.977	3699.54167
1326.204	3657.875
1329.429	3614.875
1332.652	3588.54167
1335.872	3586.20833
1339.09	3536.54167
1342.306	3518.54167
1345.519	3450.54167
1348.729	3406.20833
1351.938	3399.54167
1355.144	3349.875
1358.347	3304.20833
1361.548	3309.875
1364.747	3296.875
1367.944	3228.54167
1371.138	3255.54167
1374.329	3276.20833
1377.518	3303.54167
1380.705	3310.875
1383.89	3274.54167
1387.072	3193.875
1390.252	3070.875
1393.429	2949.875
1396.605	2869.54167
1399.777	2780.20833
1402.948	2761.20833
1406.116	2738.875
1409.282	2733.875
1412.445	2728.20833
1415.606	2776.875
1418.765	2806.54167
1421.921	2860.20833
1425.075	2922.875
1428.227	3055.875
1431.376	3180.54167
1434.524	3285.20833
1437.668	3385.20833
1440.811	3459.20833
1443.951	3488.20833
1447.089	3489.54167
1450.224	3460.54167
1453.357	3438.20833
1456.488	3411.875
1459.617	3363.54167
1462.743	3321.20833
1465.867	3244.20833
1468.989	3206.20833
1472.108	3136.20833
1475.225	3051.20833
1478.34	3037.20833
1481.453	3018.54167
1484.563	3028.20833
1487.671	3076.54167
1490.776	3095.54167
1493.88	3156.875
1496.981	3199.54167
1500.08	3221.875
1503.176	3263.54167
1506.271	3303.875
1509.363	3364.54167
1512.452	3389.875
1515.54	3422.20833
1518.625	3472.54167
1521.708	3539.54167
1524.789	3637.20833
1527.867	3765.20833
1530.944	3960.54167
1534.018	4118.875
1537.089	4293.875
1540.159	4339.20833
1543.226	4338.20833
1546.291	4255.875
1549.354	4154.20833
1552.415	4058.875
1555.473	3953.875
1558.529	3907.20833
1561.583	3851.20833
1564.634	3844.54167
1567.684	3822.54167
1570.731	3835.54167
1573.776	3906.875
1576.819	3931.54167
1579.859	3995.875
1582.898	4004.20833
1585.934	4068.875
1588.968	4074.54167
1591.999	4066.875
1595.029	4099.875
1598.056	4114.54167
1601.081	4129.875
1604.104	4098.20833
1607.125	4078.54167
1610.144	4019.20833
1613.16	3909.875
1616.174	3824.54167
1619.186	3769.875
1622.196	3653.20833
1625.203	3524.54167
1628.209	3504.54167
1631.212	3475.875
1634.213	3453.54167
1637.212	3430.20833
1640.209	3359.20833
1643.203	3252.875
1646.196	3147.20833
1649.186	3001.54167
1652.174	2909.20833
1655.16	2819.20833
1658.144	2721.875
1661.125	2613.875
1664.105	2508.20833
1667.082	2399.875
1670.057	2282.54167
1673.03	2157.54167
1676.001	1993.20833
1678.97	1874.54167
1681.937	1745.54167
1684.901	1664.20833
1687.863	1621.20833
1690.824	1525.54167
1693.782	1519.875
1696.738	1438.20833
1699.692	1411.54167
1702.643	1350.54167
1705.593	1353.54167
1708.54	1336.875
1711.486	1324.875
1714.429	1291.875
1717.37	1300.875
1720.309	1269.54167
1723.246	1268.54167
1726.181	1237.875
1729.113	1244.54167
1732.044	1226.20833
1734.972	1203.875
1737.899	1207.20833
1740.823	1206.54167
1743.745	1174.54167
1746.665	1168.20833
1749.583	1143.875
1752.499	1130.54167
1755.413	1103.875
1758.325	1098.20833
1761.235	1083.20833
1764.142	1060.875
1767.048	1048.54167
1769.951	1056.54167
1772.852	1041.54167
1775.752	1048.54167
1778.649	1040.875
1781.544	1032.54167
1784.437	1009.875
1787.328	1030.20833
1790.217	1014.875
1793.104	983.54167
1795.989	982.54167
1798.872	975.20833
1801.753	986.875
1804.631	991.20833
1807.508	990.875
1810.383	988.54167
1813.255	959.875
1816.126	958.875
1818.994	968.875
1821.861	946.54167
1824.725	947.54167
1827.587	944.875
1830.448	946.875
1833.306	916.54167
1836.162	933.54167
1839.017	931.20833
1841.869	920.20833
1844.719	912.54167
1847.567	915.20833
1850.414	890.20833
1853.258	892.20833
1856.1	914.54167
1858.94	901.54167
1861.778	906.54167
1864.614	894.54167
1867.448	892.54167
1870.28	884.54167
1873.111	906.875
1875.939	896.20833
1878.765	895.875
1881.589	878.875
1884.411	889.54167
1887.231	889.875
1890.049	879.20833
1892.865	880.875
1895.68	859.875
1898.492	876.20833
1901.302	869.875
1904.11	863.875
1906.916	842.20833
1909.721	837.875
1912.523	854.875
1915.323	837.54167
1918.122	833.54167
1920.918	837.54167
1923.712	834.20833
1926.505	836.20833
1929.295	815.20833
1932.084	837.875
1934.87	832.20833
1937.655	822.20833
1940.438	809.875
1943.218	821.875
1945.997	819.54167
1948.774	834.20833
1951.549	828.54167
1954.322	819.54167
1957.093	812.54167
1959.862	790.54167
1962.629	799.875
1965.394	792.54167
1968.157	778.54167
1970.918	784.54167
1973.678	787.20833
1976.435	799.875
1979.19	771.20833
1981.944	776.20833
1984.696	770.20833
1987.445	758.875
1990.193	773.20833
1992.939	778.875
1995.683	761.875
1998.425	742.54167
2001.165	779.20833
2003.903	751.20833
2006.639	756.54167
2009.374	761.875
2012.106	769.20833
2014.837	734.54167
2017.566	756.54167
2020.292	762.875
2023.017	748.54167
2025.74	752.875
2028.461	739.54167
2031.18	729.875
2033.898	738.20833
2036.613	729.875
2039.327	737.20833
2042.038	714.54167
2044.748	717.20833
2047.456	736.54167
2050.162	709.875
2052.866	718.875
2055.568	725.54167
2058.268	714.54167
2060.967	720.20833
2063.663	710.875
2066.358	708.54167
2069.051	710.54167
2071.742	708.875
2074.431	714.54167
2077.118	700.875
2079.804	688.54167
2082.487	705.875
2085.169	711.54167
2087.849	720.20833
2090.527	693.54167
2093.203	710.875
2095.877	715.54167
2098.55	712.20833
2101.22	711.20833
2103.889	728.20833
2106.556	718.875
2109.221	750.875
2111.884	750.54167
2114.546	785.875
2117.205	842.54167
2119.863	899.875
2122.519	933.54167
2125.173	985.54167
2127.825	1040.875
2130.475	1043.20833
2133.124	1001.20833
2135.771	960.875
2138.416	943.20833
2141.059	871.20833
2143.7	847.54167
2146.339	791.875
2148.977	755.875
2151.613	755.875
2154.247	729.875
2156.879	711.54167
2159.51	701.54167
2162.138	684.875
2164.765	689.875
2167.39	677.875
2170.013	697.20833
2172.634	672.875
2175.254	669.20833
2177.872	693.20833
2180.488	655.875
2183.102	650.20833
2185.714	648.54167
2188.325	630.875
2190.934	639.20833
2193.541	638.875
2196.146	633.20833
2198.75	615.20833
2201.351	624.20833
2203.951	616.875
2206.549	625.20833
2209.146	608.20833
2211.74	611.875
2214.333	609.54167
2216.924	589.875
2219.514	611.875
2222.101	588.875
2224.687	613.875
2227.271	600.54167
2229.853	581.54167
2232.433	572.54167
2235.012	599.20833
2237.589	598.54167
2240.164	599.54167
2242.738	585.20833
2245.309	568.875
2247.879	588.20833
2250.448	581.54167
2253.014	565.20833
2255.579	551.54167
2258.142	568.20833
2260.703	552.54167
2263.262	558.875
2265.82	550.875
2268.376	562.875
2270.93	540.875
2273.483	548.54167
2276.033	557.54167
2278.583	544.54167
2281.13	534.20833
2283.675	528.875
2286.219	531.20833
2288.761	537.20833
2291.302	526.875
2293.841	536.875
2296.377	524.20833
2298.913	527.54167
2301.446	536.875
2303.978	520.54167
2306.508	510.875
2309.037	524.875
2311.563	527.20833
2314.088	523.54167
2316.612	503.54167
2319.133	514.54167
2321.653	516.54167
2324.171	502.54167
2326.688	520.54167
2329.202	512.20833
2331.715	516.20833
2334.227	503.54167
2336.736	520.875
2339.244	509.54167
2341.751	491.54167
2344.255	508.875
2346.758	498.20833
2349.259	491.875
2351.759	500.20833
2354.257	487.20833
2356.753	492.875
2359.247	496.20833
2361.74	502.20833
2364.231	505.20833
2366.721	501.54167
2369.209	498.20833
2371.695	495.875
2374.179	483.54167
2376.662	479.54167
2379.143	504.875
2381.622	481.20833
2384.1	488.54167
2386.576	487.54167
2389.051	503.54167
2391.524	494.54167
2393.995	491.875
2396.464	478.54167
2398.932	478.875
2401.398	481.54167
2403.863	478.54167
2406.325	471.20833
2408.787	478.54167
2411.246	481.20833
2413.704	475.20833
2416.16	478.54167
2418.615	473.875
2421.068	482.20833
2423.519	477.54167
2425.969	473.875
2428.417	472.54167
2430.863	486.54167
2433.308	477.20833
2435.751	466.54167
2438.193	472.20833
2440.633	475.20833
2443.071	472.54167
2445.508	457.54167
2447.943	458.54167
2450.376	459.20833
2452.808	462.875
2455.238	460.54167
2457.667	482.875
2460.093	467.20833
2462.519	452.875
2464.942	464.54167
2467.365	467.54167
2469.785	460.54167
2472.204	462.20833
2474.621	453.54167
2477.037	478.875
2479.451	446.20833
2481.863	449.875
2484.274	461.20833
2486.683	451.54167
2489.091	460.875
2491.497	456.54167
2493.901	464.54167
2496.304	447.20833
2498.705	458.54167
2501.105	450.20833
2503.503	474.875
2505.899	439.875
2508.294	465.875
2510.687	445.54167
2513.079	449.54167
2515.469	444.875
2517.858	450.20833
2520.245	450.54167
2522.63	436.875
2525.014	446.54167
2527.396	437.875
2529.776	437.875
2532.156	446.20833
2534.533	437.54167
2536.909	433.20833
2539.283	427.20833
2541.656	437.20833
2544.027	454.20833
2546.397	447.875
2548.765	441.54167
2551.131	439.20833
2553.496	444.54167
2555.86	445.875
2558.221	446.54167
2560.582	444.54167
2562.94	425.54167
2565.298	434.54167
2567.653	456.20833
2570.007	424.20833
2572.36	448.875
2574.711	425.875
2577.06	459.875
2579.408	447.875
2581.754	434.54167
2584.099	446.875
2586.442	438.20833
2588.784	439.20833
2591.124	443.20833
2593.463	448.20833
2595.8	441.54167
2598.135	423.20833
2600.469	434.20833
2602.802	453.20833
2605.133	443.20833
2607.462	440.20833
2609.79	424.20833
2612.116	450.54167
2614.441	440.875
2616.764	439.875
2619.086	440.875
2621.406	433.54167
2623.725	446.54167
2626.042	445.875
2628.358	432.54167
2630.672	423.875
2632.985	459.54167
2635.296	438.54167
2637.606	440.54167
2639.914	427.20833
2642.22	444.54167
2644.525	443.20833
2646.829	448.875
2649.131	460.20833
2651.432	455.20833
2653.731	447.54167
2656.028	467.875
2658.324	460.20833
2660.619	445.20833
2662.912	457.54167
2665.204	432.875
2667.494	453.875
2669.782	450.875
2672.07	456.20833
2674.355	455.54167
2676.639	455.20833
2678.922	444.54167
2681.203	458.20833
2683.483	446.20833
2685.761	445.20833
2688.038	458.875
2690.313	476.54167
2692.587	455.875
2694.859	457.54167
2697.13	461.20833
2699.399	480.875
2701.667	466.20833
2703.933	470.875
2706.198	464.54167
2708.461	473.20833
2710.723	483.54167
2712.984	474.20833
2715.243	480.20833
2717.5	468.54167
2719.757	492.54167
2722.011	485.875
2724.264	496.54167
2726.516	503.54167
2728.766	483.54167
2731.015	497.20833
2733.262	486.875
2735.508	493.20833
2737.753	499.875
2739.996	479.875
2742.237	476.54167
2744.477	485.20833
2746.716	483.54167
2748.953	480.875
2751.189	477.20833
2753.423	469.54167
2755.656	458.20833
2757.887	454.54167
2760.117	474.875
2762.346	455.54167
2764.573	458.54167
2766.798	462.875
2769.022	469.875
2771.245	469.20833
2773.467	479.20833
2775.686	474.54167
2777.905	472.20833
2780.122	484.20833
2782.337	493.875
2784.552	476.54167
2786.764	478.54167
2788.976	490.20833
2791.186	483.875
2793.394	501.20833
2795.601	497.20833
2797.807	517.20833
2800.011	508.20833
2802.214	512.875
2804.415	511.20833
2806.615	521.20833
2808.814	521.875
2811.011	522.54167
2813.206	523.20833
2815.401	550.20833
2817.594	552.20833
2819.785	553.875
2821.975	548.875
2824.164	552.20833
2826.351	569.20833
2828.537	579.54167
2830.722	600.875
2832.905	593.20833
2835.086	634.54167
2837.267	653.20833
2839.445	668.20833
2841.623	691.875
2843.799	721.875
2845.974	743.54167
2848.147	772.54167
2850.319	792.875
2852.489	831.20833
2854.659	848.20833
2856.826	860.54167
2858.993	894.54167
2861.158	866.54167
2863.321	875.54167
2865.483	874.54167
2867.644	885.54167
2869.804	868.54167
2871.962	875.875
2874.118	887.20833
2876.274	869.875
2878.428	873.20833
2880.58	863.20833
2882.731	866.54167
2884.881	873.875
2887.03	877.54167
2889.177	866.875
2891.322	874.875
2893.467	880.20833
2895.61	886.875
2897.751	899.54167
2899.892	892.54167
2902.03	914.875
2904.168	906.875
2906.304	913.54167
2908.439	926.54167
2910.572	922.54167
2912.704	933.20833
2914.835	926.875
2916.965	925.54167
2919.093	943.875
2921.219	913.20833
2923.345	937.20833
2925.469	909.20833
2927.591	909.875
2929.712	883.875
2931.832	876.54167
2933.951	854.54167
2936.068	847.54167
2938.184	821.54167
2940.299	807.875
2942.412	788.875
2944.524	747.20833
2946.634	751.54167
2948.744	701.54167
2950.851	723.54167
2952.958	688.54167
2955.063	686.875
2957.167	672.875
2959.269	640.54167
2961.371	674.20833
2963.471	639.54167
2965.569	629.20833
2967.666	616.875
2969.762	599.875
2971.857	591.20833
2973.95	573.54167
2976.042	574.54167
2978.133	553.20833
2980.222	538.54167
2982.31	522.54167
2984.396	513.875
2986.482	513.54167
2988.566	504.875
2990.648	498.875
2992.73	498.20833
2994.81	486.875
2996.889	491.875
2998.966	487.875
3001.042	488.54167
3003.117	487.875
3005.191	485.875
3007.263	475.875
3009.334	463.20833
3011.403	473.54167
3013.472	462.54167
3015.539	461.875
3017.604	460.20833
3019.669	437.875
3021.732	438.20833
3023.794	440.20833
3025.854	434.54167
3027.914	430.875
3029.971	442.20833
3032.028	439.20833
3034.083	434.54167
3036.137	425.54167
3038.19	408.875
3040.242	400.875
3042.292	388.20833
3044.341	397.54167
3046.388	403.20833
3048.435	385.20833
3050.48	400.54167
3052.524	381.54167
3054.566	373.54167
3056.607	381.54167
3058.647	371.54167
3060.686	366.875
3062.723	344.54167
3064.759	330.54167
3066.794	-0.79167
3068.828	3.54167
3070.86	1.20833
