-0.839	644.29167
3.438	730.625
7.711	207.95833
11.981	65.95833
16.247	50.95833
20.509	51.625
24.768	48.29167
29.024	59.95833
33.276	45.625
37.524	48.29167
41.769	50.625
46.01	37.95833
50.247	50.29167
54.481	61.95833
58.712	60.625
62.939	49.29167
67.162	64.29167
71.382	56.29167
75.599	46.29167
79.812	67.29167
84.021	81.95833
88.227	62.625
92.429	63.625
96.628	55.95833
100.823	70.95833
105.015	79.625
109.204	70.625
113.388	76.29167
117.57	79.29167
121.748	88.29167
125.922	84.29167
130.093	103.29167
134.261	104.625
138.425	100.95833
142.585	147.625
146.742	136.29167
150.896	173.95833
155.046	220.95833
159.193	344.625
163.336	588.29167
167.476	1106.29167
171.613	2010.29167
175.746	3352.29167
179.875	4927.29167
184.002	6338.95833
188.124	7324.29167
192.244	7541.625
196.36	7484.29167
200.472	7215.29167
204.581	6972.625
208.687	6772.625
212.79	6685.29167
216.889	6655.625
220.984	6613.95833
225.077	6641.95833
229.165	6613.29167
233.251	6601.29167
237.333	6497.95833
241.412	6456.29167
245.487	6352.29167
249.559	6292.29167
253.628	6239.29167
257.694	6184.29167
261.756	6105.29167
265.814	5963.29167
269.87	5793.29167
273.922	5604.29167
277.97	5485.95833
282.016	5394.625
286.058	5413.29167
290.097	5489.29167
294.132	5558.625
298.164	5510.29167
302.193	5293.625
306.219	4929.625
310.241	4547.625
314.26	4217.29167
318.276	3926.95833
322.288	3752.95833
326.297	3600.625
330.303	3490.29167
334.305	3428.29167
338.305	3374.29167
342.301	3335.625
346.294	3305.29167
350.283	3287.625
354.269	3264.29167
358.252	3224.625
362.232	3204.29167
366.209	3197.29167
370.182	3173.625
374.152	3164.625
378.119	3169.29167
382.083	3162.29167
386.043	3153.29167
390	3118.95833
393.954	3147.625
397.905	3154.625
401.852	3107.29167
405.797	3094.625
409.738	3059.95833
413.676	3095.625
417.61	3080.95833
421.542	3061.95833
425.47	3037.625
429.396	3024.625
433.318	3013.625
437.236	2990.95833
441.152	3017.625
445.065	2952.625
448.974	2962.95833
452.88	2933.625
456.783	2918.29167
460.683	2910.95833
464.58	2910.625
468.473	2882.29167
472.364	2920.29167
476.251	2930.95833
480.135	2932.95833
484.016	2987.625
487.894	2974.95833
491.769	3036.625
495.641	2992.29167
499.509	2990.29167
503.375	3008.625
507.237	3002.625
511.096	2980.95833
514.952	2998.625
518.805	2990.625
522.655	2997.29167
526.502	2974.29167
530.346	2975.95833
534.187	2976.95833
538.024	3000.625
541.859	3018.95833
545.69	3024.29167
549.519	3017.95833
553.344	2998.95833
557.166	2949.29167
560.985	2922.29167
564.802	2868.29167
568.615	2829.625
572.425	2796.95833
576.232	2795.625
580.036	2780.95833
583.836	2768.95833
587.634	2805.29167
591.429	2803.625
595.221	2872.29167
599.01	2878.29167
602.796	2910.29167
606.578	2924.29167
610.358	2930.625
614.135	2910.95833
617.909	2908.625
621.679	2888.95833
625.447	2853.29167
629.212	2869.95833
632.973	2861.625
636.732	2841.29167
640.488	2864.29167
644.241	2837.95833
647.991	2812.95833
651.737	2834.95833
655.481	2814.29167
659.222	2827.95833
662.96	2815.625
666.695	2844.625
670.427	2825.625
674.156	2846.29167
677.882	2823.29167
681.605	2820.95833
685.325	2797.95833
689.043	2796.625
692.757	2779.625
696.468	2763.29167
700.177	2769.95833
703.882	2760.625
707.585	2753.29167
711.284	2732.95833
714.981	2734.95833
718.675	2733.95833
722.366	2756.625
726.054	2713.29167
729.739	2725.95833
733.421	2739.29167
737.1	2735.29167
740.777	2733.29167
744.45	2754.95833
748.121	2786.95833
751.789	2820.95833
755.453	2828.95833
759.115	2831.29167
762.774	2862.625
766.431	2865.29167
770.084	2893.95833
773.734	2911.95833
777.382	2957.29167
781.027	2979.95833
784.669	2992.625
788.308	2998.95833
791.944	3032.29167
795.577	3022.625
799.208	3054.29167
802.835	3074.29167
806.46	3093.625
810.082	3096.625
813.701	3091.29167
817.317	3146.95833
820.931	3134.95833
824.542	3107.625
828.149	3090.29167
831.754	3067.625
835.357	3034.625
838.956	3058.625
842.553	3034.95833
846.146	3014.95833
849.737	3001.29167
853.326	2999.95833
856.911	2986.625
860.493	3057.625
864.073	3053.625
867.65	3084.29167
871.225	3132.95833
874.796	3114.95833
878.365	3134.625
881.931	3151.95833
885.494	3146.95833
889.054	3147.95833
892.612	3167.625
896.166	3121.625
899.719	3093.95833
903.268	3064.29167
906.814	3040.95833
910.358	3021.95833
913.899	2994.625
917.438	3003.625
920.973	3015.625
924.506	3036.625
928.036	3087.625
931.564	3126.29167
935.088	3179.29167
938.61	3157.29167
942.129	3202.625
945.646	3277.95833
949.16	3338.95833
952.671	3388.95833
956.179	3379.95833
959.685	3349.95833
963.188	3347.95833
966.688	3320.625
970.185	3220.625
973.68	3121.95833
977.173	3081.625
980.662	3055.95833
984.149	3034.625
987.633	3024.95833
991.114	3096.95833
994.593	3118.625
998.069	3224.625
1001.542	3287.29167
1005.013	3250.95833
1008.481	3077.95833
1011.947	3041.95833
1015.409	3009.625
1018.869	3005.95833
1022.327	2990.29167
1025.782	2971.95833
1029.234	2989.29167
1032.683	2904.95833
1036.13	2833.625
1039.574	2720.95833
1043.016	2668.95833
1046.455	2627.625
1049.891	2591.95833
1053.325	2615.625
1056.756	2603.95833
1060.184	2630.95833
1063.61	2638.29167
1067.033	2646.625
1070.454	2667.95833
1073.872	2692.625
1077.287	2666.29167
1080.7	2699.625
1084.11	2678.625
1087.517	2649.29167
1090.922	2624.95833
1094.325	2588.625
1097.724	2587.625
1101.122	2565.95833
1104.516	2569.95833
1107.908	2565.29167
1111.298	2606.95833
1114.684	2607.95833
1118.069	2649.95833
1121.45	2695.29167
1124.83	2698.95833
1128.206	2706.95833
1131.58	2730.29167
1134.951	2807.625
1138.32	2885.29167
1141.687	2994.95833
1145.05	3053.29167
1148.412	3049.29167
1151.77	3044.95833
1155.126	3035.95833
1158.48	3000.625
1161.831	3016.29167
1165.18	3031.95833
1168.525	3079.29167
1171.869	3125.625
1175.21	3135.625
1178.548	3163.625
1181.884	3203.95833
1185.217	3235.29167
1188.548	3304.95833
1191.877	3345.95833
1195.202	3462.29167
1198.526	3509.95833
1201.846	3560.29167
1205.165	3523.29167
1208.48	3537.95833
1211.794	3501.29167
1215.104	3504.29167
1218.413	3511.95833
1221.719	3510.625
1225.022	3471.625
1228.323	3419.29167
1231.621	3375.95833
1234.917	3371.29167
1238.21	3389.29167
1241.501	3362.95833
1244.79	3339.625
1248.076	3354.29167
1251.359	3370.29167
1254.64	3446.625
1257.919	3481.29167
1261.195	3541.95833
1264.468	3564.95833
1267.74	3607.95833
1271.008	3630.625
1274.275	3601.625
1277.538	3589.95833
1280.8	3587.625
1284.059	3573.29167
1287.315	3612.29167
1290.569	3626.625
1293.821	3661.29167
1297.07	3671.95833
1300.317	3681.29167
1303.562	3672.625
1306.803	3632.625
1310.043	3613.29167
1313.28	3590.29167
1316.515	3580.95833
1319.747	3507.95833
1322.977	3522.29167
1326.204	3488.625
1329.429	3427.95833
1332.652	3409.95833
1335.872	3407.625
1339.09	3346.29167
1342.306	3335.95833
1345.519	3322.29167
1348.729	3294.625
1351.938	3280.625
1355.144	3243.625
1358.347	3198.29167
1361.548	3172.29167
1364.747	3191.95833
1367.944	3147.29167
1371.138	3163.625
1374.329	3158.95833
1377.518	3185.29167
1380.705	3207.29167
1383.89	3185.95833
1387.072	3102.95833
1390.252	2976.625
1393.429	2867.95833
1396.605	2756.625
1399.777	2708.95833
1402.948	2664.625
1406.116	2655.625
1409.282	2659.625
1412.445	2635.625
1415.606	2676.29167
1418.765	2704.29167
1421.921	2762.29167
1425.075	2825.625
1428.227	2900.29167
1431.376	3033.625
1434.524	3118.29167
1437.668	3208.95833
1440.811	3256.29167
1443.951	3280.625
1447.089	3294.95833
1450.224	3269.95833
1453.357	3274.95833
1456.488	3229.95833
1459.617	3184.625
1462.743	3145.95833
1465.867	3087.625
1468.989	3030.625
1472.108	2975.625
1475.225	2928.95833
1478.34	2872.29167
1481.453	2864.625
1484.563	2883.95833
1487.671	2941.625
1490.776	2960.625
1493.88	2991.29167
1496.981	3024.29167
1500.08	3084.29167
1503.176	3114.29167
1506.271	3156.95833
1509.363	3205.29167
1512.452	3248.625
1515.54	3271.95833
1518.625	3317.625
1521.708	3404.29167
1524.789	3496.29167
1527.867	3628.95833
1530.944	3784.625
1534.018	3949.95833
1537.089	4121.29167
1540.159	4152.625
1543.226	4112.29167
1546.291	4060.95833
1549.354	3976.95833
1552.415	3891.625
1555.473	3780.95833
1558.529	3732.95833
1561.583	3702.625
1564.634	3698.95833
1567.684	3669.625
1570.731	3681.95833
1573.776	3723.29167
1576.819	3789.95833
1579.859	3832.95833
1582.898	3885.29167
1585.934	3916.625
1588.968	3920.625
1591.999	3897.95833
1595.029	3922.95833
1598.056	3923.625
1601.081	3938.95833
1604.104	3930.625
1607.125	3897.29167
1610.144	3781.29167
1613.16	3741.625
1616.174	3643.95833
1619.186	3587.95833
1622.196	3494.625
1625.203	3413.95833
1628.209	3369.95833
1631.212	3337.95833
1634.213	3352.95833
1637.212	3374.625
1640.209	3304.625
1643.203	3255.29167
1646.196	3146.625
1649.186	2997.625
1652.174	2896.95833
1655.16	2791.29167
1658.144	2677.29167
1661.125	2574.625
1664.105	2463.29167
1667.082	2345.29167
1670.057	2226.29167
1673.03	2109.95833
1676.001	1990.625
1678.97	1841.625
1681.937	1742.29167
1684.901	1643.95833
1687.863	1584.95833
1690.824	1516.625
1693.782	1492.29167
1696.738	1442.625
1699.692	1398.29167
1702.643	1358.95833
1705.593	1350.625
1708.54	1345.625
1711.486	1324.95833
1714.429	1280.625
1717.37	1288.625
1720.309	1255.95833
1723.246	1273.29167
1726.181	1225.625
1729.113	1230.29167
1732.044	1209.29167
1734.972	1204.625
1737.899	1220.29167
1740.823	1214.95833
1743.745	1162.625
1746.665	1167.95833
1749.583	1136.29167
1752.499	1124.95833
1755.413	1116.29167
1758.325	1087.625
1761.235	1089.625
1764.142	1072.29167
1767.048	1051.95833
1769.951	1054.29167
1772.852	1046.29167
1775.752	1041.29167
1778.649	1016.95833
1781.544	1040.29167
1784.437	1012.95833
1787.328	1017.625
1790.217	1010.95833
1793.104	981.625
1795.989	977.29167
1798.872	970.29167
1801.753	994.625
1804.631	979.95833
1807.508	993.625
1810.383	979.625
1813.255	969.29167
1816.126	967.625
1818.994	957.29167
1821.861	956.29167
1824.725	954.625
1827.587	961.95833
1830.448	942.29167
1833.306	924.29167
1836.162	930.95833
1839.017	919.95833
1841.869	919.625
1844.719	916.29167
1847.567	895.625
1850.414	888.29167
1853.258	906.29167
1856.1	922.95833
1858.94	909.29167
1861.778	897.29167
1864.614	897.625
1867.448	901.29167
1870.28	888.95833
1873.111	908.95833
1875.939	899.29167
1878.765	905.95833
1881.589	886.29167
1884.411	875.625
1887.231	891.95833
1890.049	879.625
1892.865	877.95833
1895.68	868.95833
1898.492	881.625
1901.302	866.95833
1904.11	859.625
1906.916	856.625
1909.721	843.625
1912.523	859.29167
1915.323	843.29167
1918.122	831.29167
1920.918	841.29167
1923.712	828.625
1926.505	821.29167
1929.295	823.29167
1932.084	846.625
1934.87	838.625
1937.655	821.29167
1940.438	822.625
1943.218	817.29167
1945.997	827.625
1948.774	822.95833
1951.549	821.29167
1954.322	816.625
1957.093	814.29167
1959.862	800.625
1962.629	799.29167
1965.394	800.625
1968.157	794.29167
1970.918	792.29167
1973.678	781.29167
1976.435	795.29167
1979.19	786.625
1981.944	772.625
1984.696	774.95833
1987.445	765.625
1990.193	762.625
1992.939	787.625
1995.683	770.29167
1998.425	740.29167
2001.165	771.29167
2003.903	758.625
2006.639	759.95833
2009.374	765.95833
2012.106	766.625
2014.837	744.29167
2017.566	760.625
2020.292	758.95833
2023.017	745.95833
2025.74	745.29167
2028.461	743.625
2031.18	745.95833
2033.898	736.625
2036.613	740.625
2039.327	733.625
2042.038	731.29167
2044.748	738.29167
2047.456	738.625
2050.162	723.29167
2052.866	721.29167
2055.568	721.95833
2058.268	716.625
2060.967	729.29167
2063.663	698.625
2066.358	714.95833
2069.051	708.625
2071.742	706.29167
2074.431	723.625
2077.118	707.29167
2079.804	696.95833
2082.487	704.625
2085.169	720.95833
2087.849	720.625
2090.527	698.625
2093.203	708.29167
2095.877	721.29167
2098.55	721.625
2101.22	720.95833
2103.889	731.625
2106.556	731.29167
2109.221	766.95833
2111.884	767.29167
2114.546	838.95833
2117.205	875.29167
2119.863	938.625
2122.519	999.95833
2125.173	1055.95833
2127.825	1127.29167
2130.475	1115.625
2133.124	1076.29167
2135.771	1047.95833
2138.416	997.95833
2141.059	938.95833
2143.7	887.625
2146.339	838.625
2148.977	778.625
2151.613	781.95833
2154.247	759.29167
2156.879	742.29167
2159.51	719.29167
2162.138	714.29167
2164.765	697.95833
2167.39	683.95833
2170.013	704.29167
2172.634	691.95833
2175.254	678.625
2177.872	705.95833
2180.488	648.95833
2183.102	658.625
2185.714	658.29167
2188.325	632.29167
2190.934	634.29167
2193.541	638.95833
2196.146	632.95833
2198.75	619.625
2201.351	610.29167
2203.951	613.625
2206.549	625.95833
2209.146	614.29167
2211.74	611.625
2214.333	611.95833
2216.924	598.625
2219.514	601.625
2222.101	594.95833
2224.687	609.625
2227.271	595.29167
2229.853	581.29167
2232.433	575.29167
2235.012	591.29167
2237.589	597.95833
2240.164	593.95833
2242.738	575.625
2245.309	566.95833
2247.879	579.29167
2250.448	579.95833
2253.014	549.625
2255.579	542.29167
2258.142	550.29167
2260.703	542.625
2263.262	547.29167
2265.82	535.625
2268.376	541.625
2270.93	531.95833
2273.483	529.95833
2276.033	542.95833
2278.583	531.95833
2281.13	524.95833
2283.675	521.625
2286.219	519.625
2288.761	530.29167
2291.302	530.95833
2293.841	540.95833
2296.377	516.625
2298.913	515.95833
2301.446	524.29167
2303.978	519.625
2306.508	502.29167
2309.037	515.625
2311.563	511.29167
2314.088	511.625
2316.612	488.29167
2319.133	495.95833
2321.653	500.95833
2324.171	489.29167
2326.688	504.95833
2329.202	492.625
2331.715	506.625
2334.227	489.95833
2336.736	489.625
2339.244	481.29167
2341.751	478.95833
2344.255	491.625
2346.758	491.95833
2349.259	469.95833
2351.759	475.95833
2354.257	466.625
2356.753	460.95833
2359.247	476.95833
2361.74	471.95833
2364.231	470.29167
2366.721	475.29167
2369.209	460.29167
2371.695	469.625
2374.179	461.625
2376.662	455.29167
2379.143	478.625
2381.622	461.95833
2384.1	470.625
2386.576	465.29167
2389.051	469.95833
2391.524	482.625
2393.995	468.29167
2396.464	448.625
2398.932	458.95833
2401.398	451.625
2403.863	459.625
2406.325	450.625
2408.787	455.95833
2411.246	444.95833
2413.704	453.625
2416.16	450.625
2418.615	442.29167
2421.068	452.625
2423.519	462.29167
2425.969	438.95833
2428.417	453.625
2430.863	462.625
2433.308	454.625
2435.751	453.625
2438.193	439.625
2440.633	449.95833
2443.071	445.29167
2445.508	435.95833
2447.943	440.95833
2450.376	433.625
2452.808	430.95833
2455.238	432.625
2457.667	470.625
2460.093	425.29167
2462.519	417.95833
2464.942	426.29167
2467.365	430.95833
2469.785	444.625
2472.204	426.95833
2474.621	420.29167
2477.037	448.625
2479.451	411.95833
2481.863	415.625
2484.274	415.95833
2486.683	425.29167
2489.091	424.625
2491.497	426.95833
2493.901	428.625
2496.304	418.29167
2498.705	428.95833
2501.105	411.95833
2503.503	440.625
2505.899	403.625
2508.294	434.95833
2510.687	417.29167
2513.079	411.29167
2515.469	410.95833
2517.858	412.625
2520.245	427.29167
2522.63	408.95833
2525.014	402.95833
2527.396	402.625
2529.776	402.29167
2532.156	421.29167
2534.533	395.95833
2536.909	393.95833
2539.283	386.625
2541.656	391.29167
2544.027	424.95833
2546.397	393.95833
2548.765	390.29167
2551.131	401.29167
2553.496	397.625
2555.86	416.29167
2558.221	396.95833
2560.582	394.95833
2562.94	386.95833
2565.298	393.29167
2567.653	402.29167
2570.007	384.29167
2572.36	404.625
2574.711	387.95833
2577.06	409.29167
2579.408	403.625
2581.754	389.29167
2584.099	401.29167
2586.442	391.625
2588.784	393.29167
2591.124	391.625
2593.463	393.625
2595.8	397.29167
2598.135	384.29167
2600.469	388.29167
2602.802	396.625
2605.133	411.95833
2607.462	375.95833
2609.79	384.625
2612.116	387.95833
2614.441	388.29167
2616.764	383.625
2619.086	374.29167
2621.406	372.29167
2623.725	398.95833
2626.042	392.29167
2628.358	382.29167
2630.672	379.625
2632.985	397.29167
2635.296	392.29167
2637.606	390.625
2639.914	374.29167
2642.22	383.95833
2644.525	392.95833
2646.829	387.95833
2649.131	406.625
2651.432	395.95833
2653.731	388.29167
2656.028	398.625
2658.324	409.29167
2660.619	384.29167
2662.912	404.29167
2665.204	381.29167
2667.494	393.29167
2669.782	387.625
2672.07	402.29167
2674.355	403.29167
2676.639	399.95833
2678.922	381.29167
2681.203	397.95833
2683.483	389.625
2685.761	381.95833
2688.038	392.29167
2690.313	414.95833
2692.587	394.625
2694.859	395.625
2697.13	397.625
2699.399	405.29167
2701.667	412.625
2703.933	418.95833
2706.198	409.95833
2708.461	415.625
2710.723	404.625
2712.984	412.29167
2715.243	421.29167
2717.5	399.625
2719.757	429.29167
2722.011	412.95833
2724.264	433.95833
2726.516	438.29167
2728.766	417.95833
2731.015	432.95833
2733.262	418.625
2735.508	432.625
2737.753	421.29167
2739.996	418.29167
2742.237	412.95833
2744.477	422.625
2746.716	429.95833
2748.953	416.29167
2751.189	417.29167
2753.423	403.29167
2755.656	390.95833
2757.887	398.625
2760.117	397.95833
2762.346	393.625
2764.573	395.625
2766.798	393.29167
2769.022	396.29167
2771.245	400.29167
2773.467	405.95833
2775.686	411.95833
2777.905	403.625
2780.122	415.625
2782.337	422.625
2784.552	411.95833
2786.764	412.95833
2788.976	419.95833
2791.186	410.625
2793.394	421.95833
2795.601	435.625
2797.807	455.29167
2800.011	443.29167
2802.214	452.95833
2804.415	453.29167
2806.615	455.29167
2808.814	455.625
2811.011	460.29167
2813.206	465.95833
2815.401	484.625
2817.594	696.625
2819.785	607.625
2821.975	498.29167
2824.164	486.29167
2826.351	499.29167
2828.537	517.625
2830.722	531.625
2832.905	525.29167
2835.086	562.625
2837.267	581.95833
2839.445	603.29167
2841.623	618.29167
2843.799	642.29167
2845.974	671.625
2848.147	701.29167
2850.319	714.29167
2852.489	747.95833
2854.659	761.625
2856.826	765.625
2858.993	792.625
2861.158	773.625
2863.321	765.29167
2865.483	797.95833
2867.644	796.29167
2869.804	793.29167
2871.962	791.625
2874.118	790.625
2876.274	783.95833
2878.428	769.95833
2880.58	780.29167
2882.731	782.29167
2884.881	784.95833
2887.03	778.29167
2889.177	788.29167
2891.322	796.95833
2893.467	798.625
2895.61	797.95833
2897.751	817.29167
2899.892	803.625
2902.03	802.29167
2904.168	820.95833
2906.304	817.29167
2908.439	830.625
2910.572	818.625
2912.704	843.625
2914.835	822.625
2916.965	831.625
2919.093	851.625
2921.219	817.95833
2923.345	835.625
2925.469	807.95833
2927.591	821.29167
2929.712	786.29167
2931.832	775.95833
2933.951	768.95833
2936.068	753.625
2938.184	729.29167
2940.299	716.625
2942.412	700.625
2944.524	664.95833
2946.634	654.625
2948.744	616.29167
2950.851	624.625
2952.958	591.625
2955.063	595.29167
2957.167	581.29167
2959.269	544.29167
2961.371	582.95833
2963.471	540.625
2965.569	535.95833
2967.666	512.625
2969.762	512.29167
2971.857	506.29167
2973.95	473.95833
2976.042	477.95833
2978.133	461.95833
2980.222	454.625
2982.31	436.625
2984.396	418.625
2986.482	416.95833
2988.566	419.29167
2990.648	410.29167
2992.73	409.29167
2994.81	388.95833
2996.889	410.29167
2998.966	400.29167
3001.042	398.625
3003.117	394.625
3005.191	388.95833
3007.263	396.95833
3009.334	377.95833
3011.403	387.29167
3013.472	365.625
3015.539	376.625
3017.604	382.95833
3019.669	352.625
3021.732	351.95833
3023.794	353.625
3025.854	348.95833
3027.914	341.95833
3029.971	352.625
3032.028	349.95833
3034.083	347.29167
3036.137	345.95833
3038.19	330.29167
3040.242	324.95833
3042.292	320.625
3044.341	312.625
3046.388	327.29167
3048.435	304.625
3050.48	325.625
3052.524	310.625
3054.566	299.625
3056.607	305.95833
3058.647	300.29167
3060.686	282.95833
3062.723	278.29167
3064.759	263.95833
3066.794	-0.375
3068.828	4.29167
3070.86	1.95833
