-0.839	501.25
3.438	596.58333
7.711	180.25
11.981	65.25
16.247	47.91667
20.509	49.91667
24.768	45.91667
29.024	55.91667
33.276	44.91667
37.524	49.58333
41.769	47.91667
46.01	35.25
50.247	47.25
54.481	61.58333
58.712	61.25
62.939	46.58333
67.162	64.58333
71.382	58.91667
75.599	48.58333
79.812	61.91667
84.021	81.91667
88.227	61.58333
92.429	61.91667
96.628	53.25
100.823	73.25
105.015	77.91667
109.204	62.58333
113.388	73.25
117.57	75.58333
121.748	85.25
125.922	79.58333
130.093	98.25
134.261	97.91667
138.425	98.91667
142.585	135.58333
146.742	130.25
150.896	158.58333
155.046	187.91667
159.193	289.25
163.336	490.58333
167.476	894.25
171.613	1638.25
175.746	2779.58333
179.875	4127.91667
184.002	5435.25
188.124	6345.58333
192.244	6680.91667
196.36	6742.91667
200.472	6592.91667
204.581	6426.25
208.687	6329.25
212.79	6296.58333
216.889	6336.91667
220.984	6379.25
225.077	6422.58333
229.165	6448.91667
233.251	6485.91667
237.333	6525.58333
241.412	6443.25
245.487	6409.91667
249.559	6377.58333
253.628	6387.91667
257.694	6326.91667
261.756	6279.58333
265.814	6137.25
269.87	5945.58333
273.922	5779.58333
277.97	5669.58333
282.016	5620.91667
286.058	5694.58333
290.097	5844.25
294.132	5970.58333
298.164	5935.25
302.193	5640.25
306.219	5240.58333
310.241	4825.25
314.26	4419.91667
318.276	4071.58333
322.288	3865.91667
326.297	3693.25
330.303	3551.91667
334.305	3476.58333
338.305	3438.25
342.301	3364.58333
346.294	3333.91667
350.283	3308.25
354.269	3290.91667
358.252	3284.25
362.232	3247.58333
366.209	3246.58333
370.182	3215.58333
374.152	3190.58333
378.119	3207.25
382.083	3180.58333
386.043	3187.91667
390	3172.91667
393.954	3173.91667
397.905	3142.25
401.852	3143.25
405.797	3110.91667
409.738	3108.91667
413.676	3084.58333
417.61	3086.58333
421.542	3055.25
425.47	3057.91667
429.396	3030.25
433.318	3024.25
437.236	3019.91667
441.152	3039.25
445.065	2987.25
448.974	2991.91667
452.88	2945.58333
456.783	2916.91667
460.683	2923.58333
464.58	2903.58333
468.473	2892.25
472.364	2946.25
476.251	2939.58333
480.135	2970.91667
484.016	2999.91667
487.894	3035.25
491.769	3030.58333
495.641	3024.91667
499.509	3038.91667
503.375	3027.25
507.237	3028.58333
511.096	3023.58333
514.952	3052.91667
518.805	3138.25
522.655	3179.91667
526.502	3065.91667
530.346	3029.25
534.187	3026.91667
538.024	3064.58333
541.859	3064.58333
545.69	3086.58333
549.519	3090.91667
553.344	3046.25
557.166	3016.58333
560.985	2961.91667
564.802	2938.25
568.615	2864.91667
572.425	2813.25
576.232	2807.58333
580.036	2791.25
583.836	2792.91667
587.634	2826.58333
591.429	2827.25
595.221	2887.91667
599.01	2929.58333
602.796	2961.58333
606.578	2959.58333
610.358	2939.25
614.135	2921.58333
617.909	2916.91667
621.679	2871.25
625.447	2847.25
629.212	2853.58333
632.973	2877.25
636.732	2871.25
640.488	2859.91667
644.241	2848.58333
647.991	2829.58333
651.737	2836.25
655.481	2801.25
659.222	2791.25
662.96	2797.25
666.695	2796.58333
670.427	2832.25
674.156	2871.25
677.882	2856.25
681.605	2833.25
685.325	2813.91667
689.043	2811.25
692.757	2781.25
696.468	2793.91667
700.177	2779.58333
703.882	2777.91667
707.585	2732.58333
711.284	2732.25
714.981	2737.25
718.675	2742.25
722.366	2760.58333
726.054	2735.58333
729.739	2746.25
733.421	2771.25
737.1	2729.91667
740.777	2761.58333
744.45	2793.25
748.121	2790.58333
751.789	2858.91667
755.453	2820.58333
759.115	2858.25
762.774	2883.91667
766.431	2896.25
770.084	2941.91667
773.734	2958.25
777.382	3025.91667
781.027	3017.91667
784.669	3067.25
788.308	3077.91667
791.944	3079.58333
795.577	3064.58333
799.208	3071.91667
802.835	3123.25
806.46	3122.91667
810.082	3112.91667
813.701	3139.91667
817.317	3156.58333
820.931	3167.58333
824.542	3149.25
828.149	3146.25
831.754	3137.91667
835.357	3097.58333
838.956	3085.91667
842.553	3106.25
846.146	3110.25
849.737	3091.91667
853.326	3088.91667
856.911	3082.25
860.493	3126.91667
864.073	3141.91667
867.65	3160.25
871.225	3203.58333
874.796	3235.58333
878.365	3224.91667
881.931	3223.58333
885.494	3267.58333
889.054	3284.58333
892.612	3283.25
896.166	3221.91667
899.719	3213.25
903.268	3154.91667
906.814	3164.25
910.358	3104.25
913.899	3070.91667
917.438	3087.25
920.973	3071.25
924.506	3123.25
928.036	3133.25
931.564	3186.58333
935.088	3264.91667
938.61	3257.25
942.129	3296.25
945.646	3380.25
949.16	3462.25
952.671	3489.25
956.179	3515.25
959.685	3454.58333
963.188	3431.91667
966.688	3382.58333
970.185	3283.58333
973.68	3213.91667
977.173	3163.25
980.662	3108.58333
984.149	3105.25
987.633	3074.25
991.114	3122.58333
994.593	3192.58333
998.069	3297.25
1001.542	3351.25
1005.013	3313.25
1008.481	3142.91667
1011.947	3111.58333
1015.409	3085.25
1018.869	3086.58333
1022.327	3066.25
1025.782	3038.58333
1029.234	3047.58333
1032.683	2982.25
1036.13	2905.58333
1039.574	2810.58333
1043.016	2727.25
1046.455	2679.58333
1049.891	2646.91667
1053.325	2665.58333
1056.756	2677.58333
1060.184	2700.25
1063.61	2690.91667
1067.033	2740.91667
1070.454	2741.58333
1073.872	2767.58333
1077.287	2768.58333
1080.7	2770.25
1084.11	2768.91667
1087.517	2719.91667
1090.922	2689.58333
1094.325	2679.91667
1097.724	2646.58333
1101.122	2657.25
1104.516	2647.91667
1107.908	2661.91667
1111.298	2685.25
1114.684	2734.25
1118.069	2785.25
1121.45	2812.25
1124.83	2852.91667
1128.206	2850.91667
1131.58	2918.25
1134.951	2986.58333
1138.32	3072.58333
1141.687	3149.25
1145.05	3241.91667
1148.412	3249.91667
1151.77	3226.25
1155.126	3220.91667
1158.48	3183.91667
1161.831	3216.25
1165.18	3194.91667
1168.525	3254.58333
1171.869	3280.25
1175.21	3280.25
1178.548	3314.58333
1181.884	3339.91667
1185.217	3393.25
1188.548	3462.58333
1191.877	3541.58333
1195.202	3631.58333
1198.526	3704.58333
1201.846	3747.91667
1205.165	3704.91667
1208.48	3698.91667
1211.794	3683.91667
1215.104	3677.91667
1218.413	3669.25
1221.719	3724.58333
1225.022	3619.58333
1228.323	3569.25
1231.621	3552.25
1234.917	3471.91667
1238.21	3525.25
1241.501	3482.25
1244.79	3476.25
1248.076	3474.58333
1251.359	3519.91667
1254.64	3568.58333
1257.919	3615.25
1261.195	3687.91667
1264.468	3736.58333
1267.74	3766.58333
1271.008	3797.58333
1274.275	3781.91667
1277.538	3747.25
1280.8	3759.58333
1284.059	3734.91667
1287.315	3785.58333
1290.569	3813.25
1293.821	3813.91667
1297.07	3847.25
1300.317	3856.91667
1303.562	3844.25
1306.803	3832.58333
1310.043	3799.58333
1313.28	3753.91667
1316.515	3727.91667
1319.747	3670.58333
1322.977	3641.25
1326.204	3623.91667
1329.429	3559.25
1332.652	3538.58333
1335.872	3505.25
1339.09	3473.91667
1342.306	3451.91667
1345.519	3412.58333
1348.729	3329.25
1351.938	3318.91667
1355.144	3268.58333
1358.347	3230.58333
1361.548	3242.91667
1364.747	3243.25
1367.944	3197.91667
1371.138	3195.25
1374.329	3231.25
1377.518	3261.91667
1380.705	3276.25
1383.89	3243.58333
1387.072	3147.25
1390.252	3030.25
1393.429	2887.91667
1396.605	2791.91667
1399.777	2739.91667
1402.948	2713.91667
1406.116	2701.25
1409.282	2681.58333
1412.445	2696.58333
1415.606	2737.58333
1418.765	2750.91667
1421.921	2821.91667
1425.075	2892.58333
1428.227	2975.58333
1431.376	3136.58333
1434.524	3222.91667
1437.668	3340.58333
1440.811	3377.58333
1443.951	3407.58333
1447.089	3419.25
1450.224	3397.25
1453.357	3379.58333
1456.488	3381.58333
1459.617	3325.58333
1462.743	3280.91667
1465.867	3200.25
1468.989	3136.58333
1472.108	3072.91667
1475.225	3014.91667
1478.34	2975.25
1481.453	2953.25
1484.563	2978.58333
1487.671	3031.25
1490.776	3070.25
1493.88	3138.58333
1496.981	3149.91667
1500.08	3225.91667
1503.176	3237.91667
1506.271	3299.91667
1509.363	3328.58333
1512.452	3346.25
1515.54	3382.58333
1518.625	3439.25
1521.708	3517.58333
1524.789	3613.58333
1527.867	3737.25
1530.944	3952.91667
1534.018	4101.58333
1537.089	4274.25
1540.159	4317.91667
1543.226	4281.25
1546.291	4196.91667
1549.354	4121.25
1552.415	4022.58333
1555.473	3902.58333
1558.529	3856.91667
1561.583	3793.58333
1564.634	3785.58333
1567.684	3767.25
1570.731	3805.91667
1573.776	3843.25
1576.819	3898.25
1579.859	3923.91667
1582.898	3979.25
1585.934	3987.91667
1588.968	4049.91667
1591.999	4071.25
1595.029	4064.91667
1598.056	4070.91667
1601.081	4098.25
1604.104	4057.58333
1607.125	4019.25
1610.144	3954.25
1613.16	3866.25
1616.174	3814.25
1619.186	3709.58333
1622.196	3595.58333
1625.203	3488.58333
1628.209	3436.25
1631.212	3391.91667
1634.213	3377.58333
1637.212	3322.58333
1640.209	3260.25
1643.203	3154.58333
1646.196	3054.91667
1649.186	2923.58333
1652.174	2837.91667
1655.16	2749.25
1658.144	2663.58333
1661.125	2541.58333
1664.105	2447.58333
1667.082	2347.25
1670.057	2240.91667
1673.03	2098.25
1676.001	1944.58333
1678.97	1827.58333
1681.937	1729.25
1684.901	1637.25
1687.863	1573.58333
1690.824	1478.25
1693.782	1471.91667
1696.738	1415.25
1699.692	1379.25
1702.643	1339.25
1705.593	1329.58333
1708.54	1314.58333
1711.486	1311.91667
1714.429	1273.25
1717.37	1263.25
1720.309	1232.91667
1723.246	1241.91667
1726.181	1213.91667
1729.113	1202.91667
1732.044	1199.58333
1734.972	1185.25
1737.899	1181.25
1740.823	1189.25
1743.745	1151.25
1746.665	1136.58333
1749.583	1110.58333
1752.499	1096.25
1755.413	1087.25
1758.325	1050.25
1761.235	1040.25
1764.142	1037.25
1767.048	1013.58333
1769.951	1017.58333
1772.852	1010.91667
1775.752	1008.25
1778.649	991.58333
1781.544	1010.25
1784.437	977.91667
1787.328	977.58333
1790.217	977.58333
1793.104	948.91667
1795.989	951.91667
1798.872	949.25
1801.753	949.25
1804.631	951.91667
1807.508	949.25
1810.383	948.58333
1813.255	937.91667
1816.126	943.91667
1818.994	929.91667
1821.861	918.91667
1824.725	914.91667
1827.587	917.25
1830.448	917.25
1833.306	878.25
1836.162	902.25
1839.017	893.91667
1841.869	890.25
1844.719	876.25
1847.567	858.91667
1850.414	850.91667
1853.258	870.91667
1856.1	880.91667
1858.94	887.25
1861.778	866.91667
1864.614	858.91667
1867.448	875.91667
1870.28	842.91667
1873.111	875.25
1875.939	850.91667
1878.765	869.25
1881.589	850.58333
1884.411	850.91667
1887.231	848.25
1890.049	850.25
1892.865	851.58333
1895.68	839.25
1898.492	841.58333
1901.302	832.91667
1904.11	836.58333
1906.916	817.91667
1909.721	811.91667
1912.523	811.91667
1915.323	800.25
1918.122	806.58333
1920.918	805.58333
1923.712	807.91667
1926.505	795.91667
1929.295	797.25
1932.084	811.91667
1934.87	804.25
1937.655	795.91667
1940.438	774.58333
1943.218	799.58333
1945.997	788.58333
1948.774	799.91667
1951.549	797.91667
1954.322	779.58333
1957.093	780.25
1959.862	777.91667
1962.629	774.58333
1965.394	779.91667
1968.157	760.91667
1970.918	770.25
1973.678	747.91667
1976.435	767.58333
1979.19	763.91667
1981.944	754.58333
1984.696	745.58333
1987.445	739.25
1990.193	745.91667
1992.939	744.91667
1995.683	749.91667
1998.425	712.58333
2001.165	750.58333
2003.903	732.25
2006.639	731.25
2009.374	744.58333
2012.106	736.91667
2014.837	716.91667
2017.566	740.91667
2020.292	737.25
2023.017	734.58333
2025.74	726.25
2028.461	721.25
2031.18	721.58333
2033.898	710.91667
2036.613	713.58333
2039.327	710.91667
2042.038	711.25
2044.748	692.91667
2047.456	707.91667
2050.162	687.25
2052.866	697.58333
2055.568	712.25
2058.268	689.58333
2060.967	699.25
2063.663	693.58333
2066.358	688.58333
2069.051	685.58333
2071.742	678.25
2074.431	693.25
2077.118	686.25
2079.804	676.58333
2082.487	682.58333
2085.169	690.25
2087.849	708.25
2090.527	679.91667
2093.203	684.58333
2095.877	699.91667
2098.55	699.91667
2101.22	697.25
2103.889	706.91667
2106.556	703.58333
2109.221	730.91667
2111.884	740.91667
2114.546	777.25
2117.205	816.58333
2119.863	878.91667
2122.519	921.58333
2125.173	972.58333
2127.825	1036.91667
2130.475	1024.91667
2133.124	990.25
2135.771	963.58333
2138.416	906.25
2141.059	854.58333
2143.7	830.58333
2146.339	775.91667
2148.977	732.25
2151.613	733.58333
2154.247	717.58333
2156.879	701.58333
2159.51	686.25
2162.138	680.91667
2164.765	670.91667
2167.39	647.91667
2170.013	671.91667
2172.634	652.25
2175.254	642.25
2177.872	673.25
2180.488	642.25
2183.102	628.91667
2185.714	629.91667
2188.325	616.58333
2190.934	620.58333
2193.541	635.91667
2196.146	617.91667
2198.75	595.91667
2201.351	600.25
2203.951	601.25
2206.549	617.91667
2209.146	595.58333
2211.74	595.58333
2214.333	601.58333
2216.924	574.25
2219.514	585.58333
2222.101	582.91667
2224.687	585.91667
2227.271	566.58333
2229.853	573.25
2232.433	559.25
2235.012	589.91667
2237.589	580.58333
2240.164	581.25
2242.738	564.91667
2245.309	568.58333
2247.879	569.25
2250.448	578.25
2253.014	545.91667
2255.579	536.58333
2258.142	545.25
2260.703	543.91667
2263.262	537.25
2265.82	533.58333
2268.376	548.91667
2270.93	518.25
2273.483	529.25
2276.033	548.91667
2278.583	528.25
2281.13	527.25
2283.675	518.91667
2286.219	520.58333
2288.761	524.58333
2291.302	520.25
2293.841	528.25
2296.377	512.58333
2298.913	511.91667
2301.446	529.91667
2303.978	521.25
2306.508	506.58333
2309.037	513.58333
2311.563	508.25
2314.088	519.58333
2316.612	491.91667
2319.133	502.91667
2321.653	497.91667
2324.171	493.91667
2326.688	518.91667
2329.202	504.58333
2331.715	499.25
2334.227	499.91667
2336.736	502.91667
2339.244	487.58333
2341.751	478.58333
2344.255	497.91667
2346.758	487.25
2349.259	469.91667
2351.759	496.25
2354.257	485.25
2356.753	474.25
2359.247	492.58333
2361.74	485.58333
2364.231	492.91667
2366.721	488.25
2369.209	471.25
2371.695	478.91667
2374.179	467.58333
2376.662	458.25
2379.143	481.91667
2381.622	471.58333
2384.1	485.58333
2386.576	458.25
2389.051	490.58333
2391.524	488.91667
2393.995	481.58333
2396.464	469.91667
2398.932	476.58333
2401.398	468.58333
2403.863	466.58333
2406.325	474.58333
2408.787	474.91667
2411.246	467.91667
2413.704	465.58333
2416.16	465.91667
2418.615	459.58333
2421.068	474.91667
2423.519	485.91667
2425.969	451.91667
2428.417	463.91667
2430.863	483.91667
2433.308	463.91667
2435.751	469.58333
2438.193	464.25
2440.633	466.91667
2443.071	455.58333
2445.508	457.91667
2447.943	451.91667
2450.376	458.25
2452.808	447.58333
2455.238	446.91667
2457.667	494.58333
2460.093	449.91667
2462.519	446.58333
2464.942	451.91667
2467.365	452.91667
2469.785	462.91667
2472.204	460.25
2474.621	443.25
2477.037	461.58333
2479.451	436.58333
2481.863	434.25
2484.274	454.58333
2486.683	454.58333
2489.091	450.25
2491.497	450.91667
2493.901	450.91667
2496.304	454.25
2498.705	451.91667
2501.105	442.91667
2503.503	474.25
2505.899	434.91667
2508.294	460.91667
2510.687	453.25
2513.079	446.91667
2515.469	432.25
2517.858	441.91667
2520.245	449.91667
2522.63	435.25
2525.014	436.25
2527.396	430.91667
2529.776	431.58333
2532.156	443.91667
2534.533	427.25
2536.909	429.25
2539.283	421.58333
2541.656	434.58333
2544.027	451.58333
2546.397	439.25
2548.765	432.25
2551.131	433.25
2553.496	438.58333
2555.86	442.91667
2558.221	434.25
2560.582	426.58333
2562.94	419.25
2565.298	433.91667
2567.653	445.91667
2570.007	413.91667
2572.36	443.25
2574.711	422.58333
2577.06	450.58333
2579.408	438.58333
2581.754	438.91667
2584.099	436.91667
2586.442	436.58333
2588.784	444.58333
2591.124	436.25
2593.463	435.58333
2595.8	442.58333
2598.135	423.58333
2600.469	424.25
2602.802	437.91667
2605.133	448.25
2607.462	424.25
2609.79	430.25
2612.116	434.58333
2614.441	433.58333
2616.764	442.25
2619.086	425.25
2621.406	419.91667
2623.725	449.91667
2626.042	437.25
2628.358	436.91667
2630.672	427.58333
2632.985	450.25
2635.296	434.25
2637.606	440.25
2639.914	426.25
2642.22	432.58333
2644.525	441.91667
2646.829	439.25
2649.131	453.91667
2651.432	449.25
2653.731	448.91667
2656.028	456.58333
2658.324	460.25
2660.619	437.58333
2662.912	448.91667
2665.204	438.25
2667.494	450.25
2669.782	440.91667
2672.07	452.58333
2674.355	458.91667
2676.639	448.25
2678.922	433.25
2681.203	450.58333
2683.483	446.58333
2685.761	441.58333
2688.038	454.91667
2690.313	466.58333
2692.587	456.58333
2694.859	445.25
2697.13	468.25
2699.399	466.58333
2701.667	464.58333
2703.933	479.91667
2706.198	467.91667
2708.461	472.91667
2710.723	483.25
2712.984	471.58333
2715.243	480.25
2717.5	469.58333
2719.757	490.58333
2722.011	479.91667
2724.264	491.91667
2726.516	502.91667
2728.766	492.58333
2731.015	491.25
2733.262	493.58333
2735.508	500.25
2737.753	492.91667
2739.996	470.58333
2742.237	475.91667
2744.477	483.58333
2746.716	490.25
2748.953	476.25
2751.189	484.91667
2753.423	472.58333
2755.656	463.91667
2757.887	456.58333
2760.117	469.91667
2762.346	459.58333
2764.573	454.58333
2766.798	472.25
2769.022	457.25
2771.245	465.25
2773.467	467.58333
2775.686	482.91667
2777.905	473.25
2780.122	484.58333
2782.337	486.91667
2784.552	480.58333
2786.764	483.58333
2788.976	488.91667
2791.186	484.25
2793.394	497.25
2795.601	499.58333
2797.807	513.91667
2800.011	512.25
2802.214	517.58333
2804.415	512.58333
2806.615	523.58333
2808.814	516.91667
2811.011	528.58333
2813.206	526.58333
2815.401	538.25
2817.594	538.91667
2819.785	561.58333
2821.975	546.25
2824.164	560.91667
2826.351	570.58333
2828.537	583.58333
2830.722	603.58333
2832.905	601.58333
2835.086	627.25
2837.267	650.91667
2839.445	657.91667
2841.623	674.91667
2843.799	704.91667
2845.974	744.91667
2848.147	774.25
2850.319	808.91667
2852.489	839.25
2854.659	854.58333
2856.826	847.91667
2858.993	878.25
2861.158	859.91667
2863.321	865.58333
2865.483	876.91667
2867.644	871.25
2869.804	872.58333
2871.962	874.91667
2874.118	890.25
2876.274	873.58333
2878.428	883.25
2880.58	864.25
2882.731	859.58333
2884.881	855.58333
2887.03	861.58333
2889.177	869.25
2891.322	885.25
2893.467	879.25
2895.61	884.91667
2897.751	901.58333
2899.892	890.58333
2902.03	906.91667
2904.168	905.25
2906.304	907.25
2908.439	933.58333
2910.572	917.25
2912.704	933.91667
2914.835	927.91667
2916.965	918.25
2919.093	937.91667
2921.219	907.58333
2923.345	937.91667
2925.469	906.58333
2927.591	903.58333
2929.712	881.91667
2931.832	879.25
2933.951	857.25
2936.068	834.25
2938.184	814.91667
2940.299	799.25
2942.412	792.91667
2944.524	756.25
2946.634	744.91667
2948.744	710.91667
2950.851	722.25
2952.958	681.58333
2955.063	679.91667
2957.167	675.25
2959.269	648.58333
2961.371	667.91667
2963.471	624.58333
2965.569	627.91667
2967.666	601.91667
2969.762	602.58333
2971.857	578.58333
2973.95	564.58333
2976.042	560.58333
2978.133	552.25
2980.222	539.91667
2982.31	526.58333
2984.396	517.58333
2986.482	515.58333
2988.566	505.25
2990.648	495.25
2992.73	500.58333
2994.81	489.25
2996.889	489.91667
2998.966	485.58333
3001.042	483.91667
3003.117	479.58333
3005.191	482.91667
3007.263	481.25
3009.334	476.58333
3011.403	483.91667
3013.472	462.91667
3015.539	463.58333
3017.604	466.91667
3019.669	433.91667
3021.732	440.91667
3023.794	435.91667
3025.854	433.91667
3027.914	430.58333
3029.971	445.25
3032.028	425.25
3034.083	437.25
3036.137	418.25
3038.19	403.58333
3040.242	406.91667
3042.292	399.58333
3044.341	391.25
3046.388	399.25
3048.435	378.91667
3050.48	399.58333
3052.524	387.25
3054.566	368.25
3056.607	385.25
3058.647	372.91667
3060.686	361.91667
3062.723	350.58333
3064.759	331.91667
3066.794	-0.75
3068.828	2.25
3070.86	0.91667
