-0.839	518.83333
3.438	624.5
7.711	182.16667
11.981	64.83333
16.247	42.16667
20.509	51.16667
24.768	44.16667
29.024	56.83333
33.276	43.83333
37.524	46.5
41.769	47.83333
46.01	33.16667
50.247	43.16667
54.481	54.83333
58.712	55.5
62.939	45.5
67.162	62.83333
71.382	57.5
75.599	45.5
79.812	59.5
84.021	77.83333
88.227	57.83333
92.429	57.5
96.628	52.16667
100.823	70.16667
105.015	73.83333
109.204	65.5
113.388	71.5
117.57	72.16667
121.748	83.83333
125.922	79.83333
130.093	93.83333
134.261	92.16667
138.425	97.5
142.585	136.5
146.742	119.16667
150.896	149.83333
155.046	198.16667
159.193	309.5
163.336	532.5
167.476	970.83333
171.613	1780.83333
175.746	2910.5
179.875	4249.16667
184.002	5454.5
188.124	6265.5
192.244	6471.16667
196.36	6317.83333
200.472	6085.83333
204.581	5843.5
208.687	5608.83333
212.79	5512.16667
216.889	5428.5
220.984	5385.83333
225.077	5341.16667
229.165	5251.5
233.251	5234.5
237.333	5200.83333
241.412	5094.16667
245.487	5036.16667
249.559	4934.83333
253.628	4906.16667
257.694	4824.16667
261.756	4782.83333
265.814	4689.16667
269.87	4548.83333
273.922	4409.83333
277.97	4309.16667
282.016	4290.83333
286.058	4334.83333
290.097	4464.16667
294.132	4486.5
298.164	4443.16667
302.193	4245.16667
306.219	3908.16667
310.241	3614.83333
314.26	3336.5
318.276	3100.83333
322.288	2918.83333
326.297	2800.16667
330.303	2703.5
334.305	2602.5
338.305	2601.16667
342.301	2533.16667
346.294	2539.16667
350.283	2491.5
354.269	2463.16667
358.252	2437.83333
362.232	2440.83333
366.209	2426.5
370.182	2379.5
374.152	2355.5
378.119	2388.83333
382.083	2368.16667
386.043	2353.5
390	2325.83333
393.954	2342.16667
397.905	2343.83333
401.852	2326.16667
405.797	2295.5
409.738	2286.83333
413.676	2309.83333
417.61	2264.16667
421.542	2254.83333
425.47	2233.83333
429.396	2228.5
433.318	2209.16667
437.236	2197.5
441.152	2234.5
445.065	2174.16667
448.974	2189.16667
452.88	2132.16667
456.783	2134.5
460.683	2103.5
464.58	2130.16667
468.473	2108.5
472.364	2116.5
476.251	2111.5
480.135	2128.16667
484.016	2185.83333
487.894	2172.83333
491.769	2176.83333
495.641	2177.5
499.509	2167.5
503.375	2174.5
507.237	2187.83333
511.096	2215.16667
514.952	2289.83333
518.805	2389.16667
522.655	2440.83333
526.502	2323.5
530.346	2216.83333
534.187	2205.83333
538.024	2210.16667
541.859	2229.5
545.69	2243.5
549.519	2236.83333
553.344	2206.5
557.166	2169.83333
560.985	2141.16667
564.802	2111.5
568.615	2060.83333
572.425	2035.83333
576.232	2019.83333
580.036	2026.16667
583.836	2001.83333
587.634	2021.83333
591.429	2051.16667
595.221	2089.5
599.01	2114.83333
602.796	2124.16667
606.578	2146.5
610.358	2128.5
614.135	2110.5
617.909	2090.5
621.679	2084.16667
625.447	2054.5
629.212	2071.16667
632.973	2083.83333
636.732	2061.16667
640.488	2084.5
644.241	2048.5
647.991	2039.5
651.737	2045.16667
655.481	2022.5
659.222	2029.16667
662.96	2031.83333
666.695	2048.5
670.427	2080.16667
674.156	2068.16667
677.882	2058.83333
681.605	2045.83333
685.325	2026.83333
689.043	2041.5
692.757	2009.16667
696.468	2004.16667
700.177	2013.16667
703.882	1985.16667
707.585	1984.83333
711.284	1975.83333
714.981	1980.83333
718.675	1991.16667
722.366	2013.83333
726.054	2001.16667
729.739	1982.83333
733.421	2003.5
737.1	1984.16667
740.777	2007.16667
744.45	2011.83333
748.121	2010.83333
751.789	2064.5
755.453	2060.5
759.115	2090.16667
762.774	2086.5
766.431	2100.83333
770.084	2114.5
773.734	2141.16667
777.382	2165.83333
781.027	2199.5
784.669	2203.16667
788.308	2220.5
791.944	2230.5
795.577	2242.83333
799.208	2274.83333
802.835	2280.83333
806.46	2289.83333
810.082	2297.16667
813.701	2290.16667
817.317	2310.16667
820.931	2319.5
824.542	2305.5
828.149	2284.5
831.754	2262.5
835.357	2255.5
838.956	2277.16667
842.553	2261.83333
846.146	2257.16667
849.737	2231.83333
853.326	2250.16667
856.911	2229.16667
860.493	2289.5
864.073	2277.83333
867.65	2328.5
871.225	2338.5
874.796	2343.5
878.365	2343.16667
881.931	2358.16667
885.494	2371.16667
889.054	2368.83333
892.612	2372.16667
896.166	2334.16667
899.719	2308.5
903.268	2313.83333
906.814	2285.83333
910.358	2258.16667
913.899	2276.5
917.438	2248.5
920.973	2240.83333
924.506	2274.83333
928.036	2326.16667
931.564	2358.16667
935.088	2388.83333
938.61	2407.16667
942.129	2437.16667
945.646	2503.16667
949.16	2520.16667
952.671	2554.5
956.179	2571.16667
959.685	2549.83333
963.188	2518.5
966.688	2507.5
970.185	2455.83333
973.68	2372.5
977.173	2307.5
980.662	2292.83333
984.149	2303.5
987.633	2273.5
991.114	2304.83333
994.593	2362.5
998.069	2399.16667
1001.542	2470.5
1005.013	2436.5
1008.481	2312.16667
1011.947	2255.83333
1015.409	2248.16667
1018.869	2252.83333
1022.327	2240.83333
1025.782	2228.5
1029.234	2232.83333
1032.683	2202.5
1036.13	2132.83333
1039.574	2046.5
1043.016	2008.83333
1046.455	1969.5
1049.891	1955.5
1053.325	1989.16667
1056.756	1957.5
1060.184	1983.5
1063.61	1982.83333
1067.033	2004.16667
1070.454	2006.16667
1073.872	2040.5
1077.287	2003.16667
1080.7	2028.16667
1084.11	2020.5
1087.517	1995.5
1090.922	1969.16667
1094.325	1943.16667
1097.724	1933.5
1101.122	1945.83333
1104.516	1945.83333
1107.908	1942.5
1111.298	1959.16667
1114.684	1992.16667
1118.069	2031.16667
1121.45	2053.16667
1124.83	2038.5
1128.206	2047.16667
1131.58	2086.83333
1134.951	2132.83333
1138.32	2195.16667
1141.687	2285.5
1145.05	2322.83333
1148.412	2315.16667
1151.77	2315.16667
1155.126	2301.5
1158.48	2280.83333
1161.831	2300.83333
1165.18	2321.16667
1168.525	2345.5
1171.869	2371.16667
1175.21	2378.16667
1178.548	2407.16667
1181.884	2448.5
1185.217	2482.5
1188.548	2537.5
1191.877	2579.16667
1195.202	2666.5
1198.526	2750.5
1201.846	2786.83333
1205.165	2755.83333
1208.48	2757.83333
1211.794	2751.16667
1215.104	2742.5
1218.413	2744.16667
1221.719	2742.83333
1225.022	2715.83333
1228.323	2655.16667
1231.621	2637.5
1234.917	2626.5
1238.21	2619.16667
1241.501	2608.5
1244.79	2574.83333
1248.076	2555.5
1251.359	2601.83333
1254.64	2666.5
1257.919	2690.83333
1261.195	2722.83333
1264.468	2755.83333
1267.74	2786.5
1271.008	2787.83333
1274.275	2779.5
1277.538	2779.83333
1280.8	2761.5
1284.059	2777.83333
1287.315	2804.16667
1290.569	2839.16667
1293.821	2865.16667
1297.07	2905.5
1300.317	2897.16667
1303.562	2901.83333
1306.803	2851.16667
1310.043	2833.83333
1313.28	2823.83333
1316.515	2826.83333
1319.747	2781.16667
1322.977	2756.5
1326.204	2717.83333
1329.429	2670.5
1332.652	2661.16667
1335.872	2626.5
1339.09	2590.5
1342.306	2581.5
1345.519	2551.83333
1348.729	2517.83333
1351.938	2520.16667
1355.144	2497.16667
1358.347	2478.83333
1361.548	2467.83333
1364.747	2445.83333
1367.944	2420.5
1371.138	2414.83333
1374.329	2433.16667
1377.518	2457.5
1380.705	2463.16667
1383.89	2426.5
1387.072	2350.83333
1390.252	2255.83333
1393.429	2180.5
1396.605	2132.16667
1399.777	2059.16667
1402.948	2033.83333
1406.116	2044.16667
1409.282	2029.16667
1412.445	2032.16667
1415.606	2062.5
1418.765	2107.5
1421.921	2155.16667
1425.075	2184.5
1428.227	2264.83333
1431.376	2350.83333
1434.524	2462.83333
1437.668	2517.16667
1440.811	2558.16667
1443.951	2560.5
1447.089	2562.5
1450.224	2576.5
1453.357	2560.5
1456.488	2532.5
1459.617	2476.5
1462.743	2443.16667
1465.867	2380.16667
1468.989	2334.16667
1472.108	2290.5
1475.225	2246.83333
1478.34	2205.16667
1481.453	2201.16667
1484.563	2217.16667
1487.671	2271.5
1490.776	2286.83333
1493.88	2308.16667
1496.981	2324.83333
1500.08	2389.83333
1503.176	2397.5
1506.271	2429.83333
1509.363	2472.16667
1512.452	2486.16667
1515.54	2518.83333
1518.625	2528.5
1521.708	2596.5
1524.789	2633.16667
1527.867	2760.83333
1530.944	2872.5
1534.018	3005.5
1537.089	3154.16667
1540.159	3189.16667
1543.226	3195.5
1546.291	3162.83333
1549.354	3061.16667
1552.415	3024.16667
1555.473	2934.83333
1558.529	2911.83333
1561.583	2854.5
1564.634	2853.16667
1567.684	2845.83333
1570.731	2885.83333
1573.776	2896.83333
1576.819	2944.83333
1579.859	2952.5
1582.898	2995.5
1585.934	3053.83333
1588.968	3067.16667
1591.999	3076.16667
1595.029	3076.5
1598.056	3102.16667
1601.081	3132.83333
1604.104	3134.16667
1607.125	3084.83333
1610.144	3023.83333
1613.16	2954.5
1616.174	2882.16667
1619.186	2790.16667
1622.196	2697.16667
1625.203	2649.5
1628.209	2556.83333
1631.212	2547.83333
1634.213	2544.83333
1637.212	2535.16667
1640.209	2495.16667
1643.203	2428.83333
1646.196	2367.83333
1649.186	2265.16667
1652.174	2215.5
1655.16	2141.16667
1658.144	2075.83333
1661.125	1976.16667
1664.105	1905.83333
1667.082	1836.83333
1670.057	1712.83333
1673.03	1619.83333
1676.001	1519.83333
1678.97	1418.5
1681.937	1335.16667
1684.901	1260.83333
1687.863	1220.83333
1690.824	1165.5
1693.782	1138.16667
1696.738	1085.5
1699.692	1065.5
1702.643	1039.83333
1705.593	1028.5
1708.54	1015.5
1711.486	1029.16667
1714.429	981.83333
1717.37	996.16667
1720.309	953.16667
1723.246	966.16667
1726.181	943.16667
1729.113	950.5
1732.044	931.5
1734.972	917.83333
1737.899	930.5
1740.823	932.83333
1743.745	892.83333
1746.665	888.16667
1749.583	872.16667
1752.499	856.83333
1755.413	859.5
1758.325	828.5
1761.235	823.5
1764.142	820.16667
1767.048	803.5
1769.951	809.5
1772.852	787.16667
1775.752	801.5
1778.649	781.16667
1781.544	798.83333
1784.437	771.83333
1787.328	782.83333
1790.217	772.5
1793.104	752.16667
1795.989	760.16667
1798.872	748.83333
1801.753	758.5
1804.631	753.5
1807.508	761.16667
1810.383	754.5
1813.255	742.83333
1816.126	744.16667
1818.994	744.16667
1821.861	739.5
1824.725	733.83333
1827.587	733.16667
1830.448	731.5
1833.306	704.5
1836.162	737.83333
1839.017	720.16667
1841.869	718.5
1844.719	716.83333
1847.567	692.5
1850.414	685.83333
1853.258	694.16667
1856.1	705.83333
1858.94	710.5
1861.778	708.83333
1864.614	694.5
1867.448	682.16667
1870.28	693.16667
1873.111	702.83333
1875.939	698.83333
1878.765	697.5
1881.589	692.16667
1884.411	694.16667
1887.231	686.83333
1890.049	682.83333
1892.865	693.83333
1895.68	682.83333
1898.492	682.16667
1901.302	681.83333
1904.11	677.83333
1906.916	668.83333
1909.721	655.5
1912.523	666.83333
1915.323	657.83333
1918.122	655.16667
1920.918	665.16667
1923.712	662.5
1926.505	646.5
1929.295	654.16667
1932.084	661.16667
1934.87	651.16667
1937.655	653.83333
1940.438	660.16667
1943.218	654.5
1945.997	655.83333
1948.774	665.16667
1951.549	669.16667
1954.322	641.16667
1957.093	653.16667
1959.862	641.5
1962.629	647.16667
1965.394	643.83333
1968.157	621.16667
1970.918	629.83333
1973.678	627.83333
1976.435	642.83333
1979.19	627.16667
1981.944	613.16667
1984.696	621.5
1987.445	615.83333
1990.193	624.16667
1992.939	634.83333
1995.683	617.5
1998.425	604.83333
2001.165	635.16667
2003.903	611.5
2006.639	608.83333
2009.374	623.5
2012.106	619.83333
2014.837	605.83333
2017.566	615.16667
2020.292	613.5
2023.017	619.16667
2025.74	606.83333
2028.461	607.5
2031.18	607.16667
2033.898	590.5
2036.613	601.16667
2039.327	605.83333
2042.038	595.5
2044.748	590.83333
2047.456	604.5
2050.162	594.16667
2052.866	597.83333
2055.568	606.5
2058.268	600.83333
2060.967	601.83333
2063.663	582.16667
2066.358	596.83333
2069.051	585.5
2071.742	588.83333
2074.431	597.5
2077.118	592.83333
2079.804	579.5
2082.487	584.16667
2085.169	601.5
2087.849	614.16667
2090.527	587.16667
2093.203	600.16667
2095.877	605.5
2098.55	598.16667
2101.22	609.83333
2103.889	628.16667
2106.556	618.83333
2109.221	643.16667
2111.884	637.5
2114.546	692.83333
2117.205	706.5
2119.863	774.16667
2122.519	805.5
2125.173	842.16667
2127.825	871.16667
2130.475	882.5
2133.124	853.5
2135.771	805.5
2138.416	777.16667
2141.059	731.83333
2143.7	713.16667
2146.339	661.83333
2148.977	635.83333
2151.613	656.5
2154.247	617.16667
2156.879	613.16667
2159.51	601.83333
2162.138	586.83333
2164.765	601.16667
2167.39	568.16667
2170.013	608.83333
2172.634	596.83333
2175.254	576.16667
2177.872	615.16667
2180.488	566.16667
2183.102	585.16667
2185.714	572.83333
2188.325	554.16667
2190.934	556.16667
2193.541	568.16667
2196.146	567.83333
2198.75	551.83333
2201.351	555.5
2203.951	547.5
2206.549	568.83333
2209.146	539.5
2211.74	547.16667
2214.333	558.16667
2216.924	521.83333
2219.514	550.5
2222.101	537.5
2224.687	561.16667
2227.271	543.83333
2229.853	529.5
2232.433	528.16667
2235.012	548.5
2237.589	541.16667
2240.164	538.83333
2242.738	537.16667
2245.309	526.5
2247.879	538.16667
2250.448	534.83333
2253.014	518.5
2255.579	504.83333
2258.142	521.16667
2260.703	519.16667
2263.262	519.16667
2265.82	508.83333
2268.376	533.83333
2270.93	509.83333
2273.483	501.16667
2276.033	519.5
2278.583	512.83333
2281.13	517.16667
2283.675	502.16667
2286.219	507.5
2288.761	510.83333
2291.302	521.5
2293.841	526.5
2296.377	496.16667
2298.913	507.83333
2301.446	516.83333
2303.978	512.16667
2306.508	505.16667
2309.037	513.16667
2311.563	510.83333
2314.088	527.83333
2316.612	499.5
2319.133	518.5
2321.653	517.16667
2324.171	503.5
2326.688	524.16667
2329.202	504.83333
2331.715	517.16667
2334.227	506.16667
2336.736	515.5
2339.244	503.5
2341.751	493.16667
2344.255	509.16667
2346.758	507.5
2349.259	495.83333
2351.759	512.5
2354.257	494.83333
2356.753	497.16667
2359.247	503.5
2361.74	516.16667
2364.231	500.83333
2366.721	507.5
2369.209	505.83333
2371.695	514.5
2374.179	499.83333
2376.662	492.16667
2379.143	525.16667
2381.622	513.16667
2384.1	517.16667
2386.576	506.16667
2389.051	522.83333
2391.524	531.5
2393.995	510.83333
2396.464	512.16667
2398.932	506.5
2401.398	500.83333
2403.863	506.83333
2406.325	509.16667
2408.787	514.16667
2411.246	515.83333
2413.704	521.5
2416.16	503.5
2418.615	516.5
2421.068	520.83333
2423.519	523.16667
2425.969	516.83333
2428.417	519.83333
2430.863	536.5
2433.308	519.83333
2435.751	528.5
2438.193	509.16667
2440.633	520.5
2443.071	523.16667
2445.508	516.16667
2447.943	516.5
2450.376	514.16667
2452.808	517.5
2455.238	517.5
2457.667	555.5
2460.093	529.16667
2462.519	509.16667
2464.942	521.16667
2467.365	530.83333
2469.785	522.16667
2472.204	529.16667
2474.621	525.83333
2477.037	547.16667
2479.451	515.83333
2481.863	519.5
2484.274	522.83333
2486.683	534.16667
2489.091	544.83333
2491.497	524.16667
2493.901	537.16667
2496.304	536.83333
2498.705	543.5
2501.105	534.16667
2503.503	559.5
2505.899	514.5
2508.294	549.16667
2510.687	534.16667
2513.079	540.16667
2515.469	528.83333
2517.858	546.83333
2520.245	539.5
2522.63	544.16667
2525.014	534.83333
2527.396	525.5
2529.776	530.5
2532.156	549.5
2534.533	530.16667
2536.909	537.5
2539.283	519.16667
2541.656	535.83333
2544.027	559.16667
2546.397	545.83333
2548.765	534.5
2551.131	545.83333
2553.496	548.16667
2555.86	546.5
2558.221	546.16667
2560.582	548.5
2562.94	544.83333
2565.298	559.5
2567.653	563.83333
2570.007	545.5
2572.36	563.83333
2574.711	553.5
2577.06	578.16667
2579.408	566.5
2581.754	559.16667
2584.099	561.16667
2586.442	556.16667
2588.784	562.16667
2591.124	569.83333
2593.463	571.16667
2595.8	573.83333
2598.135	564.83333
2600.469	560.16667
2602.802	581.16667
2605.133	577.5
2607.462	568.5
2609.79	562.5
2612.116	583.83333
2614.441	576.16667
2616.764	578.16667
2619.086	587.16667
2621.406	574.16667
2623.725	598.16667
2626.042	593.5
2628.358	578.83333
2630.672	587.16667
2632.985	601.83333
2635.296	592.83333
2637.606	598.5
2639.914	595.83333
2642.22	592.83333
2644.525	601.83333
2646.829	599.83333
2649.131	613.5
2651.432	617.83333
2653.731	611.83333
2656.028	627.83333
2658.324	635.16667
2660.619	617.16667
2662.912	623.5
2665.204	606.5
2667.494	623.16667
2669.782	612.16667
2672.07	635.16667
2674.355	641.16667
2676.639	622.5
2678.922	619.16667
2681.203	635.5
2683.483	618.16667
2685.761	628.16667
2688.038	630.16667
2690.313	661.16667
2692.587	640.16667
2694.859	635.16667
2697.13	646.5
2699.399	657.83333
2701.667	663.5
2703.933	661.5
2706.198	656.83333
2708.461	684.5
2710.723	669.16667
2712.984	668.5
2715.243	675.16667
2717.5	671.5
2719.757	692.83333
2722.011	683.5
2724.264	683.83333
2726.516	705.83333
2728.766	681.5
2731.015	704.16667
2733.262	701.83333
2735.508	696.83333
2737.753	708.5
2739.996	693.83333
2742.237	680.5
2744.477	710.5
2746.716	701.5
2748.953	688.83333
2751.189	694.5
2753.423	682.83333
2755.656	685.5
2757.887	681.16667
2760.117	692.5
2762.346	680.16667
2764.573	668.16667
2766.798	695.16667
2769.022	684.16667
2771.245	701.16667
2773.467	699.5
2775.686	709.5
2777.905	700.5
2780.122	710.5
2782.337	718.5
2784.552	704.16667
2786.764	704.83333
2788.976	722.5
2791.186	711.83333
2793.394	730.83333
2795.601	736.83333
2797.807	734.83333
2800.011	752.83333
2802.214	754.16667
2804.415	757.5
2806.615	756.5
2808.814	759.16667
2811.011	777.16667
2813.206	763.5
2815.401	789.16667
2817.594	788.16667
2819.785	789.16667
2821.975	781.16667
2824.164	787.83333
2826.351	802.5
2828.537	819.16667
2830.722	824.16667
2832.905	819.83333
2835.086	863.16667
2837.267	876.16667
2839.445	884.83333
2841.623	892.5
2843.799	915.5
2845.974	951.16667
2848.147	976.16667
2850.319	988.16667
2852.489	1014.83333
2854.659	1019.83333
2856.826	1019.83333
2858.993	1057.5
2861.158	1042.83333
2863.321	1047.5
2865.483	1059.83333
2867.644	1054.16667
2869.804	1061.16667
2871.962	1053.5
2874.118	1049.5
2876.274	1041.16667
2878.428	1031.83333
2880.58	1042.5
2882.731	1036.16667
2884.881	1032.16667
2887.03	1043.5
2889.177	1042.5
2891.322	1059.5
2893.467	1051.5
2895.61	1058.83333
2897.751	1079.16667
2899.892	1081.5
2902.03	1074.5
2904.168	1081.16667
2906.304	1090.5
2908.439	1102.83333
2910.572	1098.83333
2912.704	1094.16667
2914.835	1115.83333
2916.965	1107.16667
2919.093	1128.83333
2921.219	1091.16667
2923.345	1108.16667
2925.469	1079.5
2927.591	1089.83333
2929.712	1055.16667
2931.832	1063.83333
2933.951	1039.5
2936.068	1029.5
2938.184	1029.83333
2940.299	1003.83333
2942.412	989.83333
2944.524	966.5
2946.634	963.5
2948.744	923.16667
2950.851	955.5
2952.958	908.5
2955.063	905.5
2957.167	916.5
2959.269	894.83333
2961.371	924.5
2963.471	886.16667
2965.569	891.5
2967.666	863.16667
2969.762	849.5
2971.857	848.5
2973.95	829.5
2976.042	836.16667
2978.133	827.83333
2980.222	807.5
2982.31	803.5
2984.396	772.16667
2986.482	780.83333
2988.566	765.5
2990.648	777.16667
2992.73	777.16667
2994.81	768.83333
2996.889	765.5
2998.966	774.16667
3001.042	782.16667
3003.117	762.16667
3005.191	768.16667
3007.263	781.5
3009.334	764.16667
3011.403	770.16667
3013.472	752.5
3015.539	754.16667
3017.604	750.83333
3019.669	717.83333
3021.732	724.16667
3023.794	727.16667
3025.854	720.16667
3027.914	725.5
3029.971	721.83333
3032.028	720.16667
3034.083	729.16667
3036.137	695.16667
3038.19	691.83333
3040.242	665.83333
3042.292	657.5
3044.341	660.83333
3046.388	672.16667
3048.435	630.83333
3050.48	655.16667
3052.524	646.16667
3054.566	630.83333
3056.607	644.5
3058.647	630.16667
3060.686	607.83333
3062.723	589.5
3064.759	570.83333
3066.794	0.16667
3068.828	2.5
3070.86	3.5
