-0.839	640.75
3.438	733.41667
7.711	209.41667
11.981	69.41667
16.247	44.41667
20.509	50.41667
24.768	46.75
29.024	57.08333
33.276	46.75
37.524	49.41667
41.769	55.41667
46.01	36.08333
50.247	47.75
54.481	59.75
58.712	64.41667
62.939	48.41667
67.162	67.41667
71.382	62.75
75.599	47.08333
79.812	60.75
84.021	85.75
88.227	64.41667
92.429	61.08333
96.628	56.08333
100.823	72.41667
105.015	79.41667
109.204	68.41667
113.388	76.41667
117.57	78.08333
121.748	89.41667
125.922	80.75
130.093	99.41667
134.261	102.75
138.425	101.75
142.585	148.75
146.742	141.08333
150.896	174.08333
155.046	221.41667
159.193	350.41667
163.336	600.75
167.476	1111.41667
171.613	2000.08333
175.746	3311.08333
179.875	4881.08333
184.002	6358.75
188.124	7293.41667
192.244	7597.75
196.36	7421.41667
200.472	7193.75
204.581	6963.08333
208.687	6808.75
212.79	6649.75
216.889	6603.41667
220.984	6599.75
225.077	6596.75
229.165	6572.08333
233.251	6553.08333
237.333	6513.08333
241.412	6399.75
245.487	6376.41667
249.559	6258.08333
253.628	6226.75
257.694	6145.75
261.756	6084.41667
265.814	5933.75
269.87	5767.08333
273.922	5574.41667
277.97	5461.41667
282.016	5393.08333
286.058	5393.41667
290.097	5476.08333
294.132	5531.41667
298.164	5458.41667
302.193	5215.75
306.219	4872.41667
310.241	4507.08333
314.26	4152.08333
318.276	3902.08333
322.288	3749.41667
326.297	3576.08333
330.303	3460.75
334.305	3385.41667
338.305	3323.08333
342.301	3290.75
346.294	3261.75
350.283	3228.75
354.269	3213.41667
358.252	3209.75
362.232	3172.08333
366.209	3177.08333
370.182	3126.41667
374.152	3129.41667
378.119	3138.08333
382.083	3119.08333
386.043	3136.75
390	3096.41667
393.954	3099.08333
397.905	3100.75
401.852	3107.41667
405.797	3040.75
409.738	3049.08333
413.676	3036.41667
417.61	3025.75
421.542	2999.41667
425.47	2981.41667
429.396	2984.08333
433.318	2966.08333
437.236	2939.08333
441.152	2970.41667
445.065	2912.75
448.974	2920.75
452.88	2875.75
456.783	2873.75
460.683	2861.41667
464.58	2861.08333
468.473	2841.41667
472.364	2874.41667
476.251	2873.08333
480.135	2904.08333
484.016	2928.08333
487.894	2961.75
491.769	2968.41667
495.641	2960.75
499.509	2965.75
503.375	2970.75
507.237	2930.08333
511.096	2923.41667
514.952	2944.08333
518.805	2961.08333
522.655	2954.41667
526.502	2939.08333
530.346	2928.08333
534.187	2940.08333
538.024	2963.75
541.859	2983.41667
545.69	2977.08333
549.519	2963.08333
553.344	2976.41667
557.166	2904.41667
560.985	2875.08333
564.802	2831.08333
568.615	2811.08333
572.425	2759.08333
576.232	2760.75
580.036	2734.75
583.836	2742.75
587.634	2764.75
591.429	2766.08333
595.221	2826.08333
599.01	2833.75
602.796	2882.41667
606.578	2881.08333
610.358	2894.75
614.135	2861.75
617.909	2855.41667
621.679	2822.75
625.447	2808.75
629.212	2817.75
632.973	2810.08333
636.732	2804.75
640.488	2798.75
644.241	2792.41667
647.991	2780.08333
651.737	2784.75
655.481	2767.41667
659.222	2767.75
662.96	2762.75
666.695	2774.41667
670.427	2779.75
674.156	2838.75
677.882	2800.41667
681.605	2806.75
685.325	2766.08333
689.043	2756.41667
692.757	2725.08333
696.468	2737.75
700.177	2726.75
703.882	2717.08333
707.585	2683.08333
711.284	2697.41667
714.981	2678.75
718.675	2693.75
722.366	2706.75
726.054	2673.75
729.739	2690.08333
733.421	2703.08333
737.1	2686.41667
740.777	2692.41667
744.45	2712.08333
748.121	2746.41667
751.789	2790.41667
755.453	2781.75
759.115	2803.75
762.774	2809.75
766.431	2836.41667
770.084	2854.75
773.734	2866.08333
777.382	2910.75
781.027	2951.75
784.669	2963.75
788.308	2957.08333
791.944	2969.41667
795.577	3003.41667
799.208	3012.41667
802.835	3021.41667
806.46	3046.75
810.082	3027.41667
813.701	3068.08333
817.317	3081.41667
820.931	3087.08333
824.542	3077.08333
828.149	3051.41667
831.754	2994.08333
835.357	2983.08333
838.956	3023.41667
842.553	3002.08333
846.146	2996.75
849.737	2960.41667
853.326	2953.41667
856.911	2964.08333
860.493	3012.41667
864.073	3003.75
867.65	3047.41667
871.225	3095.41667
874.796	3061.75
878.365	3088.75
881.931	3105.75
885.494	3127.08333
889.054	3138.75
892.612	3116.75
896.166	3084.75
899.719	3054.75
903.268	3022.75
906.814	3027.41667
910.358	3004.41667
913.899	2973.41667
917.438	2988.75
920.973	2949.75
924.506	3003.08333
928.036	3039.75
931.564	3071.75
935.088	3122.41667
938.61	3129.75
942.129	3173.75
945.646	3258.41667
949.16	3260.41667
952.671	3341.08333
956.179	3332.08333
959.685	3317.75
963.188	3298.41667
966.688	3259.08333
970.185	3186.08333
973.68	3099.08333
977.173	3042.41667
980.662	3020.41667
984.149	3011.75
987.633	2991.08333
991.114	3037.08333
994.593	3104.75
998.069	3195.75
1001.542	3233.41667
1005.013	3217.75
1008.481	3044.75
1011.947	3009.41667
1015.409	2988.08333
1018.869	2962.75
1022.327	2958.08333
1025.782	2935.75
1029.234	2949.08333
1032.683	2892.08333
1036.13	2813.08333
1039.574	2706.08333
1043.016	2620.41667
1046.455	2585.08333
1049.891	2570.08333
1053.325	2594.08333
1056.756	2590.08333
1060.184	2601.75
1063.61	2612.41667
1067.033	2625.75
1070.454	2632.75
1073.872	2666.08333
1077.287	2654.41667
1080.7	2663.41667
1084.11	2649.41667
1087.517	2611.41667
1090.922	2576.75
1094.325	2548.08333
1097.724	2524.41667
1101.122	2526.75
1104.516	2534.08333
1107.908	2536.41667
1111.298	2584.75
1114.684	2604.75
1118.069	2641.08333
1121.45	2673.75
1124.83	2630.75
1128.206	2680.75
1131.58	2699.41667
1134.951	2780.41667
1138.32	2862.41667
1141.687	2941.08333
1145.05	3017.08333
1148.412	3027.41667
1151.77	3013.75
1155.126	3010.75
1158.48	2978.75
1161.831	2980.75
1165.18	3003.41667
1168.525	3069.41667
1171.869	3092.08333
1175.21	3110.08333
1178.548	3143.75
1181.884	3166.75
1185.217	3208.41667
1188.548	3270.41667
1191.877	3331.75
1195.202	3443.08333
1198.526	3500.08333
1201.846	3519.08333
1205.165	3515.75
1208.48	3516.75
1211.794	3483.75
1215.104	3506.75
1218.413	3465.75
1221.719	3491.08333
1225.022	3457.75
1228.323	3405.41667
1231.621	3381.08333
1234.917	3338.41667
1238.21	3363.08333
1241.501	3360.08333
1244.79	3343.75
1248.076	3327.41667
1251.359	3371.08333
1254.64	3430.08333
1257.919	3462.75
1261.195	3520.08333
1264.468	3569.41667
1267.74	3582.08333
1271.008	3590.08333
1274.275	3595.75
1277.538	3579.08333
1280.8	3576.41667
1284.059	3576.75
1287.315	3594.08333
1290.569	3629.41667
1293.821	3646.08333
1297.07	3655.41667
1300.317	3662.08333
1303.562	3628.75
1306.803	3627.75
1310.043	3597.75
1313.28	3552.41667
1316.515	3559.41667
1319.747	3527.75
1322.977	3478.75
1326.204	3448.75
1329.429	3420.41667
1332.652	3390.75
1335.872	3368.75
1339.09	3348.08333
1342.306	3297.08333
1345.519	3295.41667
1348.729	3252.08333
1351.938	3251.41667
1355.144	3202.75
1358.347	3157.08333
1361.548	3140.08333
1364.747	3168.75
1367.944	3104.41667
1371.138	3142.41667
1374.329	3126.08333
1377.518	3169.08333
1380.705	3189.75
1383.89	3168.41667
1387.072	3048.08333
1390.252	2950.41667
1393.429	2840.08333
1396.605	2764.41667
1399.777	2695.41667
1402.948	2632.75
1406.116	2654.41667
1409.282	2593.08333
1412.445	2618.08333
1415.606	2638.08333
1418.765	2683.75
1421.921	2745.08333
1425.075	2784.75
1428.227	2898.75
1431.376	2982.41667
1434.524	3099.75
1437.668	3201.75
1440.811	3219.75
1443.951	3246.41667
1447.089	3256.08333
1450.224	3267.41667
1453.357	3227.41667
1456.488	3221.08333
1459.617	3167.41667
1462.743	3136.75
1465.867	3058.08333
1468.989	3031.75
1472.108	2946.08333
1475.225	2917.08333
1478.34	2848.08333
1481.453	2849.41667
1484.563	2855.08333
1487.671	2901.41667
1490.776	2939.75
1493.88	2993.08333
1496.981	3025.75
1500.08	3066.75
1503.176	3113.75
1506.271	3129.41667
1509.363	3187.08333
1512.452	3190.08333
1515.54	3257.08333
1518.625	3287.75
1521.708	3383.08333
1524.789	3459.08333
1527.867	3600.41667
1530.944	3751.41667
1534.018	3933.41667
1537.089	4105.08333
1540.159	4176.75
1543.226	4097.41667
1546.291	4057.75
1549.354	3975.75
1552.415	3850.75
1555.473	3787.75
1558.529	3711.41667
1561.583	3695.08333
1564.634	3657.41667
1567.684	3681.75
1570.731	3654.08333
1573.776	3704.75
1576.819	3752.75
1579.859	3789.41667
1582.898	3852.41667
1585.934	3893.08333
1588.968	3898.41667
1591.999	3899.08333
1595.029	3894.08333
1598.056	3957.08333
1601.081	3923.75
1604.104	3928.41667
1607.125	3875.08333
1610.144	3809.41667
1613.16	3711.75
1616.174	3668.75
1619.186	3550.08333
1622.196	3493.41667
1625.203	3417.75
1628.209	3366.75
1631.212	3341.41667
1634.213	3338.08333
1637.212	3338.75
1640.209	3297.08333
1643.203	3195.41667
1646.196	3102.75
1649.186	2975.41667
1652.174	2867.41667
1655.16	2745.41667
1658.144	2673.75
1661.125	2538.75
1664.105	2436.08333
1667.082	2317.41667
1670.057	2206.08333
1673.03	2068.41667
1676.001	1954.08333
1678.97	1835.75
1681.937	1718.41667
1684.901	1622.41667
1687.863	1577.41667
1690.824	1495.08333
1693.782	1487.41667
1696.738	1413.08333
1699.692	1368.41667
1702.643	1353.08333
1705.593	1317.08333
1708.54	1326.41667
1711.486	1299.08333
1714.429	1261.75
1717.37	1284.75
1720.309	1247.41667
1723.246	1248.08333
1726.181	1214.08333
1729.113	1222.41667
1732.044	1207.41667
1734.972	1189.08333
1737.899	1187.41667
1740.823	1191.08333
1743.745	1147.75
1746.665	1158.08333
1749.583	1130.75
1752.499	1112.75
1755.413	1105.08333
1758.325	1081.08333
1761.235	1064.08333
1764.142	1069.75
1767.048	1035.41667
1769.951	1032.75
1772.852	1039.41667
1775.752	1013.75
1778.649	1012.41667
1781.544	1031.75
1784.437	994.75
1787.328	1002.75
1790.217	993.08333
1793.104	967.08333
1795.989	981.41667
1798.872	970.75
1801.753	967.08333
1804.631	961.41667
1807.508	964.75
1810.383	969.41667
1813.255	964.41667
1816.126	954.08333
1818.994	950.41667
1821.861	935.08333
1824.725	931.75
1827.587	955.08333
1830.448	924.75
1833.306	907.41667
1836.162	910.41667
1839.017	924.08333
1841.869	914.08333
1844.719	896.08333
1847.567	890.41667
1850.414	878.75
1853.258	882.41667
1856.1	906.41667
1858.94	905.41667
1861.778	885.08333
1864.614	873.75
1867.448	885.08333
1870.28	869.41667
1873.111	898.75
1875.939	879.75
1878.765	891.75
1881.589	863.08333
1884.411	884.75
1887.231	868.75
1890.049	870.08333
1892.865	873.41667
1895.68	860.41667
1898.492	866.75
1901.302	867.08333
1904.11	851.08333
1906.916	836.75
1909.721	831.08333
1912.523	841.41667
1915.323	826.75
1918.122	825.75
1920.918	833.75
1923.712	822.75
1926.505	817.08333
1929.295	799.08333
1932.084	831.75
1934.87	806.75
1937.655	812.41667
1940.438	806.08333
1943.218	823.75
1945.997	816.08333
1948.774	821.75
1951.549	810.08333
1954.322	798.75
1957.093	800.08333
1959.862	790.75
1962.629	783.41667
1965.394	779.75
1968.157	775.75
1970.918	777.08333
1973.678	768.41667
1976.435	783.75
1979.19	779.75
1981.944	764.08333
1984.696	766.08333
1987.445	751.75
1990.193	755.41667
1992.939	777.41667
1995.683	759.41667
1998.425	733.08333
2001.165	771.41667
2003.903	751.75
2006.639	746.08333
2009.374	753.75
2012.106	759.41667
2014.837	731.75
2017.566	744.41667
2020.292	754.08333
2023.017	744.41667
2025.74	737.41667
2028.461	728.41667
2031.18	738.41667
2033.898	719.75
2036.613	738.08333
2039.327	735.75
2042.038	716.08333
2044.748	708.41667
2047.456	722.75
2050.162	713.41667
2052.866	710.08333
2055.568	722.41667
2058.268	710.08333
2060.967	716.41667
2063.663	694.75
2066.358	699.08333
2069.051	701.08333
2071.742	706.41667
2074.431	693.75
2077.118	700.75
2079.804	686.41667
2082.487	694.08333
2085.169	701.41667
2087.849	717.08333
2090.527	686.41667
2093.203	698.08333
2095.877	708.75
2098.55	706.41667
2101.22	720.41667
2103.889	728.08333
2106.556	734.75
2109.221	745.41667
2111.884	760.08333
2114.546	812.08333
2117.205	855.75
2119.863	944.08333
2122.519	987.75
2125.173	1040.08333
2127.825	1104.08333
2130.475	1109.41667
2133.124	1081.41667
2135.771	1025.41667
2138.416	986.41667
2141.059	919.75
2143.7	883.08333
2146.339	830.08333
2148.977	785.75
2151.613	769.41667
2154.247	741.08333
2156.879	734.41667
2159.51	713.41667
2162.138	702.41667
2164.765	697.75
2167.39	667.41667
2170.013	694.08333
2172.634	677.75
2175.254	670.08333
2177.872	688.75
2180.488	649.41667
2183.102	655.41667
2185.714	640.41667
2188.325	614.41667
2190.934	623.08333
2193.541	632.41667
2196.146	624.08333
2198.75	610.41667
2201.351	603.08333
2203.951	596.08333
2206.549	614.08333
2209.146	589.41667
2211.74	600.41667
2214.333	600.08333
2216.924	573.08333
2219.514	588.75
2222.101	590.75
2224.687	599.75
2227.271	592.08333
2229.853	561.08333
2232.433	555.08333
2235.012	584.75
2237.589	576.41667
2240.164	586.41667
2242.738	573.08333
2245.309	556.08333
2247.879	561.41667
2250.448	583.41667
2253.014	546.41667
2255.579	533.41667
2258.142	552.41667
2260.703	534.75
2263.262	542.41667
2265.82	538.08333
2268.376	540.41667
2270.93	518.08333
2273.483	522.08333
2276.033	528.08333
2278.583	526.41667
2281.13	516.08333
2283.675	510.75
2286.219	515.75
2288.761	508.75
2291.302	511.75
2293.841	519.08333
2296.377	502.08333
2298.913	493.41667
2301.446	524.41667
2303.978	510.75
2306.508	500.08333
2309.037	497.41667
2311.563	498.75
2314.088	501.41667
2316.612	479.08333
2319.133	501.41667
2321.653	493.75
2324.171	492.75
2326.688	502.08333
2329.202	491.08333
2331.715	477.75
2334.227	476.41667
2336.736	483.41667
2339.244	476.08333
2341.751	468.08333
2344.255	477.41667
2346.758	477.75
2349.259	464.41667
2351.759	480.75
2354.257	464.41667
2356.753	458.75
2359.247	468.75
2361.74	473.08333
2364.231	455.41667
2366.721	461.75
2369.209	467.08333
2371.695	472.75
2374.179	456.41667
2376.662	445.75
2379.143	479.41667
2381.622	460.41667
2384.1	460.41667
2386.576	452.75
2389.051	469.75
2391.524	473.75
2393.995	465.08333
2396.464	459.08333
2398.932	441.41667
2401.398	442.08333
2403.863	456.75
2406.325	442.08333
2408.787	452.75
2411.246	446.75
2413.704	442.08333
2416.16	432.75
2418.615	445.08333
2421.068	452.41667
2423.519	446.41667
2425.969	433.41667
2428.417	445.75
2430.863	459.75
2433.308	450.41667
2435.751	443.75
2438.193	432.41667
2440.633	441.08333
2443.071	439.41667
2445.508	427.75
2447.943	428.08333
2450.376	418.08333
2452.808	429.08333
2455.238	419.75
2457.667	461.08333
2460.093	423.08333
2462.519	418.08333
2464.942	431.08333
2467.365	416.08333
2469.785	437.41667
2472.204	426.08333
2474.621	415.08333
2477.037	428.75
2479.451	404.75
2481.863	401.08333
2484.274	420.41667
2486.683	423.41667
2489.091	423.41667
2491.497	418.08333
2493.901	421.41667
2496.304	410.08333
2498.705	420.08333
2501.105	413.08333
2503.503	438.75
2505.899	402.08333
2508.294	424.75
2510.687	414.75
2513.079	409.75
2515.469	399.41667
2517.858	406.75
2520.245	415.08333
2522.63	401.75
2525.014	397.41667
2527.396	396.08333
2529.776	396.41667
2532.156	411.41667
2534.533	390.75
2536.909	394.08333
2539.283	389.41667
2541.656	394.08333
2544.027	413.75
2546.397	391.75
2548.765	392.75
2551.131	390.41667
2553.496	393.08333
2555.86	399.08333
2558.221	390.41667
2560.582	389.41667
2562.94	387.08333
2565.298	386.08333
2567.653	408.08333
2570.007	388.75
2572.36	403.08333
2574.711	372.75
2577.06	405.41667
2579.408	392.08333
2581.754	390.41667
2584.099	399.08333
2586.442	380.08333
2588.784	389.08333
2591.124	393.41667
2593.463	394.08333
2595.8	385.41667
2598.135	377.75
2600.469	378.41667
2602.802	395.41667
2605.133	393.75
2607.462	368.41667
2609.79	373.08333
2612.116	385.08333
2614.441	392.75
2616.764	389.08333
2619.086	390.75
2621.406	371.08333
2623.725	392.41667
2626.042	385.08333
2628.358	373.08333
2630.672	374.41667
2632.985	392.08333
2635.296	385.75
2637.606	377.41667
2639.914	370.75
2642.22	371.75
2644.525	380.41667
2646.829	383.41667
2649.131	398.41667
2651.432	404.75
2653.731	381.41667
2656.028	399.08333
2658.324	405.41667
2660.619	383.41667
2662.912	398.41667
2665.204	376.41667
2667.494	390.75
2669.782	381.75
2672.07	391.75
2674.355	399.08333
2676.639	387.75
2678.922	385.41667
2681.203	388.08333
2683.483	383.41667
2685.761	388.41667
2688.038	388.75
2690.313	407.41667
2692.587	391.41667
2694.859	387.75
2697.13	394.41667
2699.399	401.75
2701.667	410.41667
2703.933	393.75
2706.198	406.75
2708.461	412.08333
2710.723	420.08333
2712.984	408.41667
2715.243	408.75
2717.5	407.75
2719.757	427.08333
2722.011	411.08333
2724.264	420.75
2726.516	440.08333
2728.766	421.75
2731.015	420.08333
2733.262	425.41667
2735.508	420.75
2737.753	423.08333
2739.996	407.08333
2742.237	406.08333
2744.477	413.41667
2746.716	417.08333
2748.953	404.75
2751.189	416.41667
2753.423	405.08333
2755.656	398.08333
2757.887	391.41667
2760.117	399.75
2762.346	394.75
2764.573	391.75
2766.798	392.41667
2769.022	389.41667
2771.245	398.08333
2773.467	400.08333
2775.686	407.41667
2777.905	409.08333
2780.122	415.41667
2782.337	410.75
2784.552	401.08333
2786.764	405.75
2788.976	416.75
2791.186	414.75
2793.394	430.08333
2795.601	426.08333
2797.807	440.08333
2800.011	440.75
2802.214	448.08333
2804.415	443.08333
2806.615	444.41667
2808.814	447.08333
2811.011	458.08333
2813.206	456.75
2815.401	476.41667
2817.594	471.08333
2819.785	484.41667
2821.975	483.75
2824.164	486.75
2826.351	498.08333
2828.537	510.41667
2830.722	524.75
2832.905	520.08333
2835.086	558.41667
2837.267	589.75
2839.445	589.08333
2841.623	623.41667
2843.799	628.75
2845.974	667.41667
2848.147	686.08333
2850.319	711.75
2852.489	738.41667
2854.659	739.75
2856.826	760.75
2858.993	795.41667
2861.158	767.41667
2863.321	782.08333
2865.483	788.08333
2867.644	794.08333
2869.804	784.75
2871.962	777.08333
2874.118	789.08333
2876.274	781.75
2878.428	781.75
2880.58	781.08333
2882.731	767.75
2884.881	763.41667
2887.03	788.08333
2889.177	781.41667
2891.322	788.75
2893.467	790.41667
2895.61	776.75
2897.751	803.08333
2899.892	801.08333
2902.03	810.08333
2904.168	807.08333
2906.304	819.75
2908.439	837.41667
2910.572	812.75
2912.704	831.75
2914.835	835.08333
2916.965	819.41667
2919.093	841.41667
2921.219	812.41667
2923.345	830.08333
2925.469	815.75
2927.591	796.08333
2929.712	776.41667
2931.832	776.41667
2933.951	751.75
2936.068	756.75
2938.184	732.75
2940.299	709.75
2942.412	685.41667
2944.524	660.75
2946.634	665.75
2948.744	600.75
2950.851	633.08333
2952.958	588.08333
2955.063	589.75
2957.167	576.08333
2959.269	553.41667
2961.371	574.08333
2963.471	531.08333
2965.569	527.08333
2967.666	499.75
2969.762	501.75
2971.857	491.41667
2973.95	472.08333
2976.042	469.75
2978.133	460.08333
2980.222	450.41667
2982.31	429.41667
2984.396	419.08333
2986.482	415.75
2988.566	409.41667
2990.648	403.75
2992.73	406.41667
2994.81	390.08333
2996.889	403.75
2998.966	395.41667
3001.042	409.75
3003.117	388.41667
3005.191	391.41667
3007.263	386.08333
3009.334	376.41667
3011.403	378.41667
3013.472	371.41667
3015.539	368.41667
3017.604	377.41667
3019.669	340.75
3021.732	353.41667
3023.794	340.75
3025.854	344.41667
3027.914	340.41667
3029.971	354.08333
3032.028	341.75
3034.083	345.41667
3036.137	339.75
3038.19	321.08333
3040.242	319.75
3042.292	316.08333
3044.341	315.08333
3046.388	325.41667
3048.435	301.08333
3050.48	318.75
3052.524	310.75
3054.566	297.75
3056.607	298.75
3058.647	296.41667
3060.686	288.41667
3062.723	279.41667
3064.759	265.08333
3066.794	2.08333
3068.828	1.75
3070.86	3.08333
