-0.839	537.91667
3.438	638.91667
7.711	181.25
11.981	61.58333
16.247	48.58333
20.509	53.58333
24.768	47.58333
29.024	49.91667
33.276	41.58333
37.524	48.58333
41.769	46.91667
46.01	32.25
50.247	46.25
54.481	54.91667
58.712	60.25
62.939	48.91667
67.162	58.58333
71.382	56.58333
75.599	41.91667
79.812	61.91667
84.021	76.25
88.227	57.58333
92.429	57.91667
96.628	52.25
100.823	66.25
105.015	70.25
109.204	64.58333
113.388	75.58333
117.57	71.91667
121.748	80.25
125.922	74.25
130.093	98.25
134.261	92.58333
138.425	94.91667
142.585	135.58333
146.742	124.25
150.896	154.91667
155.046	195.25
159.193	313.25
163.336	542.25
167.476	989.25
171.613	1809.25
175.746	2949.91667
179.875	4336.25
184.002	5540.25
188.124	6353.25
192.244	6552.91667
196.36	6404.58333
200.472	6203.25
204.581	5961.25
208.687	5752.58333
212.79	5626.91667
216.889	5563.25
220.984	5514.91667
225.077	5480.58333
229.165	5418.58333
233.251	5383.58333
237.333	5326.58333
241.412	5261.58333
245.487	5168.25
249.559	5073.25
253.628	5036.58333
257.694	5017.91667
261.756	4962.91667
265.814	4839.91667
269.87	4680.25
273.922	4534.91667
277.97	4472.58333
282.016	4427.58333
286.058	4456.25
290.097	4551.91667
294.132	4635.91667
298.164	4583.91667
302.193	4364.91667
306.219	4063.58333
310.241	3737.58333
314.26	3448.25
318.276	3191.58333
322.288	3046.91667
326.297	2909.25
330.303	2799.91667
334.305	2760.58333
338.305	2697.25
342.301	2638.25
346.294	2645.91667
350.283	2611.25
354.269	2608.91667
358.252	2564.91667
362.232	2558.25
366.209	2533.58333
370.182	2480.91667
374.152	2496.91667
378.119	2503.58333
382.083	2479.25
386.043	2490.91667
390	2474.91667
393.954	2462.91667
397.905	2479.25
401.852	2441.58333
405.797	2421.58333
409.738	2402.25
413.676	2404.91667
417.61	2398.25
421.542	2396.58333
425.47	2370.25
429.396	2360.91667
433.318	2347.25
437.236	2334.91667
441.152	2373.58333
445.065	2313.91667
448.974	2306.91667
452.88	2266.58333
456.783	2258.58333
460.683	2219.91667
464.58	2263.58333
468.473	2260.58333
472.364	2259.58333
476.251	2255.91667
480.135	2267.25
484.016	2309.91667
487.894	2331.25
491.769	2314.91667
495.641	2308.58333
499.509	2317.25
503.375	2316.58333
507.237	2311.25
511.096	2333.58333
514.952	2425.91667
518.805	2559.25
522.655	2563.58333
526.502	2421.91667
530.346	2339.58333
534.187	2314.25
538.024	2323.58333
541.859	2359.91667
545.69	2349.25
549.519	2354.25
553.344	2314.25
557.166	2293.91667
560.985	2271.58333
564.802	2203.25
568.615	2157.58333
572.425	2164.91667
576.232	2149.58333
580.036	2136.91667
583.836	2148.25
587.634	2159.58333
591.429	2153.91667
595.221	2207.58333
599.01	2234.25
602.796	2250.58333
606.578	2256.91667
610.358	2270.25
614.135	2243.91667
617.909	2256.91667
621.679	2224.91667
625.447	2207.25
629.212	2191.91667
632.973	2186.25
636.732	2197.91667
640.488	2190.58333
644.241	2179.25
647.991	2166.25
651.737	2174.91667
655.481	2151.25
659.222	2173.58333
662.96	2134.91667
666.695	2159.58333
670.427	2205.91667
674.156	2215.91667
677.882	2193.25
681.605	2178.25
685.325	2164.25
689.043	2146.58333
692.757	2122.91667
696.468	2150.58333
700.177	2111.58333
703.882	2111.25
707.585	2112.58333
711.284	2084.58333
714.981	2101.25
718.675	2105.58333
722.366	2130.91667
726.054	2106.25
729.739	2100.25
733.421	2109.58333
737.1	2091.25
740.777	2132.91667
744.45	2155.25
748.121	2138.58333
751.789	2198.58333
755.453	2185.25
759.115	2206.25
762.774	2193.25
766.431	2219.91667
770.084	2261.58333
773.734	2256.25
777.382	2302.91667
781.027	2307.58333
784.669	2313.91667
788.308	2335.58333
791.944	2346.91667
795.577	2359.58333
799.208	2403.25
802.835	2398.58333
806.46	2417.25
810.082	2422.58333
813.701	2448.25
817.317	2460.58333
820.931	2476.25
824.542	2428.58333
828.149	2386.25
831.754	2386.25
835.357	2383.58333
838.956	2368.91667
842.553	2372.25
846.146	2351.58333
849.737	2319.91667
853.326	2346.91667
856.911	2327.91667
860.493	2355.91667
864.073	2383.58333
867.65	2423.58333
871.225	2436.25
874.796	2433.25
878.365	2451.91667
881.931	2437.25
885.494	2458.25
889.054	2485.25
892.612	2478.91667
896.166	2449.91667
899.719	2427.58333
903.268	2382.25
906.814	2371.91667
910.358	2365.25
913.899	2344.91667
917.438	2358.58333
920.973	2321.91667
924.506	2383.25
928.036	2412.25
931.564	2445.25
935.088	2482.91667
938.61	2507.25
942.129	2555.25
945.646	2606.25
949.16	2661.91667
952.671	2677.91667
956.179	2669.91667
959.685	2639.58333
963.188	2679.25
966.688	2632.58333
970.185	2552.58333
973.68	2479.91667
977.173	2448.58333
980.662	2382.25
984.149	2388.25
987.633	2370.58333
991.114	2413.91667
994.593	2449.91667
998.069	2520.91667
1001.542	2570.91667
1005.013	2550.91667
1008.481	2388.25
1011.947	2376.58333
1015.409	2341.25
1018.869	2324.25
1022.327	2339.58333
1025.782	2313.58333
1029.234	2317.58333
1032.683	2284.91667
1036.13	2219.91667
1039.574	2119.58333
1043.016	2070.91667
1046.455	2056.58333
1049.891	2039.25
1053.325	2044.91667
1056.756	2058.25
1060.184	2071.58333
1063.61	2073.91667
1067.033	2067.25
1070.454	2091.25
1073.872	2131.25
1077.287	2104.58333
1080.7	2110.91667
1084.11	2127.91667
1087.517	2092.91667
1090.922	2069.58333
1094.325	2041.25
1097.724	2025.25
1101.122	2020.91667
1104.516	2019.25
1107.908	2017.25
1111.298	2051.25
1114.684	2060.25
1118.069	2096.58333
1121.45	2120.25
1124.83	2102.25
1128.206	2129.25
1131.58	2153.91667
1134.951	2226.58333
1138.32	2278.91667
1141.687	2359.58333
1145.05	2398.58333
1148.412	2405.25
1151.77	2373.91667
1155.126	2381.25
1158.48	2332.91667
1161.831	2363.58333
1165.18	2378.58333
1168.525	2418.91667
1171.869	2432.91667
1175.21	2459.91667
1178.548	2470.91667
1181.884	2514.58333
1185.217	2551.58333
1188.548	2595.25
1191.877	2662.25
1195.202	2756.91667
1198.526	2825.91667
1201.846	2839.58333
1205.165	2836.25
1208.48	2833.91667
1211.794	2841.25
1215.104	2829.91667
1218.413	2838.91667
1221.719	2841.25
1225.022	2803.25
1228.323	2750.58333
1231.621	2724.25
1234.917	2684.58333
1238.21	2703.25
1241.501	2669.25
1244.79	2668.25
1248.076	2661.25
1251.359	2687.91667
1254.64	2747.25
1257.919	2756.91667
1261.195	2772.58333
1264.468	2835.25
1267.74	2883.91667
1271.008	2878.25
1274.275	2851.25
1277.538	2837.25
1280.8	2855.58333
1284.059	2823.58333
1287.315	2888.58333
1290.569	2900.58333
1293.821	2934.25
1297.07	2968.58333
1300.317	2969.91667
1303.562	2965.25
1306.803	2923.25
1310.043	2924.25
1313.28	2889.58333
1316.515	2898.91667
1319.747	2857.25
1322.977	2828.25
1326.204	2793.25
1329.429	2772.58333
1332.652	2731.58333
1335.872	2707.91667
1339.09	2674.91667
1342.306	2657.58333
1345.519	2626.91667
1348.729	2622.25
1351.938	2621.91667
1355.144	2574.91667
1358.347	2543.58333
1361.548	2561.25
1364.747	2539.58333
1367.944	2507.58333
1371.138	2516.58333
1374.329	2523.58333
1377.518	2527.25
1380.705	2530.25
1383.89	2511.91667
1387.072	2418.91667
1390.252	2355.25
1393.429	2247.58333
1396.605	2211.91667
1399.777	2145.91667
1402.948	2119.91667
1406.116	2100.58333
1409.282	2098.91667
1412.445	2085.58333
1415.606	2131.91667
1418.765	2183.25
1421.921	2205.25
1425.075	2258.58333
1428.227	2324.91667
1431.376	2441.58333
1434.524	2513.25
1437.668	2587.25
1440.811	2630.25
1443.951	2628.58333
1447.089	2641.91667
1450.224	2646.25
1453.357	2601.91667
1456.488	2586.91667
1459.617	2558.91667
1462.743	2520.91667
1465.867	2451.25
1468.989	2411.25
1472.108	2371.25
1475.225	2304.25
1478.34	2276.58333
1481.453	2277.25
1484.563	2289.91667
1487.671	2309.58333
1490.776	2331.91667
1493.88	2378.91667
1496.981	2392.91667
1500.08	2448.91667
1503.176	2463.58333
1506.271	2497.58333
1509.363	2516.58333
1512.452	2538.91667
1515.54	2588.91667
1518.625	2614.58333
1521.708	2669.58333
1524.789	2734.25
1527.867	2820.91667
1530.944	2971.25
1534.018	3076.25
1537.089	3208.25
1540.159	3264.91667
1543.226	3243.25
1546.291	3186.91667
1549.354	3126.91667
1552.415	3060.91667
1555.473	2997.58333
1558.529	2941.91667
1561.583	2926.91667
1564.634	2909.25
1567.684	2917.25
1570.731	2916.91667
1573.776	2959.58333
1576.819	2998.58333
1579.859	3036.58333
1582.898	3093.25
1585.934	3119.25
1588.968	3110.91667
1591.999	3117.58333
1595.029	3128.91667
1598.056	3138.25
1601.081	3168.91667
1604.104	3154.91667
1607.125	3148.58333
1610.144	3074.25
1613.16	3002.91667
1616.174	2944.91667
1619.186	2857.25
1622.196	2770.25
1625.203	2696.91667
1628.209	2641.91667
1631.212	2599.58333
1634.213	2620.58333
1637.212	2642.58333
1640.209	2605.91667
1643.203	2562.25
1646.196	2478.25
1649.186	2378.25
1652.174	2327.58333
1655.16	2200.91667
1658.144	2192.25
1661.125	2065.91667
1664.105	1993.25
1667.082	1913.58333
1670.057	1796.58333
1673.03	1674.58333
1676.001	1557.58333
1678.97	1485.25
1681.937	1376.58333
1684.901	1313.91667
1687.863	1257.25
1690.824	1193.25
1693.782	1177.91667
1696.738	1131.91667
1699.692	1120.91667
1702.643	1070.91667
1705.593	1052.91667
1708.54	1066.25
1711.486	1055.25
1714.429	1032.58333
1717.37	1036.91667
1720.309	1006.58333
1723.246	1022.91667
1726.181	984.25
1729.113	981.25
1732.044	976.91667
1734.972	967.91667
1737.899	983.58333
1740.823	961.91667
1743.745	943.25
1746.665	923.58333
1749.583	920.58333
1752.499	903.91667
1755.413	900.25
1758.325	875.58333
1761.235	866.25
1764.142	854.25
1767.048	845.58333
1769.951	850.91667
1772.852	829.58333
1775.752	838.25
1778.649	831.25
1781.544	834.25
1784.437	805.91667
1787.328	826.58333
1790.217	810.25
1793.104	792.58333
1795.989	796.25
1798.872	782.25
1801.753	795.25
1804.631	793.91667
1807.508	805.25
1810.383	797.25
1813.255	782.91667
1816.126	786.91667
1818.994	773.91667
1821.861	777.25
1824.725	785.91667
1827.587	780.58333
1830.448	770.58333
1833.306	746.58333
1836.162	760.25
1839.017	759.25
1841.869	763.58333
1844.719	756.25
1847.567	736.25
1850.414	737.25
1853.258	723.91667
1856.1	750.25
1858.94	735.25
1861.778	738.58333
1864.614	731.25
1867.448	726.58333
1870.28	720.91667
1873.111	745.91667
1875.939	722.91667
1878.765	746.91667
1881.589	722.91667
1884.411	713.58333
1887.231	721.25
1890.049	717.58333
1892.865	728.91667
1895.68	718.25
1898.492	724.91667
1901.302	713.58333
1904.11	725.25
1906.916	699.58333
1909.721	693.91667
1912.523	699.91667
1915.323	691.58333
1918.122	686.58333
1920.918	709.58333
1923.712	689.91667
1926.505	683.91667
1929.295	673.58333
1932.084	688.91667
1934.87	686.25
1937.655	685.25
1940.438	678.25
1943.218	681.91667
1945.997	693.25
1948.774	697.91667
1951.549	695.58333
1954.322	684.58333
1957.093	686.58333
1959.862	674.58333
1962.629	673.58333
1965.394	678.25
1968.157	662.58333
1970.918	666.58333
1973.678	655.25
1976.435	672.25
1979.19	660.91667
1981.944	660.25
1984.696	660.58333
1987.445	646.91667
1990.193	650.91667
1992.939	660.91667
1995.683	643.91667
1998.425	621.25
2001.165	659.25
2003.903	639.25
2006.639	645.58333
2009.374	651.58333
2012.106	644.58333
2014.837	635.91667
2017.566	645.25
2020.292	649.91667
2023.017	641.25
2025.74	642.25
2028.461	626.25
2031.18	623.91667
2033.898	631.91667
2036.613	628.91667
2039.327	639.91667
2042.038	615.91667
2044.748	620.25
2047.456	636.25
2050.162	611.58333
2052.866	620.91667
2055.568	629.58333
2058.268	613.25
2060.967	628.91667
2063.663	610.91667
2066.358	617.58333
2069.051	611.91667
2071.742	618.58333
2074.431	626.91667
2077.118	624.58333
2079.804	606.91667
2082.487	612.25
2085.169	620.91667
2087.849	634.58333
2090.527	614.25
2093.203	618.91667
2095.877	633.91667
2098.55	635.58333
2101.22	634.58333
2103.889	642.58333
2106.556	643.25
2109.221	660.58333
2111.884	668.91667
2114.546	710.58333
2117.205	736.91667
2119.863	792.91667
2122.519	814.58333
2125.173	860.25
2127.825	909.91667
2130.475	889.25
2133.124	867.25
2135.771	832.25
2138.416	800.25
2141.059	752.58333
2143.7	736.91667
2146.339	696.91667
2148.977	658.25
2151.613	651.58333
2154.247	645.91667
2156.879	645.58333
2159.51	614.91667
2162.138	618.58333
2164.765	623.58333
2167.39	600.25
2170.013	627.25
2172.634	615.91667
2175.254	610.25
2177.872	630.25
2180.488	589.58333
2183.102	602.25
2185.714	597.58333
2188.325	575.25
2190.934	583.25
2193.541	593.58333
2196.146	586.25
2198.75	566.25
2201.351	569.58333
2203.951	558.58333
2206.549	581.91667
2209.146	559.58333
2211.74	568.58333
2214.333	574.58333
2216.924	550.58333
2219.514	555.25
2222.101	557.58333
2224.687	566.91667
2227.271	558.91667
2229.853	549.91667
2232.433	541.58333
2235.012	566.58333
2237.589	568.91667
2240.164	570.25
2242.738	553.58333
2245.309	542.91667
2247.879	555.91667
2250.448	564.25
2253.014	542.91667
2255.579	527.58333
2258.142	537.25
2260.703	534.25
2263.262	542.25
2265.82	534.58333
2268.376	542.91667
2270.93	527.25
2273.483	527.91667
2276.033	539.58333
2278.583	528.91667
2281.13	523.25
2283.675	517.25
2286.219	523.25
2288.761	529.25
2291.302	530.58333
2293.841	546.91667
2296.377	523.58333
2298.913	527.25
2301.446	543.25
2303.978	530.91667
2306.508	508.58333
2309.037	530.58333
2311.563	521.58333
2314.088	530.25
2316.612	517.91667
2319.133	516.58333
2321.653	524.91667
2324.171	515.25
2326.688	531.91667
2329.202	517.58333
2331.715	515.25
2334.227	521.25
2336.736	528.91667
2339.244	516.25
2341.751	506.91667
2344.255	522.25
2346.758	527.91667
2349.259	502.58333
2351.759	517.91667
2354.257	515.25
2356.753	503.91667
2359.247	510.25
2361.74	523.25
2364.231	522.25
2366.721	518.91667
2369.209	514.91667
2371.695	521.58333
2374.179	511.91667
2376.662	508.58333
2379.143	527.25
2381.622	519.58333
2384.1	526.58333
2386.576	522.25
2389.051	535.91667
2391.524	531.25
2393.995	526.25
2396.464	521.25
2398.932	527.91667
2401.398	513.25
2403.863	517.91667
2406.325	524.91667
2408.787	520.25
2411.246	517.91667
2413.704	519.58333
2416.16	527.58333
2418.615	515.58333
2421.068	534.91667
2423.519	526.91667
2425.969	523.25
2428.417	529.91667
2430.863	552.25
2433.308	527.25
2435.751	544.91667
2438.193	530.91667
2440.633	531.91667
2443.071	539.58333
2445.508	520.58333
2447.943	526.25
2450.376	517.91667
2452.808	536.58333
2455.238	527.58333
2457.667	552.91667
2460.093	525.91667
2462.519	523.58333
2464.942	531.58333
2467.365	526.58333
2469.785	540.58333
2472.204	539.91667
2474.621	528.91667
2477.037	556.58333
2479.451	526.91667
2481.863	524.25
2484.274	537.25
2486.683	535.58333
2489.091	547.58333
2491.497	542.58333
2493.901	536.25
2496.304	539.25
2498.705	551.58333
2501.105	541.25
2503.503	563.58333
2505.899	539.58333
2508.294	564.58333
2510.687	545.91667
2513.079	542.58333
2515.469	541.58333
2517.858	562.58333
2520.245	553.91667
2522.63	542.91667
2525.014	538.91667
2527.396	540.91667
2529.776	534.25
2532.156	556.91667
2534.533	535.58333
2536.909	546.91667
2539.283	539.58333
2541.656	544.25
2544.027	564.91667
2546.397	545.25
2548.765	543.58333
2551.131	556.58333
2553.496	556.91667
2555.86	566.91667
2558.221	563.91667
2560.582	557.25
2562.94	545.91667
2565.298	559.25
2567.653	566.58333
2570.007	553.91667
2572.36	561.25
2574.711	552.91667
2577.06	575.91667
2579.408	564.91667
2581.754	565.91667
2584.099	574.58333
2586.442	572.25
2588.784	580.58333
2591.124	566.58333
2593.463	568.25
2595.8	575.58333
2598.135	563.25
2600.469	568.25
2602.802	587.25
2605.133	580.58333
2607.462	568.25
2609.79	577.25
2612.116	593.25
2614.441	590.25
2616.764	591.25
2619.086	577.25
2621.406	578.58333
2623.725	598.91667
2626.042	601.58333
2628.358	596.91667
2630.672	589.58333
2632.985	599.91667
2635.296	596.25
2637.606	604.58333
2639.914	597.91667
2642.22	591.91667
2644.525	607.58333
2646.829	615.91667
2649.131	619.91667
2651.432	618.58333
2653.731	615.25
2656.028	621.91667
2658.324	638.25
2660.619	610.58333
2662.912	632.25
2665.204	619.91667
2667.494	621.25
2669.782	616.91667
2672.07	639.58333
2674.355	645.25
2676.639	626.91667
2678.922	618.58333
2681.203	626.91667
2683.483	623.58333
2685.761	634.58333
2688.038	644.91667
2690.313	655.58333
2692.587	634.25
2694.859	636.58333
2697.13	648.58333
2699.399	655.25
2701.667	651.91667
2703.933	653.58333
2706.198	658.91667
2708.461	669.58333
2710.723	674.91667
2712.984	662.58333
2715.243	689.58333
2717.5	676.25
2719.757	692.91667
2722.011	681.91667
2724.264	690.25
2726.516	699.58333
2728.766	695.58333
2731.015	700.58333
2733.262	687.58333
2735.508	686.58333
2737.753	687.91667
2739.996	684.91667
2742.237	686.91667
2744.477	695.25
2746.716	693.91667
2748.953	688.25
2751.189	690.25
2753.423	685.25
2755.656	682.91667
2757.887	677.25
2760.117	673.91667
2762.346	684.91667
2764.573	693.58333
2766.798	677.25
2769.022	676.25
2771.245	695.58333
2773.467	682.91667
2775.686	707.25
2777.905	707.25
2780.122	711.58333
2782.337	714.91667
2784.552	706.91667
2786.764	708.58333
2788.976	718.25
2791.186	731.58333
2793.394	731.91667
2795.601	744.58333
2797.807	751.25
2800.011	746.25
2802.214	749.91667
2804.415	760.91667
2806.615	757.91667
2808.814	751.25
2811.011	763.25
2813.206	766.25
2815.401	787.25
2817.594	784.25
2819.785	791.25
2821.975	789.58333
2824.164	786.58333
2826.351	794.25
2828.537	819.91667
2830.722	826.91667
2832.905	834.25
2835.086	857.91667
2837.267	862.91667
2839.445	880.25
2841.623	900.25
2843.799	922.91667
2845.974	941.25
2848.147	967.58333
2850.319	989.58333
2852.489	1003.58333
2854.659	1018.58333
2856.826	1032.25
2858.993	1063.91667
2861.158	1043.58333
2863.321	1053.25
2865.483	1048.58333
2867.644	1055.91667
2869.804	1059.91667
2871.962	1036.58333
2874.118	1044.91667
2876.274	1045.58333
2878.428	1040.91667
2880.58	1029.25
2882.731	1033.25
2884.881	1037.25
2887.03	1045.91667
2889.177	1048.91667
2891.322	1052.25
2893.467	1055.25
2895.61	1063.25
2897.751	1067.58333
2899.892	1058.25
2902.03	1074.91667
2904.168	1080.25
2906.304	1092.25
2908.439	1110.58333
2910.572	1092.58333
2912.704	1109.58333
2914.835	1115.25
2916.965	1108.91667
2919.093	1119.25
2921.219	1091.58333
2923.345	1124.91667
2925.469	1094.25
2927.591	1093.58333
2929.712	1059.58333
2931.832	1050.91667
2933.951	1051.91667
2936.068	1024.91667
2938.184	1026.91667
2940.299	993.91667
2942.412	981.25
2944.524	967.58333
2946.634	949.58333
2948.744	918.25
2950.851	952.91667
2952.958	930.58333
2955.063	923.91667
2957.167	913.91667
2959.269	895.25
2961.371	915.91667
2963.471	885.58333
2965.569	882.58333
2967.666	857.58333
2969.762	862.25
2971.857	853.58333
2973.95	832.58333
2976.042	835.58333
2978.133	823.91667
2980.222	801.91667
2982.31	779.58333
2984.396	775.58333
2986.482	794.58333
2988.566	778.25
2990.648	769.91667
2992.73	769.58333
2994.81	763.25
2996.889	775.58333
2998.966	771.91667
3001.042	776.25
3003.117	773.91667
3005.191	778.91667
3007.263	770.58333
3009.334	762.25
3011.403	764.25
3013.472	738.58333
3015.539	745.25
3017.604	747.58333
3019.669	700.58333
3021.732	721.91667
3023.794	719.25
3025.854	716.58333
3027.914	715.25
3029.971	727.91667
3032.028	713.25
3034.083	720.25
3036.137	703.58333
3038.19	681.91667
3040.242	674.25
3042.292	653.25
3044.341	651.58333
3046.388	657.91667
3048.435	645.91667
3050.48	645.58333
3052.524	647.91667
3054.566	634.25
3056.607	632.91667
3058.647	623.25
3060.686	608.58333
3062.723	582.91667
3064.759	565.91667
3066.794	-0.08333
3068.828	1.91667
3070.86	2.58333
