-0.839	521.5
3.438	617.16667
7.711	180.16667
11.981	61.16667
16.247	43.16667
20.509	48.83333
24.768	46.5
29.024	55.16667
33.276	46.16667
37.524	47.83333
41.769	45.83333
46.01	31.16667
50.247	49.5
54.481	57.83333
58.712	60.5
62.939	48.5
67.162	59.83333
71.382	57.16667
75.599	42.5
79.812	60.16667
84.021	80.5
88.227	57.5
92.429	59.16667
96.628	50.16667
100.823	68.5
105.015	76.5
109.204	68.83333
113.388	70.83333
117.57	75.5
121.748	82.16667
125.922	78.16667
130.093	94.83333
134.261	95.16667
138.425	92.5
142.585	135.83333
146.742	119.83333
150.896	156.5
155.046	195.16667
159.193	315.5
163.336	526.16667
167.476	971.5
171.613	1772.5
175.746	2925.83333
179.875	4234.83333
184.002	5440.16667
188.124	6263.83333
192.244	6463.16667
196.36	6302.83333
200.472	6063.83333
204.581	5812.5
208.687	5651.83333
212.79	5514.16667
216.889	5438.5
220.984	5351.83333
225.077	5341.83333
229.165	5288.5
233.251	5230.83333
237.333	5171.83333
241.412	5083.16667
245.487	5006.16667
249.559	4927.83333
253.628	4901.83333
257.694	4837.16667
261.756	4768.16667
265.814	4674.83333
269.87	4508.5
273.922	4381.5
277.97	4310.83333
282.016	4297.16667
286.058	4325.83333
290.097	4426.5
294.132	4486.5
298.164	4435.83333
302.193	4240.5
306.219	3905.83333
310.241	3603.16667
314.26	3323.16667
318.276	3089.83333
322.288	2916.5
326.297	2787.5
330.303	2675.16667
334.305	2629.83333
338.305	2584.16667
342.301	2523.83333
346.294	2511.83333
350.283	2507.16667
354.269	2466.16667
358.252	2417.83333
362.232	2428.5
366.209	2397.5
370.182	2366.16667
374.152	2366.5
378.119	2381.5
382.083	2359.83333
386.043	2351.83333
390	2338.16667
393.954	2318.16667
397.905	2324.16667
401.852	2317.5
405.797	2282.5
409.738	2266.5
413.676	2276.5
417.61	2266.16667
421.542	2247.5
425.47	2233.83333
429.396	2204.16667
433.318	2206.5
437.236	2192.5
441.152	2235.16667
445.065	2169.83333
448.974	2164.83333
452.88	2133.16667
456.783	2123.83333
460.683	2114.16667
464.58	2117.5
468.473	2104.83333
472.364	2110.83333
476.251	2112.16667
480.135	2118.83333
484.016	2170.83333
487.894	2152.83333
491.769	2165.5
495.641	2168.83333
499.509	2162.16667
503.375	2176.5
507.237	2177.83333
511.096	2191.83333
514.952	2285.83333
518.805	2387.83333
522.655	2432.5
526.502	2302.5
530.346	2208.5
534.187	2182.5
538.024	2192.83333
541.859	2215.16667
545.69	2230.83333
549.519	2228.16667
553.344	2200.83333
557.166	2165.5
560.985	2118.5
564.802	2081.83333
568.615	2053.83333
572.425	2043.16667
576.232	2001.83333
580.036	2014.83333
583.836	2017.16667
587.634	2020.16667
591.429	2025.5
595.221	2097.5
599.01	2098.5
602.796	2129.16667
606.578	2130.5
610.358	2138.83333
614.135	2125.16667
617.909	2097.16667
621.679	2061.16667
625.447	2040.5
629.212	2070.5
632.973	2058.5
636.732	2076.16667
640.488	2070.83333
644.241	2032.5
647.991	2042.5
651.737	2057.5
655.481	2024.16667
659.222	2035.16667
662.96	2005.16667
666.695	2034.83333
670.427	2037.83333
674.156	2058.5
677.882	2058.83333
681.605	2043.5
685.325	2007.83333
689.043	2025.5
692.757	2004.5
696.468	2004.16667
700.177	2003.83333
703.882	1985.5
707.585	1953.83333
711.284	1972.16667
714.981	1962.5
718.675	1980.5
722.366	1979.83333
726.054	1966.16667
729.739	1974.5
733.421	1996.5
737.1	1972.16667
740.777	1997.5
744.45	2022.83333
748.121	2037.5
751.789	2073.16667
755.453	2032.16667
759.115	2078.83333
762.774	2080.5
766.431	2087.83333
770.084	2121.83333
773.734	2139.83333
777.382	2159.83333
781.027	2194.83333
784.669	2207.16667
788.308	2213.16667
791.944	2244.16667
795.577	2231.16667
799.208	2271.16667
802.835	2282.83333
806.46	2266.16667
810.082	2290.16667
813.701	2286.16667
817.317	2317.83333
820.931	2330.5
824.542	2297.16667
828.149	2254.83333
831.754	2278.16667
835.357	2253.5
838.956	2266.83333
842.553	2256.16667
846.146	2222.16667
849.737	2226.83333
853.326	2220.83333
856.911	2229.5
860.493	2251.5
864.073	2271.5
867.65	2298.83333
871.225	2335.16667
874.796	2343.5
878.365	2352.83333
881.931	2347.83333
885.494	2372.83333
889.054	2360.83333
892.612	2358.83333
896.166	2342.5
899.719	2327.5
903.268	2287.5
906.814	2258.16667
910.358	2240.16667
913.899	2246.5
917.438	2234.83333
920.973	2237.83333
924.506	2267.5
928.036	2312.5
931.564	2353.5
935.088	2394.83333
938.61	2395.5
942.129	2435.83333
945.646	2480.83333
949.16	2546.83333
952.671	2568.83333
956.179	2572.16667
959.685	2528.5
963.188	2532.5
966.688	2506.16667
970.185	2432.5
973.68	2346.5
977.173	2333.83333
980.662	2292.5
984.149	2290.16667
987.633	2251.5
991.114	2304.5
994.593	2328.16667
998.069	2404.83333
1001.542	2442.83333
1005.013	2442.16667
1008.481	2302.5
1011.947	2243.16667
1015.409	2256.5
1018.869	2241.83333
1022.327	2250.16667
1025.782	2218.83333
1029.234	2225.5
1032.683	2199.5
1036.13	2109.83333
1039.574	2042.5
1043.016	2002.16667
1046.455	1950.5
1049.891	1942.83333
1053.325	1964.16667
1056.756	1970.16667
1060.184	1979.83333
1063.61	1980.16667
1067.033	2012.83333
1070.454	2001.83333
1073.872	2027.16667
1077.287	2009.5
1080.7	2015.5
1084.11	2009.16667
1087.517	2016.83333
1090.922	1962.16667
1094.325	1952.83333
1097.724	1937.83333
1101.122	1928.83333
1104.516	1949.16667
1107.908	1923.16667
1111.298	1971.16667
1114.684	1980.16667
1118.069	2034.5
1121.45	2042.16667
1124.83	2023.16667
1128.206	2048.5
1131.58	2072.5
1134.951	2143.83333
1138.32	2203.83333
1141.687	2287.5
1145.05	2312.16667
1148.412	2317.5
1151.77	2302.83333
1155.126	2310.83333
1158.48	2283.83333
1161.831	2326.16667
1165.18	2305.16667
1168.525	2359.5
1171.869	2365.16667
1175.21	2384.5
1178.548	2401.83333
1181.884	2450.16667
1185.217	2480.5
1188.548	2551.83333
1191.877	2593.16667
1195.202	2691.16667
1198.526	2759.83333
1201.846	2766.83333
1205.165	2752.16667
1208.48	2772.16667
1211.794	2727.16667
1215.104	2742.16667
1218.413	2773.16667
1221.719	2755.5
1225.022	2718.83333
1228.323	2658.5
1231.621	2616.16667
1234.917	2592.5
1238.21	2614.16667
1241.501	2605.16667
1244.79	2583.83333
1248.076	2566.16667
1251.359	2589.5
1254.64	2652.5
1257.919	2672.16667
1261.195	2696.5
1264.468	2771.5
1267.74	2776.16667
1271.008	2780.5
1274.275	2777.83333
1277.538	2745.5
1280.8	2764.5
1284.059	2753.16667
1287.315	2793.16667
1290.569	2837.83333
1293.821	2865.5
1297.07	2863.5
1300.317	2886.5
1303.562	2886.16667
1306.803	2842.16667
1310.043	2856.5
1313.28	2825.83333
1316.515	2803.16667
1319.747	2784.5
1322.977	2747.5
1326.204	2722.5
1329.429	2663.16667
1332.652	2638.83333
1335.872	2602.83333
1339.09	2598.83333
1342.306	2576.5
1345.519	2548.83333
1348.729	2523.83333
1351.938	2517.5
1355.144	2481.83333
1358.347	2459.5
1361.548	2445.5
1364.747	2450.5
1367.944	2407.83333
1371.138	2426.83333
1374.329	2434.5
1377.518	2446.16667
1380.705	2451.83333
1383.89	2436.5
1387.072	2328.16667
1390.252	2253.5
1393.429	2174.83333
1396.605	2103.83333
1399.777	2043.16667
1402.948	2021.83333
1406.116	2007.83333
1409.282	2017.5
1412.445	2029.5
1415.606	2052.83333
1418.765	2086.5
1421.921	2138.16667
1425.075	2173.5
1428.227	2247.5
1431.376	2358.83333
1434.524	2430.5
1437.668	2523.5
1440.811	2527.5
1443.951	2553.83333
1447.089	2562.16667
1450.224	2557.83333
1453.357	2533.83333
1456.488	2509.5
1459.617	2480.16667
1462.743	2430.16667
1465.867	2347.5
1468.989	2315.16667
1472.108	2265.5
1475.225	2232.83333
1478.34	2183.5
1481.453	2208.83333
1484.563	2191.83333
1487.671	2230.5
1490.776	2269.83333
1493.88	2305.16667
1496.981	2334.16667
1500.08	2386.16667
1503.176	2381.5
1506.271	2436.5
1509.363	2473.5
1512.452	2490.16667
1515.54	2519.5
1518.625	2533.16667
1521.708	2596.16667
1524.789	2680.83333
1527.867	2762.5
1530.944	2901.83333
1534.018	3018.5
1537.089	3133.16667
1540.159	3188.5
1543.226	3190.16667
1546.291	3129.5
1549.354	3085.5
1552.415	2998.83333
1555.473	2938.16667
1558.529	2887.16667
1561.583	2865.83333
1564.634	2853.5
1567.684	2846.5
1570.731	2862.16667
1573.776	2903.16667
1576.819	2941.16667
1579.859	2963.5
1582.898	3007.5
1585.934	3045.5
1588.968	3051.16667
1591.999	3061.83333
1595.029	3077.83333
1598.056	3092.16667
1601.081	3132.16667
1604.104	3125.83333
1607.125	3088.83333
1610.144	3029.83333
1613.16	2944.83333
1616.174	2888.16667
1619.186	2784.5
1622.196	2703.5
1625.203	2648.83333
1628.209	2552.83333
1631.212	2545.16667
1634.213	2523.16667
1637.212	2509.5
1640.209	2479.5
1643.203	2419.83333
1646.196	2350.83333
1649.186	2276.5
1652.174	2186.83333
1655.16	2155.83333
1658.144	2073.5
1661.125	1972.5
1664.105	1902.16667
1667.082	1807.16667
1670.057	1738.83333
1673.03	1601.83333
1676.001	1510.83333
1678.97	1420.16667
1681.937	1329.5
1684.901	1254.16667
1687.863	1216.5
1690.824	1151.83333
1693.782	1138.5
1696.738	1076.16667
1699.692	1065.83333
1702.643	1045.83333
1705.593	1022.83333
1708.54	1015.5
1711.486	1018.16667
1714.429	985.83333
1717.37	992.16667
1720.309	956.83333
1723.246	973.5
1726.181	960.83333
1729.113	943.83333
1732.044	923.16667
1734.972	915.5
1737.899	931.16667
1740.823	919.83333
1743.745	887.5
1746.665	875.16667
1749.583	872.16667
1752.499	863.83333
1755.413	846.5
1758.325	831.5
1761.235	828.83333
1764.142	803.5
1767.048	785.5
1769.951	797.16667
1772.852	796.16667
1775.752	796.16667
1778.649	792.5
1781.544	796.83333
1784.437	777.16667
1787.328	781.16667
1790.217	760.16667
1793.104	749.16667
1795.989	748.16667
1798.872	738.5
1801.753	754.83333
1804.631	749.16667
1807.508	768.83333
1810.383	745.5
1813.255	749.5
1816.126	745.83333
1818.994	741.5
1821.861	736.5
1824.725	735.83333
1827.587	737.5
1830.448	737.16667
1833.306	699.16667
1836.162	720.83333
1839.017	718.16667
1841.869	713.83333
1844.719	715.16667
1847.567	703.83333
1850.414	685.16667
1853.258	690.16667
1856.1	704.16667
1858.94	706.5
1861.778	691.5
1864.614	681.83333
1867.448	684.16667
1870.28	675.83333
1873.111	709.83333
1875.939	692.5
1878.765	704.16667
1881.589	688.5
1884.411	676.83333
1887.231	693.16667
1890.049	693.83333
1892.865	681.16667
1895.68	680.83333
1898.492	680.83333
1901.302	672.5
1904.11	666.5
1906.916	678.16667
1909.721	660.5
1912.523	660.83333
1915.323	657.83333
1918.122	659.16667
1920.918	666.16667
1923.712	656.16667
1926.505	650.83333
1929.295	646.5
1932.084	661.5
1934.87	652.16667
1937.655	641.5
1940.438	637.5
1943.218	650.16667
1945.997	657.5
1948.774	660.83333
1951.549	659.16667
1954.322	647.5
1957.093	649.16667
1959.862	656.5
1962.629	636.83333
1965.394	635.83333
1968.157	626.5
1970.918	627.5
1973.678	627.16667
1976.435	645.5
1979.19	621.5
1981.944	622.16667
1984.696	611.5
1987.445	618.16667
1990.193	622.83333
1992.939	627.16667
1995.683	621.16667
1998.425	594.16667
2001.165	645.16667
2003.903	613.5
2006.639	605.5
2009.374	621.16667
2012.106	607.5
2014.837	597.83333
2017.566	610.5
2020.292	607.5
2023.017	617.5
2025.74	610.5
2028.461	601.16667
2031.18	602.5
2033.898	596.5
2036.613	607.5
2039.327	601.5
2042.038	587.5
2044.748	584.5
2047.456	600.5
2050.162	588.16667
2052.866	596.16667
2055.568	607.83333
2058.268	594.5
2060.967	595.83333
2063.663	585.16667
2066.358	588.5
2069.051	579.83333
2071.742	591.5
2074.431	592.83333
2077.118	584.5
2079.804	579.83333
2082.487	594.16667
2085.169	599.16667
2087.849	612.5
2090.527	582.83333
2093.203	596.5
2095.877	603.83333
2098.55	596.5
2101.22	611.16667
2103.889	614.83333
2106.556	626.16667
2109.221	646.83333
2111.884	642.5
2114.546	691.83333
2117.205	723.83333
2119.863	780.16667
2122.519	800.5
2125.173	829.16667
2127.825	873.16667
2130.475	874.83333
2133.124	824.5
2135.771	800.16667
2138.416	774.16667
2141.059	732.5
2143.7	709.16667
2146.339	674.16667
2148.977	633.83333
2151.613	635.83333
2154.247	625.16667
2156.879	608.83333
2159.51	590.16667
2162.138	599.16667
2164.765	594.16667
2167.39	581.5
2170.013	598.83333
2172.634	597.5
2175.254	580.16667
2177.872	618.5
2180.488	571.16667
2183.102	579.5
2185.714	577.16667
2188.325	542.16667
2190.934	563.16667
2193.541	556.16667
2196.146	559.83333
2198.75	543.5
2201.351	553.83333
2203.951	540.5
2206.549	556.83333
2209.146	550.16667
2211.74	551.5
2214.333	548.5
2216.924	521.5
2219.514	535.5
2222.101	533.16667
2224.687	548.5
2227.271	547.16667
2229.853	523.5
2232.433	513.83333
2235.012	549.5
2237.589	540.16667
2240.164	548.16667
2242.738	530.83333
2245.309	527.83333
2247.879	541.5
2250.448	543.83333
2253.014	522.83333
2255.579	511.83333
2258.142	520.5
2260.703	511.16667
2263.262	528.83333
2265.82	515.16667
2268.376	524.5
2270.93	510.16667
2273.483	507.5
2276.033	510.5
2278.583	513.16667
2281.13	508.83333
2283.675	509.5
2286.219	501.5
2288.761	506.83333
2291.302	507.5
2293.841	520.83333
2296.377	500.16667
2298.913	513.83333
2301.446	512.16667
2303.978	509.5
2306.508	506.5
2309.037	512.5
2311.563	516.16667
2314.088	510.16667
2316.612	494.16667
2319.133	497.16667
2321.653	507.16667
2324.171	493.83333
2326.688	514.83333
2329.202	498.83333
2331.715	513.5
2334.227	507.5
2336.736	517.83333
2339.244	500.83333
2341.751	492.16667
2344.255	517.5
2346.758	501.5
2349.259	495.16667
2351.759	506.16667
2354.257	501.16667
2356.753	499.83333
2359.247	509.5
2361.74	515.83333
2364.231	508.16667
2366.721	512.16667
2369.209	498.5
2371.695	512.5
2374.179	501.16667
2376.662	491.5
2379.143	519.83333
2381.622	497.83333
2384.1	503.16667
2386.576	502.5
2389.051	524.16667
2391.524	515.83333
2393.995	513.16667
2396.464	513.83333
2398.932	517.83333
2401.398	507.5
2403.863	510.5
2406.325	508.16667
2408.787	505.16667
2411.246	501.5
2413.704	506.16667
2416.16	505.16667
2418.615	505.83333
2421.068	521.83333
2423.519	519.5
2425.969	512.16667
2428.417	524.5
2430.863	537.5
2433.308	517.5
2435.751	514.83333
2438.193	513.16667
2440.633	520.16667
2443.071	520.16667
2445.508	511.83333
2447.943	511.5
2450.376	508.16667
2452.808	515.5
2455.238	512.83333
2457.667	547.5
2460.093	524.16667
2462.519	514.5
2464.942	528.16667
2467.365	527.83333
2469.785	538.16667
2472.204	527.83333
2474.621	521.5
2477.037	552.83333
2479.451	518.16667
2481.863	510.16667
2484.274	522.83333
2486.683	527.5
2489.091	534.16667
2491.497	530.83333
2493.901	539.16667
2496.304	525.5
2498.705	533.83333
2501.105	535.5
2503.503	560.5
2505.899	518.5
2508.294	553.5
2510.687	539.5
2513.079	527.16667
2515.469	531.83333
2517.858	535.5
2520.245	552.16667
2522.63	529.16667
2525.014	526.83333
2527.396	535.16667
2529.776	529.83333
2532.156	560.5
2534.533	527.5
2536.909	540.5
2539.283	523.5
2541.656	536.5
2544.027	562.5
2546.397	545.5
2548.765	545.83333
2551.131	550.5
2553.496	545.83333
2555.86	559.5
2558.221	548.16667
2560.582	556.16667
2562.94	534.5
2565.298	552.16667
2567.653	566.16667
2570.007	533.16667
2572.36	563.83333
2574.711	545.5
2577.06	570.83333
2579.408	572.16667
2581.754	557.83333
2584.099	570.83333
2586.442	561.5
2588.784	570.16667
2591.124	568.16667
2593.463	573.83333
2595.8	576.83333
2598.135	563.5
2600.469	563.16667
2602.802	576.5
2605.133	580.83333
2607.462	565.5
2609.79	565.16667
2612.116	576.83333
2614.441	570.83333
2616.764	572.5
2619.086	580.5
2621.406	573.5
2623.725	603.5
2626.042	594.16667
2628.358	571.83333
2630.672	577.16667
2632.985	604.83333
2635.296	595.83333
2637.606	593.5
2639.914	583.83333
2642.22	597.83333
2644.525	602.16667
2646.829	598.83333
2649.131	618.16667
2651.432	618.16667
2653.731	621.5
2656.028	622.5
2658.324	621.5
2660.619	611.5
2662.912	626.16667
2665.204	607.5
2667.494	626.16667
2669.782	608.16667
2672.07	621.5
2674.355	624.16667
2676.639	632.5
2678.922	616.16667
2681.203	634.83333
2683.483	619.16667
2685.761	626.5
2688.038	630.5
2690.313	668.16667
2692.587	633.5
2694.859	634.16667
2697.13	654.5
2699.399	652.16667
2701.667	657.16667
2703.933	657.83333
2706.198	659.5
2708.461	665.83333
2710.723	674.5
2712.984	669.5
2715.243	662.16667
2717.5	667.83333
2719.757	685.5
2722.011	679.5
2724.264	694.16667
2726.516	703.83333
2728.766	678.16667
2731.015	695.83333
2733.262	695.5
2735.508	706.16667
2737.753	707.5
2739.996	694.83333
2742.237	681.5
2744.477	693.5
2746.716	692.83333
2748.953	694.16667
2751.189	686.16667
2753.423	685.83333
2755.656	678.5
2757.887	665.83333
2760.117	681.16667
2762.346	673.5
2764.573	680.83333
2766.798	685.16667
2769.022	669.83333
2771.245	693.5
2773.467	689.16667
2775.686	698.16667
2777.905	689.5
2780.122	703.5
2782.337	706.5
2784.552	709.5
2786.764	723.16667
2788.976	716.83333
2791.186	715.5
2793.394	731.16667
2795.601	733.5
2797.807	759.5
2800.011	750.5
2802.214	752.16667
2804.415	758.83333
2806.615	760.5
2808.814	763.83333
2811.011	765.5
2813.206	767.16667
2815.401	793.5
2817.594	780.83333
2819.785	801.83333
2821.975	781.83333
2824.164	787.83333
2826.351	799.5
2828.537	820.5
2830.722	822.16667
2832.905	823.83333
2835.086	846.5
2837.267	873.83333
2839.445	889.16667
2841.623	896.5
2843.799	926.83333
2845.974	936.16667
2848.147	971.5
2850.319	977.5
2852.489	1017.83333
2854.659	1039.16667
2856.826	1031.16667
2858.993	1056.5
2861.158	1041.5
2863.321	1046.16667
2865.483	1078.5
2867.644	1060.83333
2869.804	1055.16667
2871.962	1050.5
2874.118	1062.16667
2876.274	1058.5
2878.428	1044.5
2880.58	1027.83333
2882.731	1016.16667
2884.881	1033.5
2887.03	1048.16667
2889.177	1043.16667
2891.322	1058.16667
2893.467	1051.16667
2895.61	1062.83333
2897.751	1080.5
2899.892	1072.5
2902.03	1068.5
2904.168	1075.5
2906.304	1084.83333
2908.439	1099.83333
2910.572	1085.5
2912.704	1103.16667
2914.835	1097.5
2916.965	1098.5
2919.093	1110.5
2921.219	1087.5
2923.345	1109.83333
2925.469	1074.16667
2927.591	1094.16667
2929.712	1066.16667
2931.832	1061.5
2933.951	1048.16667
2936.068	1035.16667
2938.184	1008.16667
2940.299	1008.83333
2942.412	999.83333
2944.524	953.83333
2946.634	966.83333
2948.744	924.5
2950.851	939.5
2952.958	907.83333
2955.063	914.83333
2957.167	916.16667
2959.269	899.83333
2961.371	930.83333
2963.471	880.16667
2965.569	897.16667
2967.666	852.16667
2969.762	856.5
2971.857	857.5
2973.95	845.5
2976.042	836.83333
2978.133	832.16667
2980.222	809.16667
2982.31	796.83333
2984.396	773.83333
2986.482	791.5
2988.566	772.83333
2990.648	773.83333
2992.73	774.83333
2994.81	763.16667
2996.889	771.16667
2998.966	766.83333
3001.042	786.5
3003.117	770.16667
3005.191	785.83333
3007.263	782.16667
3009.334	745.83333
3011.403	762.5
3013.472	750.5
3015.539	742.16667
3017.604	753.16667
3019.669	708.83333
3021.732	720.16667
3023.794	727.83333
3025.854	712.83333
3027.914	705.16667
3029.971	725.5
3032.028	723.83333
3034.083	723.5
3036.137	709.16667
3038.19	680.83333
3040.242	673.5
3042.292	664.16667
3044.341	664.83333
3046.388	660.5
3048.435	648.83333
3050.48	648.5
3052.524	653.83333
3054.566	634.83333
3056.607	636.16667
3058.647	623.5
3060.686	597.83333
3062.723	593.5
3064.759	561.5
3066.794	-0.83333
3068.828	2.5
3070.86	1.83333
