-0.839	627.45833
3.438	723.125
7.711	212.79167
11.981	69.79167
16.247	50.79167
20.509	52.79167
24.768	50.79167
29.024	55.125
33.276	47.79167
37.524	54.125
41.769	49.45833
46.01	36.79167
50.247	48.79167
54.481	62.45833
58.712	62.125
62.939	51.79167
67.162	64.79167
71.382	55.45833
75.599	49.125
79.812	67.79167
84.021	86.125
88.227	64.125
92.429	63.79167
96.628	58.79167
100.823	72.79167
105.015	78.125
109.204	72.45833
113.388	79.79167
117.57	78.79167
121.748	91.79167
125.922	85.125
130.093	100.125
134.261	104.79167
138.425	103.79167
142.585	145.125
146.742	140.125
150.896	169.45833
155.046	222.79167
159.193	336.125
163.336	572.79167
167.476	1041.125
171.613	1934.79167
175.746	3252.79167
179.875	4867.45833
184.002	6408.79167
188.124	7495.79167
192.244	7852.79167
196.36	7836.125
200.472	7623.45833
204.581	7475.45833
208.687	7343.79167
212.79	7260.79167
216.889	7262.45833
220.984	7296.45833
225.077	7325.45833
229.165	7323.125
233.251	7381.125
237.333	7383.125
241.412	7289.125
245.487	7228.45833
249.559	7175.45833
253.628	7147.125
257.694	7096.79167
261.756	7026.45833
265.814	6891.45833
269.87	6682.45833
273.922	6476.79167
277.97	6362.79167
282.016	6305.125
286.058	6366.45833
290.097	6475.79167
294.132	6619.125
298.164	6529.125
302.193	6302.125
306.219	5856.45833
310.241	5422.45833
314.26	5034.79167
318.276	4695.45833
322.288	4467.79167
326.297	4278.79167
330.303	4185.79167
334.305	4101.79167
338.305	4062.45833
342.301	3981.45833
346.294	3939.125
350.283	3944.125
354.269	3910.79167
358.252	3887.79167
362.232	3904.45833
366.209	3885.125
370.182	3828.45833
374.152	3816.45833
378.119	3843.125
382.083	3802.45833
386.043	3809.125
390	3801.125
393.954	3800.79167
397.905	3795.45833
401.852	3801.79167
405.797	3748.45833
409.738	3756.79167
413.676	3768.125
417.61	3734.79167
421.542	3743.45833
425.47	3695.79167
429.396	3667.45833
433.318	3675.125
437.236	3678.125
441.152	3695.79167
445.065	3623.125
448.974	3631.79167
452.88	3586.125
456.783	3596.125
460.683	3595.45833
464.58	3591.125
468.473	3589.45833
472.364	3619.79167
476.251	3588.79167
480.135	3656.45833
484.016	3712.79167
487.894	3708.79167
491.769	3722.45833
495.641	3729.45833
499.509	3725.125
503.375	3723.125
507.237	3727.125
511.096	3700.125
514.952	3727.125
518.805	3751.125
522.655	3751.79167
526.502	3733.45833
530.346	3731.125
534.187	3694.125
538.024	3701.45833
541.859	3743.45833
545.69	3785.45833
549.519	3733.79167
553.344	3722.45833
557.166	3707.125
560.985	3630.125
564.802	3577.125
568.615	3518.45833
572.425	3475.79167
576.232	3433.45833
580.036	3448.125
583.836	3480.45833
587.634	3451.125
591.429	3475.79167
595.221	3534.125
599.01	3592.125
602.796	3628.45833
606.578	3618.79167
610.358	3646.79167
614.135	3611.125
617.909	3593.79167
621.679	3550.125
625.447	3521.79167
629.212	3526.45833
632.973	3523.125
636.732	3532.125
640.488	3508.79167
644.241	3500.79167
647.991	3484.45833
651.737	3508.45833
655.481	3445.125
659.222	3451.79167
662.96	3462.79167
666.695	3465.125
670.427	3490.79167
674.156	3521.79167
677.882	3505.45833
681.605	3493.45833
685.325	3462.125
689.043	3463.125
692.757	3452.45833
696.468	3422.79167
700.177	3425.79167
703.882	3409.125
707.585	3372.45833
711.284	3360.125
714.981	3378.79167
718.675	3372.125
722.366	3378.79167
726.054	3364.45833
729.739	3356.125
733.421	3351.45833
737.1	3375.79167
740.777	3379.79167
744.45	3407.45833
748.121	3427.125
751.789	3459.79167
755.453	3445.125
759.115	3479.125
762.774	3479.125
766.431	3497.45833
770.084	3531.79167
773.734	3575.125
777.382	3590.125
781.027	3641.79167
784.669	3644.79167
788.308	3649.45833
791.944	3633.79167
795.577	3667.45833
799.208	3677.79167
802.835	3710.45833
806.46	3723.45833
810.082	3713.79167
813.701	3705.125
817.317	3756.79167
820.931	3738.125
824.542	3726.45833
828.149	3706.79167
831.754	3671.45833
835.357	3696.45833
838.956	3665.79167
842.553	3666.79167
846.146	3655.79167
849.737	3624.45833
853.326	3632.125
856.911	3617.125
860.493	3645.45833
864.073	3673.45833
867.65	3699.45833
871.225	3717.125
874.796	3725.79167
878.365	3744.79167
881.931	3768.125
885.494	3802.45833
889.054	3794.125
892.612	3786.79167
896.166	3767.45833
899.719	3733.79167
903.268	3679.125
906.814	3653.45833
910.358	3640.125
913.899	3609.125
917.438	3599.79167
920.973	3570.79167
924.506	3603.125
928.036	3643.45833
931.564	3722.45833
935.088	3766.45833
938.61	3786.125
942.129	3834.125
945.646	3879.125
949.16	3942.125
952.671	3997.45833
956.179	4008.125
959.685	3973.125
963.188	3965.125
966.688	3933.125
970.185	3784.125
973.68	3719.45833
977.173	3661.125
980.662	3634.125
984.149	3615.79167
987.633	3610.45833
991.114	3649.125
994.593	3713.45833
998.069	3834.79167
1001.542	3881.79167
1005.013	3821.79167
1008.481	3637.125
1011.947	3595.125
1015.409	3540.45833
1018.869	3569.125
1022.327	3545.45833
1025.782	3519.125
1029.234	3509.79167
1032.683	3480.45833
1036.13	3382.45833
1039.574	3263.45833
1043.016	3198.45833
1046.455	3119.79167
1049.891	3092.45833
1053.325	3125.79167
1056.756	3118.125
1060.184	3125.125
1063.61	3150.79167
1067.033	3149.45833
1070.454	3168.45833
1073.872	3220.125
1077.287	3182.79167
1080.7	3189.125
1084.11	3170.125
1087.517	3158.45833
1090.922	3086.79167
1094.325	3094.45833
1097.724	3080.45833
1101.122	3095.45833
1104.516	3049.125
1107.908	3050.45833
1111.298	3091.45833
1114.684	3147.45833
1118.069	3176.79167
1121.45	3206.125
1124.83	3189.79167
1128.206	3223.45833
1131.58	3270.79167
1134.951	3320.45833
1138.32	3446.45833
1141.687	3555.125
1145.05	3663.45833
1148.412	3610.125
1151.77	3621.45833
1155.126	3590.125
1158.48	3579.125
1161.831	3612.79167
1165.18	3601.125
1168.525	3668.79167
1171.869	3657.79167
1175.21	3688.45833
1178.548	3697.125
1181.884	3772.125
1185.217	3791.79167
1188.548	3880.79167
1191.877	3958.45833
1195.202	4038.125
1198.526	4123.125
1201.846	4171.45833
1205.165	4141.45833
1208.48	4115.45833
1211.794	4116.125
1215.104	4104.125
1218.413	4124.125
1221.719	4114.45833
1225.022	4062.45833
1228.323	3992.125
1231.621	3953.125
1234.917	3955.79167
1238.21	3960.79167
1241.501	3923.125
1244.79	3922.125
1248.076	3928.125
1251.359	3969.125
1254.64	4038.45833
1257.919	4065.125
1261.195	4106.79167
1264.468	4204.79167
1267.74	4252.125
1271.008	4253.45833
1274.275	4276.125
1277.538	4217.45833
1280.8	4225.45833
1284.059	4200.125
1287.315	4246.45833
1290.569	4246.45833
1293.821	4250.79167
1297.07	4271.125
1300.317	4283.45833
1303.562	4250.125
1306.803	4220.125
1310.043	4171.79167
1313.28	4109.45833
1316.515	4124.79167
1319.747	4097.45833
1322.977	4066.79167
1326.204	4035.125
1329.429	3963.79167
1332.652	3955.45833
1335.872	3957.79167
1339.09	3920.79167
1342.306	3868.45833
1345.519	3819.79167
1348.729	3783.45833
1351.938	3755.125
1355.144	3690.79167
1358.347	3686.45833
1361.548	3673.79167
1364.747	3674.125
1367.944	3613.125
1371.138	3629.125
1374.329	3654.79167
1377.518	3681.79167
1380.705	3710.125
1383.89	3650.45833
1387.072	3567.45833
1390.252	3434.79167
1393.429	3287.125
1396.605	3221.125
1399.777	3118.125
1402.948	3111.45833
1406.116	3060.125
1409.282	3074.79167
1412.445	3061.125
1415.606	3111.125
1418.765	3150.79167
1421.921	3199.45833
1425.075	3273.125
1428.227	3358.79167
1431.376	3476.79167
1434.524	3604.79167
1437.668	3712.125
1440.811	3750.125
1443.951	3778.79167
1447.089	3760.125
1450.224	3771.125
1453.357	3779.79167
1456.488	3770.45833
1459.617	3699.125
1462.743	3656.79167
1465.867	3567.125
1468.989	3502.45833
1472.108	3463.45833
1475.225	3385.45833
1478.34	3331.125
1481.453	3313.79167
1484.563	3339.45833
1487.671	3377.79167
1490.776	3406.125
1493.88	3477.125
1496.981	3506.79167
1500.08	3592.45833
1503.176	3628.125
1506.271	3700.45833
1509.363	3685.79167
1512.452	3731.79167
1515.54	3786.45833
1518.625	3842.79167
1521.708	3906.45833
1524.789	4008.45833
1527.867	4170.79167
1530.944	4368.45833
1534.018	4553.45833
1537.089	4719.79167
1540.159	4776.125
1543.226	4831.45833
1546.291	4724.79167
1549.354	4624.45833
1552.415	4532.45833
1555.473	4415.79167
1558.529	4315.125
1561.583	4262.125
1564.634	4219.125
1567.684	4179.45833
1570.731	4196.125
1573.776	4269.45833
1576.819	4330.125
1579.859	4368.79167
1582.898	4395.125
1585.934	4435.45833
1588.968	4442.79167
1591.999	4453.125
1595.029	4476.79167
1598.056	4476.125
1601.081	4506.79167
1604.104	4478.45833
1607.125	4419.45833
1610.144	4309.79167
1613.16	4265.125
1616.174	4191.45833
1619.186	4100.125
1622.196	4005.79167
1625.203	3904.125
1628.209	3869.125
1631.212	3828.45833
1634.213	3836.45833
1637.212	3799.79167
1640.209	3732.125
1643.203	3651.125
1646.196	3492.79167
1649.186	3347.125
1652.174	3233.125
1655.16	3119.125
1658.144	3038.79167
1661.125	2905.45833
1664.105	2797.125
1667.082	2701.125
1670.057	2587.45833
1673.03	2428.45833
1676.001	2263.125
1678.97	2117.125
1681.937	1999.45833
1684.901	1894.125
1687.863	1815.45833
1690.824	1741.45833
1693.782	1722.125
1696.738	1653.125
1699.692	1627.45833
1702.643	1560.125
1705.593	1559.125
1708.54	1535.79167
1711.486	1506.79167
1714.429	1485.79167
1717.37	1506.125
1720.309	1464.79167
1723.246	1479.79167
1726.181	1438.45833
1729.113	1426.125
1732.044	1420.45833
1734.972	1400.45833
1737.899	1400.45833
1740.823	1404.125
1743.745	1359.45833
1746.665	1354.45833
1749.583	1345.125
1752.499	1306.125
1755.413	1293.45833
1758.325	1271.125
1761.235	1258.79167
1764.142	1242.45833
1767.048	1212.45833
1769.951	1228.45833
1772.852	1222.45833
1775.752	1202.125
1778.649	1217.45833
1781.544	1220.79167
1784.437	1196.125
1787.328	1195.125
1790.217	1179.45833
1793.104	1148.79167
1795.989	1154.45833
1798.872	1160.45833
1801.753	1165.125
1804.631	1153.45833
1807.508	1160.79167
1810.383	1149.79167
1813.255	1142.79167
1816.126	1142.79167
1818.994	1134.125
1821.861	1123.79167
1824.725	1119.79167
1827.587	1110.45833
1830.448	1111.79167
1833.306	1082.45833
1836.162	1102.45833
1839.017	1083.125
1841.869	1066.125
1844.719	1073.79167
1847.567	1060.125
1850.414	1046.125
1853.258	1060.79167
1856.1	1058.79167
1858.94	1064.79167
1861.778	1064.79167
1864.614	1045.45833
1867.448	1047.45833
1870.28	1027.125
1873.111	1077.79167
1875.939	1030.45833
1878.765	1055.45833
1881.589	1031.45833
1884.411	1053.125
1887.231	1039.79167
1890.049	1026.125
1892.865	1024.79167
1895.68	994.45833
1898.492	1031.45833
1901.302	1008.79167
1904.11	1006.45833
1906.916	999.125
1909.721	978.45833
1912.523	997.79167
1915.323	968.79167
1918.122	970.125
1920.918	980.79167
1923.712	979.125
1926.505	971.125
1929.295	954.125
1932.084	968.125
1934.87	963.79167
1937.655	967.79167
1940.438	948.125
1943.218	960.79167
1945.997	967.45833
1948.774	973.45833
1951.549	973.45833
1954.322	949.45833
1957.093	942.125
1959.862	941.79167
1962.629	936.125
1965.394	935.79167
1968.157	929.79167
1970.918	921.79167
1973.678	914.125
1976.435	925.125
1979.19	915.45833
1981.944	910.79167
1984.696	905.45833
1987.445	892.45833
1990.193	898.125
1992.939	912.125
1995.683	901.45833
1998.425	879.45833
2001.165	905.125
2003.903	880.79167
2006.639	878.45833
2009.374	886.125
2012.106	873.45833
2014.837	872.45833
2017.566	891.45833
2020.292	879.125
2023.017	874.45833
2025.74	870.45833
2028.461	856.125
2031.18	864.79167
2033.898	851.79167
2036.613	857.79167
2039.327	854.45833
2042.038	838.45833
2044.748	844.79167
2047.456	842.45833
2050.162	840.79167
2052.866	835.125
2055.568	844.125
2058.268	825.45833
2060.967	851.125
2063.663	815.125
2066.358	815.45833
2069.051	825.79167
2071.742	820.125
2074.431	832.79167
2077.118	816.79167
2079.804	812.79167
2082.487	813.45833
2085.169	820.45833
2087.849	841.45833
2090.527	823.125
2093.203	815.125
2095.877	822.125
2098.55	836.79167
2101.22	841.125
2103.889	844.79167
2106.556	849.125
2109.221	861.125
2111.884	870.45833
2114.546	925.45833
2117.205	973.45833
2119.863	1043.79167
2122.519	1079.125
2125.173	1166.79167
2127.825	1217.125
2130.475	1224.45833
2133.124	1181.79167
2135.771	1137.79167
2138.416	1095.79167
2141.059	1038.79167
2143.7	980.125
2146.339	930.125
2148.977	888.79167
2151.613	878.125
2154.247	851.125
2156.879	813.45833
2159.51	796.45833
2162.138	794.125
2164.765	800.125
2167.39	761.45833
2170.013	793.125
2172.634	775.45833
2175.254	766.125
2177.872	786.125
2180.488	747.125
2183.102	751.79167
2185.714	742.125
2188.325	727.125
2190.934	732.125
2193.541	731.45833
2196.146	722.45833
2198.75	711.45833
2201.351	716.125
2203.951	701.45833
2206.549	719.45833
2209.146	696.45833
2211.74	688.45833
2214.333	693.79167
2216.924	678.45833
2219.514	681.79167
2222.101	672.45833
2224.687	693.45833
2227.271	681.79167
2229.853	672.45833
2232.433	661.45833
2235.012	677.45833
2237.589	681.125
2240.164	692.125
2242.738	665.79167
2245.309	654.45833
2247.879	676.45833
2250.448	672.45833
2253.014	645.125
2255.579	620.125
2258.142	642.79167
2260.703	633.45833
2263.262	638.79167
2265.82	621.45833
2268.376	626.45833
2270.93	623.45833
2273.483	619.45833
2276.033	619.79167
2278.583	610.79167
2281.13	612.125
2283.675	597.45833
2286.219	604.79167
2288.761	619.45833
2291.302	611.125
2293.841	615.45833
2296.377	589.79167
2298.913	589.79167
2301.446	607.79167
2303.978	602.79167
2306.508	587.125
2309.037	590.125
2311.563	600.125
2314.088	582.45833
2316.612	568.79167
2319.133	589.79167
2321.653	575.79167
2324.171	570.125
2326.688	589.125
2329.202	568.45833
2331.715	571.125
2334.227	564.125
2336.736	575.45833
2339.244	570.45833
2341.751	557.79167
2344.255	566.79167
2346.758	566.45833
2349.259	551.125
2351.759	563.45833
2354.257	551.45833
2356.753	545.45833
2359.247	553.125
2361.74	562.45833
2364.231	551.125
2366.721	543.79167
2369.209	544.125
2371.695	543.45833
2374.179	536.45833
2376.662	528.79167
2379.143	545.45833
2381.622	532.125
2384.1	548.45833
2386.576	536.45833
2389.051	547.45833
2391.524	547.45833
2393.995	539.45833
2396.464	527.79167
2398.932	540.45833
2401.398	527.45833
2403.863	521.79167
2406.325	519.125
2408.787	526.125
2411.246	525.45833
2413.704	534.125
2416.16	513.125
2418.615	523.125
2421.068	528.45833
2423.519	517.79167
2425.969	509.125
2428.417	520.45833
2430.863	537.125
2433.308	526.45833
2435.751	518.45833
2438.193	517.125
2440.633	529.79167
2443.071	522.79167
2445.508	514.45833
2447.943	502.79167
2450.376	501.45833
2452.808	494.125
2455.238	501.45833
2457.667	539.45833
2460.093	503.45833
2462.519	494.79167
2464.942	497.45833
2467.365	506.79167
2469.785	507.79167
2472.204	510.125
2474.621	488.79167
2477.037	507.79167
2479.451	478.45833
2481.863	476.125
2484.274	483.45833
2486.683	485.79167
2489.091	494.79167
2491.497	491.45833
2493.901	497.79167
2496.304	479.125
2498.705	491.125
2501.105	485.79167
2503.503	508.79167
2505.899	475.125
2508.294	503.125
2510.687	486.125
2513.079	482.79167
2515.469	479.45833
2517.858	473.79167
2520.245	475.45833
2522.63	483.79167
2525.014	476.125
2527.396	468.45833
2529.776	468.79167
2532.156	484.125
2534.533	467.45833
2536.909	460.125
2539.283	457.125
2541.656	461.45833
2544.027	480.45833
2546.397	471.79167
2548.765	462.125
2551.131	474.45833
2553.496	463.79167
2555.86	468.79167
2558.221	464.79167
2560.582	460.125
2562.94	452.125
2565.298	468.45833
2567.653	474.45833
2570.007	447.79167
2572.36	471.45833
2574.711	457.79167
2577.06	476.125
2579.408	465.79167
2581.754	461.79167
2584.099	466.45833
2586.442	459.79167
2588.784	460.125
2591.124	459.125
2593.463	464.79167
2595.8	467.79167
2598.135	434.79167
2600.469	457.45833
2602.802	470.125
2605.133	468.79167
2607.462	448.79167
2609.79	450.45833
2612.116	462.79167
2614.441	463.79167
2616.764	454.125
2619.086	454.79167
2621.406	444.79167
2623.725	472.45833
2626.042	455.125
2628.358	447.125
2630.672	446.45833
2632.985	466.45833
2635.296	460.125
2637.606	455.125
2639.914	445.125
2642.22	451.79167
2644.525	451.125
2646.829	463.125
2649.131	473.45833
2651.432	476.79167
2653.731	449.79167
2656.028	469.45833
2658.324	469.79167
2660.619	453.45833
2662.912	467.125
2665.204	452.125
2667.494	470.79167
2669.782	461.125
2672.07	467.125
2674.355	467.45833
2676.639	463.125
2678.922	452.79167
2681.203	462.45833
2683.483	452.125
2685.761	450.45833
2688.038	469.45833
2690.313	470.79167
2692.587	461.125
2694.859	467.79167
2697.13	469.79167
2699.399	479.45833
2701.667	482.45833
2703.933	472.45833
2706.198	485.125
2708.461	482.45833
2710.723	497.125
2712.984	488.125
2715.243	491.45833
2717.5	475.79167
2719.757	497.45833
2722.011	484.79167
2724.264	500.125
2726.516	511.45833
2728.766	491.79167
2731.015	495.79167
2733.262	497.45833
2735.508	492.125
2737.753	495.79167
2739.996	480.125
2742.237	486.45833
2744.477	496.79167
2746.716	505.125
2748.953	483.45833
2751.189	496.45833
2753.423	476.125
2755.656	464.125
2757.887	467.79167
2760.117	470.125
2762.346	462.79167
2764.573	461.79167
2766.798	464.79167
2769.022	475.45833
2771.245	472.79167
2773.467	467.79167
2775.686	473.45833
2777.905	478.125
2780.122	487.45833
2782.337	496.45833
2784.552	479.45833
2786.764	477.79167
2788.976	490.45833
2791.186	497.45833
2793.394	501.45833
2795.601	498.45833
2797.807	517.45833
2800.011	525.79167
2802.214	519.125
2804.415	513.45833
2806.615	525.79167
2808.814	526.45833
2811.011	531.45833
2813.206	530.79167
2815.401	553.125
2817.594	547.79167
2819.785	573.45833
2821.975	564.45833
2824.164	565.45833
2826.351	584.79167
2828.537	593.45833
2830.722	596.79167
2832.905	616.125
2835.086	641.79167
2837.267	652.45833
2839.445	675.45833
2841.623	701.45833
2843.799	721.125
2845.974	752.125
2848.147	793.45833
2850.319	810.79167
2852.489	840.45833
2854.659	847.125
2856.826	852.125
2858.993	902.79167
2861.158	876.45833
2863.321	866.45833
2865.483	901.45833
2867.644	889.125
2869.804	874.45833
2871.962	878.79167
2874.118	877.45833
2876.274	877.79167
2878.428	888.45833
2880.58	885.45833
2882.731	877.45833
2884.881	865.79167
2887.03	879.45833
2889.177	884.79167
2891.322	882.125
2893.467	889.125
2895.61	883.125
2897.751	913.79167
2899.892	896.45833
2902.03	909.79167
2904.168	927.79167
2906.304	936.125
2908.439	938.125
2910.572	934.125
2912.704	944.45833
2914.835	949.45833
2916.965	941.79167
2919.093	948.79167
2921.219	922.125
2923.345	935.45833
2925.469	916.45833
2927.591	920.79167
2929.712	880.125
2931.832	882.125
2933.951	870.45833
2936.068	846.45833
2938.184	834.45833
2940.299	808.45833
2942.412	797.45833
2944.524	753.79167
2946.634	740.45833
2948.744	702.79167
2950.851	727.125
2952.958	679.45833
2955.063	673.79167
2957.167	669.125
2959.269	634.45833
2961.371	665.45833
2963.471	621.125
2965.569	629.125
2967.666	593.45833
2969.762	591.79167
2971.857	579.125
2973.95	562.125
2976.042	551.79167
2978.133	536.79167
2980.222	526.125
2982.31	510.45833
2984.396	486.79167
2986.482	489.45833
2988.566	484.125
2990.648	486.45833
2992.73	473.125
2994.81	465.125
2996.889	473.125
2998.966	473.125
3001.042	476.79167
3003.117	464.45833
3005.191	461.79167
3007.263	463.125
3009.334	449.125
3011.403	459.125
3013.472	445.79167
3015.539	443.125
3017.604	446.45833
3019.669	407.45833
3021.732	425.45833
3023.794	411.125
3025.854	427.125
3027.914	408.79167
3029.971	424.45833
3032.028	410.45833
3034.083	412.45833
3036.137	407.79167
3038.19	389.45833
3040.242	390.125
3042.292	378.45833
3044.341	382.45833
3046.388	388.45833
3048.435	359.79167
3050.48	381.45833
3052.524	371.79167
3054.566	349.45833
3056.607	366.125
3058.647	349.79167
3060.686	344.45833
3062.723	332.45833
3064.759	325.45833
3066.794	0.125
3068.828	2.79167
3070.86	2.45833
