-0.839	490.875
3.438	593.875
7.711	185.20833
11.981	61.875
16.247	44.20833
20.509	52.54167
24.768	43.20833
29.024	56.20833
33.276	46.875
37.524	52.875
41.769	49.875
46.01	33.875
50.247	47.875
54.481	61.875
58.712	63.54167
62.939	48.20833
67.162	64.20833
71.382	59.54167
75.599	46.20833
79.812	62.875
84.021	79.54167
88.227	58.875
92.429	59.20833
96.628	51.20833
100.823	73.54167
105.015	76.875
109.204	65.54167
113.388	76.20833
117.57	75.875
121.748	87.20833
125.922	78.20833
130.093	95.875
134.261	96.875
138.425	93.875
142.585	138.875
146.742	125.875
150.896	158.875
155.046	186.54167
159.193	296.54167
163.336	487.20833
167.476	893.54167
171.613	1636.875
175.746	2749.875
179.875	4119.20833
184.002	5427.54167
188.124	6355.875
192.244	6717.54167
196.36	6707.20833
200.472	6581.20833
204.581	6453.875
208.687	6330.54167
212.79	6325.54167
216.889	6343.875
220.984	6394.20833
225.077	6439.20833
229.165	6465.54167
233.251	6517.20833
237.333	6507.875
241.412	6498.875
245.487	6439.20833
249.559	6378.20833
253.628	6369.54167
257.694	6308.875
261.756	6279.54167
265.814	6178.875
269.87	5996.54167
273.922	5845.875
277.97	5696.20833
282.016	5665.20833
286.058	5716.54167
290.097	5849.875
294.132	5946.20833
298.164	5924.875
302.193	5672.20833
306.219	5263.875
310.241	4800.875
314.26	4409.54167
318.276	4093.875
322.288	3849.54167
326.297	3682.875
330.303	3567.54167
334.305	3485.54167
338.305	3427.20833
342.301	3388.54167
346.294	3341.20833
350.283	3322.54167
354.269	3310.54167
358.252	3280.20833
362.232	3272.54167
366.209	3261.54167
370.182	3208.20833
374.152	3187.20833
378.119	3201.20833
382.083	3179.54167
386.043	3219.54167
390	3194.54167
393.954	3203.20833
397.905	3180.54167
401.852	3153.54167
405.797	3111.875
409.738	3119.875
413.676	3120.54167
417.61	3113.875
421.542	3096.20833
425.47	3057.54167
429.396	3065.54167
433.318	3039.20833
437.236	3008.54167
441.152	3075.54167
445.065	3005.20833
448.974	2992.54167
452.88	2960.54167
456.783	2940.20833
460.683	2929.54167
464.58	2955.875
468.473	2933.875
472.364	2959.54167
476.251	2961.875
480.135	3007.875
484.016	3057.54167
487.894	3054.54167
491.769	3064.54167
495.641	3079.54167
499.509	3061.54167
503.375	3070.875
507.237	3037.54167
511.096	3055.875
514.952	3124.20833
518.805	3155.54167
522.655	3191.54167
526.502	3076.20833
530.346	3039.20833
534.187	3065.20833
538.024	3063.54167
541.859	3084.875
545.69	3087.875
549.519	3102.875
553.344	3071.54167
557.166	3009.54167
560.985	2975.54167
564.802	2921.875
568.615	2872.20833
572.425	2832.54167
576.232	2811.20833
580.036	2792.54167
583.836	2811.875
587.634	2814.875
591.429	2844.54167
595.221	2904.20833
599.01	2920.875
602.796	2960.54167
606.578	2975.54167
610.358	2965.875
614.135	2932.54167
617.909	2918.20833
621.679	2896.875
625.447	2903.20833
629.212	2879.875
632.973	2870.875
636.732	2867.54167
640.488	2889.54167
644.241	2838.875
647.991	2846.54167
651.737	2864.20833
655.481	2807.875
659.222	2833.54167
662.96	2800.20833
666.695	2826.20833
670.427	2834.875
674.156	2881.54167
677.882	2854.875
681.605	2870.875
685.325	2812.54167
689.043	2819.875
692.757	2823.54167
696.468	2792.875
700.177	2790.54167
703.882	2785.20833
707.585	2760.20833
711.284	2750.20833
714.981	2756.54167
718.675	2777.54167
722.366	2791.20833
726.054	2755.54167
729.739	2762.875
733.421	2769.54167
737.1	2749.875
740.777	2780.20833
744.45	2792.54167
748.121	2816.875
751.789	2887.875
755.453	2845.875
759.115	2869.875
762.774	2875.20833
766.431	2901.875
770.084	2945.54167
773.734	2955.54167
777.382	3015.54167
781.027	3052.54167
784.669	3071.875
788.308	3075.20833
791.944	3069.54167
795.577	3087.54167
799.208	3111.875
802.835	3106.54167
806.46	3131.54167
810.082	3117.875
813.701	3154.54167
817.317	3175.20833
820.931	3198.875
824.542	3167.54167
828.149	3158.875
831.754	3131.875
835.357	3128.20833
838.956	3154.20833
842.553	3124.875
846.146	3107.20833
849.737	3078.875
853.326	3090.20833
856.911	3081.20833
860.493	3133.875
864.073	3160.20833
867.65	3180.54167
871.225	3222.20833
874.796	3225.20833
878.365	3215.54167
881.931	3258.875
885.494	3257.20833
889.054	3281.54167
892.612	3294.20833
896.166	3221.54167
899.719	3213.54167
903.268	3176.20833
906.814	3127.875
910.358	3141.875
913.899	3092.20833
917.438	3100.20833
920.973	3090.875
924.506	3130.875
928.036	3167.54167
931.564	3217.20833
935.088	3258.875
938.61	3252.20833
942.129	3321.875
945.646	3396.875
949.16	3436.875
952.671	3519.54167
956.179	3498.20833
959.685	3455.20833
963.188	3441.54167
966.688	3371.20833
970.185	3284.875
973.68	3223.54167
977.173	3184.875
980.662	3126.875
984.149	3111.20833
987.633	3084.875
991.114	3152.54167
994.593	3203.20833
998.069	3308.20833
1001.542	3361.54167
1005.013	3334.875
1008.481	3181.54167
1011.947	3118.20833
1015.409	3092.54167
1018.869	3062.875
1022.327	3079.54167
1025.782	3069.54167
1029.234	3022.875
1032.683	3011.875
1036.13	2912.54167
1039.574	2819.54167
1043.016	2722.54167
1046.455	2679.875
1049.891	2676.54167
1053.325	2692.54167
1056.756	2695.54167
1060.184	2711.875
1063.61	2706.54167
1067.033	2732.54167
1070.454	2745.875
1073.872	2785.20833
1077.287	2750.875
1080.7	2767.20833
1084.11	2756.54167
1087.517	2726.875
1090.922	2709.875
1094.325	2677.54167
1097.724	2664.875
1101.122	2689.875
1104.516	2666.54167
1107.908	2648.54167
1111.298	2731.54167
1114.684	2752.20833
1118.069	2791.54167
1121.45	2825.20833
1124.83	2800.54167
1128.206	2852.875
1131.58	2871.54167
1134.951	2973.875
1138.32	3060.20833
1141.687	3177.54167
1145.05	3236.875
1148.412	3211.20833
1151.77	3168.54167
1155.126	3195.875
1158.48	3160.54167
1161.831	3216.875
1165.18	3213.20833
1168.525	3257.875
1171.869	3280.20833
1175.21	3307.54167
1178.548	3327.875
1181.884	3384.875
1185.217	3398.875
1188.548	3475.20833
1191.877	3534.20833
1195.202	3618.875
1198.526	3699.20833
1201.846	3745.54167
1205.165	3713.20833
1208.48	3684.875
1211.794	3655.54167
1215.104	3668.54167
1218.413	3668.20833
1221.719	3666.54167
1225.022	3638.875
1228.323	3570.875
1231.621	3538.54167
1234.917	3510.54167
1238.21	3526.875
1241.501	3496.54167
1244.79	3476.20833
1248.076	3501.20833
1251.359	3519.20833
1254.64	3604.875
1257.919	3622.20833
1261.195	3689.875
1264.468	3759.875
1267.74	3802.20833
1271.008	3820.54167
1274.275	3784.875
1277.538	3772.875
1280.8	3773.20833
1284.059	3765.54167
1287.315	3812.875
1290.569	3809.20833
1293.821	3824.875
1297.07	3831.54167
1300.317	3847.875
1303.562	3856.20833
1306.803	3820.54167
1310.043	3793.20833
1313.28	3770.54167
1316.515	3725.875
1319.747	3715.875
1322.977	3662.875
1326.204	3605.20833
1329.429	3572.875
1332.652	3529.20833
1335.872	3500.54167
1339.09	3462.20833
1342.306	3443.875
1345.519	3401.875
1348.729	3368.20833
1351.938	3334.54167
1355.144	3276.54167
1358.347	3265.54167
1361.548	3237.20833
1364.747	3241.875
1367.944	3195.54167
1371.138	3219.54167
1374.329	3213.875
1377.518	3261.875
1380.705	3283.875
1383.89	3262.20833
1387.072	3153.54167
1390.252	2996.54167
1393.429	2890.20833
1396.605	2808.20833
1399.777	2721.20833
1402.948	2733.875
1406.116	2670.875
1409.282	2705.875
1412.445	2701.875
1415.606	2722.875
1418.765	2776.875
1421.921	2816.20833
1425.075	2884.54167
1428.227	2980.20833
1431.376	3128.20833
1434.524	3217.54167
1437.668	3331.54167
1440.811	3378.20833
1443.951	3419.875
1447.089	3427.20833
1450.224	3405.20833
1453.357	3394.20833
1456.488	3371.20833
1459.617	3333.54167
1462.743	3278.20833
1465.867	3187.54167
1468.989	3147.54167
1472.108	3073.875
1475.225	3025.54167
1478.34	2997.20833
1481.453	2996.20833
1484.563	2996.54167
1487.671	3018.20833
1490.776	3085.20833
1493.88	3121.54167
1496.981	3186.875
1500.08	3209.875
1503.176	3237.54167
1506.271	3282.20833
1509.363	3319.54167
1512.452	3360.20833
1515.54	3379.875
1518.625	3429.54167
1521.708	3505.54167
1524.789	3602.20833
1527.867	3725.54167
1530.944	3907.54167
1534.018	4075.54167
1537.089	4211.54167
1540.159	4315.875
1543.226	4301.54167
1546.291	4205.54167
1549.354	4115.54167
1552.415	4021.54167
1555.473	3937.875
1558.529	3861.54167
1561.583	3835.875
1564.634	3795.20833
1567.684	3795.20833
1570.731	3823.875
1573.776	3864.875
1576.819	3910.875
1579.859	3931.20833
1582.898	3980.20833
1585.934	4014.20833
1588.968	4071.875
1591.999	4055.875
1595.029	4048.875
1598.056	4099.54167
1601.081	4098.875
1604.104	4070.54167
1607.125	4034.54167
1610.144	3969.54167
1613.16	3873.20833
1616.174	3803.875
1619.186	3692.875
1622.196	3610.54167
1625.203	3520.875
1628.209	3451.875
1631.212	3389.875
1634.213	3390.875
1637.212	3352.20833
1640.209	3286.54167
1643.203	3187.20833
1646.196	3062.875
1649.186	2922.20833
1652.174	2871.875
1655.16	2754.875
1658.144	2665.875
1661.125	2552.20833
1664.105	2447.875
1667.082	2355.875
1670.057	2234.54167
1673.03	2104.54167
1676.001	1955.875
1678.97	1828.20833
1681.937	1711.20833
1684.901	1626.54167
1687.863	1559.875
1690.824	1504.875
1693.782	1478.54167
1696.738	1412.54167
1699.692	1375.20833
1702.643	1337.20833
1705.593	1335.20833
1708.54	1308.54167
1711.486	1298.54167
1714.429	1273.54167
1717.37	1266.54167
1720.309	1207.875
1723.246	1243.54167
1726.181	1212.875
1729.113	1220.54167
1732.044	1191.875
1734.972	1172.54167
1737.899	1184.20833
1740.823	1185.54167
1743.745	1148.875
1746.665	1140.54167
1749.583	1112.875
1752.499	1084.20833
1755.413	1086.20833
1758.325	1055.20833
1761.235	1053.54167
1764.142	1028.54167
1767.048	1023.20833
1769.951	1024.875
1772.852	1017.875
1775.752	1005.20833
1778.649	991.875
1781.544	1004.54167
1784.437	983.54167
1787.328	987.875
1790.217	967.875
1793.104	961.875
1795.989	946.875
1798.872	952.875
1801.753	967.875
1804.631	954.54167
1807.508	965.20833
1810.383	957.875
1813.255	947.54167
1816.126	935.54167
1818.994	933.54167
1821.861	932.20833
1824.725	933.54167
1827.587	934.54167
1830.448	917.875
1833.306	900.54167
1836.162	911.875
1839.017	905.875
1841.869	883.54167
1844.719	881.875
1847.567	873.20833
1850.414	873.20833
1853.258	870.20833
1856.1	896.875
1858.94	873.54167
1861.778	862.20833
1864.614	869.20833
1867.448	870.54167
1870.28	853.20833
1873.111	869.875
1875.939	860.54167
1878.765	867.875
1881.589	854.54167
1884.411	865.875
1887.231	861.20833
1890.049	860.875
1892.865	850.54167
1895.68	836.20833
1898.492	842.875
1901.302	834.54167
1904.11	833.54167
1906.916	822.875
1909.721	818.875
1912.523	823.54167
1915.323	805.54167
1918.122	805.54167
1920.918	824.54167
1923.712	807.54167
1926.505	797.20833
1929.295	796.54167
1932.084	810.54167
1934.87	812.54167
1937.655	796.20833
1940.438	789.875
1943.218	800.20833
1945.997	805.20833
1948.774	815.875
1951.549	800.20833
1954.322	797.20833
1957.093	792.54167
1959.862	789.20833
1962.629	774.875
1965.394	769.875
1968.157	763.875
1970.918	773.20833
1973.678	761.20833
1976.435	769.20833
1979.19	765.875
1981.944	745.875
1984.696	748.875
1987.445	737.54167
1990.193	747.875
1992.939	764.20833
1995.683	747.20833
1998.425	721.54167
2001.165	760.875
2003.903	735.20833
2006.639	735.875
2009.374	742.20833
2012.106	741.875
2014.837	733.20833
2017.566	731.875
2020.292	732.875
2023.017	728.54167
2025.74	721.20833
2028.461	718.20833
2031.18	732.54167
2033.898	729.875
2036.613	719.20833
2039.327	716.54167
2042.038	696.20833
2044.748	706.54167
2047.456	708.54167
2050.162	706.875
2052.866	692.20833
2055.568	696.20833
2058.268	690.54167
2060.967	702.20833
2063.663	692.20833
2066.358	694.875
2069.051	683.54167
2071.742	695.54167
2074.431	694.875
2077.118	695.54167
2079.804	680.20833
2082.487	689.20833
2085.169	689.54167
2087.849	703.20833
2090.527	685.20833
2093.203	692.875
2095.877	694.54167
2098.55	707.875
2101.22	710.54167
2103.889	716.875
2106.556	708.54167
2109.221	724.20833
2111.884	733.875
2114.546	778.875
2117.205	825.20833
2119.863	892.875
2122.519	926.54167
2125.173	962.54167
2127.825	1031.20833
2130.475	1022.54167
2133.124	983.20833
2135.771	953.54167
2138.416	922.875
2141.059	859.54167
2143.7	824.20833
2146.339	776.875
2148.977	732.875
2151.613	729.20833
2154.247	701.875
2156.879	710.20833
2159.51	683.20833
2162.138	662.875
2164.765	681.20833
2167.39	650.54167
2170.013	669.20833
2172.634	659.20833
2175.254	643.54167
2177.872	687.20833
2180.488	642.20833
2183.102	638.20833
2185.714	646.54167
2188.325	619.875
2190.934	629.875
2193.541	636.54167
2196.146	618.20833
2198.75	594.54167
2201.351	618.20833
2203.951	592.875
2206.549	612.54167
2209.146	599.875
2211.74	599.54167
2214.333	601.875
2216.924	582.875
2219.514	593.54167
2222.101	583.54167
2224.687	583.54167
2227.271	575.54167
2229.853	575.20833
2232.433	555.875
2235.012	586.54167
2237.589	583.20833
2240.164	598.54167
2242.738	576.54167
2245.309	559.875
2247.879	583.875
2250.448	576.20833
2253.014	558.54167
2255.579	538.20833
2258.142	556.20833
2260.703	539.875
2263.262	542.20833
2265.82	539.875
2268.376	553.875
2270.93	528.54167
2273.483	537.875
2276.033	536.875
2278.583	538.20833
2281.13	524.875
2283.675	517.54167
2286.219	525.20833
2288.761	515.54167
2291.302	523.875
2293.841	531.54167
2296.377	514.20833
2298.913	522.54167
2301.446	521.20833
2303.978	518.875
2306.508	498.20833
2309.037	509.875
2311.563	516.875
2314.088	516.54167
2316.612	493.875
2319.133	509.875
2321.653	506.20833
2324.171	498.20833
2326.688	506.20833
2329.202	501.875
2331.715	496.54167
2334.227	496.875
2336.736	503.20833
2339.244	482.875
2341.751	478.875
2344.255	504.54167
2346.758	487.54167
2349.259	476.875
2351.759	493.875
2354.257	480.875
2356.753	477.20833
2359.247	488.875
2361.74	492.875
2364.231	483.54167
2366.721	487.875
2369.209	474.54167
2371.695	479.54167
2374.179	478.875
2376.662	473.875
2379.143	489.20833
2381.622	478.54167
2384.1	490.20833
2386.576	468.54167
2389.051	489.875
2391.524	493.54167
2393.995	491.875
2396.464	473.54167
2398.932	473.20833
2401.398	467.54167
2403.863	466.20833
2406.325	461.875
2408.787	467.875
2411.246	460.54167
2413.704	471.54167
2416.16	453.20833
2418.615	468.875
2421.068	475.54167
2423.519	469.20833
2425.969	463.20833
2428.417	471.54167
2430.863	496.54167
2433.308	461.54167
2435.751	467.54167
2438.193	459.875
2440.633	456.54167
2443.071	469.20833
2445.508	456.20833
2447.943	466.54167
2450.376	459.20833
2452.808	452.20833
2455.238	446.875
2457.667	498.20833
2460.093	457.54167
2462.519	449.20833
2464.942	450.54167
2467.365	451.875
2469.785	465.875
2472.204	450.20833
2474.621	444.20833
2477.037	468.54167
2479.451	435.54167
2481.863	433.875
2484.274	446.875
2486.683	445.20833
2489.091	448.20833
2491.497	455.54167
2493.901	455.875
2496.304	441.875
2498.705	452.54167
2501.105	443.875
2503.503	472.54167
2505.899	435.875
2508.294	460.875
2510.687	444.875
2513.079	439.875
2515.469	434.54167
2517.858	440.20833
2520.245	456.20833
2522.63	437.875
2525.014	436.20833
2527.396	432.20833
2529.776	429.875
2532.156	448.875
2534.533	439.875
2536.909	431.20833
2539.283	412.20833
2541.656	436.20833
2544.027	445.875
2546.397	427.875
2548.765	432.875
2551.131	432.20833
2553.496	437.54167
2555.86	436.20833
2558.221	443.20833
2560.582	421.20833
2562.94	429.20833
2565.298	444.20833
2567.653	436.54167
2570.007	424.875
2572.36	431.54167
2574.711	427.20833
2577.06	448.875
2579.408	438.875
2581.754	434.875
2584.099	449.20833
2586.442	439.20833
2588.784	428.20833
2591.124	438.54167
2593.463	434.20833
2595.8	439.875
2598.135	423.20833
2600.469	429.875
2602.802	440.20833
2605.133	440.875
2607.462	421.54167
2609.79	416.20833
2612.116	441.54167
2614.441	438.20833
2616.764	440.875
2619.086	435.20833
2621.406	424.54167
2623.725	448.20833
2626.042	439.875
2628.358	431.20833
2630.672	425.54167
2632.985	444.20833
2635.296	448.875
2637.606	433.875
2639.914	428.20833
2642.22	437.875
2644.525	442.875
2646.829	453.20833
2649.131	448.875
2651.432	456.54167
2653.731	445.54167
2656.028	453.54167
2658.324	452.875
2660.619	440.54167
2662.912	447.875
2665.204	435.20833
2667.494	463.20833
2669.782	446.20833
2672.07	458.54167
2674.355	452.20833
2676.639	444.875
2678.922	437.875
2681.203	459.20833
2683.483	431.54167
2685.761	450.875
2688.038	456.54167
2690.313	458.875
2692.587	457.54167
2694.859	446.20833
2697.13	460.54167
2699.399	464.20833
2701.667	478.20833
2703.933	463.875
2706.198	463.54167
2708.461	473.875
2710.723	481.875
2712.984	478.54167
2715.243	489.54167
2717.5	465.875
2719.757	481.54167
2722.011	474.20833
2724.264	494.20833
2726.516	501.54167
2728.766	490.20833
2731.015	497.875
2733.262	492.875
2735.508	496.20833
2737.753	489.20833
2739.996	474.875
2742.237	477.20833
2744.477	489.54167
2746.716	485.54167
2748.953	472.875
2751.189	477.875
2753.423	476.54167
2755.656	456.54167
2757.887	462.54167
2760.117	465.54167
2762.346	453.54167
2764.573	462.54167
2766.798	455.875
2769.022	467.54167
2771.245	478.54167
2773.467	468.20833
2775.686	474.875
2777.905	475.875
2780.122	472.54167
2782.337	474.875
2784.552	482.54167
2786.764	477.875
2788.976	490.20833
2791.186	488.20833
2793.394	497.20833
2795.601	506.54167
2797.807	513.875
2800.011	511.875
2802.214	502.20833
2804.415	509.875
2806.615	515.54167
2808.814	518.54167
2811.011	523.20833
2813.206	526.54167
2815.401	545.20833
2817.594	549.875
2819.785	561.54167
2821.975	541.875
2824.164	556.20833
2826.351	572.875
2828.537	590.20833
2830.722	607.875
2832.905	599.20833
2835.086	632.875
2837.267	655.54167
2839.445	657.20833
2841.623	685.54167
2843.799	700.54167
2845.974	743.54167
2848.147	773.54167
2850.319	806.875
2852.489	830.20833
2854.659	835.20833
2856.826	850.54167
2858.993	885.54167
2861.158	868.875
2863.321	876.20833
2865.483	884.54167
2867.644	889.20833
2869.804	880.875
2871.962	871.20833
2874.118	861.20833
2876.274	866.875
2878.428	869.20833
2880.58	865.20833
2882.731	862.54167
2884.881	864.20833
2887.03	868.875
2889.177	868.875
2891.322	875.20833
2893.467	872.54167
2895.61	882.20833
2897.751	899.20833
2899.892	897.20833
2902.03	895.20833
2904.168	905.20833
2906.304	919.875
2908.439	931.54167
2910.572	915.54167
2912.704	939.20833
2914.835	925.20833
2916.965	921.20833
2919.093	937.875
2921.219	924.20833
2923.345	927.875
2925.469	903.54167
2927.591	910.54167
2929.712	874.54167
2931.832	869.54167
2933.951	853.20833
2936.068	848.875
2938.184	835.20833
2940.299	797.875
2942.412	781.54167
2944.524	751.875
2946.634	743.875
2948.744	693.875
2950.851	717.875
2952.958	683.54167
2955.063	676.20833
2957.167	664.54167
2959.269	641.20833
2961.371	665.54167
2963.471	625.20833
2965.569	635.875
2967.666	606.20833
2969.762	600.20833
2971.857	590.54167
2973.95	560.54167
2976.042	566.875
2978.133	551.54167
2980.222	539.875
2982.31	523.20833
2984.396	498.875
2986.482	513.54167
2988.566	499.20833
2990.648	497.20833
2992.73	486.875
2994.81	489.875
2996.889	486.20833
2998.966	483.20833
3001.042	497.54167
3003.117	483.875
3005.191	488.54167
3007.263	481.20833
3009.334	477.54167
3011.403	474.875
3013.472	463.54167
3015.539	458.20833
3017.604	460.20833
3019.669	426.20833
3021.732	434.54167
3023.794	444.54167
3025.854	435.54167
3027.914	425.875
3029.971	438.54167
3032.028	439.875
3034.083	433.20833
3036.137	419.875
3038.19	420.875
3040.242	399.54167
3042.292	394.875
3044.341	396.54167
3046.388	408.875
3048.435	377.875
3050.48	402.20833
3052.524	381.20833
3054.566	376.875
3056.607	384.54167
3058.647	367.54167
3060.686	362.20833
3062.723	343.20833
3064.759	343.54167
3066.794	0.20833
3068.828	3.20833
3070.86	0.54167
