-0.839	494.75
3.438	599.08333
7.711	185.75
11.981	62.41667
16.247	46.08333
20.509	52.41667
24.768	48.41667
29.024	58.08333
33.276	46.75
37.524	54.41667
41.769	48.08333
46.01	35.41667
50.247	45.75
54.481	63.75
58.712	64.75
62.939	51.41667
67.162	64.41667
71.382	56.75
75.599	47.75
79.812	63.08333
84.021	79.75
88.227	62.41667
92.429	60.75
96.628	56.41667
100.823	73.08333
105.015	80.75
109.204	70.41667
113.388	74.75
117.57	77.08333
121.748	89.08333
125.922	82.41667
130.093	103.41667
134.261	98.08333
138.425	99.41667
142.585	143.75
146.742	130.41667
150.896	156.75
155.046	193.75
159.193	294.75
163.336	492.08333
167.476	906.08333
171.613	1654.75
175.746	2817.41667
179.875	4185.08333
184.002	5547.41667
188.124	6539.75
192.244	6888.41667
196.36	6894.41667
200.472	6787.41667
204.581	6682.75
208.687	6550.08333
212.79	6528.75
216.889	6570.08333
220.984	6644.08333
225.077	6721.41667
229.165	6716.75
233.251	6803.75
237.333	6818.75
241.412	6758.41667
245.487	6714.08333
249.559	6645.08333
253.628	6658.08333
257.694	6619.41667
261.756	6545.08333
265.814	6444.08333
269.87	6323.75
273.922	6088.75
277.97	5976.75
282.016	5898.08333
286.058	5941.08333
290.097	6107.08333
294.132	6223.08333
298.164	6195.75
302.193	5961.75
306.219	5553.41667
310.241	5100.75
314.26	4715.75
318.276	4374.41667
322.288	4148.08333
326.297	3972.41667
330.303	3865.41667
334.305	3774.75
338.305	3716.41667
342.301	3666.41667
346.294	3628.08333
350.283	3602.08333
354.269	3600.75
358.252	3563.08333
362.232	3532.41667
366.209	3526.75
370.182	3481.08333
374.152	3487.41667
378.119	3482.08333
382.083	3476.41667
386.043	3511.08333
390	3470.08333
393.954	3482.41667
397.905	3506.75
401.852	3441.08333
405.797	3416.41667
409.738	3406.75
413.676	3443.41667
417.61	3424.75
421.542	3379.08333
425.47	3383.41667
429.396	3363.41667
433.318	3348.08333
437.236	3321.08333
441.152	3378.08333
445.065	3298.08333
448.974	3322.08333
452.88	3269.41667
456.783	3254.41667
460.683	3256.75
464.58	3262.75
468.473	3257.75
472.364	3284.41667
476.251	3306.41667
480.135	3329.41667
484.016	3380.08333
487.894	3396.08333
491.769	3391.75
495.641	3392.75
499.509	3401.08333
503.375	3414.41667
507.237	3383.41667
511.096	3365.08333
514.952	3432.75
518.805	3484.08333
522.655	3496.75
526.502	3418.08333
530.346	3370.75
534.187	3351.41667
538.024	3396.41667
541.859	3412.41667
545.69	3428.41667
549.519	3386.75
553.344	3370.08333
557.166	3341.41667
560.985	3299.08333
564.802	3241.08333
568.615	3184.08333
572.425	3154.08333
576.232	3108.08333
580.036	3112.08333
583.836	3105.08333
587.634	3132.75
591.429	3160.08333
595.221	3231.75
599.01	3255.75
602.796	3265.08333
606.578	3289.08333
610.358	3304.75
614.135	3277.08333
617.909	3260.41667
621.679	3217.08333
625.447	3199.41667
629.212	3189.08333
632.973	3208.08333
636.732	3185.41667
640.488	3189.75
644.241	3163.08333
647.991	3139.41667
651.737	3148.08333
655.481	3135.75
659.222	3139.08333
662.96	3136.41667
666.695	3134.08333
670.427	3162.41667
674.156	3202.08333
677.882	3174.41667
681.605	3154.75
685.325	3119.75
689.043	3132.41667
692.757	3119.08333
696.468	3100.41667
700.177	3098.08333
703.882	3069.75
707.585	3079.41667
711.284	3042.75
714.981	3059.08333
718.675	3064.08333
722.366	3063.75
726.054	3067.75
729.739	3038.75
733.421	3054.08333
737.1	3055.08333
740.777	3071.75
744.45	3081.08333
748.121	3103.08333
751.789	3150.08333
755.453	3131.08333
759.115	3179.41667
762.774	3173.08333
766.431	3191.08333
770.084	3225.08333
773.734	3251.08333
777.382	3284.75
781.027	3337.41667
784.669	3349.75
788.308	3346.75
791.944	3382.08333
795.577	3372.08333
799.208	3413.41667
802.835	3403.08333
806.46	3404.08333
810.082	3423.08333
813.701	3449.75
817.317	3492.75
820.931	3485.08333
824.542	3455.75
828.149	3429.08333
831.754	3388.41667
835.357	3359.08333
838.956	3374.08333
842.553	3375.08333
846.146	3360.41667
849.737	3345.08333
853.326	3346.75
856.911	3330.41667
860.493	3356.08333
864.073	3373.41667
867.65	3394.08333
871.225	3430.75
874.796	3431.08333
878.365	3440.75
881.931	3461.41667
885.494	3460.08333
889.054	3474.08333
892.612	3481.41667
896.166	3427.75
899.719	3407.08333
903.268	3377.75
906.814	3371.41667
910.358	3335.75
913.899	3306.08333
917.438	3322.75
920.973	3311.08333
924.506	3346.41667
928.036	3389.75
931.564	3445.41667
935.088	3500.75
938.61	3524.08333
942.129	3558.08333
945.646	3595.41667
949.16	3663.75
952.671	3754.41667
956.179	3749.41667
959.685	3714.75
963.188	3701.08333
966.688	3677.75
970.185	3532.08333
973.68	3462.75
977.173	3424.41667
980.662	3367.41667
984.149	3338.41667
987.633	3325.08333
991.114	3362.41667
994.593	3449.75
998.069	3549.08333
1001.542	3596.41667
1005.013	3537.08333
1008.481	3381.41667
1011.947	3327.41667
1015.409	3321.75
1018.869	3282.08333
1022.327	3287.08333
1025.782	3264.08333
1029.234	3262.41667
1032.683	3215.08333
1036.13	3117.41667
1039.574	3027.41667
1043.016	2940.41667
1046.455	2885.41667
1049.891	2860.08333
1053.325	2894.08333
1056.756	2896.75
1060.184	2918.41667
1063.61	2943.75
1067.033	2936.41667
1070.454	2946.41667
1073.872	2971.75
1077.287	2948.08333
1080.7	2975.08333
1084.11	2933.75
1087.517	2937.08333
1090.922	2887.41667
1094.325	2849.08333
1097.724	2845.41667
1101.122	2831.08333
1104.516	2835.75
1107.908	2839.75
1111.298	2872.41667
1114.684	2894.41667
1118.069	2938.41667
1121.45	2982.08333
1124.83	2960.08333
1128.206	2979.08333
1131.58	3039.75
1134.951	3111.75
1138.32	3211.08333
1141.687	3331.75
1145.05	3369.41667
1148.412	3368.08333
1151.77	3375.08333
1155.126	3320.41667
1158.48	3335.41667
1161.831	3349.41667
1165.18	3332.08333
1168.525	3393.41667
1171.869	3446.08333
1175.21	3428.75
1178.548	3497.75
1181.884	3538.08333
1185.217	3533.41667
1188.548	3617.08333
1191.877	3675.08333
1195.202	3802.41667
1198.526	3856.08333
1201.846	3899.75
1205.165	3864.08333
1208.48	3883.08333
1211.794	3855.75
1215.104	3860.08333
1218.413	3862.41667
1221.719	3850.08333
1225.022	3786.41667
1228.323	3756.41667
1231.621	3701.41667
1234.917	3657.75
1238.21	3709.08333
1241.501	3650.75
1244.79	3663.08333
1248.076	3661.75
1251.359	3690.75
1254.64	3767.41667
1257.919	3793.75
1261.195	3851.75
1264.468	3902.08333
1267.74	3968.41667
1271.008	3977.41667
1274.275	3957.41667
1277.538	3942.41667
1280.8	3952.41667
1284.059	3922.08333
1287.315	3980.41667
1290.569	3962.41667
1293.821	3975.75
1297.07	3993.08333
1300.317	4022.75
1303.562	4016.75
1306.803	3980.75
1310.043	3942.41667
1313.28	3899.41667
1316.515	3895.08333
1319.747	3866.41667
1322.977	3841.08333
1326.204	3782.08333
1329.429	3743.08333
1332.652	3735.41667
1335.872	3695.08333
1339.09	3661.75
1342.306	3622.75
1345.519	3604.41667
1348.729	3543.08333
1351.938	3534.41667
1355.144	3480.75
1358.347	3448.75
1361.548	3448.41667
1364.747	3435.75
1367.944	3379.75
1371.138	3358.41667
1374.329	3394.75
1377.518	3423.08333
1380.705	3440.41667
1383.89	3410.08333
1387.072	3301.41667
1390.252	3173.08333
1393.429	3065.41667
1396.605	2970.75
1399.777	2891.41667
1402.948	2870.75
1406.116	2860.08333
1409.282	2840.08333
1412.445	2835.41667
1415.606	2884.41667
1418.765	2895.08333
1421.921	2969.41667
1425.075	3026.75
1428.227	3132.08333
1431.376	3273.41667
1434.524	3396.08333
1437.668	3482.75
1440.811	3549.75
1443.951	3563.41667
1447.089	3553.41667
1450.224	3580.75
1453.357	3574.75
1456.488	3528.08333
1459.617	3463.41667
1462.743	3435.41667
1465.867	3321.41667
1468.989	3301.41667
1472.108	3215.41667
1475.225	3150.41667
1478.34	3111.08333
1481.453	3103.41667
1484.563	3118.08333
1487.671	3137.41667
1490.776	3187.08333
1493.88	3215.41667
1496.981	3278.75
1500.08	3307.75
1503.176	3329.08333
1506.271	3397.08333
1509.363	3401.41667
1512.452	3463.41667
1515.54	3513.75
1518.625	3560.08333
1521.708	3636.41667
1524.789	3732.08333
1527.867	3887.41667
1530.944	4047.75
1534.018	4202.08333
1537.089	4398.75
1540.159	4458.08333
1543.226	4443.75
1546.291	4344.41667
1549.354	4245.08333
1552.415	4160.08333
1555.473	4089.75
1558.529	3973.41667
1561.583	3916.08333
1564.634	3899.41667
1567.684	3898.75
1570.731	3926.08333
1573.776	3945.75
1576.819	4025.75
1579.859	4082.75
1582.898	4102.41667
1585.934	4150.75
1588.968	4163.41667
1591.999	4147.08333
1595.029	4148.75
1598.056	4193.41667
1601.081	4223.41667
1604.104	4178.08333
1607.125	4140.75
1610.144	4080.41667
1613.16	4010.08333
1616.174	3918.08333
1619.186	3837.75
1622.196	3755.08333
1625.203	3678.75
1628.209	3637.08333
1631.212	3600.41667
1634.213	3588.08333
1637.212	3562.41667
1640.209	3484.08333
1643.203	3427.08333
1646.196	3305.41667
1649.186	3149.75
1652.174	3028.41667
1655.16	2924.08333
1658.144	2852.08333
1661.125	2722.08333
1664.105	2585.75
1667.082	2471.08333
1670.057	2371.41667
1673.03	2230.41667
1676.001	2080.08333
1678.97	1961.41667
1681.937	1828.08333
1684.901	1722.75
1687.863	1675.41667
1690.824	1569.75
1693.782	1574.08333
1696.738	1509.41667
1699.692	1473.41667
1702.643	1425.41667
1705.593	1416.41667
1708.54	1400.08333
1711.486	1399.08333
1714.429	1334.75
1717.37	1369.41667
1720.309	1319.75
1723.246	1321.41667
1726.181	1299.41667
1729.113	1309.41667
1732.044	1301.41667
1734.972	1279.08333
1737.899	1274.75
1740.823	1268.08333
1743.745	1236.41667
1746.665	1216.75
1749.583	1191.75
1752.499	1185.75
1755.413	1185.08333
1758.325	1153.41667
1761.235	1147.75
1764.142	1129.75
1767.048	1104.08333
1769.951	1108.08333
1772.852	1113.41667
1775.752	1102.08333
1778.649	1094.75
1781.544	1100.75
1784.437	1065.41667
1787.328	1072.08333
1790.217	1063.75
1793.104	1039.41667
1795.989	1040.08333
1798.872	1025.41667
1801.753	1037.75
1804.631	1045.08333
1807.508	1053.75
1810.383	1034.08333
1813.255	1019.41667
1816.126	1026.41667
1818.994	1024.75
1821.861	1013.41667
1824.725	1019.41667
1827.587	1007.41667
1830.448	1004.41667
1833.306	985.41667
1836.162	992.41667
1839.017	976.75
1841.869	962.41667
1844.719	973.75
1847.567	961.75
1850.414	948.08333
1853.258	942.41667
1856.1	958.08333
1858.94	961.75
1861.778	937.41667
1864.614	945.75
1867.448	951.75
1870.28	937.41667
1873.111	947.75
1875.939	948.41667
1878.765	954.75
1881.589	935.08333
1884.411	933.41667
1887.231	926.75
1890.049	929.41667
1892.865	929.41667
1895.68	927.41667
1898.492	922.08333
1901.302	921.41667
1904.11	912.75
1906.916	893.41667
1909.721	898.75
1912.523	901.75
1915.323	879.75
1918.122	888.75
1920.918	884.08333
1923.712	866.75
1926.505	886.08333
1929.295	862.75
1932.084	881.08333
1934.87	881.75
1937.655	881.08333
1940.438	859.41667
1943.218	870.08333
1945.997	882.41667
1948.774	869.41667
1951.549	880.75
1954.322	873.08333
1957.093	860.75
1959.862	839.41667
1962.629	849.08333
1965.394	841.08333
1968.157	834.08333
1970.918	832.75
1973.678	833.08333
1976.435	833.41667
1979.19	833.75
1981.944	822.08333
1984.696	829.75
1987.445	805.75
1990.193	814.41667
1992.939	828.75
1995.683	809.08333
1998.425	792.75
2001.165	823.75
2003.903	796.41667
2006.639	801.08333
2009.374	809.75
2012.106	803.75
2014.837	784.08333
2017.566	803.41667
2020.292	806.08333
2023.017	791.08333
2025.74	795.41667
2028.461	788.75
2031.18	787.75
2033.898	779.75
2036.613	784.75
2039.327	779.08333
2042.038	769.75
2044.748	764.41667
2047.456	775.08333
2050.162	766.41667
2052.866	759.08333
2055.568	765.41667
2058.268	744.75
2060.967	768.75
2063.663	731.75
2066.358	746.08333
2069.051	735.41667
2071.742	743.08333
2074.431	747.41667
2077.118	742.08333
2079.804	730.41667
2082.487	749.41667
2085.169	742.08333
2087.849	757.08333
2090.527	733.75
2093.203	741.75
2095.877	746.41667
2098.55	750.75
2101.22	758.75
2103.889	757.08333
2106.556	753.75
2109.221	784.41667
2111.884	778.75
2114.546	832.41667
2117.205	873.75
2119.863	935.41667
2122.519	968.75
2125.173	1018.08333
2127.825	1076.08333
2130.475	1080.08333
2133.124	1043.08333
2135.771	1004.75
2138.416	966.75
2141.059	903.08333
2143.7	877.08333
2146.339	832.41667
2148.977	778.75
2151.613	787.08333
2154.247	768.75
2156.879	752.41667
2159.51	731.75
2162.138	718.41667
2164.765	715.08333
2167.39	703.75
2170.013	727.08333
2172.634	703.08333
2175.254	702.08333
2177.872	723.08333
2180.488	678.41667
2183.102	689.75
2185.714	678.75
2188.325	665.75
2190.934	669.41667
2193.541	679.41667
2196.146	657.75
2198.75	647.08333
2201.351	654.08333
2203.951	637.75
2206.549	654.41667
2209.146	643.41667
2211.74	638.75
2214.333	637.41667
2216.924	617.08333
2219.514	634.75
2222.101	627.75
2224.687	635.75
2227.271	626.41667
2229.853	611.41667
2232.433	608.41667
2235.012	628.41667
2237.589	628.41667
2240.164	630.41667
2242.738	615.08333
2245.309	596.75
2247.879	608.75
2250.448	617.41667
2253.014	606.75
2255.579	575.75
2258.142	603.75
2260.703	576.41667
2263.262	586.08333
2265.82	583.75
2268.376	574.41667
2270.93	563.75
2273.483	557.41667
2276.033	574.08333
2278.583	564.08333
2281.13	566.08333
2283.675	560.08333
2286.219	563.08333
2288.761	570.75
2291.302	564.08333
2293.841	568.41667
2296.377	550.08333
2298.913	548.08333
2301.446	560.41667
2303.978	552.75
2306.508	540.41667
2309.037	555.75
2311.563	546.75
2314.088	548.08333
2316.612	529.41667
2319.133	538.75
2321.653	538.75
2324.171	529.75
2326.688	553.75
2329.202	532.41667
2331.715	533.08333
2334.227	527.08333
2336.736	537.75
2339.244	526.08333
2341.751	515.75
2344.255	527.08333
2346.758	523.41667
2349.259	510.08333
2351.759	518.08333
2354.257	501.41667
2356.753	513.41667
2359.247	515.41667
2361.74	524.41667
2364.231	525.41667
2366.721	519.75
2369.209	505.75
2371.695	514.75
2374.179	512.41667
2376.662	499.41667
2379.143	520.41667
2381.622	497.75
2384.1	507.75
2386.576	498.75
2389.051	516.08333
2391.524	522.41667
2393.995	514.75
2396.464	508.08333
2398.932	502.75
2401.398	504.08333
2403.863	508.41667
2406.325	488.75
2408.787	502.08333
2411.246	491.75
2413.704	495.41667
2416.16	491.08333
2418.615	499.08333
2421.068	509.41667
2423.519	500.41667
2425.969	491.41667
2428.417	494.41667
2430.863	514.41667
2433.308	501.08333
2435.751	494.75
2438.193	489.41667
2440.633	487.08333
2443.071	494.75
2445.508	488.41667
2447.943	481.41667
2450.376	481.08333
2452.808	483.41667
2455.238	469.41667
2457.667	509.08333
2460.093	478.75
2462.519	472.08333
2464.942	487.41667
2467.365	482.75
2469.785	487.41667
2472.204	475.75
2474.621	472.41667
2477.037	490.08333
2479.451	472.08333
2481.863	465.41667
2484.274	471.41667
2486.683	475.41667
2489.091	488.41667
2491.497	479.08333
2493.901	475.08333
2496.304	469.75
2498.705	476.08333
2501.105	476.75
2503.503	497.08333
2505.899	461.08333
2508.294	477.41667
2510.687	480.41667
2513.079	476.41667
2515.469	454.41667
2517.858	465.08333
2520.245	466.75
2522.63	461.08333
2525.014	455.08333
2527.396	455.41667
2529.776	449.41667
2532.156	479.75
2534.533	453.75
2536.909	449.08333
2539.283	442.08333
2541.656	455.41667
2544.027	465.75
2546.397	454.08333
2548.765	454.08333
2551.131	461.08333
2553.496	448.75
2555.86	458.41667
2558.221	451.41667
2560.582	458.75
2562.94	448.08333
2565.298	457.08333
2567.653	473.41667
2570.007	439.75
2572.36	461.41667
2574.711	451.08333
2577.06	472.08333
2579.408	467.08333
2581.754	463.41667
2584.099	454.08333
2586.442	454.41667
2588.784	456.75
2591.124	461.75
2593.463	452.41667
2595.8	455.41667
2598.135	446.75
2600.469	443.75
2602.802	462.41667
2605.133	458.08333
2607.462	447.08333
2609.79	446.75
2612.116	459.41667
2614.441	452.75
2616.764	456.08333
2619.086	457.75
2621.406	446.08333
2623.725	468.41667
2626.042	463.41667
2628.358	455.41667
2630.672	449.08333
2632.985	463.75
2635.296	457.41667
2637.606	455.41667
2639.914	446.75
2642.22	442.41667
2644.525	458.75
2646.829	463.75
2649.131	468.08333
2651.432	473.08333
2653.731	461.75
2656.028	470.75
2658.324	472.08333
2660.619	457.08333
2662.912	470.08333
2665.204	459.75
2667.494	463.08333
2669.782	452.75
2672.07	461.41667
2674.355	475.08333
2676.639	467.75
2678.922	455.41667
2681.203	470.75
2683.483	454.75
2685.761	459.75
2688.038	478.08333
2690.313	481.75
2692.587	472.41667
2694.859	466.08333
2697.13	475.41667
2699.399	480.75
2701.667	481.08333
2703.933	479.75
2706.198	490.41667
2708.461	489.41667
2710.723	488.75
2712.984	490.75
2715.243	493.75
2717.5	488.08333
2719.757	498.75
2722.011	488.75
2724.264	499.75
2726.516	512.41667
2728.766	503.75
2731.015	508.08333
2733.262	505.08333
2735.508	500.75
2737.753	498.08333
2739.996	493.41667
2742.237	485.08333
2744.477	500.41667
2746.716	496.41667
2748.953	487.75
2751.189	496.41667
2753.423	493.41667
2755.656	466.41667
2757.887	487.41667
2760.117	473.41667
2762.346	472.08333
2764.573	460.08333
2766.798	467.75
2769.022	473.41667
2771.245	475.08333
2773.467	487.75
2775.686	486.41667
2777.905	482.41667
2780.122	499.41667
2782.337	495.75
2784.552	486.75
2786.764	494.08333
2788.976	491.41667
2791.186	501.75
2793.394	501.75
2795.601	506.75
2797.807	522.75
2800.011	531.41667
2802.214	525.75
2804.415	529.08333
2806.615	531.08333
2808.814	524.41667
2811.011	547.08333
2813.206	537.75
2815.401	553.08333
2817.594	562.08333
2819.785	567.75
2821.975	557.75
2824.164	568.08333
2826.351	585.75
2828.537	596.41667
2830.722	594.41667
2832.905	608.75
2835.086	635.75
2837.267	666.41667
2839.445	669.75
2841.623	692.75
2843.799	730.08333
2845.974	761.75
2848.147	788.75
2850.319	807.75
2852.489	846.41667
2854.659	852.41667
2856.826	865.75
2858.993	889.75
2861.158	867.08333
2863.321	876.08333
2865.483	895.41667
2867.644	882.41667
2869.804	885.75
2871.962	879.08333
2874.118	885.75
2876.274	870.08333
2878.428	872.08333
2880.58	875.75
2882.731	863.08333
2884.881	876.08333
2887.03	898.75
2889.177	880.08333
2891.322	903.75
2893.467	874.75
2895.61	897.41667
2897.751	917.08333
2899.892	895.75
2902.03	913.75
2904.168	922.75
2906.304	927.75
2908.439	949.75
2910.572	937.41667
2912.704	945.75
2914.835	928.75
2916.965	944.08333
2919.093	945.08333
2921.219	929.75
2923.345	950.08333
2925.469	917.08333
2927.591	907.08333
2929.712	888.41667
2931.832	880.41667
2933.951	869.75
2936.068	854.41667
2938.184	829.08333
2940.299	813.41667
2942.412	800.75
2944.524	762.41667
2946.634	753.08333
2948.744	704.08333
2950.851	739.75
2952.958	693.75
2955.063	691.41667
2957.167	686.41667
2959.269	656.08333
2961.371	689.08333
2963.471	638.08333
2965.569	650.41667
2967.666	614.75
2969.762	593.08333
2971.857	596.08333
2973.95	580.75
2976.042	574.08333
2978.133	562.08333
2980.222	542.08333
2982.31	537.41667
2984.396	513.08333
2986.482	528.75
2988.566	512.41667
2990.648	499.75
2992.73	502.08333
2994.81	498.41667
2996.889	509.08333
2998.966	496.75
3001.042	495.41667
3003.117	492.75
3005.191	490.08333
3007.263	484.08333
3009.334	474.75
3011.403	477.75
3013.472	459.08333
3015.539	467.41667
3017.604	470.75
3019.669	437.75
3021.732	441.41667
3023.794	452.08333
3025.854	440.08333
3027.914	439.08333
3029.971	445.08333
3032.028	436.08333
3034.083	435.75
3036.137	431.75
3038.19	419.41667
3040.242	413.41667
3042.292	395.75
3044.341	397.41667
3046.388	411.41667
3048.435	388.08333
3050.48	413.08333
3052.524	397.41667
3054.566	376.08333
3056.607	395.08333
3058.647	377.41667
3060.686	370.75
3062.723	351.75
3064.759	335.08333
3066.794	0.08333
3068.828	3.75
3070.86	2.41667
