-0.839	481.625
3.438	588.29167
7.711	184.29167
11.981	60.625
16.247	49.625
20.509	50.625
24.768	47.625
29.024	52.95833
33.276	45.29167
37.524	54.95833
41.769	47.95833
46.01	36.29167
50.247	46.625
54.481	60.95833
58.712	68.95833
62.939	52.29167
67.162	65.95833
71.382	58.29167
75.599	46.95833
79.812	63.625
84.021	80.625
88.227	65.625
92.429	59.625
96.628	54.95833
100.823	71.29167
105.015	76.625
109.204	68.29167
113.388	76.95833
117.57	77.29167
121.748	85.625
125.922	78.95833
130.093	100.29167
134.261	96.29167
138.425	102.95833
142.585	136.29167
146.742	126.95833
150.896	150.95833
155.046	191.29167
159.193	292.29167
163.336	483.95833
167.476	895.625
171.613	1643.29167
175.746	2770.95833
179.875	4126.29167
184.002	5425.95833
188.124	6369.29167
192.244	6698.625
196.36	6764.29167
200.472	6611.29167
204.581	6469.95833
208.687	6346.625
212.79	6340.625
216.889	6359.95833
220.984	6426.29167
225.077	6450.29167
229.165	6515.95833
233.251	6545.95833
237.333	6551.625
241.412	6495.29167
245.487	6459.29167
249.559	6401.95833
253.628	6392.625
257.694	6343.95833
261.756	6308.29167
265.814	6183.95833
269.87	6015.29167
273.922	5860.625
277.97	5725.625
282.016	5650.625
286.058	5736.625
290.097	5902.29167
294.132	5956.95833
298.164	5973.625
302.193	5652.29167
306.219	5285.625
310.241	4852.95833
314.26	4446.625
318.276	4128.29167
322.288	3910.95833
326.297	3705.95833
330.303	3591.95833
334.305	3503.95833
338.305	3441.95833
342.301	3387.95833
346.294	3376.95833
350.283	3361.29167
354.269	3322.95833
358.252	3280.95833
362.232	3301.29167
366.209	3254.625
370.182	3215.95833
374.152	3218.29167
378.119	3212.95833
382.083	3216.29167
386.043	3229.29167
390	3197.625
393.954	3196.625
397.905	3199.625
401.852	3170.29167
405.797	3138.29167
409.738	3130.29167
413.676	3129.625
417.61	3121.29167
421.542	3094.29167
425.47	3080.625
429.396	3085.29167
433.318	3060.29167
437.236	3051.95833
441.152	3084.95833
445.065	3030.95833
448.974	3038.95833
452.88	2972.29167
456.783	2961.95833
460.683	2952.625
464.58	2941.625
468.473	2979.29167
472.364	2981.29167
476.251	2982.29167
480.135	2992.625
484.016	3061.625
487.894	3073.95833
491.769	3107.625
495.641	3106.625
499.509	3091.95833
503.375	3085.29167
507.237	3063.95833
511.096	3057.95833
514.952	3114.29167
518.805	3165.29167
522.655	3198.29167
526.502	3121.625
530.346	3085.95833
534.187	3061.29167
538.024	3085.29167
541.859	3098.95833
545.69	3137.29167
549.519	3113.29167
553.344	3091.625
557.166	3029.29167
560.985	2998.29167
564.802	2964.625
568.615	2911.29167
572.425	2834.625
576.232	2805.95833
580.036	2825.95833
583.836	2841.29167
587.634	2851.29167
591.429	2879.29167
595.221	2918.95833
599.01	2958.95833
602.796	2984.95833
606.578	2991.29167
610.358	2997.625
614.135	2952.95833
617.909	2932.29167
621.679	2932.625
625.447	2906.625
629.212	2904.625
632.973	2913.29167
636.732	2897.625
640.488	2907.95833
644.241	2884.625
647.991	2869.95833
651.737	2878.625
655.481	2848.625
659.222	2845.29167
662.96	2821.625
666.695	2872.625
670.427	2884.625
674.156	2895.625
677.882	2871.95833
681.605	2897.625
685.325	2858.625
689.043	2864.625
692.757	2834.29167
696.468	2831.29167
700.177	2822.625
703.882	2798.95833
707.585	2795.625
711.284	2794.95833
714.981	2771.95833
718.675	2782.95833
722.366	2802.625
726.054	2772.29167
729.739	2764.625
733.421	2777.95833
737.1	2788.95833
740.777	2790.29167
744.45	2809.95833
748.121	2833.95833
751.789	2891.29167
755.453	2870.625
759.115	2891.625
762.774	2902.625
766.431	2918.625
770.084	2973.95833
773.734	2996.625
777.382	3040.625
781.027	3054.625
784.669	3081.29167
788.308	3099.95833
791.944	3106.625
795.577	3103.95833
799.208	3139.95833
802.835	3142.625
806.46	3152.29167
810.082	3177.29167
813.701	3172.29167
817.317	3215.29167
820.931	3194.625
824.542	3186.29167
828.149	3166.95833
831.754	3165.95833
835.357	3132.95833
838.956	3144.95833
842.553	3147.29167
846.146	3126.29167
849.737	3102.95833
853.326	3133.625
856.911	3129.95833
860.493	3150.95833
864.073	3168.29167
867.65	3194.29167
871.225	3234.95833
874.796	3222.95833
878.365	3234.625
881.931	3273.29167
885.494	3296.29167
889.054	3298.625
892.612	3274.29167
896.166	3248.95833
899.719	3212.625
903.268	3186.95833
906.814	3185.625
910.358	3131.625
913.899	3124.95833
917.438	3095.95833
920.973	3104.625
924.506	3143.29167
928.036	3188.95833
931.564	3232.29167
935.088	3279.625
938.61	3291.625
942.129	3331.625
945.646	3419.95833
949.16	3466.95833
952.671	3527.29167
956.179	3507.625
959.685	3479.95833
963.188	3435.625
966.688	3420.625
970.185	3336.29167
973.68	3224.95833
977.173	3203.625
980.662	3125.95833
984.149	3116.29167
987.633	3098.95833
991.114	3148.625
994.593	3216.95833
998.069	3314.29167
1001.542	3403.29167
1005.013	3362.625
1008.481	3206.29167
1011.947	3128.95833
1015.409	3103.29167
1018.869	3094.95833
1022.327	3101.29167
1025.782	3064.29167
1029.234	3066.29167
1032.683	3036.625
1036.13	2924.29167
1039.574	2839.625
1043.016	2746.625
1046.455	2712.29167
1049.891	2670.29167
1053.325	2692.95833
1056.756	2699.29167
1060.184	2725.29167
1063.61	2735.29167
1067.033	2750.29167
1070.454	2747.625
1073.872	2790.625
1077.287	2775.29167
1080.7	2788.625
1084.11	2759.29167
1087.517	2762.625
1090.922	2723.95833
1094.325	2712.625
1097.724	2692.625
1101.122	2699.29167
1104.516	2688.95833
1107.908	2667.625
1111.298	2720.29167
1114.684	2754.95833
1118.069	2799.95833
1121.45	2840.29167
1124.83	2797.29167
1128.206	2842.95833
1131.58	2890.95833
1134.951	2977.29167
1138.32	3075.29167
1141.687	3153.625
1145.05	3214.29167
1148.412	3228.29167
1151.77	3225.95833
1155.126	3221.95833
1158.48	3190.625
1161.831	3238.29167
1165.18	3224.625
1168.525	3291.625
1171.869	3292.95833
1175.21	3330.29167
1178.548	3320.95833
1181.884	3367.29167
1185.217	3407.95833
1188.548	3470.95833
1191.877	3527.625
1195.202	3648.625
1198.526	3748.29167
1201.846	3744.625
1205.165	3722.29167
1208.48	3712.625
1211.794	3693.95833
1215.104	3711.95833
1218.413	3690.29167
1221.719	3688.625
1225.022	3650.29167
1228.323	3590.95833
1231.621	3564.29167
1234.917	3697.29167
1238.21	3596.29167
1241.501	3516.95833
1244.79	3487.29167
1248.076	3501.29167
1251.359	3549.95833
1254.64	3623.625
1257.919	3620.625
1261.195	3703.29167
1264.468	3763.95833
1267.74	3836.29167
1271.008	3837.625
1274.275	3795.29167
1277.538	3783.95833
1280.8	3773.95833
1284.059	3743.625
1287.315	3834.29167
1290.569	3810.95833
1293.821	3848.95833
1297.07	3875.29167
1300.317	3853.625
1303.562	3865.29167
1306.803	3799.625
1310.043	3826.95833
1313.28	3750.29167
1316.515	3759.625
1319.747	3723.29167
1322.977	3684.29167
1326.204	3611.625
1329.429	3591.29167
1332.652	3559.625
1335.872	3545.29167
1339.09	3506.95833
1342.306	3461.29167
1345.519	3412.625
1348.729	3356.29167
1351.938	3348.95833
1355.144	3305.95833
1358.347	3262.29167
1361.548	3274.95833
1364.747	3242.625
1367.944	3224.95833
1371.138	3207.29167
1374.329	3228.625
1377.518	3280.29167
1380.705	3285.625
1383.89	3253.95833
1387.072	3142.625
1390.252	3024.29167
1393.429	2886.29167
1396.605	2819.95833
1399.777	2743.29167
1402.948	2712.625
1406.116	2689.95833
1409.282	2700.29167
1412.445	2698.95833
1415.606	2753.625
1418.765	2785.29167
1421.921	2838.95833
1425.075	2894.95833
1428.227	2984.29167
1431.376	3138.29167
1434.524	3247.95833
1437.668	3372.29167
1440.811	3392.625
1443.951	3440.95833
1447.089	3424.625
1450.224	3424.95833
1453.357	3417.29167
1456.488	3380.29167
1459.617	3324.95833
1462.743	3294.29167
1465.867	3199.29167
1468.989	3162.95833
1472.108	3100.625
1475.225	3036.29167
1478.34	2980.95833
1481.453	2997.625
1484.563	2989.95833
1487.671	3031.625
1490.776	3068.95833
1493.88	3124.95833
1496.981	3160.625
1500.08	3207.95833
1503.176	3263.29167
1506.271	3280.625
1509.363	3322.95833
1512.452	3345.29167
1515.54	3396.29167
1518.625	3448.95833
1521.708	3515.29167
1524.789	3620.95833
1527.867	3729.95833
1530.944	3947.625
1534.018	4078.625
1537.089	4289.29167
1540.159	4336.29167
1543.226	4320.95833
1546.291	4238.29167
1549.354	4111.95833
1552.415	4035.95833
1555.473	3942.95833
1558.529	3895.95833
1561.583	3791.29167
1564.634	3810.29167
1567.684	3767.95833
1570.731	3833.29167
1573.776	3837.29167
1576.819	3930.95833
1579.859	3947.625
1582.898	4012.29167
1585.934	4032.625
1588.968	4039.625
1591.999	4063.95833
1595.029	4072.29167
1598.056	4106.625
1601.081	4087.95833
1604.104	4095.95833
1607.125	4052.625
1610.144	3976.625
1613.16	3893.95833
1616.174	3803.95833
1619.186	3715.95833
1622.196	3622.29167
1625.203	3504.29167
1628.209	3481.625
1631.212	3424.95833
1634.213	3400.625
1637.212	3363.29167
1640.209	3280.29167
1643.203	3196.29167
1646.196	3101.95833
1649.186	2950.29167
1652.174	2852.625
1655.16	2745.29167
1658.144	2672.625
1661.125	2571.29167
1664.105	2459.625
1667.082	2344.625
1670.057	2242.95833
1673.03	2090.95833
1676.001	1969.29167
1678.97	1845.625
1681.937	1722.95833
1684.901	1630.625
1687.863	1582.625
1690.824	1492.95833
1693.782	1482.95833
1696.738	1421.29167
1699.692	1391.95833
1702.643	1332.95833
1705.593	1333.625
1708.54	1319.95833
1711.486	1310.29167
1714.429	1267.95833
1717.37	1273.29167
1720.309	1235.625
1723.246	1255.625
1726.181	1216.625
1729.113	1227.29167
1732.044	1202.29167
1734.972	1186.29167
1737.899	1202.95833
1740.823	1193.625
1743.745	1138.625
1746.665	1129.95833
1749.583	1130.29167
1752.499	1090.29167
1755.413	1098.625
1758.325	1062.625
1761.235	1048.29167
1764.142	1054.625
1767.048	1034.625
1769.951	1009.95833
1772.852	1021.29167
1775.752	1010.625
1778.649	1001.625
1781.544	1016.29167
1784.437	970.625
1787.328	997.625
1790.217	990.95833
1793.104	961.95833
1795.989	954.29167
1798.872	959.625
1801.753	973.625
1804.631	959.625
1807.508	965.625
1810.383	951.625
1813.255	946.29167
1816.126	953.29167
1818.994	941.95833
1821.861	930.29167
1824.725	933.625
1827.587	923.625
1830.448	916.29167
1833.306	901.29167
1836.162	911.29167
1839.017	900.29167
1841.869	894.29167
1844.719	905.29167
1847.567	884.95833
1850.414	877.95833
1853.258	874.95833
1856.1	882.625
1858.94	899.29167
1861.778	879.625
1864.614	867.29167
1867.448	866.29167
1870.28	864.95833
1873.111	884.625
1875.939	878.625
1878.765	881.625
1881.589	859.625
1884.411	859.625
1887.231	866.95833
1890.049	859.95833
1892.865	856.625
1895.68	844.625
1898.492	836.29167
1901.302	837.625
1904.11	826.95833
1906.916	832.95833
1909.721	815.29167
1912.523	843.625
1915.323	813.29167
1918.122	825.95833
1920.918	815.95833
1923.712	816.625
1926.505	795.625
1929.295	798.95833
1932.084	804.95833
1934.87	809.625
1937.655	803.29167
1940.438	792.95833
1943.218	797.625
1945.997	808.625
1948.774	808.625
1951.549	809.625
1954.322	778.625
1957.093	788.625
1959.862	776.95833
1962.629	780.95833
1965.394	776.29167
1968.157	779.95833
1970.918	778.29167
1973.678	759.625
1976.435	780.29167
1979.19	761.95833
1981.944	762.95833
1984.696	756.29167
1987.445	747.95833
1990.193	753.95833
1992.939	762.95833
1995.683	756.29167
1998.425	729.95833
2001.165	761.95833
2003.903	738.29167
2006.639	734.29167
2009.374	746.625
2012.106	754.95833
2014.837	724.29167
2017.566	747.29167
2020.292	734.29167
2023.017	743.95833
2025.74	721.29167
2028.461	723.95833
2031.18	731.29167
2033.898	712.625
2036.613	715.29167
2039.327	726.29167
2042.038	705.95833
2044.748	711.29167
2047.456	715.29167
2050.162	708.95833
2052.866	704.625
2055.568	716.29167
2058.268	697.625
2060.967	709.625
2063.663	688.625
2066.358	691.95833
2069.051	690.95833
2071.742	698.625
2074.431	705.625
2077.118	693.625
2079.804	690.29167
2082.487	684.625
2085.169	695.95833
2087.849	707.29167
2090.527	683.625
2093.203	686.29167
2095.877	709.29167
2098.55	708.625
2101.22	702.29167
2103.889	716.29167
2106.556	718.29167
2109.221	739.625
2111.884	730.29167
2114.546	782.95833
2117.205	810.625
2119.863	880.29167
2122.519	915.625
2125.173	986.95833
2127.825	1023.29167
2130.475	1039.95833
2133.124	994.625
2135.771	957.29167
2138.416	927.29167
2141.059	859.29167
2143.7	821.625
2146.339	784.625
2148.977	742.95833
2151.613	733.625
2154.247	725.29167
2156.879	708.625
2159.51	683.95833
2162.138	669.95833
2164.765	674.95833
2167.39	655.95833
2170.013	675.29167
2172.634	673.29167
2175.254	655.625
2177.872	686.625
2180.488	636.95833
2183.102	652.95833
2185.714	640.625
2188.325	612.29167
2190.934	632.95833
2193.541	642.29167
2196.146	626.29167
2198.75	614.29167
2201.351	606.625
2203.951	600.29167
2206.549	611.29167
2209.146	598.95833
2211.74	595.29167
2214.333	602.625
2216.924	574.625
2219.514	597.95833
2222.101	576.625
2224.687	600.95833
2227.271	582.29167
2229.853	574.95833
2232.433	572.29167
2235.012	593.95833
2237.589	584.95833
2240.164	591.29167
2242.738	572.625
2245.309	562.95833
2247.879	568.95833
2250.448	578.29167
2253.014	559.625
2255.579	539.625
2258.142	554.625
2260.703	541.29167
2263.262	560.95833
2265.82	536.625
2268.376	551.95833
2270.93	522.95833
2273.483	535.29167
2276.033	536.95833
2278.583	517.29167
2281.13	521.625
2283.675	523.625
2286.219	521.625
2288.761	522.95833
2291.302	521.29167
2293.841	529.95833
2296.377	502.95833
2298.913	510.95833
2301.446	534.29167
2303.978	517.625
2306.508	510.29167
2309.037	514.29167
2311.563	518.29167
2314.088	506.625
2316.612	497.625
2319.133	509.625
2321.653	505.29167
2324.171	496.95833
2326.688	519.29167
2329.202	500.95833
2331.715	495.625
2334.227	496.625
2336.736	497.29167
2339.244	491.29167
2341.751	482.95833
2344.255	498.625
2346.758	484.29167
2349.259	472.95833
2351.759	493.29167
2354.257	482.29167
2356.753	473.95833
2359.247	483.29167
2361.74	494.95833
2364.231	492.95833
2366.721	477.29167
2369.209	482.95833
2371.695	485.95833
2374.179	475.95833
2376.662	475.95833
2379.143	482.29167
2381.622	466.625
2384.1	485.95833
2386.576	474.29167
2389.051	479.95833
2391.524	502.29167
2393.995	480.95833
2396.464	470.29167
2398.932	474.95833
2401.398	465.625
2403.863	468.29167
2406.325	463.95833
2408.787	475.625
2411.246	473.95833
2413.704	465.95833
2416.16	460.95833
2418.615	470.95833
2421.068	478.95833
2423.519	475.29167
2425.969	459.625
2428.417	468.625
2430.863	486.29167
2433.308	466.95833
2435.751	484.625
2438.193	463.625
2440.633	474.95833
2443.071	466.625
2445.508	465.29167
2447.943	456.95833
2450.376	456.95833
2452.808	462.95833
2455.238	452.95833
2457.667	491.95833
2460.093	455.625
2462.519	448.29167
2464.942	449.625
2467.365	454.95833
2469.785	465.29167
2472.204	455.625
2474.621	446.29167
2477.037	469.625
2479.451	436.95833
2481.863	443.29167
2484.274	449.625
2486.683	456.95833
2489.091	456.29167
2491.497	458.625
2493.901	457.625
2496.304	450.29167
2498.705	456.29167
2501.105	453.625
2503.503	476.625
2505.899	438.625
2508.294	465.29167
2510.687	444.625
2513.079	454.29167
2515.469	433.29167
2517.858	443.625
2520.245	458.625
2522.63	439.625
2525.014	437.29167
2527.396	430.625
2529.776	427.625
2532.156	439.95833
2534.533	431.95833
2536.909	432.625
2539.283	411.625
2541.656	435.625
2544.027	442.95833
2546.397	438.625
2548.765	431.95833
2551.131	436.29167
2553.496	436.625
2555.86	440.95833
2558.221	435.29167
2560.582	435.625
2562.94	435.29167
2565.298	428.625
2567.653	454.95833
2570.007	426.95833
2572.36	440.95833
2574.711	423.95833
2577.06	445.95833
2579.408	439.95833
2581.754	434.625
2584.099	434.625
2586.442	424.625
2588.784	439.29167
2591.124	435.95833
2593.463	445.95833
2595.8	437.95833
2598.135	426.625
2600.469	428.625
2602.802	438.625
2605.133	442.95833
2607.462	426.29167
2609.79	414.29167
2612.116	437.95833
2614.441	439.95833
2616.764	433.625
2619.086	435.625
2621.406	421.29167
2623.725	453.625
2626.042	438.625
2628.358	432.625
2630.672	432.625
2632.985	448.29167
2635.296	442.29167
2637.606	434.625
2639.914	423.625
2642.22	437.95833
2644.525	434.29167
2646.829	448.29167
2649.131	447.29167
2651.432	454.625
2653.731	440.625
2656.028	464.625
2658.324	459.625
2660.619	435.95833
2662.912	456.625
2665.204	440.625
2667.494	449.95833
2669.782	445.29167
2672.07	454.29167
2674.355	455.29167
2676.639	453.625
2678.922	435.29167
2681.203	444.95833
2683.483	449.625
2685.761	438.29167
2688.038	461.95833
2690.313	466.95833
2692.587	462.95833
2694.859	452.29167
2697.13	458.95833
2699.399	467.95833
2701.667	475.95833
2703.933	467.625
2706.198	475.29167
2708.461	475.625
2710.723	476.95833
2712.984	475.95833
2715.243	487.625
2717.5	478.95833
2719.757	475.95833
2722.011	479.625
2724.264	496.95833
2726.516	497.29167
2728.766	482.29167
2731.015	492.625
2733.262	492.29167
2735.508	483.625
2737.753	488.95833
2739.996	472.29167
2742.237	480.29167
2744.477	484.625
2746.716	486.95833
2748.953	472.625
2751.189	492.29167
2753.423	466.95833
2755.656	466.29167
2757.887	464.625
2760.117	470.29167
2762.346	455.95833
2764.573	457.95833
2766.798	459.625
2769.022	462.95833
2771.245	464.29167
2773.467	468.29167
2775.686	473.625
2777.905	474.95833
2780.122	480.29167
2782.337	481.29167
2784.552	475.625
2786.764	483.29167
2788.976	493.29167
2791.186	484.625
2793.394	495.29167
2795.601	497.625
2797.807	513.625
2800.011	512.95833
2802.214	524.625
2804.415	516.95833
2806.615	511.625
2808.814	518.29167
2811.011	535.29167
2813.206	518.625
2815.401	542.95833
2817.594	539.95833
2819.785	556.95833
2821.975	543.625
2824.164	547.29167
2826.351	573.29167
2828.537	584.95833
2830.722	588.625
2832.905	595.29167
2835.086	627.29167
2837.267	652.95833
2839.445	672.625
2841.623	686.29167
2843.799	719.625
2845.974	733.29167
2848.147	784.95833
2850.319	798.95833
2852.489	828.625
2854.659	838.29167
2856.826	846.95833
2858.993	883.625
2861.158	856.29167
2863.321	878.625
2865.483	877.29167
2867.644	876.29167
2869.804	874.95833
2871.962	873.95833
2874.118	860.95833
2876.274	867.95833
2878.428	865.95833
2880.58	870.29167
2882.731	859.29167
2884.881	857.95833
2887.03	871.625
2889.177	863.29167
2891.322	884.625
2893.467	868.29167
2895.61	882.29167
2897.751	900.95833
2899.892	895.95833
2902.03	909.29167
2904.168	916.29167
2906.304	907.625
2908.439	930.625
2910.572	914.29167
2912.704	937.625
2914.835	920.625
2916.965	916.625
2919.093	928.95833
2921.219	916.29167
2923.345	941.95833
2925.469	899.29167
2927.591	896.29167
2929.712	868.625
2931.832	877.95833
2933.951	852.625
2936.068	845.95833
2938.184	830.625
2940.299	804.29167
2942.412	782.29167
2944.524	748.625
2946.634	746.95833
2948.744	704.29167
2950.851	735.95833
2952.958	689.29167
2955.063	687.625
2957.167	668.29167
2959.269	642.625
2961.371	658.625
2963.471	632.95833
2965.569	634.95833
2967.666	611.29167
2969.762	592.95833
2971.857	591.95833
2973.95	561.29167
2976.042	561.625
2978.133	547.95833
2980.222	537.29167
2982.31	521.95833
2984.396	506.95833
2986.482	511.29167
2988.566	499.625
2990.648	495.95833
2992.73	494.625
2994.81	486.625
2996.889	488.95833
2998.966	490.625
3001.042	480.625
3003.117	485.29167
3005.191	481.29167
3007.263	485.95833
3009.334	470.625
3011.403	463.625
3013.472	461.95833
3015.539	463.95833
3017.604	464.95833
3019.669	433.625
3021.732	431.625
3023.794	435.95833
3025.854	432.625
3027.914	435.625
3029.971	440.625
3032.028	434.625
3034.083	439.95833
3036.137	427.95833
3038.19	415.95833
3040.242	405.29167
3042.292	392.95833
3044.341	392.625
3046.388	411.625
3048.435	380.625
3050.48	401.29167
3052.524	389.95833
3054.566	371.95833
3056.607	379.95833
3058.647	370.625
3060.686	354.625
3062.723	348.95833
3064.759	336.95833
3066.794	-0.375
3068.828	2.29167
3070.86	3.625
