-0.839	612.66667
3.438	717.33333
7.711	209.66667
11.981	69
16.247	48
20.509	54.33333
24.768	46
29.024	59.33333
33.276	46.66667
37.524	54
41.769	49.33333
46.01	38
50.247	52.66667
54.481	58.66667
58.712	65
62.939	52
67.162	63
71.382	58.33333
75.599	54.33333
79.812	64.33333
84.021	85.66667
88.227	65.33333
92.429	64.66667
96.628	57.33333
100.823	77.33333
105.015	84.66667
109.204	73.33333
113.388	84
117.57	81.66667
121.748	90
125.922	88
130.093	108.33333
134.261	107.66667
138.425	107.33333
142.585	148.33333
146.742	143.33333
150.896	180
155.046	222
159.193	339.33333
163.336	569
167.476	1051
171.613	1969
175.746	3285
179.875	4943
184.002	6508.33333
188.124	7597.66667
192.244	7972.33333
196.36	7986.33333
200.472	7733.33333
204.581	7596.33333
208.687	7472
212.79	7406.66667
216.889	7392
220.984	7412
225.077	7485.33333
229.165	7499.33333
233.251	7522
237.333	7497.33333
241.412	7468.33333
245.487	7410
249.559	7305.66667
253.628	7314.33333
257.694	7227
261.756	7189.33333
265.814	7015
269.87	6871
273.922	6670.66667
277.97	6518.33333
282.016	6450.33333
286.058	6504
290.097	6610.66667
294.132	6729
298.164	6674.33333
302.193	6480.66667
306.219	6009.33333
310.241	5538.33333
314.26	5163.33333
318.276	4850.66667
322.288	4612.33333
326.297	4425
330.303	4325
334.305	4242.33333
338.305	4153.33333
342.301	4138.66667
346.294	4122.66667
350.283	4064
354.269	4042.33333
358.252	4037.33333
362.232	4040
366.209	3990
370.182	3956.33333
374.152	3928
378.119	3956.66667
382.083	3943.33333
386.043	3974
390	3943.66667
393.954	3956.33333
397.905	3952.33333
401.852	3931.33333
405.797	3911.33333
409.738	3915.66667
413.676	3908.33333
417.61	3921
421.542	3894.33333
425.47	3857
429.396	3827.66667
433.318	3815.66667
437.236	3814.66667
441.152	3857.33333
445.065	3795.66667
448.974	3783
452.88	3748
456.783	3739.33333
460.683	3766.33333
464.58	3746.66667
468.473	3757
472.364	3784.66667
476.251	3781.33333
480.135	3794.33333
484.016	3863.33333
487.894	3886.33333
491.769	3900
495.641	3909.66667
499.509	3894
503.375	3888
507.237	3869.33333
511.096	3855.66667
514.952	3876.33333
518.805	3898.66667
522.655	3889.33333
526.502	3873.33333
530.346	3840
534.187	3860.33333
538.024	3889
541.859	3910.66667
545.69	3932
549.519	3908
553.344	3883.66667
557.166	3838.66667
560.985	3791.33333
564.802	3740.33333
568.615	3680
572.425	3616.66667
576.232	3635
580.036	3599.33333
583.836	3599.33333
587.634	3632
591.429	3628.33333
595.221	3681.33333
599.01	3733.66667
602.796	3757.66667
606.578	3796
610.358	3783.33333
614.135	3752.66667
617.909	3729.66667
621.679	3707.66667
625.447	3696.33333
629.212	3696.33333
632.973	3675.66667
636.732	3676
640.488	3677
644.241	3669.66667
647.991	3639
651.737	3654.66667
655.481	3603
659.222	3611.66667
662.96	3628.66667
666.695	3649.33333
670.427	3679.66667
674.156	3660.33333
677.882	3647.33333
681.605	3651.66667
685.325	3606
689.043	3632
692.757	3593.66667
696.468	3600
700.177	3577.66667
703.882	3549
707.585	3520.66667
711.284	3540
714.981	3535
718.675	3506.66667
722.366	3509
726.054	3488
729.739	3497
733.421	3500
737.1	3489.66667
740.777	3549.33333
744.45	3533.66667
748.121	3567.33333
751.789	3589.66667
755.453	3603.33333
759.115	3636
762.774	3652
766.431	3651.66667
770.084	3677.66667
773.734	3722.66667
777.382	3739.33333
781.027	3732.66667
784.669	3764.66667
788.308	3782.66667
791.944	3760.66667
795.577	3793
799.208	3827.66667
802.835	3844
806.46	3873.66667
810.082	3857.33333
813.701	3870
817.317	3891.66667
820.931	3939.33333
824.542	3895.33333
828.149	3849.33333
831.754	3823.33333
835.357	3808
838.956	3808.33333
842.553	3803
846.146	3763.66667
849.737	3728
853.326	3774
856.911	3743.66667
860.493	3781.33333
864.073	3773.66667
867.65	3827.33333
871.225	3870.33333
874.796	3884
878.365	3846.66667
881.931	3877
885.494	3901
889.054	3937
892.612	3900.33333
896.166	3849.66667
899.719	3869
903.268	3805
906.814	3792.66667
910.358	3751.66667
913.899	3716
917.438	3687.33333
920.973	3688
924.506	3740.33333
928.036	3793.33333
931.564	3841.66667
935.088	3896.66667
938.61	3925.66667
942.129	3947.33333
945.646	4015.66667
949.16	4085.33333
952.671	4130
956.179	4135.66667
959.685	4097
963.188	4069.66667
966.688	4052.33333
970.185	3938
973.68	3850.33333
977.173	3770
980.662	3746.33333
984.149	3755.66667
987.633	3750.66667
991.114	3781
994.593	3829.66667
998.069	3925
1001.542	3972.66667
1005.013	3946.66667
1008.481	3754
1011.947	3731.66667
1015.409	3676
1018.869	3707.66667
1022.327	3694.33333
1025.782	3663
1029.234	3631.66667
1032.683	3586
1036.13	3454.33333
1039.574	3365.33333
1043.016	3291.66667
1046.455	3218
1049.891	3217.66667
1053.325	3209.33333
1056.756	3246.33333
1060.184	3250
1063.61	3265.66667
1067.033	3268.66667
1070.454	3278.33333
1073.872	3298
1077.287	3306.33333
1080.7	3285
1084.11	3288.66667
1087.517	3273.33333
1090.922	3208.33333
1094.325	3206.33333
1097.724	3176.33333
1101.122	3165.66667
1104.516	3162.33333
1107.908	3151.33333
1111.298	3204.33333
1114.684	3223.33333
1118.069	3262.33333
1121.45	3304.66667
1124.83	3308.33333
1128.206	3340
1131.58	3369.33333
1134.951	3438.33333
1138.32	3558.33333
1141.687	3650.33333
1145.05	3733.33333
1148.412	3728.33333
1151.77	3720.66667
1155.126	3684.66667
1158.48	3658.33333
1161.831	3654.33333
1165.18	3670.66667
1168.525	3741.33333
1171.869	3761.33333
1175.21	3785
1178.548	3829
1181.884	3892.33333
1185.217	3908.66667
1188.548	4008.66667
1191.877	4037.33333
1195.202	4155
1198.526	4212.33333
1201.846	4273.66667
1205.165	4248
1208.48	4255
1211.794	4217.66667
1215.104	4237
1218.413	4230.33333
1221.719	4208
1225.022	4180
1228.323	4091.33333
1231.621	4076.33333
1234.917	4053.66667
1238.21	4052.33333
1241.501	4027.66667
1244.79	4037.33333
1248.076	4044.66667
1251.359	4060.33333
1254.64	4143.33333
1257.919	4157.33333
1261.195	4238.33333
1264.468	4305.33333
1267.74	4339.66667
1271.008	4362.33333
1274.275	4354
1277.538	4335.33333
1280.8	4340
1284.059	4299
1287.315	4338.66667
1290.569	4346
1293.821	4360.33333
1297.07	4366.66667
1300.317	4363.33333
1303.562	4337
1306.803	4318.33333
1310.043	4290.33333
1313.28	4255
1316.515	4230.33333
1319.747	4219
1322.977	4157
1326.204	4144
1329.429	4076.33333
1332.652	4076.33333
1335.872	4035
1339.09	4013.33333
1342.306	3988.66667
1345.519	3962
1348.729	3879.33333
1351.938	3862.33333
1355.144	3820.66667
1358.347	3794
1361.548	3770
1364.747	3765.33333
1367.944	3721.66667
1371.138	3741.33333
1374.329	3754.33333
1377.518	3775
1380.705	3779.33333
1383.89	3754.33333
1387.072	3645.33333
1390.252	3529
1393.429	3392.66667
1396.605	3346
1399.777	3202.66667
1402.948	3208.33333
1406.116	3167.33333
1409.282	3168.66667
1412.445	3155
1415.606	3203
1418.765	3225.33333
1421.921	3293.33333
1425.075	3315.66667
1428.227	3446
1431.376	3587.66667
1434.524	3710
1437.668	3829.66667
1440.811	3833
1443.951	3861.66667
1447.089	3857.33333
1450.224	3871.66667
1453.357	3862.66667
1456.488	3824.66667
1459.617	3762.33333
1462.743	3708.66667
1465.867	3665
1468.989	3620.66667
1472.108	3544.33333
1475.225	3470
1478.34	3461.33333
1481.453	3402.33333
1484.563	3430
1487.671	3457.33333
1490.776	3504.33333
1493.88	3554.33333
1496.981	3600.33333
1500.08	3653.66667
1503.176	3703.33333
1506.271	3744.33333
1509.363	3789
1512.452	3829
1515.54	3862.66667
1518.625	3908.33333
1521.708	3997
1524.789	4105
1527.867	4256.66667
1530.944	4465.33333
1534.018	4640.33333
1537.089	4818
1540.159	4909.33333
1543.226	4891.66667
1546.291	4789
1549.354	4727.66667
1552.415	4595
1555.473	4503.66667
1558.529	4375
1561.583	4340
1564.634	4293
1567.684	4267
1570.731	4302
1573.776	4319.66667
1576.819	4387
1579.859	4437
1582.898	4484.66667
1585.934	4512.33333
1588.968	4530.66667
1591.999	4535.66667
1595.029	4540.33333
1598.056	4554
1601.081	4592.33333
1604.104	4567.66667
1607.125	4500.66667
1610.144	4413.66667
1613.16	4327
1616.174	4259.66667
1619.186	4174.33333
1622.196	4077.33333
1625.203	3987.66667
1628.209	3936.33333
1631.212	3921.66667
1634.213	3923.33333
1637.212	3919.33333
1640.209	3851.33333
1643.203	3733.66667
1646.196	3603
1649.186	3432.66667
1652.174	3320
1655.16	3221
1658.144	3123.33333
1661.125	3008.33333
1664.105	2869.66667
1667.082	2769.33333
1670.057	2636.66667
1673.03	2486.66667
1676.001	2337
1678.97	2180
1681.937	2046.33333
1684.901	1947
1687.863	1879.33333
1690.824	1789.66667
1693.782	1770.66667
1696.738	1708
1699.692	1664.66667
1702.643	1628.33333
1705.593	1609
1708.54	1593.33333
1711.486	1586
1714.429	1548
1717.37	1548.66667
1720.309	1502.66667
1723.246	1511.33333
1726.181	1492.66667
1729.113	1484.66667
1732.044	1473
1734.972	1435
1737.899	1456.66667
1740.823	1446
1743.745	1410.66667
1746.665	1412
1749.583	1390
1752.499	1356.66667
1755.413	1339.33333
1758.325	1319.66667
1761.235	1314
1764.142	1297
1767.048	1266.66667
1769.951	1267.66667
1772.852	1276.33333
1775.752	1258.66667
1778.649	1254.66667
1781.544	1267
1784.437	1220.66667
1787.328	1235
1790.217	1208.33333
1793.104	1199
1795.989	1213.66667
1798.872	1190.66667
1801.753	1219.33333
1804.631	1210.33333
1807.508	1202.66667
1810.383	1190.33333
1813.255	1186
1816.126	1189.66667
1818.994	1174
1821.861	1156.33333
1824.725	1168
1827.587	1173.66667
1830.448	1157.66667
1833.306	1127.66667
1836.162	1126
1839.017	1123
1841.869	1135.33333
1844.719	1118
1847.567	1117.33333
1850.414	1104.33333
1853.258	1099.33333
1856.1	1105.33333
1858.94	1114.33333
1861.778	1105.66667
1864.614	1086.33333
1867.448	1083
1870.28	1076.33333
1873.111	1113.33333
1875.939	1092
1878.765	1094.33333
1881.589	1087
1884.411	1071
1887.231	1079.66667
1890.049	1073.66667
1892.865	1070
1895.68	1058.33333
1898.492	1059
1901.302	1059
1904.11	1056.66667
1906.916	1038.66667
1909.721	1019.66667
1912.523	1042.33333
1915.323	1013.66667
1918.122	1023
1920.918	1015
1923.712	1002.33333
1926.505	997.66667
1929.295	999.33333
1932.084	1007.66667
1934.87	1009.33333
1937.655	1004.66667
1940.438	982
1943.218	986.66667
1945.997	998.33333
1948.774	994.33333
1951.549	1005.66667
1954.322	984.33333
1957.093	1002.33333
1959.862	986
1962.629	979
1965.394	971.66667
1968.157	958
1970.918	960.33333
1973.678	954.33333
1976.435	961.66667
1979.19	944.33333
1981.944	946
1984.696	938.33333
1987.445	922.33333
1990.193	937.66667
1992.939	935.33333
1995.683	920.66667
1998.425	908.33333
2001.165	948
2003.903	916
2006.639	918.33333
2009.374	928.33333
2012.106	916.33333
2014.837	892.66667
2017.566	900.66667
2020.292	916.66667
2023.017	921.33333
2025.74	908
2028.461	888
2031.18	898.33333
2033.898	880
2036.613	888.33333
2039.327	886.33333
2042.038	865.66667
2044.748	886.33333
2047.456	876
2050.162	859
2052.866	866.66667
2055.568	882
2058.268	853.33333
2060.967	873
2063.663	854.66667
2066.358	853.66667
2069.051	851.66667
2071.742	845.33333
2074.431	856.66667
2077.118	853
2079.804	833.33333
2082.487	834.66667
2085.169	847.66667
2087.849	869.66667
2090.527	844.33333
2093.203	854.33333
2095.877	858.33333
2098.55	865
2101.22	864
2103.889	878.33333
2106.556	865.66667
2109.221	904
2111.884	902.66667
2114.546	953
2117.205	988.66667
2119.863	1069.33333
2122.519	1113.33333
2125.173	1175.66667
2127.825	1239
2130.475	1264.33333
2133.124	1208.33333
2135.771	1161
2138.416	1116.66667
2141.059	1059.33333
2143.7	1004.33333
2146.339	944.33333
2148.977	895.66667
2151.613	894
2154.247	869.33333
2156.879	849
2159.51	832.33333
2162.138	825.66667
2164.765	815
2167.39	794.66667
2170.013	820
2172.634	799
2175.254	789.66667
2177.872	825.66667
2180.488	761.33333
2183.102	792
2185.714	754.66667
2188.325	749.66667
2190.934	760
2193.541	756
2196.146	741
2198.75	727.33333
2201.351	730
2203.951	715
2206.549	737
2209.146	726.66667
2211.74	719.66667
2214.333	723.33333
2216.924	694
2219.514	701
2222.101	704
2224.687	713
2227.271	691
2229.853	698
2232.433	681
2235.012	701
2237.589	703
2240.164	701
2242.738	686.33333
2245.309	679
2247.879	688
2250.448	687.33333
2253.014	654.33333
2255.579	654.66667
2258.142	660.66667
2260.703	651
2263.262	649.66667
2265.82	645.33333
2268.376	651
2270.93	634.66667
2273.483	630.33333
2276.033	650.66667
2278.583	620
2281.13	625.66667
2283.675	613.33333
2286.219	617
2288.761	623.66667
2291.302	622.33333
2293.841	638.66667
2296.377	601.66667
2298.913	619.33333
2301.446	625.66667
2303.978	615.66667
2306.508	602.66667
2309.037	600.66667
2311.563	604.66667
2314.088	607.66667
2316.612	581.66667
2319.133	603.33333
2321.653	591.33333
2324.171	575.33333
2326.688	604.66667
2329.202	589
2331.715	586.33333
2334.227	582.33333
2336.736	576
2339.244	578.66667
2341.751	558.66667
2344.255	585.33333
2346.758	575.66667
2349.259	557.33333
2351.759	569
2354.257	571.33333
2356.753	561
2359.247	563
2361.74	569
2364.231	565.66667
2366.721	560.33333
2369.209	555
2371.695	560.66667
2374.179	554.33333
2376.662	550.33333
2379.143	569.66667
2381.622	546
2384.1	565.66667
2386.576	544.66667
2389.051	565.33333
2391.524	569.66667
2393.995	559.66667
2396.464	549.33333
2398.932	545
2401.398	531
2403.863	542.66667
2406.325	522
2408.787	534.33333
2411.246	536.33333
2413.704	527.33333
2416.16	533.33333
2418.615	526.66667
2421.068	540.33333
2423.519	531.33333
2425.969	518
2428.417	521
2430.863	544.66667
2433.308	533.66667
2435.751	532.66667
2438.193	526.33333
2440.633	527
2443.071	535
2445.508	507.33333
2447.943	517.33333
2450.376	513
2452.808	508.66667
2455.238	507
2457.667	538.33333
2460.093	512.66667
2462.519	507.33333
2464.942	508.66667
2467.365	512.66667
2469.785	513
2472.204	499
2474.621	498
2477.037	523.33333
2479.451	497.66667
2481.863	487.66667
2484.274	498.66667
2486.683	500.66667
2489.091	504.66667
2491.497	497.33333
2493.901	508.33333
2496.304	493.66667
2498.705	505.66667
2501.105	493.33333
2503.503	522
2505.899	485.33333
2508.294	510
2510.687	492.66667
2513.079	484
2515.469	477.33333
2517.858	487.66667
2520.245	495.66667
2522.63	481.66667
2525.014	482.33333
2527.396	466.66667
2529.776	468.66667
2532.156	488.33333
2534.533	471.66667
2536.909	464
2539.283	470.33333
2541.656	464.66667
2544.027	480.33333
2546.397	478.66667
2548.765	467.33333
2551.131	471.33333
2553.496	467.33333
2555.86	479.33333
2558.221	481
2560.582	457.66667
2562.94	454.66667
2565.298	474.33333
2567.653	482.66667
2570.007	468.33333
2572.36	474.66667
2574.711	458.66667
2577.06	480
2579.408	478
2581.754	469
2584.099	458.33333
2586.442	465.66667
2588.784	469.33333
2591.124	476.66667
2593.463	463.33333
2595.8	464
2598.135	446.33333
2600.469	456.66667
2602.802	468
2605.133	471.33333
2607.462	450.33333
2609.79	460.66667
2612.116	463.66667
2614.441	457
2616.764	454
2619.086	456
2621.406	445
2623.725	475.33333
2626.042	472.33333
2628.358	442.33333
2630.672	450
2632.985	462.66667
2635.296	455.66667
2637.606	454.33333
2639.914	448
2642.22	452.33333
2644.525	456.33333
2646.829	462.33333
2649.131	477
2651.432	468.66667
2653.731	460
2656.028	475
2658.324	471.66667
2660.619	461.66667
2662.912	478
2665.204	449.33333
2667.494	466.66667
2669.782	454.33333
2672.07	474.66667
2674.355	478
2676.639	466
2678.922	457
2681.203	457.66667
2683.483	464.33333
2685.761	465.66667
2688.038	472.33333
2690.313	482.66667
2692.587	464.33333
2694.859	464.66667
2697.13	467.66667
2699.399	475.33333
2701.667	488.33333
2703.933	477.66667
2706.198	478.66667
2708.461	489.66667
2710.723	489.66667
2712.984	491.33333
2715.243	485
2717.5	488.33333
2719.757	505
2722.011	478.33333
2724.264	495
2726.516	507.33333
2728.766	490.66667
2731.015	498.66667
2733.262	501.33333
2735.508	508
2737.753	500.66667
2739.996	487
2742.237	476.66667
2744.477	492.66667
2746.716	495.33333
2748.953	491.33333
2751.189	496.66667
2753.423	473.66667
2755.656	481.33333
2757.887	458.66667
2760.117	473
2762.346	465.66667
2764.573	457.33333
2766.798	468
2769.022	470
2771.245	479.33333
2773.467	472.33333
2775.686	479
2777.905	468.33333
2780.122	487.33333
2782.337	490
2784.552	482.66667
2786.764	482.66667
2788.976	490.66667
2791.186	489
2793.394	504
2795.601	512
2797.807	512.33333
2800.011	523.33333
2802.214	517
2804.415	519.66667
2806.615	513.66667
2808.814	528.66667
2811.011	546.66667
2813.206	533.33333
2815.401	554.33333
2817.594	537
2819.785	558.66667
2821.975	561.33333
2824.164	564.66667
2826.351	581
2828.537	590.33333
2830.722	592.66667
2832.905	609.66667
2835.086	644
2837.267	664.33333
2839.445	678.33333
2841.623	703.66667
2843.799	728.66667
2845.974	754
2848.147	789
2850.319	807.33333
2852.489	838.66667
2854.659	836.33333
2856.826	860.66667
2858.993	896.66667
2861.158	872.33333
2863.321	876
2865.483	898.66667
2867.644	891
2869.804	879.33333
2871.962	878.33333
2874.118	886
2876.274	876
2878.428	876.33333
2880.58	868.33333
2882.731	864.33333
2884.881	860
2887.03	887.66667
2889.177	878.33333
2891.322	893.66667
2893.467	884.66667
2895.61	895.33333
2897.751	921
2899.892	903
2902.03	896.66667
2904.168	922
2906.304	924.66667
2908.439	955.33333
2910.572	936
2912.704	931
2914.835	948
2916.965	939
2919.093	959.33333
2921.219	941
2923.345	947.66667
2925.469	901.33333
2927.591	915.33333
2929.712	881
2931.832	876.66667
2933.951	852
2936.068	842.33333
2938.184	831
2940.299	802.33333
2942.412	780.33333
2944.524	756
2946.634	741.66667
2948.744	702
2950.851	722.33333
2952.958	677
2955.063	683.66667
2957.167	671
2959.269	629.66667
2961.371	660.33333
2963.471	615.33333
2965.569	623.33333
2967.666	595
2969.762	590
2971.857	577
2973.95	556
2976.042	545.33333
2978.133	534.66667
2980.222	525.66667
2982.31	509
2984.396	490.66667
2986.482	496.33333
2988.566	482.33333
2990.648	474.66667
2992.73	485
2994.81	461.33333
2996.889	462
2998.966	471.33333
3001.042	464.66667
3003.117	463.66667
3005.191	456.33333
3007.263	471
3009.334	447.66667
3011.403	451.66667
3013.472	433.33333
3015.539	436
3017.604	448.66667
3019.669	405.33333
3021.732	416.33333
3023.794	407.66667
3025.854	414.66667
3027.914	407.33333
3029.971	419.66667
3032.028	399
3034.083	409
3036.137	399
3038.19	380
3040.242	386.33333
3042.292	377.33333
3044.341	364
3046.388	384.66667
3048.435	362
3050.48	375.66667
3052.524	371.66667
3054.566	352.66667
3056.607	363.66667
3058.647	351.33333
3060.686	330
3062.723	324
3064.759	316.66667
3066.794	-1.66667
3068.828	1.66667
3070.86	4
