-0.839	505.20833
3.438	605.54167
7.711	185.20833
11.981	65.54167
16.247	50.875
20.509	53.54167
24.768	47.54167
29.024	60.20833
33.276	46.20833
37.524	53.54167
41.769	51.20833
46.01	37.20833
50.247	49.20833
54.481	67.20833
58.712	65.875
62.939	53.875
67.162	64.20833
71.382	63.20833
75.599	50.875
79.812	65.875
84.021	79.875
88.227	63.20833
92.429	62.875
96.628	56.20833
100.823	77.875
105.015	82.20833
109.204	69.54167
113.388	79.54167
117.57	78.54167
121.748	90.875
125.922	86.54167
130.093	103.54167
134.261	99.875
138.425	100.20833
142.585	145.875
146.742	136.875
150.896	159.875
155.046	193.54167
159.193	305.20833
163.336	519.20833
167.476	923.54167
171.613	1723.875
175.746	2939.54167
179.875	4382.54167
184.002	5804.54167
188.124	6839.54167
192.244	7229.875
196.36	7266.54167
200.472	7193.20833
204.581	7042.875
208.687	7001.20833
212.79	6955.875
216.889	6993.875
220.984	7076.54167
225.077	7142.875
229.165	7154.20833
233.251	7240.54167
237.333	7224.54167
241.412	7188.20833
245.487	7143.875
249.559	7118.20833
253.628	7056.20833
257.694	7042.54167
261.756	7023.20833
265.814	6923.54167
269.87	6727.20833
273.922	6569.875
277.97	6405.20833
282.016	6353.20833
286.058	6407.875
290.097	6553.54167
294.132	6692.875
298.164	6668.54167
302.193	6440.54167
306.219	6002.875
310.241	5528.20833
314.26	5117.875
318.276	4775.54167
322.288	4550.20833
326.297	4349.875
330.303	4254.20833
334.305	4158.20833
338.305	4098.54167
342.301	4066.20833
346.294	4024.875
350.283	4035.20833
354.269	4023.20833
358.252	3988.54167
362.232	3972.875
366.209	3939.20833
370.182	3924.20833
374.152	3908.875
378.119	3959.875
382.083	3909.54167
386.043	3930.875
390	3902.54167
393.954	3909.20833
397.905	3913.20833
401.852	3894.875
405.797	3867.54167
409.738	3860.875
413.676	3877.54167
417.61	3873.20833
421.542	3856.20833
425.47	3820.875
429.396	3806.875
433.318	3788.875
437.236	3786.20833
441.152	3807.875
445.065	3745.54167
448.974	3784.875
452.88	3731.875
456.783	3710.20833
460.683	3706.20833
464.58	3747.54167
468.473	3730.54167
472.364	3755.20833
476.251	3755.875
480.135	3778.20833
484.016	3841.54167
487.894	3873.54167
491.769	3865.875
495.641	3908.20833
499.509	3884.54167
503.375	3851.875
507.237	3872.875
511.096	3865.54167
514.952	3857.54167
518.805	3931.54167
522.655	3976.875
526.502	3863.875
530.346	3829.54167
534.187	3812.54167
538.024	3866.875
541.859	3864.54167
545.69	3909.875
549.519	3822.20833
553.344	3829.54167
557.166	3782.875
560.985	3757.54167
564.802	3700.20833
568.615	3625.875
572.425	3599.54167
576.232	3573.875
580.036	3557.54167
583.836	3578.20833
587.634	3571.875
591.429	3600.54167
595.221	3693.20833
599.01	3702.20833
602.796	3735.875
606.578	3754.20833
610.358	3754.875
614.135	3710.54167
617.909	3694.54167
621.679	3692.20833
625.447	3664.875
629.212	3630.54167
632.973	3620.54167
636.732	3632.54167
640.488	3603.875
644.241	3582.875
647.991	3616.20833
651.737	3627.20833
655.481	3586.20833
659.222	3566.20833
662.96	3614.20833
666.695	3607.875
670.427	3614.20833
674.156	3638.54167
677.882	3617.875
681.605	3604.875
685.325	3560.875
689.043	3576.54167
692.757	3525.54167
696.468	3546.20833
700.177	3549.20833
703.882	3499.875
707.585	3464.875
711.284	3486.875
714.981	3489.875
718.675	3474.54167
722.366	3477.20833
726.054	3481.20833
729.739	3449.875
733.421	3466.20833
737.1	3449.20833
740.777	3484.54167
744.45	3505.54167
748.121	3499.875
751.789	3569.20833
755.453	3563.20833
759.115	3559.54167
762.774	3601.54167
766.431	3618.54167
770.084	3644.54167
773.734	3659.20833
777.382	3699.875
781.027	3708.54167
784.669	3707.54167
788.308	3714.875
791.944	3739.54167
795.577	3770.20833
799.208	3805.875
802.835	3815.875
806.46	3827.20833
810.082	3850.20833
813.701	3862.20833
817.317	3916.54167
820.931	3911.875
824.542	3855.875
828.149	3799.20833
831.754	3791.875
835.357	3766.54167
838.956	3755.54167
842.553	3755.54167
846.146	3707.20833
849.737	3710.875
853.326	3686.54167
856.911	3683.875
860.493	3716.875
864.073	3723.20833
867.65	3756.20833
871.225	3795.875
874.796	3779.20833
878.365	3793.54167
881.931	3805.20833
885.494	3853.54167
889.054	3858.875
892.612	3820.54167
896.166	3789.20833
899.719	3755.20833
903.268	3720.875
906.814	3726.875
910.358	3700.875
913.899	3646.875
917.438	3626.875
920.973	3636.20833
924.506	3690.875
928.036	3745.54167
931.564	3798.875
935.088	3852.54167
938.61	3850.875
942.129	3896.20833
945.646	3984.20833
949.16	4017.54167
952.671	4105.875
956.179	4113.54167
959.685	4062.875
963.188	4068.54167
966.688	4031.54167
970.185	3928.20833
973.68	3804.875
977.173	3736.875
980.662	3695.20833
984.149	3681.54167
987.633	3649.875
991.114	3732.20833
994.593	3792.54167
998.069	3860.875
1001.542	3928.54167
1005.013	3890.875
1008.481	3729.875
1011.947	3665.54167
1015.409	3619.20833
1018.869	3625.20833
1022.327	3601.54167
1025.782	3582.875
1029.234	3599.875
1032.683	3527.875
1036.13	3436.20833
1039.574	3318.54167
1043.016	3254.875
1046.455	3164.20833
1049.891	3164.54167
1053.325	3172.875
1056.756	3173.54167
1060.184	3214.20833
1063.61	3203.20833
1067.033	3220.20833
1070.454	3216.875
1073.872	3254.875
1077.287	3253.20833
1080.7	3260.875
1084.11	3245.54167
1087.517	3223.20833
1090.922	3180.54167
1094.325	3138.20833
1097.724	3117.54167
1101.122	3097.54167
1104.516	3118.875
1107.908	3110.20833
1111.298	3152.20833
1114.684	3176.20833
1118.069	3217.20833
1121.45	3242.875
1124.83	3227.54167
1128.206	3240.875
1131.58	3311.20833
1134.951	3382.875
1138.32	3450.875
1141.687	3587.875
1145.05	3623.54167
1148.412	3650.54167
1151.77	3622.20833
1155.126	3592.875
1158.48	3572.54167
1161.831	3591.54167
1165.18	3589.20833
1168.525	3617.54167
1171.869	3656.54167
1175.21	3683.20833
1178.548	3692.54167
1181.884	3757.20833
1185.217	3791.20833
1188.548	3892.54167
1191.877	3945.875
1195.202	4046.20833
1198.526	4103.54167
1201.846	4160.20833
1205.165	4144.54167
1208.48	4133.875
1211.794	4127.875
1215.104	4127.54167
1218.413	4135.20833
1221.719	4117.20833
1225.022	4075.20833
1228.323	4024.20833
1231.621	3965.875
1234.917	3927.20833
1238.21	3935.54167
1241.501	3914.875
1244.79	3907.20833
1248.076	3926.54167
1251.359	3936.54167
1254.64	4016.54167
1257.919	4027.20833
1261.195	4122.54167
1264.468	4168.54167
1267.74	4242.20833
1271.008	4257.20833
1274.275	4217.54167
1277.538	4217.20833
1280.8	4177.54167
1284.059	4181.20833
1287.315	4249.875
1290.569	4231.875
1293.821	4248.20833
1297.07	4257.20833
1300.317	4259.20833
1303.562	4216.875
1306.803	4202.20833
1310.043	4181.875
1313.28	4170.20833
1316.515	4157.20833
1319.747	4097.875
1322.977	4076.875
1326.204	4044.20833
1329.429	4002.875
1332.652	4011.20833
1335.872	3977.875
1339.09	3927.20833
1342.306	3887.875
1345.519	3856.54167
1348.729	3807.875
1351.938	3808.54167
1355.144	3744.54167
1358.347	3699.875
1361.548	3697.20833
1364.747	3684.54167
1367.944	3646.20833
1371.138	3642.20833
1374.329	3632.20833
1377.518	3671.20833
1380.705	3660.20833
1383.89	3651.20833
1387.072	3576.20833
1390.252	3455.875
1393.429	3300.875
1396.605	3203.54167
1399.777	3128.875
1402.948	3115.20833
1406.116	3077.54167
1409.282	3025.54167
1412.445	3068.54167
1415.606	3101.875
1418.765	3126.875
1421.921	3189.20833
1425.075	3235.20833
1428.227	3364.20833
1431.376	3492.875
1434.524	3618.54167
1437.668	3732.54167
1440.811	3763.20833
1443.951	3777.20833
1447.089	3794.20833
1450.224	3820.875
1453.357	3787.54167
1456.488	3756.54167
1459.617	3696.875
1462.743	3633.54167
1465.867	3563.875
1468.989	3524.54167
1472.108	3446.54167
1475.225	3394.875
1478.34	3332.875
1481.453	3334.54167
1484.563	3320.875
1487.671	3370.54167
1490.776	3394.875
1493.88	3451.875
1496.981	3470.54167
1500.08	3523.54167
1503.176	3573.875
1506.271	3575.20833
1509.363	3638.875
1512.452	3679.875
1515.54	3760.875
1518.625	3755.20833
1521.708	3825.20833
1524.789	3950.875
1527.867	4113.875
1530.944	4291.54167
1534.018	4450.20833
1537.089	4611.54167
1540.159	4646.20833
1543.226	4658.20833
1546.291	4552.54167
1549.354	4467.54167
1552.415	4359.20833
1555.473	4243.20833
1558.529	4187.875
1561.583	4116.54167
1564.634	4079.875
1567.684	4067.20833
1570.731	4108.875
1573.776	4133.875
1576.819	4215.875
1579.859	4254.875
1582.898	4291.875
1585.934	4328.20833
1588.968	4359.875
1591.999	4324.54167
1595.029	4349.20833
1598.056	4370.875
1601.081	4386.54167
1604.104	4378.875
1607.125	4345.20833
1610.144	4255.20833
1613.16	4178.875
1616.174	4142.54167
1619.186	4034.54167
1622.196	3944.54167
1625.203	3879.20833
1628.209	3826.20833
1631.212	3823.875
1634.213	3835.875
1637.212	3843.875
1640.209	3777.20833
1643.203	3688.875
1646.196	3564.875
1649.186	3385.20833
1652.174	3271.54167
1655.16	3137.875
1658.144	3075.20833
1661.125	2958.20833
1664.105	2808.875
1667.082	2698.54167
1670.057	2558.875
1673.03	2387.875
1676.001	2256.54167
1678.97	2119.875
1681.937	1987.875
1684.901	1875.875
1687.863	1826.875
1690.824	1758.54167
1693.782	1706.875
1696.738	1634.20833
1699.692	1601.875
1702.643	1580.875
1705.593	1556.875
1708.54	1548.54167
1711.486	1549.20833
1714.429	1484.20833
1717.37	1484.20833
1720.309	1460.54167
1723.246	1473.875
1726.181	1463.875
1729.113	1461.875
1732.044	1416.875
1734.972	1435.875
1737.899	1429.875
1740.823	1420.54167
1743.745	1378.20833
1746.665	1374.875
1749.583	1341.54167
1752.499	1331.54167
1755.413	1310.875
1758.325	1285.20833
1761.235	1288.20833
1764.142	1265.54167
1767.048	1253.20833
1769.951	1253.20833
1772.852	1246.875
1775.752	1232.875
1778.649	1222.20833
1781.544	1231.54167
1784.437	1201.20833
1787.328	1211.54167
1790.217	1208.20833
1793.104	1175.875
1795.989	1178.20833
1798.872	1164.875
1801.753	1181.54167
1804.631	1172.54167
1807.508	1188.20833
1810.383	1167.54167
1813.255	1164.54167
1816.126	1164.20833
1818.994	1144.54167
1821.861	1128.875
1824.725	1142.20833
1827.587	1135.20833
1830.448	1119.54167
1833.306	1113.20833
1836.162	1119.20833
1839.017	1107.54167
1841.869	1107.54167
1844.719	1093.54167
1847.567	1087.20833
1850.414	1074.20833
1853.258	1071.875
1856.1	1089.875
1858.94	1088.20833
1861.778	1070.54167
1864.614	1069.54167
1867.448	1051.875
1870.28	1066.875
1873.111	1087.875
1875.939	1060.20833
1878.765	1072.875
1881.589	1045.54167
1884.411	1063.20833
1887.231	1064.54167
1890.049	1041.54167
1892.865	1049.20833
1895.68	1040.20833
1898.492	1042.20833
1901.302	1028.54167
1904.11	1028.875
1906.916	1019.875
1909.721	996.20833
1912.523	1000.875
1915.323	999.54167
1918.122	1004.20833
1920.918	1006.20833
1923.712	978.54167
1926.505	979.20833
1929.295	978.875
1932.084	996.54167
1934.87	984.875
1937.655	976.20833
1940.438	981.20833
1943.218	988.54167
1945.997	973.54167
1948.774	993.54167
1951.549	986.875
1954.322	964.20833
1957.093	969.20833
1959.862	944.20833
1962.629	953.54167
1965.394	946.875
1968.157	935.54167
1970.918	927.875
1973.678	912.20833
1976.435	942.54167
1979.19	926.54167
1981.944	902.875
1984.696	924.875
1987.445	905.54167
1990.193	921.20833
1992.939	916.20833
1995.683	908.875
1998.425	909.54167
2001.165	914.875
2003.903	888.20833
2006.639	896.20833
2009.374	900.875
2012.106	902.20833
2014.837	882.54167
2017.566	893.20833
2020.292	895.20833
2023.017	891.875
2025.74	894.20833
2028.461	868.54167
2031.18	882.54167
2033.898	877.54167
2036.613	864.875
2039.327	890.20833
2042.038	862.54167
2044.748	863.20833
2047.456	861.54167
2050.162	853.54167
2052.866	859.20833
2055.568	860.875
2058.268	848.54167
2060.967	855.875
2063.663	836.875
2066.358	842.875
2069.051	825.54167
2071.742	827.875
2074.431	833.20833
2077.118	830.54167
2079.804	821.875
2082.487	839.54167
2085.169	836.54167
2087.849	850.54167
2090.527	831.875
2093.203	828.54167
2095.877	834.54167
2098.55	829.20833
2101.22	829.875
2103.889	857.54167
2106.556	851.20833
2109.221	866.875
2111.884	862.875
2114.546	898.54167
2117.205	939.875
2119.863	994.875
2122.519	1025.20833
2125.173	1096.875
2127.825	1163.20833
2130.475	1154.20833
2133.124	1113.54167
2135.771	1073.54167
2138.416	1066.54167
2141.059	986.20833
2143.7	962.875
2146.339	904.20833
2148.977	863.54167
2151.613	852.54167
2154.247	841.54167
2156.879	821.875
2159.51	805.875
2162.138	794.54167
2164.765	798.20833
2167.39	783.54167
2170.013	791.54167
2172.634	775.20833
2175.254	771.20833
2177.872	799.54167
2180.488	753.54167
2183.102	755.875
2185.714	743.20833
2188.325	727.20833
2190.934	742.875
2193.541	739.875
2196.146	735.20833
2198.75	711.20833
2201.351	710.875
2203.951	702.875
2206.549	716.54167
2209.146	704.54167
2211.74	697.875
2214.333	704.20833
2216.924	689.20833
2219.514	701.54167
2222.101	679.20833
2224.687	696.20833
2227.271	684.20833
2229.853	682.20833
2232.433	656.20833
2235.012	696.54167
2237.589	681.875
2240.164	695.875
2242.738	672.54167
2245.309	677.875
2247.879	678.54167
2250.448	675.875
2253.014	655.20833
2255.579	638.875
2258.142	647.20833
2260.703	637.20833
2263.262	638.54167
2265.82	636.20833
2268.376	637.54167
2270.93	610.54167
2273.483	623.54167
2276.033	631.54167
2278.583	622.875
2281.13	626.20833
2283.675	607.20833
2286.219	616.54167
2288.761	611.875
2291.302	624.875
2293.841	625.875
2296.377	601.20833
2298.913	604.54167
2301.446	610.875
2303.978	607.54167
2306.508	598.875
2309.037	599.20833
2311.563	608.54167
2314.088	600.54167
2316.612	580.54167
2319.133	589.875
2321.653	588.875
2324.171	583.20833
2326.688	599.54167
2329.202	585.54167
2331.715	582.54167
2334.227	574.54167
2336.736	576.54167
2339.244	577.54167
2341.751	571.54167
2344.255	582.54167
2346.758	567.875
2349.259	557.54167
2351.759	575.875
2354.257	557.875
2356.753	557.20833
2359.247	567.20833
2361.74	570.20833
2364.231	567.20833
2366.721	555.875
2369.209	553.54167
2371.695	560.20833
2374.179	550.54167
2376.662	545.875
2379.143	558.875
2381.622	553.875
2384.1	555.54167
2386.576	545.875
2389.051	560.20833
2391.524	565.54167
2393.995	556.54167
2396.464	556.20833
2398.932	543.54167
2401.398	541.54167
2403.863	548.20833
2406.325	530.54167
2408.787	546.54167
2411.246	540.20833
2413.704	530.875
2416.16	525.54167
2418.615	535.875
2421.068	539.20833
2423.519	544.20833
2425.969	534.875
2428.417	540.20833
2430.863	544.54167
2433.308	544.20833
2435.751	533.20833
2438.193	537.54167
2440.633	532.875
2443.071	536.20833
2445.508	525.20833
2447.943	518.54167
2450.376	516.20833
2452.808	538.54167
2455.238	521.54167
2457.667	552.54167
2460.093	523.54167
2462.519	512.20833
2464.942	523.20833
2467.365	518.54167
2469.785	525.20833
2472.204	518.20833
2474.621	516.20833
2477.037	526.20833
2479.451	493.54167
2481.863	495.875
2484.274	508.20833
2486.683	501.54167
2489.091	523.875
2491.497	506.875
2493.901	508.20833
2496.304	506.20833
2498.705	514.875
2501.105	502.875
2503.503	534.20833
2505.899	489.875
2508.294	524.54167
2510.687	499.20833
2513.079	508.54167
2515.469	493.875
2517.858	493.875
2520.245	507.54167
2522.63	493.875
2525.014	487.875
2527.396	481.875
2529.776	484.20833
2532.156	511.20833
2534.533	485.54167
2536.909	476.875
2539.283	469.20833
2541.656	490.875
2544.027	504.875
2546.397	480.875
2548.765	482.54167
2551.131	478.875
2553.496	480.875
2555.86	494.54167
2558.221	496.54167
2560.582	480.875
2562.94	462.54167
2565.298	481.20833
2567.653	493.54167
2570.007	469.20833
2572.36	496.54167
2574.711	477.875
2577.06	493.875
2579.408	486.54167
2581.754	488.20833
2584.099	496.875
2586.442	480.875
2588.784	488.875
2591.124	490.875
2593.463	479.54167
2595.8	488.54167
2598.135	479.54167
2600.469	477.20833
2602.802	489.54167
2605.133	498.54167
2607.462	478.20833
2609.79	467.20833
2612.116	482.875
2614.441	485.54167
2616.764	479.20833
2619.086	486.54167
2621.406	458.20833
2623.725	492.54167
2626.042	483.875
2628.358	475.875
2630.672	478.20833
2632.985	494.54167
2635.296	488.875
2637.606	481.20833
2639.914	465.875
2642.22	475.54167
2644.525	475.54167
2646.829	484.875
2649.131	486.54167
2651.432	491.54167
2653.731	481.20833
2656.028	490.54167
2658.324	500.20833
2660.619	490.20833
2662.912	501.875
2665.204	478.20833
2667.494	493.54167
2669.782	479.54167
2672.07	491.875
2674.355	498.875
2676.639	493.20833
2678.922	482.20833
2681.203	488.875
2683.483	470.875
2685.761	478.875
2688.038	504.20833
2690.313	505.20833
2692.587	503.54167
2694.859	491.875
2697.13	502.54167
2699.399	506.54167
2701.667	516.875
2703.933	499.54167
2706.198	507.875
2708.461	510.54167
2710.723	515.20833
2712.984	514.875
2715.243	522.875
2717.5	502.54167
2719.757	533.54167
2722.011	515.875
2724.264	520.875
2726.516	535.20833
2728.766	529.875
2731.015	527.54167
2733.262	522.20833
2735.508	529.875
2737.753	523.20833
2739.996	515.20833
2742.237	521.20833
2744.477	529.54167
2746.716	521.20833
2748.953	511.54167
2751.189	517.875
2753.423	512.20833
2755.656	497.875
2757.887	485.875
2760.117	506.54167
2762.346	490.54167
2764.573	485.20833
2766.798	494.20833
2769.022	500.54167
2771.245	493.54167
2773.467	501.20833
2775.686	503.20833
2777.905	510.875
2780.122	515.54167
2782.337	513.54167
2784.552	514.20833
2786.764	509.20833
2788.976	515.875
2791.186	525.20833
2793.394	524.54167
2795.601	534.54167
2797.807	541.20833
2800.011	549.54167
2802.214	536.54167
2804.415	545.875
2806.615	552.20833
2808.814	543.20833
2811.011	551.875
2813.206	559.20833
2815.401	573.54167
2817.594	576.54167
2819.785	577.54167
2821.975	576.54167
2824.164	574.20833
2826.351	587.875
2828.537	608.54167
2830.722	613.875
2832.905	630.54167
2835.086	656.54167
2837.267	688.875
2839.445	705.20833
2841.623	707.20833
2843.799	739.20833
2845.974	773.54167
2848.147	803.875
2850.319	836.875
2852.489	861.875
2854.659	874.875
2856.826	873.20833
2858.993	918.20833
2861.158	896.20833
2863.321	912.20833
2865.483	914.875
2867.644	921.54167
2869.804	911.875
2871.962	912.875
2874.118	899.20833
2876.274	905.875
2878.428	898.875
2880.58	897.20833
2882.731	899.54167
2884.881	897.54167
2887.03	904.875
2889.177	893.54167
2891.322	910.875
2893.467	899.875
2895.61	905.875
2897.751	928.54167
2899.892	930.20833
2902.03	927.20833
2904.168	933.20833
2906.304	931.20833
2908.439	961.20833
2910.572	948.875
2912.704	958.20833
2914.835	969.875
2916.965	960.875
2919.093	979.875
2921.219	953.54167
2923.345	961.54167
2925.469	931.875
2927.591	942.54167
2929.712	915.20833
2931.832	911.875
2933.951	887.875
2936.068	882.875
2938.184	851.20833
2940.299	824.20833
2942.412	821.875
2944.524	775.875
2946.634	782.54167
2948.744	732.875
2950.851	751.875
2952.958	709.875
2955.063	721.54167
2957.167	697.875
2959.269	675.875
2961.371	700.875
2963.471	654.20833
2965.569	655.20833
2967.666	623.54167
2969.762	633.54167
2971.857	610.875
2973.95	587.20833
2976.042	588.875
2978.133	580.20833
2980.222	563.875
2982.31	549.20833
2984.396	529.20833
2986.482	525.20833
2988.566	526.20833
2990.648	533.875
2992.73	515.20833
2994.81	506.20833
2996.889	513.875
2998.966	501.20833
3001.042	511.875
3003.117	493.875
3005.191	504.54167
3007.263	493.54167
3009.334	497.54167
3011.403	495.875
3013.472	478.875
3015.539	482.875
3017.604	488.875
3019.669	455.875
3021.732	451.875
3023.794	457.875
3025.854	451.54167
3027.914	444.875
3029.971	455.54167
3032.028	446.54167
3034.083	450.20833
3036.137	447.875
3038.19	430.54167
3040.242	422.20833
3042.292	411.20833
3044.341	409.54167
3046.388	416.875
3048.435	399.875
3050.48	412.54167
3052.524	402.54167
3054.566	392.20833
3056.607	407.54167
3058.647	387.20833
3060.686	376.20833
3062.723	356.54167
3064.759	343.54167
3066.794	0.20833
3068.828	3.54167
3070.86	2.875
