-0.839	651.79167
3.438	753.125
7.711	225.45833
11.981	66.79167
16.247	41.45833
20.509	50.45833
24.768	49.45833
29.024	50.79167
33.276	47.79167
37.524	47.45833
41.769	49.125
46.01	33.45833
50.247	48.79167
54.481	63.45833
58.712	64.79167
62.939	51.79167
67.162	66.45833
71.382	59.45833
75.599	48.125
79.812	69.79167
84.021	81.125
88.227	63.125
92.429	59.79167
96.628	52.125
100.823	74.45833
105.015	81.45833
109.204	74.125
113.388	79.45833
117.57	80.125
121.748	88.79167
125.922	85.125
130.093	103.45833
134.261	102.45833
138.425	100.125
142.585	147.45833
146.742	140.45833
150.896	170.125
155.046	214.45833
159.193	338.125
163.336	554.79167
167.476	1033.79167
171.613	1922.125
175.746	3229.45833
179.875	4837.45833
184.002	6305.125
188.124	7372.125
192.244	7733.45833
196.36	7710.79167
200.472	7493.125
204.581	7316.79167
208.687	7186.45833
212.79	7106.125
216.889	7090.79167
220.984	7123.125
225.077	7137.125
229.165	7157.125
233.251	7204.45833
237.333	7131.79167
241.412	7076.79167
245.487	7031.125
249.559	7016.45833
253.628	6945.125
257.694	6870.125
261.756	6828.125
265.814	6683.45833
269.87	6482.79167
273.922	6287.45833
277.97	6200.125
282.016	6099.79167
286.058	6148.45833
290.097	6267.45833
294.132	6356.125
298.164	6327.45833
302.193	6058.125
306.219	5641.79167
310.241	5185.79167
314.26	4815.79167
318.276	4450.79167
322.288	4249.79167
326.297	4061.79167
330.303	3947.45833
334.305	3860.125
338.305	3807.125
342.301	3736.79167
346.294	3706.79167
350.283	3711.125
354.269	3695.45833
358.252	3644.45833
362.232	3650.45833
366.209	3620.45833
370.182	3600.79167
374.152	3570.125
378.119	3555.79167
382.083	3554.79167
386.043	3559.79167
390	3558.79167
393.954	3552.45833
397.905	3538.45833
401.852	3536.79167
405.797	3493.125
409.738	3467.79167
413.676	3487.45833
417.61	3478.45833
421.542	3460.125
425.47	3428.45833
429.396	3418.79167
433.318	3397.79167
437.236	3405.125
441.152	3393.79167
445.065	3344.45833
448.974	3330.125
452.88	3317.45833
456.783	3312.125
460.683	3287.45833
464.58	3296.125
468.473	3314.45833
472.364	3323.45833
476.251	3300.125
480.135	3363.125
484.016	3393.45833
487.894	3415.125
491.769	3416.45833
495.641	3419.45833
499.509	3437.45833
503.375	3421.45833
507.237	3403.125
511.096	3382.125
514.952	3425.79167
518.805	3450.125
522.655	3459.79167
526.502	3417.45833
530.346	3404.79167
534.187	3403.125
538.024	3414.125
541.859	3462.125
545.69	3486.125
549.519	3462.125
553.344	3420.45833
557.166	3408.79167
560.985	3363.79167
564.802	3289.45833
568.615	3246.79167
572.425	3211.79167
576.232	3194.125
580.036	3161.79167
583.836	3159.79167
587.634	3207.79167
591.429	3185.125
595.221	3257.79167
599.01	3273.45833
602.796	3296.79167
606.578	3336.45833
610.358	3348.79167
614.135	3312.125
617.909	3304.45833
621.679	3237.45833
625.447	3240.45833
629.212	3247.45833
632.973	3255.125
636.732	3238.45833
640.488	3244.79167
644.241	3209.45833
647.991	3205.79167
651.737	3185.45833
655.481	3150.45833
659.222	3173.45833
662.96	3148.45833
666.695	3182.45833
670.427	3220.45833
674.156	3215.79167
677.882	3206.45833
681.605	3210.125
685.325	3193.79167
689.043	3187.79167
692.757	3170.45833
696.468	3141.45833
700.177	3140.45833
703.882	3119.79167
707.585	3081.79167
711.284	3101.79167
714.981	3081.45833
718.675	3080.45833
722.366	3133.125
726.054	3073.125
729.739	3096.79167
733.421	3103.45833
737.1	3114.79167
740.777	3098.125
744.45	3120.125
748.121	3144.45833
751.789	3217.79167
755.453	3185.79167
759.115	3221.79167
762.774	3232.125
766.431	3220.125
770.084	3285.79167
773.734	3285.79167
777.382	3333.125
781.027	3369.79167
784.669	3392.79167
788.308	3367.79167
791.944	3365.45833
795.577	3410.45833
799.208	3433.125
802.835	3431.125
806.46	3435.45833
810.082	3489.79167
813.701	3475.125
817.317	3502.125
820.931	3497.45833
824.542	3491.125
828.149	3457.79167
831.754	3420.79167
835.357	3418.79167
838.956	3441.79167
842.553	3433.125
846.146	3407.125
849.737	3380.125
853.326	3415.125
856.911	3408.125
860.493	3452.45833
864.073	3454.45833
867.65	3495.79167
871.225	3531.125
874.796	3523.79167
878.365	3550.45833
881.931	3559.125
885.494	3584.45833
889.054	3585.125
892.612	3569.125
896.166	3552.79167
899.719	3513.125
903.268	3466.79167
906.814	3455.45833
910.358	3424.79167
913.899	3400.125
917.438	3368.125
920.973	3365.79167
924.506	3423.45833
928.036	3432.125
931.564	3521.79167
935.088	3562.79167
938.61	3565.79167
942.129	3628.125
945.646	3681.125
949.16	3767.79167
952.671	3835.125
956.179	3802.45833
959.685	3739.45833
963.188	3736.45833
966.688	3685.125
970.185	3594.45833
973.68	3523.125
977.173	3445.125
980.662	3412.79167
984.149	3405.79167
987.633	3389.125
991.114	3450.45833
994.593	3519.125
998.069	3598.45833
1001.542	3675.79167
1005.013	3607.45833
1008.481	3439.79167
1011.947	3400.125
1015.409	3387.125
1018.869	3369.125
1022.327	3356.125
1025.782	3347.125
1029.234	3343.79167
1032.683	3288.125
1036.13	3192.45833
1039.574	3058.45833
1043.016	2996.125
1046.455	2948.79167
1049.891	2912.125
1053.325	2942.125
1056.756	2953.79167
1060.184	2977.45833
1063.61	2968.125
1067.033	2991.125
1070.454	2995.125
1073.872	3020.125
1077.287	3013.79167
1080.7	3009.45833
1084.11	2997.45833
1087.517	2974.125
1090.922	2925.45833
1094.325	2926.125
1097.724	2917.79167
1101.122	2903.125
1104.516	2914.125
1107.908	2880.125
1111.298	2931.45833
1114.684	2948.125
1118.069	2993.79167
1121.45	3043.125
1124.83	3038.45833
1128.206	3085.125
1131.58	3116.79167
1134.951	3205.45833
1138.32	3282.45833
1141.687	3389.125
1145.05	3485.79167
1148.412	3482.45833
1151.77	3454.79167
1155.126	3453.45833
1158.48	3408.45833
1161.831	3454.125
1165.18	3450.45833
1168.525	3511.125
1171.869	3527.125
1175.21	3553.79167
1178.548	3600.45833
1181.884	3603.79167
1185.217	3664.45833
1188.548	3777.125
1191.877	3776.125
1195.202	3897.125
1198.526	3991.79167
1201.846	4014.79167
1205.165	3993.45833
1208.48	3972.45833
1211.794	3939.45833
1215.104	3948.79167
1218.413	3956.45833
1221.719	3941.125
1225.022	3917.79167
1228.323	3868.45833
1231.621	3830.79167
1234.917	3776.45833
1238.21	3786.79167
1241.501	3794.45833
1244.79	3768.45833
1248.076	3768.45833
1251.359	3805.79167
1254.64	3888.125
1257.919	3898.45833
1261.195	3988.79167
1264.468	4057.125
1267.74	4123.45833
1271.008	4136.45833
1274.275	4134.79167
1277.538	4083.125
1280.8	4058.45833
1284.059	4062.125
1287.315	4065.79167
1290.569	4105.125
1293.821	4121.79167
1297.07	4127.45833
1300.317	4145.79167
1303.562	4143.125
1306.803	4099.79167
1310.043	4080.45833
1313.28	4028.125
1316.515	3966.79167
1319.747	3924.79167
1322.977	3922.45833
1326.204	3878.79167
1329.429	3803.125
1332.652	3793.125
1335.872	3799.125
1339.09	3728.79167
1342.306	3733.79167
1345.519	3631.79167
1348.729	3614.125
1351.938	3600.79167
1355.144	3544.79167
1358.347	3520.79167
1361.548	3520.125
1364.747	3521.45833
1367.944	3462.45833
1371.138	3471.125
1374.329	3487.45833
1377.518	3546.45833
1380.705	3542.79167
1383.89	3536.45833
1387.072	3418.45833
1390.252	3284.45833
1393.429	3166.79167
1396.605	3095.125
1399.777	3007.45833
1402.948	2961.79167
1406.116	2961.79167
1409.282	2949.79167
1412.445	2953.125
1415.606	2977.79167
1418.765	3004.125
1421.921	3062.45833
1425.075	3152.125
1428.227	3225.45833
1431.376	3360.125
1434.524	3480.125
1437.668	3571.79167
1440.811	3619.125
1443.951	3649.125
1447.089	3640.45833
1450.224	3628.79167
1453.357	3632.79167
1456.488	3629.45833
1459.617	3558.125
1462.743	3504.45833
1465.867	3440.125
1468.989	3398.79167
1472.108	3338.45833
1475.225	3264.79167
1478.34	3226.79167
1481.453	3213.79167
1484.563	3226.45833
1487.671	3261.125
1490.776	3332.125
1493.88	3366.45833
1496.981	3424.79167
1500.08	3494.79167
1503.176	3525.125
1506.271	3564.125
1509.363	3630.79167
1512.452	3633.79167
1515.54	3653.125
1518.625	3732.45833
1521.708	3787.79167
1524.789	3899.45833
1527.867	4098.125
1530.944	4259.79167
1534.018	4460.45833
1537.089	4638.125
1540.159	4713.125
1543.226	4685.79167
1546.291	4633.79167
1549.354	4523.79167
1552.415	4419.79167
1555.473	4331.79167
1558.529	4234.45833
1561.583	4191.125
1564.634	4132.79167
1567.684	4098.79167
1570.731	4123.45833
1573.776	4139.79167
1576.819	4227.125
1579.859	4271.125
1582.898	4304.79167
1585.934	4329.45833
1588.968	4348.125
1591.999	4346.45833
1595.029	4394.125
1598.056	4375.125
1601.081	4419.45833
1604.104	4385.125
1607.125	4371.45833
1610.144	4268.79167
1613.16	4200.125
1616.174	4077.125
1619.186	4002.45833
1622.196	3914.79167
1625.203	3802.79167
1628.209	3747.45833
1631.212	3713.79167
1634.213	3681.125
1637.212	3626.125
1640.209	3558.45833
1643.203	3433.125
1646.196	3326.125
1649.186	3196.79167
1652.174	3086.125
1655.16	2985.125
1658.144	2914.79167
1661.125	2802.125
1664.105	2676.125
1667.082	2585.79167
1670.057	2458.45833
1673.03	2298.125
1676.001	2171.125
1678.97	2048.45833
1681.937	1904.79167
1684.901	1800.79167
1687.863	1721.45833
1690.824	1655.125
1693.782	1629.79167
1696.738	1549.79167
1699.692	1540.79167
1702.643	1497.45833
1705.593	1468.125
1708.54	1461.125
1711.486	1446.45833
1714.429	1412.125
1717.37	1402.45833
1720.309	1377.125
1723.246	1387.79167
1726.181	1374.125
1729.113	1358.79167
1732.044	1334.125
1734.972	1322.45833
1737.899	1320.79167
1740.823	1323.125
1743.745	1287.125
1746.665	1264.79167
1749.583	1261.125
1752.499	1239.125
1755.413	1221.79167
1758.325	1198.125
1761.235	1197.45833
1764.142	1158.125
1767.048	1141.45833
1769.951	1151.125
1772.852	1143.45833
1775.752	1134.79167
1778.649	1131.125
1781.544	1135.79167
1784.437	1107.45833
1787.328	1117.125
1790.217	1101.45833
1793.104	1080.45833
1795.989	1083.45833
1798.872	1065.79167
1801.753	1101.45833
1804.631	1077.125
1807.508	1073.79167
1810.383	1062.45833
1813.255	1051.45833
1816.126	1071.125
1818.994	1060.45833
1821.861	1040.45833
1824.725	1047.45833
1827.587	1038.125
1830.448	1030.79167
1833.306	1003.45833
1836.162	1020.125
1839.017	1014.125
1841.869	1015.45833
1844.719	997.45833
1847.567	982.125
1850.414	964.79167
1853.258	986.79167
1856.1	996.125
1858.94	995.45833
1861.778	978.79167
1864.614	976.79167
1867.448	976.45833
1870.28	955.79167
1873.111	996.45833
1875.939	964.45833
1878.765	991.79167
1881.589	959.79167
1884.411	973.79167
1887.231	956.45833
1890.049	957.79167
1892.865	948.45833
1895.68	955.79167
1898.492	959.45833
1901.302	930.125
1904.11	940.125
1906.916	928.45833
1909.721	926.125
1912.523	924.125
1915.323	914.79167
1918.122	900.79167
1920.918	909.79167
1923.712	913.45833
1926.505	898.79167
1929.295	886.79167
1932.084	922.79167
1934.87	902.79167
1937.655	903.45833
1940.438	897.45833
1943.218	892.125
1945.997	907.45833
1948.774	900.79167
1951.549	908.45833
1954.322	905.45833
1957.093	887.45833
1959.862	875.79167
1962.629	880.125
1965.394	873.79167
1968.157	861.45833
1970.918	871.45833
1973.678	846.45833
1976.435	867.79167
1979.19	850.79167
1981.944	846.125
1984.696	851.79167
1987.445	828.125
1990.193	842.125
1992.939	854.45833
1995.683	843.45833
1998.425	826.45833
2001.165	847.79167
2003.903	822.125
2006.639	814.79167
2009.374	841.79167
2012.106	837.125
2014.837	801.125
2017.566	832.125
2020.292	828.45833
2023.017	831.45833
2025.74	833.125
2028.461	803.79167
2031.18	803.45833
2033.898	798.79167
2036.613	807.79167
2039.327	802.79167
2042.038	784.45833
2044.748	784.45833
2047.456	792.79167
2050.162	791.125
2052.866	779.125
2055.568	793.125
2058.268	770.45833
2060.967	779.79167
2063.663	776.45833
2066.358	774.125
2069.051	771.45833
2071.742	765.45833
2074.431	785.79167
2077.118	780.79167
2079.804	756.79167
2082.487	768.125
2085.169	774.125
2087.849	787.79167
2090.527	752.45833
2093.203	773.79167
2095.877	773.125
2098.55	774.45833
2101.22	794.45833
2103.889	806.45833
2106.556	783.79167
2109.221	820.79167
2111.884	831.79167
2114.546	890.125
2117.205	934.125
2119.863	1008.125
2122.519	1044.79167
2125.173	1120.45833
2127.825	1173.45833
2130.475	1175.45833
2133.124	1137.79167
2135.771	1101.125
2138.416	1040.125
2141.059	969.125
2143.7	930.79167
2146.339	874.45833
2148.977	832.79167
2151.613	824.125
2154.247	802.125
2156.879	796.125
2159.51	768.45833
2162.138	767.125
2164.765	749.79167
2167.39	729.125
2170.013	747.45833
2172.634	732.79167
2175.254	731.45833
2177.872	756.45833
2180.488	712.45833
2183.102	715.125
2185.714	710.45833
2188.325	690.79167
2190.934	695.45833
2193.541	696.125
2196.146	687.79167
2198.75	674.45833
2201.351	670.79167
2203.951	662.125
2206.549	682.125
2209.146	670.79167
2211.74	665.79167
2214.333	665.45833
2216.924	646.125
2219.514	644.79167
2222.101	641.79167
2224.687	657.45833
2227.271	645.45833
2229.853	629.79167
2232.433	637.79167
2235.012	643.79167
2237.589	639.125
2240.164	649.45833
2242.738	639.125
2245.309	615.125
2247.879	639.125
2250.448	633.79167
2253.014	620.79167
2255.579	597.79167
2258.142	605.125
2260.703	606.125
2263.262	603.125
2265.82	586.79167
2268.376	595.79167
2270.93	572.125
2273.483	589.45833
2276.033	586.79167
2278.583	588.79167
2281.13	573.79167
2283.675	578.79167
2286.219	574.79167
2288.761	567.45833
2291.302	578.79167
2293.841	583.79167
2296.377	557.45833
2298.913	563.125
2301.446	573.45833
2303.978	575.45833
2306.508	558.79167
2309.037	557.79167
2311.563	562.125
2314.088	567.79167
2316.612	542.125
2319.133	540.79167
2321.653	558.79167
2324.171	535.125
2326.688	549.125
2329.202	536.125
2331.715	554.45833
2334.227	541.45833
2336.736	539.125
2339.244	536.125
2341.751	525.79167
2344.255	538.45833
2346.758	534.79167
2349.259	526.79167
2351.759	541.45833
2354.257	533.125
2356.753	510.79167
2359.247	522.45833
2361.74	532.79167
2364.231	535.125
2366.721	526.79167
2369.209	517.79167
2371.695	519.45833
2374.179	527.125
2376.662	508.45833
2379.143	524.45833
2381.622	521.79167
2384.1	521.79167
2386.576	505.125
2389.051	529.125
2391.524	520.45833
2393.995	514.125
2396.464	501.125
2398.932	513.125
2401.398	503.125
2403.863	504.125
2406.325	496.79167
2408.787	511.45833
2411.246	500.125
2413.704	491.79167
2416.16	495.79167
2418.615	493.79167
2421.068	512.125
2423.519	506.45833
2425.969	493.79167
2428.417	497.79167
2430.863	513.45833
2433.308	507.45833
2435.751	495.45833
2438.193	485.79167
2440.633	497.79167
2443.071	494.125
2445.508	480.79167
2447.943	487.45833
2450.376	482.79167
2452.808	478.79167
2455.238	478.45833
2457.667	525.45833
2460.093	477.79167
2462.519	466.45833
2464.942	473.125
2467.365	482.125
2469.785	482.79167
2472.204	472.45833
2474.621	468.125
2477.037	496.79167
2479.451	456.125
2481.863	464.125
2484.274	471.45833
2486.683	473.45833
2489.091	477.125
2491.497	467.79167
2493.901	470.45833
2496.304	469.125
2498.705	475.79167
2501.105	465.79167
2503.503	487.79167
2505.899	455.125
2508.294	477.79167
2510.687	473.45833
2513.079	474.125
2515.469	459.45833
2517.858	464.45833
2520.245	466.125
2522.63	457.79167
2525.014	448.79167
2527.396	459.79167
2529.776	452.79167
2532.156	459.125
2534.533	455.79167
2536.909	447.45833
2539.283	441.45833
2541.656	457.125
2544.027	472.125
2546.397	456.125
2548.765	447.79167
2551.131	450.79167
2553.496	450.125
2555.86	456.45833
2558.221	454.45833
2560.582	448.79167
2562.94	434.79167
2565.298	447.45833
2567.653	454.45833
2570.007	430.79167
2572.36	461.125
2574.711	444.125
2577.06	454.79167
2579.408	456.45833
2581.754	452.79167
2584.099	455.45833
2586.442	441.45833
2588.784	452.79167
2591.124	451.79167
2593.463	453.45833
2595.8	457.45833
2598.135	432.125
2600.469	447.79167
2602.802	453.125
2605.133	446.45833
2607.462	437.125
2609.79	436.45833
2612.116	447.79167
2614.441	442.79167
2616.764	437.79167
2619.086	448.45833
2621.406	434.45833
2623.725	459.125
2626.042	441.79167
2628.358	436.79167
2630.672	435.79167
2632.985	459.79167
2635.296	441.45833
2637.606	445.125
2639.914	430.45833
2642.22	437.79167
2644.525	443.79167
2646.829	452.79167
2649.131	452.45833
2651.432	457.125
2653.731	446.79167
2656.028	453.125
2658.324	458.79167
2660.619	445.45833
2662.912	458.45833
2665.204	441.79167
2667.494	446.125
2669.782	443.79167
2672.07	455.45833
2674.355	453.79167
2676.639	457.45833
2678.922	442.45833
2681.203	456.125
2683.483	435.125
2685.761	443.125
2688.038	459.79167
2690.313	469.79167
2692.587	464.45833
2694.859	454.79167
2697.13	464.45833
2699.399	468.79167
2701.667	479.125
2703.933	465.125
2706.198	475.79167
2708.461	462.45833
2710.723	482.125
2712.984	478.125
2715.243	470.125
2717.5	472.45833
2719.757	489.79167
2722.011	487.45833
2724.264	491.45833
2726.516	503.125
2728.766	481.79167
2731.015	496.79167
2733.262	491.45833
2735.508	487.125
2737.753	483.79167
2739.996	486.79167
2742.237	483.79167
2744.477	482.45833
2746.716	484.79167
2748.953	474.45833
2751.189	485.45833
2753.423	467.45833
2755.656	450.79167
2757.887	466.45833
2760.117	462.79167
2762.346	457.79167
2764.573	457.125
2766.798	458.45833
2769.022	451.79167
2771.245	465.125
2773.467	471.125
2775.686	470.45833
2777.905	467.79167
2780.122	487.125
2782.337	476.45833
2784.552	474.79167
2786.764	482.79167
2788.976	489.45833
2791.186	489.45833
2793.394	499.125
2795.601	490.125
2797.807	507.79167
2800.011	518.125
2802.214	519.125
2804.415	520.45833
2806.615	518.125
2808.814	527.125
2811.011	535.45833
2813.206	529.125
2815.401	549.79167
2817.594	546.79167
2819.785	567.45833
2821.975	556.125
2824.164	556.45833
2826.351	570.45833
2828.537	589.79167
2830.722	599.79167
2832.905	609.125
2835.086	634.79167
2837.267	660.45833
2839.445	669.125
2841.623	694.79167
2843.799	713.125
2845.974	743.125
2848.147	782.125
2850.319	794.45833
2852.489	839.45833
2854.659	852.79167
2856.826	860.125
2858.993	885.45833
2861.158	872.79167
2863.321	870.79167
2865.483	884.79167
2867.644	881.45833
2869.804	872.79167
2871.962	877.125
2874.118	882.45833
2876.274	866.125
2878.428	877.125
2880.58	873.79167
2882.731	857.79167
2884.881	862.125
2887.03	878.125
2889.177	870.125
2891.322	897.125
2893.467	893.79167
2895.61	885.79167
2897.751	928.125
2899.892	904.79167
2902.03	916.45833
2904.168	918.45833
2906.304	918.125
2908.439	935.45833
2910.572	931.125
2912.704	932.125
2914.835	939.125
2916.965	931.45833
2919.093	945.79167
2921.219	913.125
2923.345	940.125
2925.469	901.79167
2927.591	902.125
2929.712	874.45833
2931.832	881.79167
2933.951	856.79167
2936.068	843.45833
2938.184	825.125
2940.299	798.125
2942.412	782.79167
2944.524	754.79167
2946.634	752.79167
2948.744	705.79167
2950.851	720.125
2952.958	688.125
2955.063	680.45833
2957.167	671.125
2959.269	672.125
2961.371	684.125
2963.471	620.45833
2965.569	615.79167
2967.666	587.45833
2969.762	584.125
2971.857	579.79167
2973.95	564.79167
2976.042	553.45833
2978.133	541.45833
2980.222	521.79167
2982.31	506.125
2984.396	486.79167
2986.482	497.79167
2988.566	492.45833
2990.648	486.125
2992.73	469.125
2994.81	470.45833
2996.889	473.79167
2998.966	458.45833
3001.042	468.79167
3003.117	461.125
3005.191	464.79167
3007.263	457.125
3009.334	447.45833
3011.403	454.79167
3013.472	434.45833
3015.539	437.79167
3017.604	446.125
3019.669	418.45833
3021.732	417.79167
3023.794	419.45833
3025.854	414.45833
3027.914	406.45833
3029.971	418.45833
3032.028	412.79167
3034.083	418.45833
3036.137	404.79167
3038.19	393.125
3040.242	383.125
3042.292	379.125
3044.341	368.125
3046.388	381.125
3048.435	362.125
3050.48	376.45833
3052.524	368.79167
3054.566	354.125
3056.607	365.125
3058.647	352.45833
3060.686	345.79167
3062.723	331.45833
3064.759	319.45833
3066.794	-2.20833
3068.828	3.125
3070.86	1.45833
