-0.839	530.04167
3.438	634.70833
7.711	187.04167
11.981	63.375
16.247	45.375
20.509	47.375
24.768	46.70833
29.024	50.375
33.276	45.70833
37.524	47.375
41.769	49.04167
46.01	33.375
50.247	44.70833
54.481	58.375
58.712	59.04167
62.939	50.375
67.162	58.70833
71.382	59.375
75.599	44.70833
79.812	61.375
84.021	75.70833
88.227	59.04167
92.429	59.04167
96.628	53.70833
100.823	71.375
105.015	74.70833
109.204	64.70833
113.388	73.375
117.57	73.04167
121.748	83.70833
125.922	77.70833
130.093	96.04167
134.261	94.70833
138.425	94.70833
142.585	135.375
146.742	128.70833
150.896	153.375
155.046	191.375
159.193	311.375
163.336	536.04167
167.476	962.04167
171.613	1788.04167
175.746	2945.70833
179.875	4285.375
184.002	5515.375
188.124	6328.04167
192.244	6520.70833
196.36	6385.04167
200.472	6146.04167
204.581	5916.04167
208.687	5690.04167
212.79	5597.375
216.889	5528.70833
220.984	5466.375
225.077	5431.375
229.165	5395.375
233.251	5338.375
237.333	5300.375
241.412	5190.375
245.487	5107.375
249.559	5019.375
253.628	5005.375
257.694	4943.375
261.756	4905.04167
265.814	4792.04167
269.87	4632.375
273.922	4503.375
277.97	4425.70833
282.016	4380.375
286.058	4460.04167
290.097	4505.375
294.132	4590.375
298.164	4508.375
302.193	4305.04167
306.219	4001.04167
310.241	3692.70833
314.26	3400.375
318.276	3172.375
322.288	2989.375
326.297	2885.04167
330.303	2759.375
334.305	2705.375
338.305	2671.375
342.301	2625.375
346.294	2591.70833
350.283	2574.70833
354.269	2554.04167
358.252	2513.375
362.232	2511.375
366.209	2502.04167
370.182	2460.375
374.152	2451.375
378.119	2448.70833
382.083	2448.04167
386.043	2457.04167
390	2424.375
393.954	2428.70833
397.905	2410.04167
401.852	2415.04167
405.797	2365.375
409.738	2386.04167
413.676	2381.04167
417.61	2361.70833
421.542	2334.70833
425.47	2342.70833
429.396	2313.70833
433.318	2301.04167
437.236	2305.04167
441.152	2327.375
445.065	2249.375
448.974	2257.375
452.88	2238.375
456.783	2214.70833
460.683	2191.04167
464.58	2204.375
468.473	2183.375
472.364	2200.70833
476.251	2216.04167
480.135	2244.04167
484.016	2264.70833
487.894	2271.375
491.769	2270.04167
495.641	2263.70833
499.509	2278.04167
503.375	2281.70833
507.237	2276.375
511.096	2271.375
514.952	2377.04167
518.805	2497.70833
522.655	2537.04167
526.502	2383.04167
530.346	2309.70833
534.187	2294.04167
538.024	2281.375
541.859	2315.375
545.69	2330.70833
549.519	2314.70833
553.344	2276.04167
557.166	2252.04167
560.985	2217.04167
564.802	2189.70833
568.615	2141.375
572.425	2118.70833
576.232	2114.04167
580.036	2092.375
583.836	2078.375
587.634	2121.375
591.429	2117.70833
595.221	2167.70833
599.01	2208.04167
602.796	2195.70833
606.578	2226.375
610.358	2217.04167
614.135	2211.375
617.909	2201.70833
621.679	2161.375
625.447	2143.70833
629.212	2145.70833
632.973	2154.375
636.732	2153.04167
640.488	2165.70833
644.241	2131.04167
647.991	2133.04167
651.737	2149.70833
655.481	2113.04167
659.222	2133.70833
662.96	2103.70833
666.695	2141.70833
670.427	2139.70833
674.156	2162.70833
677.882	2150.375
681.605	2140.04167
685.325	2096.375
689.043	2105.70833
692.757	2088.04167
696.468	2104.375
700.177	2090.70833
703.882	2079.04167
707.585	2049.70833
711.284	2051.04167
714.981	2071.375
718.675	2082.70833
722.366	2083.04167
726.054	2058.04167
729.739	2044.375
733.421	2085.04167
737.1	2053.70833
740.777	2116.70833
744.45	2096.04167
748.121	2111.70833
751.789	2138.70833
755.453	2141.375
759.115	2136.375
762.774	2164.04167
766.431	2189.04167
770.084	2201.70833
773.734	2236.04167
777.382	2255.70833
781.027	2265.70833
784.669	2284.375
788.308	2293.04167
791.944	2315.70833
795.577	2348.375
799.208	2354.04167
802.835	2350.375
806.46	2390.70833
810.082	2356.375
813.701	2383.04167
817.317	2418.70833
820.931	2420.375
824.542	2393.375
828.149	2365.04167
831.754	2344.375
835.357	2346.375
838.956	2346.04167
842.553	2330.04167
846.146	2317.04167
849.737	2302.04167
853.326	2312.70833
856.911	2309.04167
860.493	2311.375
864.073	2350.70833
867.65	2379.375
871.225	2409.70833
874.796	2406.04167
878.365	2402.375
881.931	2404.70833
885.494	2437.375
889.054	2440.70833
892.612	2442.375
896.166	2402.04167
899.719	2403.375
903.268	2346.04167
906.814	2340.375
910.358	2319.04167
913.899	2338.04167
917.438	2322.70833
920.973	2310.375
924.506	2343.375
928.036	2407.04167
931.564	2430.375
935.088	2469.375
938.61	2476.70833
942.129	2520.375
945.646	2568.04167
949.16	2612.375
952.671	2653.04167
956.179	2623.375
959.685	2600.375
963.188	2644.375
966.688	2614.04167
970.185	2500.375
973.68	2444.375
977.173	2404.375
980.662	2374.375
984.149	2354.04167
987.633	2338.04167
991.114	2391.70833
994.593	2431.70833
998.069	2451.70833
1001.542	2517.70833
1005.013	2498.375
1008.481	2345.70833
1011.947	2340.04167
1015.409	2323.375
1018.869	2324.375
1022.327	2300.70833
1025.782	2294.375
1029.234	2313.04167
1032.683	2258.70833
1036.13	2196.04167
1039.574	2132.04167
1043.016	2077.04167
1046.455	2029.04167
1049.891	2002.375
1053.325	2002.70833
1056.756	2030.70833
1060.184	2044.70833
1063.61	2062.70833
1067.033	2074.375
1070.454	2067.375
1073.872	2086.70833
1077.287	2093.04167
1080.7	2075.04167
1084.11	2060.375
1087.517	2070.04167
1090.922	2029.04167
1094.325	2007.04167
1097.724	1992.04167
1101.122	2003.375
1104.516	1985.375
1107.908	1977.70833
1111.298	2023.70833
1114.684	2039.04167
1118.069	2064.04167
1121.45	2096.70833
1124.83	2089.04167
1128.206	2096.70833
1131.58	2153.375
1134.951	2186.04167
1138.32	2240.375
1141.687	2321.04167
1145.05	2384.70833
1148.412	2380.375
1151.77	2349.375
1155.126	2370.70833
1158.48	2347.375
1161.831	2359.04167
1165.18	2362.375
1168.525	2414.70833
1171.869	2412.375
1175.21	2449.04167
1178.548	2471.70833
1181.884	2488.04167
1185.217	2532.04167
1188.548	2592.70833
1191.877	2656.375
1195.202	2724.375
1198.526	2816.04167
1201.846	2832.70833
1205.165	2829.375
1208.48	2805.70833
1211.794	2815.375
1215.104	2812.375
1218.413	2820.70833
1221.719	2813.375
1225.022	2768.375
1228.323	2720.04167
1231.621	2708.70833
1234.917	2693.70833
1238.21	2656.375
1241.501	2660.375
1244.79	2635.70833
1248.076	2651.375
1251.359	2680.70833
1254.64	2713.70833
1257.919	2733.70833
1261.195	2780.375
1264.468	2826.375
1267.74	2835.70833
1271.008	2852.70833
1274.275	2854.375
1277.538	2835.70833
1280.8	2815.04167
1284.059	2825.70833
1287.315	2881.04167
1290.569	2892.04167
1293.821	2923.04167
1297.07	2934.04167
1300.317	2960.70833
1303.562	2925.04167
1306.803	2901.04167
1310.043	2885.04167
1313.28	2855.375
1316.515	2860.375
1319.747	2823.70833
1322.977	2823.70833
1326.204	2779.04167
1329.429	2734.70833
1332.652	2734.70833
1335.872	2680.04167
1339.09	2651.04167
1342.306	2632.04167
1345.519	2608.375
1348.729	2597.375
1351.938	2583.70833
1355.144	2561.04167
1358.347	2508.70833
1361.548	2519.375
1364.747	2512.70833
1367.944	2480.70833
1371.138	2502.04167
1374.329	2501.04167
1377.518	2519.04167
1380.705	2521.04167
1383.89	2479.375
1387.072	2411.375
1390.252	2319.375
1393.429	2234.70833
1396.605	2162.70833
1399.777	2107.70833
1402.948	2091.375
1406.116	2072.375
1409.282	2061.70833
1412.445	2079.70833
1415.606	2114.04167
1418.765	2148.04167
1421.921	2192.04167
1425.075	2223.70833
1428.227	2303.04167
1431.376	2393.04167
1434.524	2481.70833
1437.668	2572.375
1440.811	2592.375
1443.951	2621.04167
1447.089	2623.375
1450.224	2626.70833
1453.357	2604.70833
1456.488	2585.375
1459.617	2546.70833
1462.743	2499.375
1465.867	2415.70833
1468.989	2375.375
1472.108	2331.70833
1475.225	2292.70833
1478.34	2253.375
1481.453	2234.70833
1484.563	2268.04167
1487.671	2284.375
1490.776	2339.04167
1493.88	2354.04167
1496.981	2392.04167
1500.08	2398.70833
1503.176	2460.375
1506.271	2477.70833
1509.363	2520.375
1512.452	2513.04167
1515.54	2558.375
1518.625	2599.70833
1521.708	2634.70833
1524.789	2707.04167
1527.867	2814.04167
1530.944	2937.375
1534.018	3064.375
1537.089	3190.375
1540.159	3229.70833
1543.226	3234.04167
1546.291	3178.04167
1549.354	3106.04167
1552.415	3034.70833
1555.473	2972.375
1558.529	2933.04167
1561.583	2898.04167
1564.634	2851.04167
1567.684	2896.70833
1570.731	2903.04167
1573.776	2941.70833
1576.819	2986.375
1579.859	3030.04167
1582.898	3059.375
1585.934	3096.04167
1588.968	3102.70833
1591.999	3082.70833
1595.029	3119.375
1598.056	3158.70833
1601.081	3156.04167
1604.104	3161.375
1607.125	3136.70833
1610.144	3056.04167
1613.16	2968.375
1616.174	2900.375
1619.186	2835.70833
1622.196	2740.04167
1625.203	2682.375
1628.209	2635.375
1631.212	2600.375
1634.213	2577.04167
1637.212	2593.04167
1640.209	2572.04167
1643.203	2489.375
1646.196	2450.70833
1649.186	2341.70833
1652.174	2280.375
1655.16	2192.70833
1658.144	2153.04167
1661.125	2066.04167
1664.105	1964.04167
1667.082	1871.70833
1670.057	1778.375
1673.03	1673.375
1676.001	1550.70833
1678.97	1442.375
1681.937	1366.375
1684.901	1293.70833
1687.863	1253.375
1690.824	1182.04167
1693.782	1176.04167
1696.738	1113.04167
1699.692	1103.375
1702.643	1065.70833
1705.593	1062.04167
1708.54	1057.70833
1711.486	1045.70833
1714.429	1021.04167
1717.37	1024.70833
1720.309	993.375
1723.246	993.04167
1726.181	981.04167
1729.113	978.70833
1732.044	955.375
1734.972	948.375
1737.899	966.70833
1740.823	967.04167
1743.745	917.375
1746.665	915.70833
1749.583	902.70833
1752.499	891.375
1755.413	897.04167
1758.325	868.04167
1761.235	845.70833
1764.142	851.70833
1767.048	828.04167
1769.951	828.375
1772.852	832.70833
1775.752	815.375
1778.649	814.70833
1781.544	827.375
1784.437	793.70833
1787.328	813.04167
1790.217	802.04167
1793.104	780.375
1795.989	784.04167
1798.872	782.04167
1801.753	785.375
1804.631	793.70833
1807.508	783.04167
1810.383	781.375
1813.255	777.04167
1816.126	777.70833
1818.994	769.70833
1821.861	764.70833
1824.725	763.04167
1827.587	756.70833
1830.448	755.70833
1833.306	747.04167
1836.162	754.375
1839.017	751.70833
1841.869	733.70833
1844.719	734.375
1847.567	734.04167
1850.414	718.375
1853.258	736.70833
1856.1	738.375
1858.94	738.375
1861.778	725.04167
1864.614	721.70833
1867.448	720.375
1870.28	710.04167
1873.111	750.04167
1875.939	723.375
1878.765	735.375
1881.589	718.375
1884.411	727.04167
1887.231	717.375
1890.049	711.375
1892.865	714.70833
1895.68	703.375
1898.492	716.04167
1901.302	707.375
1904.11	708.375
1906.916	699.04167
1909.721	686.04167
1912.523	694.375
1915.323	682.04167
1918.122	681.04167
1920.918	704.375
1923.712	680.70833
1926.505	671.375
1929.295	676.04167
1932.084	688.04167
1934.87	683.04167
1937.655	683.04167
1940.438	668.70833
1943.218	684.375
1945.997	681.375
1948.774	683.70833
1951.549	680.70833
1954.322	671.70833
1957.093	671.04167
1959.862	667.70833
1962.629	657.375
1965.394	665.375
1968.157	649.375
1970.918	660.375
1973.678	643.04167
1976.435	673.375
1979.19	641.70833
1981.944	638.70833
1984.696	643.70833
1987.445	630.04167
1990.193	641.375
1992.939	658.04167
1995.683	643.375
1998.425	617.70833
2001.165	655.70833
2003.903	628.04167
2006.639	627.375
2009.374	649.04167
2012.106	632.04167
2014.837	613.04167
2017.566	632.04167
2020.292	638.70833
2023.017	645.70833
2025.74	630.04167
2028.461	632.70833
2031.18	640.70833
2033.898	617.375
2036.613	626.70833
2039.327	634.375
2042.038	610.375
2044.748	614.375
2047.456	624.375
2050.162	606.375
2052.866	606.375
2055.568	639.70833
2058.268	612.375
2060.967	627.04167
2063.663	613.375
2066.358	610.70833
2069.051	605.70833
2071.742	618.375
2074.431	620.70833
2077.118	617.375
2079.804	593.04167
2082.487	604.375
2085.169	624.04167
2087.849	631.375
2090.527	600.375
2093.203	621.04167
2095.877	623.04167
2098.55	629.04167
2101.22	631.70833
2103.889	642.375
2106.556	624.04167
2109.221	654.70833
2111.884	652.375
2114.546	698.375
2117.205	730.70833
2119.863	791.375
2122.519	808.375
2125.173	853.70833
2127.825	893.04167
2130.475	901.375
2133.124	858.70833
2135.771	824.70833
2138.416	799.70833
2141.059	750.375
2143.7	727.04167
2146.339	695.04167
2148.977	653.375
2151.613	660.375
2154.247	641.04167
2156.879	630.375
2159.51	618.70833
2162.138	608.70833
2164.765	615.70833
2167.39	593.70833
2170.013	627.375
2172.634	607.375
2175.254	589.04167
2177.872	625.04167
2180.488	591.04167
2183.102	596.04167
2185.714	584.70833
2188.325	567.375
2190.934	580.70833
2193.541	591.70833
2196.146	570.04167
2198.75	563.04167
2201.351	569.04167
2203.951	555.70833
2206.549	573.70833
2209.146	562.04167
2211.74	554.70833
2214.333	566.70833
2216.924	547.04167
2219.514	555.375
2222.101	553.375
2224.687	563.375
2227.271	566.04167
2229.853	544.04167
2232.433	538.04167
2235.012	554.04167
2237.589	558.04167
2240.164	571.70833
2242.738	541.04167
2245.309	546.04167
2247.879	548.70833
2250.448	556.375
2253.014	537.04167
2255.579	528.70833
2258.142	538.375
2260.703	527.375
2263.262	539.04167
2265.82	533.04167
2268.376	535.70833
2270.93	520.04167
2273.483	525.04167
2276.033	525.70833
2278.583	525.375
2281.13	533.04167
2283.675	520.04167
2286.219	518.04167
2288.761	525.375
2291.302	530.04167
2293.841	531.375
2296.377	514.04167
2298.913	517.04167
2301.446	531.375
2303.978	522.375
2306.508	522.375
2309.037	510.70833
2311.563	519.375
2314.088	532.70833
2316.612	507.70833
2319.133	517.70833
2321.653	521.04167
2324.171	509.04167
2326.688	521.04167
2329.202	512.70833
2331.715	509.70833
2334.227	516.70833
2336.736	521.375
2339.244	504.70833
2341.751	505.70833
2344.255	540.70833
2346.758	523.70833
2349.259	507.70833
2351.759	511.375
2354.257	512.70833
2356.753	510.375
2359.247	509.70833
2361.74	521.375
2364.231	512.04167
2366.721	524.375
2369.209	523.375
2371.695	526.375
2374.179	513.70833
2376.662	512.375
2379.143	523.70833
2381.622	521.375
2384.1	530.70833
2386.576	506.04167
2389.051	531.70833
2391.524	532.70833
2393.995	528.04167
2396.464	524.70833
2398.932	516.70833
2401.398	514.375
2403.863	521.70833
2406.325	518.04167
2408.787	515.375
2411.246	522.375
2413.704	523.04167
2416.16	516.70833
2418.615	514.70833
2421.068	537.70833
2423.519	531.70833
2425.969	517.70833
2428.417	522.375
2430.863	546.70833
2433.308	529.70833
2435.751	526.04167
2438.193	529.70833
2440.633	532.04167
2443.071	528.04167
2445.508	525.04167
2447.943	531.70833
2450.376	526.04167
2452.808	535.375
2455.238	523.04167
2457.667	552.04167
2460.093	537.375
2462.519	521.375
2464.942	536.70833
2467.365	538.70833
2469.785	540.375
2472.204	545.375
2474.621	523.70833
2477.037	544.375
2479.451	521.04167
2481.863	521.04167
2484.274	527.70833
2486.683	541.375
2489.091	539.70833
2491.497	531.04167
2493.901	542.70833
2496.304	540.04167
2498.705	546.70833
2501.105	551.04167
2503.503	569.375
2505.899	531.70833
2508.294	562.70833
2510.687	548.70833
2513.079	554.375
2515.469	537.70833
2517.858	538.70833
2520.245	561.70833
2522.63	533.375
2525.014	531.04167
2527.396	541.04167
2529.776	544.70833
2532.156	556.70833
2534.533	542.04167
2536.909	542.70833
2539.283	539.375
2541.656	543.375
2544.027	566.04167
2546.397	554.70833
2548.765	549.04167
2551.131	551.70833
2553.496	558.375
2555.86	566.70833
2558.221	561.375
2560.582	551.04167
2562.94	551.70833
2565.298	551.70833
2567.653	582.04167
2570.007	553.375
2572.36	567.70833
2574.711	558.04167
2577.06	584.70833
2579.408	577.04167
2581.754	574.70833
2584.099	582.04167
2586.442	580.375
2588.784	579.375
2591.124	578.70833
2593.463	584.375
2595.8	590.375
2598.135	570.375
2600.469	576.375
2602.802	594.375
2605.133	595.04167
2607.462	565.70833
2609.79	560.70833
2612.116	583.04167
2614.441	588.375
2616.764	590.375
2619.086	583.375
2621.406	579.375
2623.725	598.375
2626.042	591.70833
2628.358	588.375
2630.672	594.04167
2632.985	605.04167
2635.296	598.04167
2637.606	593.375
2639.914	598.70833
2642.22	605.70833
2644.525	599.70833
2646.829	602.70833
2649.131	621.04167
2651.432	626.04167
2653.731	620.70833
2656.028	631.70833
2658.324	632.70833
2660.619	622.375
2662.912	635.04167
2665.204	620.04167
2667.494	629.70833
2669.782	616.375
2672.07	635.375
2674.355	628.70833
2676.639	636.70833
2678.922	620.375
2681.203	629.70833
2683.483	626.375
2685.761	629.70833
2688.038	636.70833
2690.313	645.70833
2692.587	644.375
2694.859	635.04167
2697.13	646.04167
2699.399	659.375
2701.667	661.04167
2703.933	657.375
2706.198	660.70833
2708.461	673.70833
2710.723	670.375
2712.984	663.70833
2715.243	691.70833
2717.5	677.04167
2719.757	701.375
2722.011	673.375
2724.264	696.04167
2726.516	709.375
2728.766	681.375
2731.015	694.04167
2733.262	703.04167
2735.508	701.70833
2737.753	693.70833
2739.996	686.04167
2742.237	693.375
2744.477	704.04167
2746.716	705.375
2748.953	699.375
2751.189	697.04167
2753.423	685.04167
2755.656	681.375
2757.887	674.375
2760.117	695.04167
2762.346	678.375
2764.573	687.375
2766.798	693.70833
2769.022	691.04167
2771.245	688.04167
2773.467	707.70833
2775.686	701.04167
2777.905	698.70833
2780.122	707.70833
2782.337	723.04167
2784.552	713.04167
2786.764	718.70833
2788.976	729.375
2791.186	723.70833
2793.394	739.70833
2795.601	746.04167
2797.807	751.70833
2800.011	754.04167
2802.214	761.375
2804.415	763.70833
2806.615	750.04167
2808.814	764.70833
2811.011	782.70833
2813.206	771.04167
2815.401	789.375
2817.594	786.70833
2819.785	795.04167
2821.975	788.375
2824.164	791.04167
2826.351	797.375
2828.537	817.04167
2830.722	822.04167
2832.905	832.70833
2835.086	853.70833
2837.267	883.04167
2839.445	888.375
2841.623	903.70833
2843.799	916.375
2845.974	959.70833
2848.147	966.04167
2850.319	993.70833
2852.489	1010.04167
2854.659	1034.375
2856.826	1034.04167
2858.993	1064.04167
2861.158	1047.04167
2863.321	1043.70833
2865.483	1062.375
2867.644	1056.70833
2869.804	1059.70833
2871.962	1064.375
2874.118	1044.70833
2876.274	1042.70833
2878.428	1051.04167
2880.58	1046.04167
2882.731	1031.375
2884.881	1043.70833
2887.03	1047.375
2889.177	1045.70833
2891.322	1054.375
2893.467	1058.375
2895.61	1052.04167
2897.751	1075.70833
2899.892	1060.375
2902.03	1076.04167
2904.168	1076.70833
2906.304	1088.375
2908.439	1107.70833
2910.572	1092.04167
2912.704	1103.375
2914.835	1105.375
2916.965	1110.04167
2919.093	1132.70833
2921.219	1098.375
2923.345	1132.04167
2925.469	1089.70833
2927.591	1081.70833
2929.712	1063.04167
2931.832	1064.04167
2933.951	1041.70833
2936.068	1044.375
2938.184	1022.70833
2940.299	1006.70833
2942.412	997.375
2944.524	953.04167
2946.634	955.04167
2948.744	920.70833
2950.851	956.70833
2952.958	922.04167
2955.063	914.375
2957.167	925.04167
2959.269	890.04167
2961.371	918.70833
2963.471	891.04167
2965.569	890.375
2967.666	857.04167
2969.762	860.04167
2971.857	853.04167
2973.95	846.04167
2976.042	833.375
2978.133	817.04167
2980.222	809.70833
2982.31	801.375
2984.396	772.04167
2986.482	791.04167
2988.566	783.375
2990.648	775.70833
2992.73	784.04167
2994.81	763.70833
2996.889	781.70833
2998.966	772.70833
3001.042	791.70833
3003.117	777.04167
3005.191	773.375
3007.263	768.375
3009.334	762.375
3011.403	772.375
3013.472	739.70833
3015.539	744.375
3017.604	739.70833
3019.669	714.04167
3021.732	716.70833
3023.794	717.04167
3025.854	715.375
3027.914	712.70833
3029.971	731.70833
3032.028	721.70833
3034.083	714.375
3036.137	710.70833
3038.19	692.70833
3040.242	671.70833
3042.292	656.375
3044.341	655.04167
3046.388	657.375
3048.435	647.04167
3050.48	650.375
3052.524	647.04167
3054.566	625.70833
3056.607	647.04167
3058.647	632.70833
3060.686	590.70833
3062.723	592.375
3064.759	570.04167
3066.794	-0.625
3068.828	1.70833
3070.86	2.70833
