-0.839	645.95833
3.438	739.625
7.711	215.625
11.981	67.29167
16.247	48.625
20.509	52.95833
24.768	50.29167
29.024	57.95833
33.276	47.625
37.524	50.29167
41.769	47.625
46.01	34.95833
50.247	49.29167
54.481	61.29167
58.712	64.29167
62.939	47.625
67.162	62.95833
71.382	60.29167
75.599	47.625
79.812	66.625
84.021	77.29167
88.227	60.29167
92.429	59.29167
96.628	55.29167
100.823	71.95833
105.015	78.625
109.204	69.95833
113.388	80.95833
117.57	76.95833
121.748	92.95833
125.922	80.95833
130.093	99.625
134.261	100.625
138.425	105.95833
142.585	147.625
146.742	139.625
150.896	170.625
155.046	221.625
159.193	341.625
163.336	601.625
167.476	1086.95833
171.613	1987.95833
175.746	3318.95833
179.875	4863.95833
184.002	6282.625
188.124	7225.95833
192.244	7506.625
196.36	7376.95833
200.472	7141.625
204.581	6926.29167
208.687	6704.95833
212.79	6588.29167
216.889	6557.625
220.984	6533.29167
225.077	6524.625
229.165	6495.29167
233.251	6496.29167
237.333	6434.95833
241.412	6359.95833
245.487	6230.95833
249.559	6186.625
253.628	6140.29167
257.694	6088.29167
261.756	5977.625
265.814	5852.29167
269.87	5670.95833
273.922	5479.95833
277.97	5356.29167
282.016	5311.95833
286.058	5329.95833
290.097	5392.95833
294.132	5432.95833
298.164	5385.95833
302.193	5176.29167
306.219	4814.625
310.241	4422.95833
314.26	4101.29167
318.276	3860.29167
322.288	3638.29167
326.297	3485.625
330.303	3393.29167
334.305	3310.95833
338.305	3240.29167
342.301	3202.29167
346.294	3168.625
350.283	3162.95833
354.269	3132.95833
358.252	3101.95833
362.232	3094.95833
366.209	3062.95833
370.182	3040.95833
374.152	3033.95833
378.119	3032.95833
382.083	3029.625
386.043	3027.95833
390	3015.29167
393.954	3046.29167
397.905	2987.625
401.852	2991.95833
405.797	2979.29167
409.738	2942.95833
413.676	2968.95833
417.61	2944.95833
421.542	2909.29167
425.47	2897.625
429.396	2875.95833
433.318	2888.625
437.236	2862.29167
441.152	2863.625
445.065	2820.29167
448.974	2808.29167
452.88	2804.29167
456.783	2748.29167
460.683	2746.625
464.58	2783.625
468.473	2747.29167
472.364	2778.95833
476.251	2765.29167
480.135	2798.625
484.016	2853.625
487.894	2860.95833
491.769	2860.625
495.641	2849.625
499.509	2852.625
503.375	2877.29167
507.237	2823.29167
511.096	2826.95833
514.952	2835.95833
518.805	2863.95833
522.655	2881.625
526.502	2838.95833
530.346	2829.95833
534.187	2870.95833
538.024	2846.95833
541.859	2871.29167
545.69	2917.95833
549.519	2887.625
553.344	2856.95833
557.166	2841.625
560.985	2818.625
564.802	2759.95833
568.615	2718.95833
572.425	2659.29167
576.232	2656.95833
580.036	2625.95833
583.836	2644.29167
587.634	2653.625
591.429	2656.625
595.221	2721.29167
599.01	2760.95833
602.796	2783.95833
606.578	2794.29167
610.358	2826.625
614.135	2766.29167
617.909	2754.95833
621.679	2722.95833
625.447	2720.95833
629.212	2724.95833
632.973	2722.95833
636.732	2722.29167
640.488	2727.625
644.241	2681.625
647.991	2694.95833
651.737	2669.29167
655.481	2653.625
659.222	2686.29167
662.96	2649.29167
666.695	2692.29167
670.427	2694.625
674.156	2720.95833
677.882	2700.95833
681.605	2698.625
685.325	2666.95833
689.043	2678.29167
692.757	2625.95833
696.468	2669.95833
700.177	2654.29167
703.882	2613.95833
707.585	2606.95833
711.284	2608.625
714.981	2612.29167
718.675	2604.29167
722.366	2608.95833
726.054	2600.625
729.739	2586.29167
733.421	2596.95833
737.1	2602.625
740.777	2618.29167
744.45	2625.29167
748.121	2648.95833
751.789	2714.29167
755.453	2687.625
759.115	2711.95833
762.774	2720.95833
766.431	2734.625
770.084	2765.29167
773.734	2791.95833
777.382	2831.29167
781.027	2864.625
784.669	2870.95833
788.308	2845.95833
791.944	2880.95833
795.577	2908.95833
799.208	2910.95833
802.835	2946.95833
806.46	2940.29167
810.082	2972.29167
813.701	2953.29167
817.317	3007.95833
820.931	3001.625
824.542	3001.29167
828.149	2941.95833
831.754	2903.29167
835.357	2934.625
838.956	2940.625
842.553	2929.95833
846.146	2924.29167
849.737	2865.625
853.326	2905.29167
856.911	2890.625
860.493	2942.29167
864.073	2953.625
867.65	2960.95833
871.225	3037.625
874.796	2979.29167
878.365	3009.625
881.931	3028.625
885.494	3033.625
889.054	3038.95833
892.612	3064.95833
896.166	3026.29167
899.719	2989.29167
903.268	2972.625
906.814	2943.29167
910.358	2918.29167
913.899	2888.95833
917.438	2906.95833
920.973	2885.95833
924.506	2923.95833
928.036	2993.95833
931.564	3012.625
935.088	3053.95833
938.61	3063.95833
942.129	3101.95833
945.646	3178.95833
949.16	3202.625
952.671	3259.29167
956.179	3274.95833
959.685	3252.95833
963.188	3227.29167
966.688	3186.29167
970.185	3111.29167
973.68	3029.625
977.173	2991.95833
980.662	2916.95833
984.149	2934.95833
987.633	2916.625
991.114	2970.95833
994.593	3035.95833
998.069	3116.625
1001.542	3180.29167
1005.013	3139.625
1008.481	2963.29167
1011.947	2939.95833
1015.409	2899.625
1018.869	2884.29167
1022.327	2883.29167
1025.782	2885.95833
1029.234	2866.95833
1032.683	2848.29167
1036.13	2762.625
1039.574	2625.29167
1043.016	2560.95833
1046.455	2532.29167
1049.891	2539.29167
1053.325	2520.95833
1056.756	2538.625
1060.184	2549.95833
1063.61	2556.29167
1067.033	2578.625
1070.454	2569.29167
1073.872	2585.95833
1077.287	2566.29167
1080.7	2585.625
1084.11	2571.29167
1087.517	2555.95833
1090.922	2517.625
1094.325	2477.29167
1097.724	2481.29167
1101.122	2477.95833
1104.516	2488.29167
1107.908	2491.95833
1111.298	2508.625
1114.684	2544.625
1118.069	2569.95833
1121.45	2616.95833
1124.83	2609.625
1128.206	2618.625
1131.58	2659.29167
1134.951	2746.29167
1138.32	2804.29167
1141.687	2913.625
1145.05	2965.29167
1148.412	2966.95833
1151.77	2946.625
1155.126	2972.625
1158.48	2942.625
1161.831	2952.95833
1165.18	2963.29167
1168.525	3026.29167
1171.869	3058.95833
1175.21	3071.29167
1178.548	3108.625
1181.884	3127.29167
1185.217	3138.625
1188.548	3222.95833
1191.877	3280.625
1195.202	3377.625
1198.526	3442.625
1201.846	3477.29167
1205.165	3454.95833
1208.48	3459.95833
1211.794	3450.95833
1215.104	3449.625
1218.413	3439.95833
1221.719	3464.95833
1225.022	3389.95833
1228.323	3334.625
1231.621	3311.29167
1234.917	3279.625
1238.21	3309.95833
1241.501	3283.29167
1244.79	3266.95833
1248.076	3316.95833
1251.359	3323.625
1254.64	3374.29167
1257.919	3411.95833
1261.195	3444.29167
1264.468	3509.29167
1267.74	3561.625
1271.008	3560.29167
1274.275	3525.625
1277.538	3524.95833
1280.8	3524.95833
1284.059	3512.95833
1287.315	3515.95833
1290.569	3548.625
1293.821	3582.29167
1297.07	3583.29167
1300.317	3627.95833
1303.562	3614.625
1306.803	3558.95833
1310.043	3540.95833
1313.28	3515.29167
1316.515	3493.95833
1319.747	3467.625
1322.977	3429.29167
1326.204	3386.29167
1329.429	3356.625
1332.652	3327.29167
1335.872	3298.625
1339.09	3284.29167
1342.306	3257.29167
1345.519	3220.625
1348.729	3186.29167
1351.938	3170.625
1355.144	3135.29167
1358.347	3117.95833
1361.548	3119.625
1364.747	3080.95833
1367.944	3074.95833
1371.138	3095.95833
1374.329	3095.29167
1377.518	3112.625
1380.705	3140.29167
1383.89	3100.29167
1387.072	3004.95833
1390.252	2893.625
1393.429	2778.95833
1396.605	2707.95833
1399.777	2618.625
1402.948	2613.29167
1406.116	2567.95833
1409.282	2584.29167
1412.445	2559.95833
1415.606	2613.95833
1418.765	2632.29167
1421.921	2682.29167
1425.075	2744.95833
1428.227	2839.625
1431.376	2957.29167
1434.524	3058.625
1437.668	3151.29167
1440.811	3197.625
1443.951	3207.625
1447.089	3212.625
1450.224	3202.29167
1453.357	3197.29167
1456.488	3168.29167
1459.617	3150.95833
1462.743	3077.95833
1465.867	3015.29167
1468.989	2971.29167
1472.108	2909.95833
1475.225	2852.29167
1478.34	2821.95833
1481.453	2829.95833
1484.563	2817.625
1487.671	2867.95833
1490.776	2894.29167
1493.88	2952.625
1496.981	2962.29167
1500.08	3023.29167
1503.176	3067.29167
1506.271	3124.95833
1509.363	3133.625
1512.452	3193.95833
1515.54	3212.95833
1518.625	3236.95833
1521.708	3340.625
1524.789	3399.95833
1527.867	3539.625
1530.944	3765.95833
1534.018	3908.95833
1537.089	4066.29167
1540.159	4106.29167
1543.226	4091.29167
1546.291	4007.29167
1549.354	3933.29167
1552.415	3825.29167
1555.473	3738.625
1558.529	3699.95833
1561.583	3668.29167
1564.634	3610.625
1567.684	3639.625
1570.731	3658.29167
1573.776	3691.625
1576.819	3711.95833
1579.859	3781.625
1582.898	3820.95833
1585.934	3859.625
1588.968	3883.625
1591.999	3857.29167
1595.029	3880.95833
1598.056	3900.625
1601.081	3917.29167
1604.104	3867.29167
1607.125	3867.625
1610.144	3781.95833
1613.16	3713.95833
1616.174	3634.29167
1619.186	3545.95833
1622.196	3436.95833
1625.203	3367.95833
1628.209	3328.29167
1631.212	3288.625
1634.213	3271.625
1637.212	3271.95833
1640.209	3218.29167
1643.203	3156.95833
1646.196	3022.95833
1649.186	2916.625
1652.174	2803.29167
1655.16	2708.29167
1658.144	2615.29167
1661.125	2485.625
1664.105	2401.95833
1667.082	2294.95833
1670.057	2180.625
1673.03	2033.625
1676.001	1934.29167
1678.97	1800.625
1681.937	1709.29167
1684.901	1592.95833
1687.863	1542.29167
1690.824	1469.29167
1693.782	1453.95833
1696.738	1376.29167
1699.692	1347.95833
1702.643	1314.95833
1705.593	1292.95833
1708.54	1293.29167
1711.486	1301.625
1714.429	1232.625
1717.37	1238.29167
1720.309	1210.625
1723.246	1229.625
1726.181	1189.95833
1729.113	1186.625
1732.044	1164.29167
1734.972	1164.29167
1737.899	1155.625
1740.823	1168.29167
1743.745	1112.95833
1746.665	1116.95833
1749.583	1094.29167
1752.499	1064.625
1755.413	1068.625
1758.325	1045.625
1761.235	1041.29167
1764.142	1034.29167
1767.048	1019.625
1769.951	1009.95833
1772.852	1014.29167
1775.752	986.625
1778.649	991.95833
1781.544	1002.29167
1784.437	965.95833
1787.328	971.95833
1790.217	961.95833
1793.104	928.29167
1795.989	944.95833
1798.872	930.625
1801.753	938.95833
1804.631	935.95833
1807.508	947.625
1810.383	937.95833
1813.255	928.625
1816.126	931.95833
1818.994	925.95833
1821.861	909.29167
1824.725	916.29167
1827.587	911.95833
1830.448	914.95833
1833.306	881.95833
1836.162	897.625
1839.017	889.29167
1841.869	885.29167
1844.719	878.625
1847.567	863.625
1850.414	873.29167
1853.258	871.29167
1856.1	871.625
1858.94	884.95833
1861.778	868.625
1864.614	864.29167
1867.448	844.95833
1870.28	847.625
1873.111	878.625
1875.939	865.625
1878.765	866.625
1881.589	840.95833
1884.411	846.29167
1887.231	848.95833
1890.049	844.29167
1892.865	857.625
1895.68	829.95833
1898.492	845.625
1901.302	832.95833
1904.11	824.95833
1906.916	819.625
1909.721	816.29167
1912.523	813.625
1915.323	808.95833
1918.122	804.95833
1920.918	819.29167
1923.712	787.625
1926.505	789.29167
1929.295	781.95833
1932.084	808.29167
1934.87	792.625
1937.655	780.625
1940.438	783.95833
1943.218	789.29167
1945.997	795.625
1948.774	801.95833
1951.549	798.625
1954.322	776.625
1957.093	780.95833
1959.862	771.95833
1962.629	775.29167
1965.394	774.95833
1968.157	749.625
1970.918	769.625
1973.678	751.95833
1976.435	761.95833
1979.19	752.95833
1981.944	742.625
1984.696	738.95833
1987.445	732.95833
1990.193	741.95833
1992.939	744.29167
1995.683	743.95833
1998.425	714.29167
2001.165	755.95833
2003.903	718.625
2006.639	724.29167
2009.374	731.95833
2012.106	726.95833
2014.837	712.625
2017.566	730.625
2020.292	722.29167
2023.017	725.29167
2025.74	713.29167
2028.461	708.95833
2031.18	716.95833
2033.898	712.29167
2036.613	714.625
2039.327	715.625
2042.038	694.95833
2044.748	706.625
2047.456	700.625
2050.162	695.29167
2052.866	697.29167
2055.568	701.95833
2058.268	682.29167
2060.967	691.95833
2063.663	677.29167
2066.358	681.95833
2069.051	682.625
2071.742	691.29167
2074.431	697.625
2077.118	679.95833
2079.804	670.625
2082.487	675.625
2085.169	686.625
2087.849	690.625
2090.527	671.29167
2093.203	683.29167
2095.877	691.95833
2098.55	690.29167
2101.22	701.625
2103.889	713.95833
2106.556	717.29167
2109.221	726.625
2111.884	744.29167
2114.546	788.95833
2117.205	846.29167
2119.863	920.29167
2122.519	972.95833
2125.173	1040.95833
2127.825	1084.29167
2130.475	1095.625
2133.124	1077.29167
2135.771	1025.625
2138.416	975.29167
2141.059	908.625
2143.7	875.625
2146.339	811.95833
2148.977	763.625
2151.613	757.95833
2154.247	733.95833
2156.879	708.95833
2159.51	693.29167
2162.138	676.95833
2164.765	666.625
2167.39	662.625
2170.013	672.29167
2172.634	656.95833
2175.254	647.29167
2177.872	676.29167
2180.488	628.29167
2183.102	649.625
2185.714	618.625
2188.325	616.29167
2190.934	613.625
2193.541	622.95833
2196.146	603.625
2198.75	595.29167
2201.351	604.29167
2203.951	589.95833
2206.549	609.29167
2209.146	579.625
2211.74	582.625
2214.333	591.95833
2216.924	567.95833
2219.514	583.625
2222.101	569.625
2224.687	576.625
2227.271	567.29167
2229.853	561.29167
2232.433	549.625
2235.012	570.29167
2237.589	570.29167
2240.164	577.625
2242.738	554.29167
2245.309	547.95833
2247.879	560.625
2250.448	560.95833
2253.014	535.95833
2255.579	517.29167
2258.142	540.95833
2260.703	528.95833
2263.262	520.95833
2265.82	523.625
2268.376	521.625
2270.93	502.95833
2273.483	509.95833
2276.033	513.95833
2278.583	510.95833
2281.13	502.625
2283.675	504.95833
2286.219	495.29167
2288.761	498.29167
2291.302	501.95833
2293.841	510.29167
2296.377	491.95833
2298.913	496.625
2301.446	504.625
2303.978	497.29167
2306.508	487.95833
2309.037	493.625
2311.563	504.29167
2314.088	490.29167
2316.612	467.29167
2319.133	487.95833
2321.653	487.29167
2324.171	474.29167
2326.688	490.95833
2329.202	481.95833
2331.715	480.625
2334.227	470.29167
2336.736	480.29167
2339.244	469.29167
2341.751	455.29167
2344.255	472.625
2346.758	469.95833
2349.259	454.625
2351.759	462.625
2354.257	462.95833
2356.753	448.29167
2359.247	454.95833
2361.74	466.625
2364.231	463.95833
2366.721	461.29167
2369.209	452.95833
2371.695	454.29167
2374.179	453.625
2376.662	446.29167
2379.143	462.95833
2381.622	441.29167
2384.1	455.625
2386.576	439.625
2389.051	460.95833
2391.524	459.29167
2393.995	449.29167
2396.464	446.95833
2398.932	441.29167
2401.398	438.29167
2403.863	438.625
2406.325	436.95833
2408.787	440.95833
2411.246	442.29167
2413.704	435.625
2416.16	427.625
2418.615	430.625
2421.068	444.29167
2423.519	442.95833
2425.969	427.625
2428.417	438.29167
2430.863	446.625
2433.308	435.95833
2435.751	424.29167
2438.193	424.95833
2440.633	428.29167
2443.071	431.625
2445.508	423.29167
2447.943	427.625
2450.376	411.29167
2452.808	418.625
2455.238	421.29167
2457.667	455.29167
2460.093	421.95833
2462.519	413.95833
2464.942	407.625
2467.365	419.625
2469.785	420.95833
2472.204	415.29167
2474.621	397.95833
2477.037	426.95833
2479.451	399.95833
2481.863	392.95833
2484.274	405.29167
2486.683	417.625
2489.091	414.29167
2491.497	404.29167
2493.901	409.625
2496.304	403.29167
2498.705	417.29167
2501.105	400.625
2503.503	431.29167
2505.899	389.625
2508.294	412.29167
2510.687	400.95833
2513.079	396.95833
2515.469	403.625
2517.858	406.29167
2520.245	406.29167
2522.63	400.29167
2525.014	398.29167
2527.396	379.625
2529.776	378.95833
2532.156	406.625
2534.533	384.625
2536.909	380.625
2539.283	376.95833
2541.656	388.625
2544.027	401.625
2546.397	392.95833
2548.765	381.95833
2551.131	390.95833
2553.496	383.95833
2555.86	393.95833
2558.221	392.29167
2560.582	379.29167
2562.94	376.29167
2565.298	389.625
2567.653	399.625
2570.007	371.625
2572.36	393.29167
2574.711	374.95833
2577.06	397.95833
2579.408	392.95833
2581.754	379.95833
2584.099	388.29167
2586.442	377.29167
2588.784	387.625
2591.124	379.95833
2593.463	382.625
2595.8	387.625
2598.135	366.95833
2600.469	378.95833
2602.802	388.29167
2605.133	387.625
2607.462	371.29167
2609.79	362.29167
2612.116	387.29167
2614.441	379.29167
2616.764	382.625
2619.086	374.625
2621.406	366.625
2623.725	389.95833
2626.042	389.95833
2628.358	371.29167
2630.672	370.29167
2632.985	381.625
2635.296	374.95833
2637.606	379.29167
2639.914	370.29167
2642.22	377.29167
2644.525	376.29167
2646.829	386.95833
2649.131	393.29167
2651.432	384.95833
2653.731	388.95833
2656.028	392.95833
2658.324	391.29167
2660.619	374.95833
2662.912	391.95833
2665.204	372.625
2667.494	392.95833
2669.782	375.95833
2672.07	389.95833
2674.355	390.625
2676.639	386.625
2678.922	375.29167
2681.203	380.95833
2683.483	378.625
2685.761	380.625
2688.038	389.29167
2690.313	395.29167
2692.587	384.95833
2694.859	379.29167
2697.13	382.95833
2699.399	400.29167
2701.667	406.95833
2703.933	394.95833
2706.198	404.29167
2708.461	403.95833
2710.723	407.625
2712.984	405.29167
2715.243	401.625
2717.5	397.625
2719.757	417.29167
2722.011	405.625
2724.264	420.29167
2726.516	422.625
2728.766	406.95833
2731.015	417.95833
2733.262	421.625
2735.508	413.95833
2737.753	417.95833
2739.996	403.95833
2742.237	394.625
2744.477	411.29167
2746.716	413.625
2748.953	400.29167
2751.189	411.29167
2753.423	396.29167
2755.656	388.625
2757.887	383.29167
2760.117	388.95833
2762.346	385.29167
2764.573	377.95833
2766.798	383.95833
2769.022	392.625
2771.245	395.95833
2773.467	388.625
2775.686	399.29167
2777.905	398.95833
2780.122	404.29167
2782.337	408.95833
2784.552	398.95833
2786.764	402.95833
2788.976	412.625
2791.186	408.29167
2793.394	420.29167
2795.601	422.625
2797.807	434.625
2800.011	433.95833
2802.214	436.625
2804.415	434.625
2806.615	446.29167
2808.814	445.29167
2811.011	453.95833
2813.206	456.95833
2815.401	480.95833
2817.594	475.29167
2819.785	480.95833
2821.975	476.95833
2824.164	483.29167
2826.351	497.29167
2828.537	513.29167
2830.722	519.625
2832.905	519.95833
2835.086	551.95833
2837.267	580.95833
2839.445	586.625
2841.623	603.625
2843.799	635.29167
2845.974	656.625
2848.147	690.95833
2850.319	706.95833
2852.489	735.625
2854.659	744.29167
2856.826	751.625
2858.993	780.29167
2861.158	767.95833
2863.321	764.625
2865.483	791.625
2867.644	785.29167
2869.804	778.95833
2871.962	778.625
2874.118	788.625
2876.274	776.625
2878.428	766.95833
2880.58	782.95833
2882.731	769.625
2884.881	768.625
2887.03	779.29167
2889.177	774.95833
2891.322	785.95833
2893.467	789.95833
2895.61	781.95833
2897.751	802.625
2899.892	799.95833
2902.03	795.29167
2904.168	808.95833
2906.304	807.625
2908.439	819.95833
2910.572	804.625
2912.704	822.29167
2914.835	838.625
2916.965	816.95833
2919.093	832.29167
2921.219	808.625
2923.345	825.29167
2925.469	794.95833
2927.591	808.29167
2929.712	776.29167
2931.832	779.625
2933.951	754.625
2936.068	741.29167
2938.184	723.95833
2940.299	711.29167
2942.412	675.95833
2944.524	655.625
2946.634	646.29167
2948.744	605.29167
2950.851	626.95833
2952.958	586.625
2955.063	586.95833
2957.167	577.29167
2959.269	544.29167
2961.371	575.625
2963.471	522.625
2965.569	526.29167
2967.666	503.625
2969.762	490.95833
2971.857	493.95833
2973.95	472.95833
2976.042	460.625
2978.133	469.625
2980.222	440.95833
2982.31	417.95833
2984.396	406.95833
2986.482	404.95833
2988.566	408.625
2990.648	401.625
2992.73	397.625
2994.81	385.29167
2996.889	390.29167
2998.966	380.95833
3001.042	393.29167
3003.117	397.29167
3005.191	380.95833
3007.263	388.625
3009.334	374.95833
3011.403	378.625
3013.472	368.29167
3015.539	376.95833
3017.604	373.29167
3019.669	336.95833
3021.732	347.625
3023.794	338.95833
3025.854	347.95833
3027.914	335.29167
3029.971	348.29167
3032.028	334.95833
3034.083	342.625
3036.137	336.95833
3038.19	325.95833
3040.242	313.29167
3042.292	311.625
3044.341	311.625
3046.388	324.625
3048.435	302.95833
3050.48	317.95833
3052.524	304.625
3054.566	287.95833
3056.607	302.625
3058.647	289.625
3060.686	277.95833
3062.723	277.625
3064.759	266.29167
3066.794	1.95833
3068.828	1.95833
3070.86	2.95833
