-0.839	650.91667
3.438	725.25
7.711	212.58333
11.981	61.25
16.247	51.91667
20.509	55.91667
24.768	49.58333
29.024	57.25
33.276	45.58333
37.524	53.58333
41.769	50.25
46.01	35.91667
50.247	46.91667
54.481	57.91667
58.712	62.58333
62.939	44.58333
67.162	64.58333
71.382	57.91667
75.599	45.25
79.812	69.91667
84.021	84.91667
88.227	58.91667
92.429	63.58333
96.628	54.91667
100.823	78.25
105.015	78.58333
109.204	67.25
113.388	76.58333
117.57	78.58333
121.748	87.25
125.922	82.58333
130.093	102.91667
134.261	103.58333
138.425	105.58333
142.585	145.91667
146.742	134.25
150.896	169.25
155.046	216.91667
159.193	347.25
163.336	606.91667
167.476	1103.25
171.613	1995.91667
175.746	3302.58333
179.875	4863.58333
184.002	6323.91667
188.124	7280.91667
192.244	7514.25
196.36	7388.25
200.472	7158.58333
204.581	6918.25
208.687	6724.91667
212.79	6583.58333
216.889	6576.91667
220.984	6551.25
225.077	6560.91667
229.165	6526.91667
233.251	6503.91667
237.333	6448.58333
241.412	6373.25
245.487	6289.91667
249.559	6234.58333
253.628	6182.58333
257.694	6112.58333
261.756	6041.25
265.814	5900.91667
269.87	5683.25
273.922	5538.91667
277.97	5382.58333
282.016	5350.58333
286.058	5366.91667
290.097	5442.91667
294.132	5468.25
298.164	5460.91667
302.193	5178.25
306.219	4843.91667
310.241	4481.25
314.26	4142.91667
318.276	3866.58333
322.288	3707.25
326.297	3544.58333
330.303	3400.91667
334.305	3345.25
338.305	3298.91667
342.301	3234.91667
346.294	3216.25
350.283	3199.91667
354.269	3185.91667
358.252	3153.25
362.232	3145.25
366.209	3126.91667
370.182	3081.58333
374.152	3061.25
378.119	3105.58333
382.083	3072.58333
386.043	3103.58333
390	3072.25
393.954	3062.91667
397.905	3051.25
401.852	3036.25
405.797	2991.91667
409.738	2985.91667
413.676	2991.91667
417.61	2975.25
421.542	2979.58333
425.47	2937.91667
429.396	2919.91667
433.318	2909.25
437.236	2903.25
441.152	2933.58333
445.065	2857.58333
448.974	2867.25
452.88	2840.91667
456.783	2833.58333
460.683	2797.91667
464.58	2816.25
468.473	2822.58333
472.364	2834.25
476.251	2823.91667
480.135	2853.25
484.016	2876.25
487.894	2889.25
491.769	2897.91667
495.641	2895.91667
499.509	2928.58333
503.375	2889.58333
507.237	2905.58333
511.096	2869.25
514.952	2883.25
518.805	2903.91667
522.655	2919.25
526.502	2890.25
530.346	2864.25
534.187	2884.91667
538.024	2907.91667
541.859	2898.91667
545.69	2952.25
549.519	2923.91667
553.344	2905.25
557.166	2856.25
560.985	2838.91667
564.802	2792.58333
568.615	2754.91667
572.425	2717.91667
576.232	2698.91667
580.036	2678.91667
583.836	2699.91667
587.634	2710.58333
591.429	2714.58333
595.221	2757.58333
599.01	2808.58333
602.796	2828.58333
606.578	2852.91667
610.358	2827.91667
614.135	2819.58333
617.909	2794.91667
621.679	2776.91667
625.447	2741.58333
629.212	2745.25
632.973	2771.91667
636.732	2762.91667
640.488	2777.58333
644.241	2739.25
647.991	2724.58333
651.737	2744.58333
655.481	2713.58333
659.222	2733.25
662.96	2725.25
666.695	2746.25
670.427	2725.58333
674.156	2751.25
677.882	2737.58333
681.605	2725.91667
685.325	2702.25
689.043	2692.91667
692.757	2680.58333
696.468	2689.25
700.177	2676.25
703.882	2661.25
707.585	2649.91667
711.284	2653.91667
714.981	2627.91667
718.675	2639.25
722.366	2651.25
726.054	2638.58333
729.739	2629.91667
733.421	2671.58333
737.1	2642.25
740.777	2668.25
744.45	2676.58333
748.121	2684.91667
751.789	2745.25
755.453	2708.25
759.115	2759.25
762.774	2785.58333
766.431	2785.58333
770.084	2819.25
773.734	2840.91667
777.382	2881.58333
781.027	2889.25
784.669	2906.25
788.308	2913.25
791.944	2940.91667
795.577	2926.91667
799.208	2970.58333
802.835	2961.25
806.46	2994.91667
810.082	3008.25
813.701	3005.25
817.317	3023.58333
820.931	3025.25
824.542	3037.58333
828.149	2983.91667
831.754	2949.25
835.357	2956.58333
838.956	2963.25
842.553	2956.91667
846.146	2937.58333
849.737	2919.91667
853.326	2947.25
856.911	2938.91667
860.493	2962.91667
864.073	2981.25
867.65	2995.25
871.225	3032.91667
874.796	3041.58333
878.365	3056.25
881.931	3051.25
885.494	3097.25
889.054	3103.58333
892.612	3095.91667
896.166	3072.91667
899.719	3036.25
903.268	2977.58333
906.814	2996.25
910.358	2952.58333
913.899	2936.58333
917.438	2937.25
920.973	2926.58333
924.506	2953.91667
928.036	3001.25
931.564	3028.58333
935.088	3107.25
938.61	3087.58333
942.129	3131.25
945.646	3212.91667
949.16	3246.91667
952.671	3304.25
956.179	3316.25
959.685	3280.91667
963.188	3269.25
966.688	3209.25
970.185	3138.91667
973.68	3061.25
977.173	3006.25
980.662	2977.58333
984.149	2967.58333
987.633	2951.58333
991.114	3018.91667
994.593	3071.25
998.069	3155.58333
1001.542	3215.91667
1005.013	3178.58333
1008.481	3010.58333
1011.947	2983.91667
1015.409	2931.58333
1018.869	2938.91667
1022.327	2936.58333
1025.782	2902.58333
1029.234	2908.91667
1032.683	2865.25
1036.13	2777.25
1039.574	2671.91667
1043.016	2598.58333
1046.455	2541.91667
1049.891	2530.25
1053.325	2543.91667
1056.756	2545.58333
1060.184	2563.25
1063.61	2579.25
1067.033	2599.91667
1070.454	2599.91667
1073.872	2630.58333
1077.287	2617.91667
1080.7	2597.25
1084.11	2597.58333
1087.517	2591.91667
1090.922	2530.91667
1094.325	2542.25
1097.724	2523.91667
1101.122	2517.25
1104.516	2505.91667
1107.908	2499.25
1111.298	2539.58333
1114.684	2578.91667
1118.069	2597.58333
1121.45	2632.25
1124.83	2625.91667
1128.206	2652.91667
1131.58	2678.91667
1134.951	2776.91667
1138.32	2834.25
1141.687	2924.91667
1145.05	2997.58333
1148.412	2977.25
1151.77	2987.25
1155.126	2980.91667
1158.48	2966.58333
1161.831	2964.91667
1165.18	2981.58333
1168.525	3055.91667
1171.869	3079.91667
1175.21	3098.25
1178.548	3128.58333
1181.884	3146.91667
1185.217	3182.91667
1188.548	3263.91667
1191.877	3326.91667
1195.202	3414.25
1198.526	3501.25
1201.846	3490.91667
1205.165	3500.58333
1208.48	3470.91667
1211.794	3447.58333
1215.104	3489.25
1218.413	3473.91667
1221.719	3457.25
1225.022	3431.58333
1228.323	3381.58333
1231.621	3350.25
1234.917	3331.91667
1238.21	3342.91667
1241.501	3318.58333
1244.79	3310.58333
1248.076	3306.25
1251.359	3335.58333
1254.64	3404.25
1257.919	3405.58333
1261.195	3488.25
1264.468	3539.25
1267.74	3555.91667
1271.008	3585.58333
1274.275	3577.25
1277.538	3549.25
1280.8	3527.91667
1284.059	3532.91667
1287.315	3570.91667
1290.569	3573.91667
1293.821	3643.25
1297.07	3620.91667
1300.317	3650.58333
1303.562	3638.25
1306.803	3601.25
1310.043	3568.25
1313.28	3532.58333
1316.515	3512.58333
1319.747	3496.58333
1322.977	3461.25
1326.204	3427.58333
1329.429	3374.91667
1332.652	3355.91667
1335.872	3353.91667
1339.09	3288.91667
1342.306	3283.58333
1345.519	3250.58333
1348.729	3217.25
1351.938	3198.25
1355.144	3162.58333
1358.347	3143.25
1361.548	3120.58333
1364.747	3118.25
1367.944	3125.91667
1371.138	3099.25
1374.329	3091.25
1377.518	3150.25
1380.705	3150.58333
1383.89	3144.58333
1387.072	3044.91667
1390.252	2893.58333
1393.429	2831.25
1396.605	2722.58333
1399.777	2646.25
1402.948	2624.58333
1406.116	2605.91667
1409.282	2597.58333
1412.445	2600.91667
1415.606	2635.25
1418.765	2684.91667
1421.921	2716.58333
1425.075	2770.91667
1428.227	2858.91667
1431.376	2984.25
1434.524	3095.91667
1437.668	3171.25
1440.811	3187.58333
1443.951	3235.25
1447.089	3249.58333
1450.224	3224.25
1453.357	3200.91667
1456.488	3192.58333
1459.617	3138.91667
1462.743	3118.91667
1465.867	3001.91667
1468.989	2978.91667
1472.108	2928.91667
1475.225	2890.58333
1478.34	2852.91667
1481.453	2851.91667
1484.563	2842.58333
1487.671	2879.58333
1490.776	2905.58333
1493.88	2970.58333
1496.981	3015.91667
1500.08	3079.25
1503.176	3087.25
1506.271	3142.58333
1509.363	3164.91667
1512.452	3207.91667
1515.54	3229.91667
1518.625	3279.58333
1521.708	3349.58333
1524.789	3453.91667
1527.867	3583.58333
1530.944	3748.91667
1534.018	3918.58333
1537.089	4097.91667
1540.159	4147.58333
1543.226	4115.25
1546.291	4035.58333
1549.354	3949.58333
1552.415	3864.58333
1555.473	3746.25
1558.529	3722.91667
1561.583	3677.91667
1564.634	3672.91667
1567.684	3659.58333
1570.731	3682.58333
1573.776	3696.91667
1576.819	3758.91667
1579.859	3824.91667
1582.898	3823.91667
1585.934	3883.58333
1588.968	3902.25
1591.999	3882.25
1595.029	3908.91667
1598.056	3906.91667
1601.081	3917.25
1604.104	3918.25
1607.125	3868.25
1610.144	3800.91667
1613.16	3723.25
1616.174	3649.91667
1619.186	3554.25
1622.196	3479.25
1625.203	3390.58333
1628.209	3350.25
1631.212	3309.25
1634.213	3305.25
1637.212	3279.91667
1640.209	3250.25
1643.203	3159.25
1646.196	3052.25
1649.186	2922.58333
1652.174	2809.58333
1655.16	2731.25
1658.144	2659.25
1661.125	2538.91667
1664.105	2418.25
1667.082	2308.91667
1670.057	2187.58333
1673.03	2046.25
1676.001	1940.91667
1678.97	1830.91667
1681.937	1709.25
1684.901	1617.58333
1687.863	1565.91667
1690.824	1489.91667
1693.782	1459.91667
1696.738	1393.91667
1699.692	1379.91667
1702.643	1329.25
1705.593	1311.58333
1708.54	1313.91667
1711.486	1306.58333
1714.429	1264.58333
1717.37	1254.25
1720.309	1211.91667
1723.246	1242.91667
1726.181	1203.25
1729.113	1197.91667
1732.044	1187.58333
1734.972	1180.25
1737.899	1177.25
1740.823	1168.25
1743.745	1145.25
1746.665	1135.25
1749.583	1115.25
1752.499	1094.91667
1755.413	1089.91667
1758.325	1068.25
1761.235	1053.25
1764.142	1036.91667
1767.048	1019.91667
1769.951	1028.25
1772.852	1027.25
1775.752	1012.58333
1778.649	1002.91667
1781.544	1007.25
1784.437	984.91667
1787.328	995.58333
1790.217	978.25
1793.104	950.91667
1795.989	950.91667
1798.872	954.25
1801.753	952.58333
1804.631	953.25
1807.508	961.91667
1810.383	960.25
1813.255	934.25
1816.126	948.25
1818.994	938.91667
1821.861	928.25
1824.725	928.25
1827.587	917.91667
1830.448	914.25
1833.306	894.58333
1836.162	909.91667
1839.017	894.58333
1841.869	886.25
1844.719	886.58333
1847.567	876.25
1850.414	873.91667
1853.258	868.91667
1856.1	897.58333
1858.94	886.91667
1861.778	876.25
1864.614	867.58333
1867.448	868.58333
1870.28	856.91667
1873.111	883.91667
1875.939	863.25
1878.765	883.91667
1881.589	866.25
1884.411	857.25
1887.231	860.91667
1890.049	860.25
1892.865	849.58333
1895.68	842.91667
1898.492	840.58333
1901.302	843.58333
1904.11	849.58333
1906.916	835.58333
1909.721	822.91667
1912.523	832.91667
1915.323	817.25
1918.122	814.91667
1920.918	819.91667
1923.712	801.25
1926.505	809.58333
1929.295	797.25
1932.084	817.58333
1934.87	814.91667
1937.655	797.25
1940.438	790.58333
1943.218	808.58333
1945.997	809.58333
1948.774	820.91667
1951.549	812.25
1954.322	791.25
1957.093	789.91667
1959.862	781.91667
1962.629	766.58333
1965.394	773.58333
1968.157	774.25
1970.918	756.91667
1973.678	749.25
1976.435	775.25
1979.19	770.58333
1981.944	744.25
1984.696	750.58333
1987.445	737.91667
1990.193	748.58333
1992.939	756.91667
1995.683	752.58333
1998.425	722.25
2001.165	759.58333
2003.903	739.25
2006.639	748.58333
2009.374	744.25
2012.106	734.25
2014.837	723.58333
2017.566	741.25
2020.292	740.91667
2023.017	736.58333
2025.74	725.91667
2028.461	719.58333
2031.18	718.25
2033.898	716.25
2036.613	719.58333
2039.327	712.58333
2042.038	704.58333
2044.748	706.25
2047.456	710.58333
2050.162	695.91667
2052.866	702.58333
2055.568	714.91667
2058.268	690.25
2060.967	710.91667
2063.663	680.25
2066.358	680.58333
2069.051	680.91667
2071.742	687.91667
2074.431	697.91667
2077.118	690.25
2079.804	678.25
2082.487	691.58333
2085.169	701.25
2087.849	716.91667
2090.527	676.25
2093.203	691.91667
2095.877	701.58333
2098.55	695.25
2101.22	709.25
2103.889	723.91667
2106.556	703.58333
2109.221	737.25
2111.884	745.91667
2114.546	796.91667
2117.205	854.25
2119.863	926.58333
2122.519	979.25
2125.173	1049.25
2127.825	1104.58333
2130.475	1119.25
2133.124	1051.58333
2135.771	1014.58333
2138.416	984.25
2141.059	912.58333
2143.7	876.58333
2146.339	827.25
2148.977	771.25
2151.613	760.58333
2154.247	740.91667
2156.879	721.58333
2159.51	709.58333
2162.138	685.91667
2164.765	699.25
2167.39	660.58333
2170.013	679.91667
2172.634	670.25
2175.254	665.91667
2177.872	681.58333
2180.488	638.91667
2183.102	644.58333
2185.714	638.58333
2188.325	612.58333
2190.934	627.25
2193.541	626.58333
2196.146	618.58333
2198.75	599.25
2201.351	603.25
2203.951	592.91667
2206.549	609.25
2209.146	603.58333
2211.74	600.91667
2214.333	602.58333
2216.924	574.91667
2219.514	582.58333
2222.101	577.25
2224.687	590.91667
2227.271	570.25
2229.853	568.25
2232.433	566.25
2235.012	578.25
2237.589	571.91667
2240.164	576.91667
2242.738	565.91667
2245.309	551.25
2247.879	565.91667
2250.448	574.58333
2253.014	542.58333
2255.579	529.58333
2258.142	545.25
2260.703	532.25
2263.262	533.58333
2265.82	519.91667
2268.376	540.58333
2270.93	512.58333
2273.483	519.91667
2276.033	524.58333
2278.583	516.25
2281.13	512.25
2283.675	509.25
2286.219	510.91667
2288.761	507.58333
2291.302	505.91667
2293.841	516.58333
2296.377	504.91667
2298.913	497.91667
2301.446	515.58333
2303.978	509.25
2306.508	494.91667
2309.037	495.91667
2311.563	496.25
2314.088	499.25
2316.612	470.25
2319.133	489.58333
2321.653	484.25
2324.171	480.58333
2326.688	503.25
2329.202	482.25
2331.715	473.91667
2334.227	471.58333
2336.736	483.91667
2339.244	465.25
2341.751	457.25
2344.255	472.91667
2346.758	476.91667
2349.259	462.91667
2351.759	473.91667
2354.257	459.25
2356.753	461.91667
2359.247	465.58333
2361.74	472.58333
2364.231	455.58333
2366.721	464.58333
2369.209	456.58333
2371.695	461.25
2374.179	453.58333
2376.662	444.25
2379.143	470.25
2381.622	450.58333
2384.1	459.58333
2386.576	453.58333
2389.051	462.25
2391.524	469.58333
2393.995	450.58333
2396.464	447.25
2398.932	442.25
2401.398	446.25
2403.863	448.25
2406.325	438.25
2408.787	446.58333
2411.246	448.58333
2413.704	434.25
2416.16	441.91667
2418.615	440.91667
2421.068	448.58333
2423.519	438.25
2425.969	431.25
2428.417	433.25
2430.863	454.91667
2433.308	445.58333
2435.751	433.91667
2438.193	438.58333
2440.633	431.25
2443.071	432.58333
2445.508	423.58333
2447.943	427.91667
2450.376	418.58333
2452.808	426.25
2455.238	412.25
2457.667	461.25
2460.093	425.58333
2462.519	409.58333
2464.942	429.91667
2467.365	423.91667
2469.785	423.25
2472.204	423.58333
2474.621	409.25
2477.037	427.91667
2479.451	409.58333
2481.863	400.58333
2484.274	411.25
2486.683	411.91667
2489.091	421.58333
2491.497	408.25
2493.901	410.91667
2496.304	409.58333
2498.705	414.25
2501.105	408.58333
2503.503	429.58333
2505.899	394.58333
2508.294	414.58333
2510.687	409.58333
2513.079	412.91667
2515.469	393.91667
2517.858	399.91667
2520.245	413.25
2522.63	399.58333
2525.014	399.91667
2527.396	398.25
2529.776	384.58333
2532.156	409.25
2534.533	389.25
2536.909	390.25
2539.283	376.25
2541.656	396.25
2544.027	408.91667
2546.397	395.58333
2548.765	388.91667
2551.131	385.25
2553.496	385.58333
2555.86	391.91667
2558.221	395.91667
2560.582	388.25
2562.94	376.25
2565.298	377.58333
2567.653	400.25
2570.007	373.25
2572.36	394.91667
2574.711	371.25
2577.06	404.91667
2579.408	388.58333
2581.754	390.91667
2584.099	389.58333
2586.442	378.91667
2588.784	389.91667
2591.124	386.58333
2593.463	389.91667
2595.8	388.25
2598.135	375.91667
2600.469	378.58333
2602.802	393.58333
2605.133	397.58333
2607.462	372.58333
2609.79	372.91667
2612.116	381.91667
2614.441	381.91667
2616.764	376.58333
2619.086	375.91667
2621.406	369.58333
2623.725	396.25
2626.042	382.91667
2628.358	377.91667
2630.672	368.91667
2632.985	391.91667
2635.296	383.25
2637.606	382.25
2639.914	369.25
2642.22	369.58333
2644.525	381.58333
2646.829	380.58333
2649.131	391.58333
2651.432	388.58333
2653.731	375.91667
2656.028	389.91667
2658.324	403.91667
2660.619	375.58333
2662.912	407.25
2665.204	376.91667
2667.494	396.25
2669.782	382.58333
2672.07	385.91667
2674.355	391.91667
2676.639	385.25
2678.922	381.25
2681.203	387.25
2683.483	380.58333
2685.761	372.25
2688.038	395.58333
2690.313	402.58333
2692.587	395.91667
2694.859	378.58333
2697.13	390.58333
2699.399	404.91667
2701.667	401.58333
2703.933	399.91667
2706.198	400.25
2708.461	403.25
2710.723	411.91667
2712.984	411.91667
2715.243	413.58333
2717.5	395.25
2719.757	420.58333
2722.011	411.58333
2724.264	417.58333
2726.516	436.91667
2728.766	416.25
2731.015	419.58333
2733.262	413.91667
2735.508	422.58333
2737.753	421.91667
2739.996	398.58333
2742.237	410.25
2744.477	416.58333
2746.716	418.25
2748.953	407.25
2751.189	406.91667
2753.423	399.25
2755.656	395.25
2757.887	395.91667
2760.117	387.25
2762.346	392.25
2764.573	382.58333
2766.798	391.25
2769.022	393.58333
2771.245	393.58333
2773.467	396.25
2775.686	398.58333
2777.905	397.58333
2780.122	403.91667
2782.337	413.91667
2784.552	406.58333
2786.764	395.25
2788.976	410.25
2791.186	404.91667
2793.394	419.91667
2795.601	414.58333
2797.807	441.25
2800.011	437.58333
2802.214	448.25
2804.415	439.91667
2806.615	446.58333
2808.814	444.25
2811.011	459.58333
2813.206	454.91667
2815.401	473.25
2817.594	477.25
2819.785	489.91667
2821.975	474.58333
2824.164	473.58333
2826.351	495.58333
2828.537	511.58333
2830.722	510.58333
2832.905	529.25
2835.086	543.91667
2837.267	572.25
2839.445	584.58333
2841.623	611.58333
2843.799	621.25
2845.974	653.58333
2848.147	693.91667
2850.319	709.91667
2852.489	740.58333
2854.659	746.91667
2856.826	751.58333
2858.993	781.58333
2861.158	771.91667
2863.321	772.91667
2865.483	778.58333
2867.644	787.25
2869.804	777.91667
2871.962	768.25
2874.118	776.58333
2876.274	785.91667
2878.428	779.58333
2880.58	779.91667
2882.731	758.91667
2884.881	768.58333
2887.03	779.91667
2889.177	780.25
2891.322	777.91667
2893.467	789.58333
2895.61	778.91667
2897.751	798.25
2899.892	792.25
2902.03	797.58333
2904.168	814.91667
2906.304	804.25
2908.439	826.58333
2910.572	821.25
2912.704	836.58333
2914.835	832.58333
2916.965	821.25
2919.093	837.58333
2921.219	815.58333
2923.345	831.25
2925.469	809.58333
2927.591	797.25
2929.712	774.58333
2931.832	778.58333
2933.951	759.25
2936.068	750.25
2938.184	726.58333
2940.299	701.91667
2942.412	692.58333
2944.524	662.91667
2946.634	655.25
2948.744	606.25
2950.851	628.25
2952.958	589.25
2955.063	586.91667
2957.167	566.91667
2959.269	532.58333
2961.371	568.58333
2963.471	520.58333
2965.569	531.58333
2967.666	501.25
2969.762	496.91667
2971.857	494.25
2973.95	471.25
2976.042	463.91667
2978.133	462.25
2980.222	455.25
2982.31	430.58333
2984.396	416.58333
2986.482	414.58333
2988.566	413.58333
2990.648	406.58333
2992.73	403.91667
2994.81	389.25
2996.889	387.25
2998.966	389.91667
3001.042	403.25
3003.117	379.91667
3005.191	387.25
3007.263	386.58333
3009.334	373.91667
3011.403	378.25
3013.472	357.91667
3015.539	364.58333
3017.604	373.58333
3019.669	346.25
3021.732	343.25
3023.794	343.25
3025.854	340.91667
3027.914	331.25
3029.971	348.58333
3032.028	338.91667
3034.083	341.58333
3036.137	333.91667
3038.19	327.58333
3040.242	313.91667
3042.292	304.58333
3044.341	311.91667
3046.388	329.25
3048.435	299.91667
3050.48	319.91667
3052.524	308.25
3054.566	293.58333
3056.607	307.25
3058.647	291.58333
3060.686	273.91667
3062.723	272.58333
3064.759	257.58333
3066.794	0.25
3068.828	2.25
3070.86	3.25
