-0.839	640.83333
3.438	725.5
7.711	214.5
11.981	69.5
16.247	51.5
20.509	53.16667
24.768	50.83333
29.024	61.16667
33.276	48.5
37.524	53.16667
41.769	49.83333
46.01	35.16667
50.247	47.5
54.481	58.5
58.712	65.83333
62.939	52.16667
67.162	66.83333
71.382	65.16667
75.599	50.16667
79.812	68.16667
84.021	86.83333
88.227	62.16667
92.429	63.5
96.628	58.5
100.823	77.5
105.015	78.16667
109.204	71.16667
113.388	79.83333
117.57	78.83333
121.748	94.83333
125.922	86.83333
130.093	106.5
134.261	99.83333
138.425	106.16667
142.585	147.83333
146.742	142.5
150.896	173.83333
155.046	212.83333
159.193	337.16667
163.336	568.5
167.476	1044.16667
171.613	1922.5
175.746	3221.5
179.875	4868.16667
184.002	6361.83333
188.124	7407.83333
192.244	7786.16667
196.36	7762.83333
200.472	7571.16667
204.581	7399.16667
208.687	7245.16667
212.79	7196.83333
216.889	7209.83333
220.984	7201.5
225.077	7268.83333
229.165	7258.16667
233.251	7294.16667
237.333	7307.5
241.412	7255.5
245.487	7141.83333
249.559	7127.5
253.628	7072.5
257.694	7013.5
261.756	6951.83333
265.814	6784.16667
269.87	6633.16667
273.922	6426.5
277.97	6331.83333
282.016	6224.5
286.058	6250.5
290.097	6414.5
294.132	6483.16667
298.164	6449.83333
302.193	6169.16667
306.219	5771.5
310.241	5331.5
314.26	4958.83333
318.276	4602.83333
322.288	4410.83333
326.297	4208.83333
330.303	4073.16667
334.305	4012.5
338.305	3950.83333
342.301	3889.5
346.294	3864.83333
350.283	3857.16667
354.269	3829.16667
358.252	3805.16667
362.232	3776.83333
366.209	3769.16667
370.182	3739.83333
374.152	3735.16667
378.119	3714.16667
382.083	3729.16667
386.043	3728.5
390	3689.5
393.954	3716.83333
397.905	3686.5
401.852	3691.83333
405.797	3649.83333
409.738	3643.5
413.676	3635.16667
417.61	3665.83333
421.542	3632.83333
425.47	3594.83333
429.396	3587.5
433.318	3567.16667
437.236	3569.5
441.152	3597.16667
445.065	3517.83333
448.974	3523.83333
452.88	3495.16667
456.783	3459.5
460.683	3476.83333
464.58	3469.5
468.473	3481.5
472.364	3487.5
476.251	3485.16667
480.135	3545.5
484.016	3594.16667
487.894	3607.5
491.769	3623.83333
495.641	3627.83333
499.509	3627.5
503.375	3604.5
507.237	3581.16667
511.096	3574.5
514.952	3626.16667
518.805	3607.83333
522.655	3657.83333
526.502	3593.16667
530.346	3572.5
534.187	3598.5
538.024	3587.5
541.859	3644.16667
545.69	3646.83333
549.519	3657.5
553.344	3639.5
557.166	3550.16667
560.985	3530.16667
564.802	3456.83333
568.615	3398.5
572.425	3361.5
576.232	3340.83333
580.036	3341.16667
583.836	3352.83333
587.634	3369.5
591.429	3358.5
595.221	3427.83333
599.01	3474.83333
602.796	3498.5
606.578	3526.5
610.358	3522.5
614.135	3470.5
617.909	3477.83333
621.679	3441.5
625.447	3434.16667
629.212	3409.16667
632.973	3415.5
636.732	3411.5
640.488	3414.5
644.241	3391.5
647.991	3381.16667
651.737	3388.83333
655.481	3345.5
659.222	3354.83333
662.96	3344.83333
666.695	3387.83333
670.427	3400.5
674.156	3400.16667
677.882	3400.5
681.605	3371.83333
685.325	3380.5
689.043	3358.83333
692.757	3328.83333
696.468	3323.5
700.177	3328.83333
703.882	3275.5
707.585	3257.83333
711.284	3250.16667
714.981	3262.16667
718.675	3261.83333
722.366	3261.83333
726.054	3228.5
729.739	3239.83333
733.421	3259.83333
737.1	3261.16667
740.777	3287.5
744.45	3291.16667
748.121	3287.16667
751.789	3360.5
755.453	3347.16667
759.115	3382.83333
762.774	3384.5
766.431	3400.5
770.084	3434.83333
773.734	3440.5
777.382	3497.16667
781.027	3514.16667
784.669	3534.16667
788.308	3535.5
791.944	3562.83333
795.577	3587.5
799.208	3571.83333
802.835	3595.16667
806.46	3589.16667
810.082	3609.16667
813.701	3626.16667
817.317	3630.83333
820.931	3655.16667
824.542	3640.16667
828.149	3620.5
831.754	3570.16667
835.357	3589.83333
838.956	3574.5
842.553	3577.5
846.146	3553.5
849.737	3504.83333
853.326	3538.83333
856.911	3532.83333
860.493	3577.83333
864.073	3591.83333
867.65	3615.16667
871.225	3652.83333
874.796	3669.83333
878.365	3656.16667
881.931	3683.16667
885.494	3698.16667
889.054	3719.16667
892.612	3730.83333
896.166	3680.5
899.719	3629.16667
903.268	3586.16667
906.814	3581.5
910.358	3536.5
913.899	3539.83333
917.438	3513.83333
920.973	3498.5
924.506	3530.83333
928.036	3589.83333
931.564	3624.5
935.088	3674.5
938.61	3713.83333
942.129	3723.83333
945.646	3799.5
949.16	3884.16667
952.671	3922.5
956.179	3931.5
959.685	3893.16667
963.188	3856.5
966.688	3801.5
970.185	3728.16667
973.68	3650.16667
977.173	3572.5
980.662	3525.5
984.149	3545.16667
987.633	3493.16667
991.114	3587.83333
994.593	3620.16667
998.069	3707.16667
1001.542	3795.83333
1005.013	3766.5
1008.481	3579.16667
1011.947	3518.16667
1015.409	3484.5
1018.869	3479.83333
1022.327	3474.16667
1025.782	3439.83333
1029.234	3454.16667
1032.683	3398.83333
1036.13	3303.16667
1039.574	3156.5
1043.016	3111.5
1046.455	3034.5
1049.891	3028.16667
1053.325	3031.16667
1056.756	3052.83333
1060.184	3072.5
1063.61	3098.5
1067.033	3079.83333
1070.454	3105.83333
1073.872	3125.5
1077.287	3125.5
1080.7	3120.5
1084.11	3111.5
1087.517	3068.83333
1090.922	3023.5
1094.325	3004.5
1097.724	2986.5
1101.122	3006.16667
1104.516	3001.5
1107.908	3008.83333
1111.298	3022.5
1114.684	3050.5
1118.069	3092.5
1121.45	3156.16667
1124.83	3123.83333
1128.206	3171.5
1131.58	3211.16667
1134.951	3267.16667
1138.32	3381.16667
1141.687	3513.5
1145.05	3544.83333
1148.412	3575.83333
1151.77	3514.83333
1155.126	3526.16667
1158.48	3519.83333
1161.831	3556.5
1165.18	3556.16667
1168.525	3582.5
1171.869	3599.83333
1175.21	3614.83333
1178.548	3652.16667
1181.884	3669.5
1185.217	3722.16667
1188.548	3816.5
1191.877	3876.83333
1195.202	3985.83333
1198.526	4090.5
1201.846	4082.83333
1205.165	4068.5
1208.48	4084.16667
1211.794	4059.16667
1215.104	4041.5
1218.413	4036.16667
1221.719	4027.83333
1225.022	3984.5
1228.323	3940.16667
1231.621	3896.5
1234.917	3867.83333
1238.21	3893.83333
1241.501	3881.5
1244.79	3862.83333
1248.076	3864.5
1251.359	3884.5
1254.64	3966.83333
1257.919	3978.83333
1261.195	4049.83333
1264.468	4135.83333
1267.74	4188.83333
1271.008	4175.16667
1274.275	4175.16667
1277.538	4155.83333
1280.8	4137.83333
1284.059	4112.5
1287.315	4162.16667
1290.569	4160.83333
1293.821	4168.16667
1297.07	4199.83333
1300.317	4240.5
1303.562	4174.16667
1306.803	4149.83333
1310.043	4129.5
1313.28	4084.83333
1316.515	4066.5
1319.747	4022.16667
1322.977	3990.16667
1326.204	3962.83333
1329.429	3914.83333
1332.652	3890.5
1335.872	3878.5
1339.09	3852.5
1342.306	3816.16667
1345.519	3774.16667
1348.729	3727.16667
1351.938	3704.16667
1355.144	3636.16667
1358.347	3587.16667
1361.548	3614.16667
1364.747	3601.83333
1367.944	3524.5
1371.138	3546.5
1374.329	3566.83333
1377.518	3601.5
1380.705	3632.5
1383.89	3609.16667
1387.072	3485.5
1390.252	3377.83333
1393.429	3226.5
1396.605	3165.5
1399.777	3061.5
1402.948	3044.83333
1406.116	3003.16667
1409.282	3022.5
1412.445	3029.83333
1415.606	3071.83333
1418.765	3090.83333
1421.921	3150.16667
1425.075	3206.5
1428.227	3297.83333
1431.376	3417.83333
1434.524	3547.83333
1437.668	3651.83333
1440.811	3679.5
1443.951	3710.83333
1447.089	3718.16667
1450.224	3716.83333
1453.357	3712.16667
1456.488	3678.5
1459.617	3651.16667
1462.743	3584.83333
1465.867	3508.16667
1468.989	3480.5
1472.108	3405.83333
1475.225	3338.5
1478.34	3281.16667
1481.453	3301.5
1484.563	3295.16667
1487.671	3346.5
1490.776	3394.83333
1493.88	3413.16667
1496.981	3494.5
1500.08	3536.16667
1503.176	3588.5
1506.271	3617.83333
1509.363	3654.16667
1512.452	3684.5
1515.54	3716.83333
1518.625	3768.5
1521.708	3851.5
1524.789	3944.16667
1527.867	4113.83333
1530.944	4332.5
1534.018	4494.83333
1537.089	4672.16667
1540.159	4736.5
1543.226	4731.5
1546.291	4676.16667
1549.354	4563.83333
1552.415	4500.16667
1555.473	4348.83333
1558.529	4257.5
1561.583	4227.5
1564.634	4146.16667
1567.684	4195.16667
1570.731	4182.83333
1573.776	4212.16667
1576.819	4283.83333
1579.859	4299.83333
1582.898	4361.16667
1585.934	4417.83333
1588.968	4393.16667
1591.999	4377.16667
1595.029	4392.5
1598.056	4430.83333
1601.081	4425.16667
1604.104	4443.83333
1607.125	4365.16667
1610.144	4315.5
1613.16	4235.16667
1616.174	4138.16667
1619.186	4052.16667
1622.196	3944.16667
1625.203	3863.83333
1628.209	3810.83333
1631.212	3770.16667
1634.213	3780.5
1637.212	3744.16667
1640.209	3665.16667
1643.203	3567.83333
1646.196	3435.16667
1649.186	3278.5
1652.174	3195.83333
1655.16	3073.16667
1658.144	2992.16667
1661.125	2892.83333
1664.105	2765.5
1667.082	2629.5
1670.057	2517.83333
1673.03	2366.5
1676.001	2235.83333
1678.97	2082.83333
1681.937	1961.5
1684.901	1841.5
1687.863	1787.5
1690.824	1712.83333
1693.782	1684.83333
1696.738	1607.16667
1699.692	1574.5
1702.643	1525.5
1705.593	1522.83333
1708.54	1489.16667
1711.486	1515.5
1714.429	1462.5
1717.37	1444.83333
1720.309	1420.16667
1723.246	1412.83333
1726.181	1409.5
1729.113	1406.5
1732.044	1386.5
1734.972	1381.16667
1737.899	1376.83333
1740.823	1359.16667
1743.745	1332.16667
1746.665	1333.16667
1749.583	1322.16667
1752.499	1290.83333
1755.413	1272.16667
1758.325	1242.83333
1761.235	1229.5
1764.142	1215.16667
1767.048	1181.83333
1769.951	1193.5
1772.852	1195.5
1775.752	1193.83333
1778.649	1177.5
1781.544	1179.83333
1784.437	1163.83333
1787.328	1160.83333
1790.217	1155.5
1793.104	1127.83333
1795.989	1131.16667
1798.872	1139.83333
1801.753	1147.83333
1804.631	1126.83333
1807.508	1133.5
1810.383	1114.83333
1813.255	1115.16667
1816.126	1101.83333
1818.994	1099.83333
1821.861	1099.5
1824.725	1104.16667
1827.587	1090.16667
1830.448	1084.16667
1833.306	1054.16667
1836.162	1061.5
1839.017	1056.5
1841.869	1036.16667
1844.719	1050.83333
1847.567	1030.16667
1850.414	1026.16667
1853.258	1022.16667
1856.1	1043.83333
1858.94	1035.5
1861.778	1027.5
1864.614	1027.16667
1867.448	1030.16667
1870.28	999.5
1873.111	1047.16667
1875.939	1013.16667
1878.765	1032.16667
1881.589	1019.5
1884.411	1003.5
1887.231	1013.16667
1890.049	1015.5
1892.865	1008.5
1895.68	977.83333
1898.492	981.83333
1901.302	992.5
1904.11	983.5
1906.916	972.5
1909.721	947.83333
1912.523	967.16667
1915.323	960.83333
1918.122	948.5
1920.918	959.16667
1923.712	943.83333
1926.505	936.16667
1929.295	933.83333
1932.084	958.5
1934.87	951.16667
1937.655	936.83333
1940.438	938.5
1943.218	931.83333
1945.997	937.83333
1948.774	942.5
1951.549	943.16667
1954.322	936.83333
1957.093	927.83333
1959.862	922.5
1962.629	907.5
1965.394	905.83333
1968.157	908.83333
1970.918	913.5
1973.678	883.16667
1976.435	914.16667
1979.19	889.16667
1981.944	884.5
1984.696	888.16667
1987.445	866.5
1990.193	891.5
1992.939	899.83333
1995.683	865.83333
1998.425	861.83333
2001.165	898.83333
2003.903	855.5
2006.639	869.83333
2009.374	871.16667
2012.106	859.5
2014.837	841.5
2017.566	854.83333
2020.292	863.5
2023.017	864.83333
2025.74	852.5
2028.461	842.83333
2031.18	850.83333
2033.898	833.83333
2036.613	842.16667
2039.327	831.83333
2042.038	831.16667
2044.748	820.5
2047.456	834.83333
2050.162	810.83333
2052.866	833.16667
2055.568	833.83333
2058.268	816.5
2060.967	821.83333
2063.663	804.5
2066.358	800.5
2069.051	792.83333
2071.742	805.83333
2074.431	814.16667
2077.118	806.83333
2079.804	794.83333
2082.487	797.5
2085.169	806.5
2087.849	812.5
2090.527	786.16667
2093.203	814.5
2095.877	822.16667
2098.55	814.16667
2101.22	817.5
2103.889	821.83333
2106.556	835.16667
2109.221	846.16667
2111.884	849.16667
2114.546	917.5
2117.205	953.5
2119.863	1029.5
2122.519	1096.83333
2125.173	1142.83333
2127.825	1208.83333
2130.475	1211.83333
2133.124	1168.16667
2135.771	1101.5
2138.416	1079.16667
2141.059	1001.5
2143.7	972.5
2146.339	918.83333
2148.977	851.83333
2151.613	867.83333
2154.247	839.5
2156.879	812.5
2159.51	798.83333
2162.138	784.5
2164.765	778.5
2167.39	765.16667
2170.013	781.5
2172.634	757.5
2175.254	750.16667
2177.872	770.16667
2180.488	740.16667
2183.102	738.83333
2185.714	727.83333
2188.325	700.5
2190.934	730.5
2193.541	730.83333
2196.146	709.83333
2198.75	697.16667
2201.351	698.16667
2203.951	689.16667
2206.549	693.5
2209.146	703.83333
2211.74	683.5
2214.333	694.83333
2216.924	663.83333
2219.514	672.5
2222.101	667.83333
2224.687	676.16667
2227.271	670.83333
2229.853	657.83333
2232.433	651.5
2235.012	676.5
2237.589	663.16667
2240.164	666.16667
2242.738	657.83333
2245.309	646.16667
2247.879	654.16667
2250.448	656.5
2253.014	641.83333
2255.579	614.83333
2258.142	621.16667
2260.703	617.83333
2263.262	617.83333
2265.82	609.16667
2268.376	626.83333
2270.93	607.16667
2273.483	594.5
2276.033	616.83333
2278.583	600.5
2281.13	594.83333
2283.675	580.83333
2286.219	593.5
2288.761	589.16667
2291.302	596.16667
2293.841	602.5
2296.377	581.16667
2298.913	587.83333
2301.446	594.16667
2303.978	581.83333
2306.508	574.83333
2309.037	576.16667
2311.563	589.5
2314.088	582.16667
2316.612	565.83333
2319.133	564.5
2321.653	559.83333
2324.171	558.5
2326.688	581.16667
2329.202	560.5
2331.715	555.83333
2334.227	555.16667
2336.736	554.5
2339.244	542.83333
2341.751	542.83333
2344.255	555.5
2346.758	552.5
2349.259	542.83333
2351.759	546.16667
2354.257	533.83333
2356.753	540.83333
2359.247	540.83333
2361.74	541.16667
2364.231	541.83333
2366.721	549.16667
2369.209	526.83333
2371.695	536.16667
2374.179	529.83333
2376.662	522.83333
2379.143	535.5
2381.622	526.16667
2384.1	536.83333
2386.576	531.5
2389.051	536.5
2391.524	539.83333
2393.995	534.16667
2396.464	525.5
2398.932	525.83333
2401.398	526.5
2403.863	521.83333
2406.325	508.16667
2408.787	520.5
2411.246	524.83333
2413.704	512.16667
2416.16	515.5
2418.615	509.16667
2421.068	516.83333
2423.519	527.83333
2425.969	512.5
2428.417	508.5
2430.863	537.83333
2433.308	514.16667
2435.751	513.16667
2438.193	503.5
2440.633	512.16667
2443.071	509.83333
2445.508	499.5
2447.943	506.16667
2450.376	495.5
2452.808	496.5
2455.238	496.5
2457.667	531.83333
2460.093	499.16667
2462.519	495.83333
2464.942	495.16667
2467.365	497.16667
2469.785	505.83333
2472.204	489.83333
2474.621	483.16667
2477.037	514.5
2479.451	483.83333
2481.863	475.83333
2484.274	479.5
2486.683	484.16667
2489.091	490.16667
2491.497	480.5
2493.901	484.5
2496.304	479.5
2498.705	487.16667
2501.105	473.16667
2503.503	508.5
2505.899	466.16667
2508.294	496.83333
2510.687	479.5
2513.079	475.16667
2515.469	469.16667
2517.858	473.83333
2520.245	489.83333
2522.63	471.83333
2525.014	465.16667
2527.396	460.5
2529.776	467.16667
2532.156	475.16667
2534.533	459.16667
2536.909	456.16667
2539.283	451.5
2541.656	461.83333
2544.027	480.5
2546.397	468.16667
2548.765	456.16667
2551.131	457.16667
2553.496	456.83333
2555.86	472.16667
2558.221	468.5
2560.582	462.16667
2562.94	462.5
2565.298	454.83333
2567.653	471.16667
2570.007	453.16667
2572.36	467.83333
2574.711	452.16667
2577.06	474.83333
2579.408	464.83333
2581.754	462.16667
2584.099	471.16667
2586.442	462.83333
2588.784	452.5
2591.124	460.5
2593.463	458.16667
2595.8	463.83333
2598.135	448.16667
2600.469	447.83333
2602.802	463.83333
2605.133	466.83333
2607.462	448.16667
2609.79	444.83333
2612.116	456.16667
2614.441	451.16667
2616.764	455.83333
2619.086	448.16667
2621.406	445.5
2623.725	473.16667
2626.042	459.5
2628.358	441.16667
2630.672	451.5
2632.985	456.83333
2635.296	451.83333
2637.606	449.5
2639.914	439.16667
2642.22	444.83333
2644.525	450.5
2646.829	457.83333
2649.131	469.16667
2651.432	472.83333
2653.731	462.16667
2656.028	463.5
2658.324	477.16667
2660.619	457.16667
2662.912	458.16667
2665.204	461.16667
2667.494	464.5
2669.782	459.5
2672.07	467.83333
2674.355	465.83333
2676.639	468.16667
2678.922	457.16667
2681.203	464.83333
2683.483	445.83333
2685.761	460.83333
2688.038	469.5
2690.313	470.16667
2692.587	470.16667
2694.859	463.83333
2697.13	470.83333
2699.399	476.83333
2701.667	475.83333
2703.933	479.5
2706.198	475.83333
2708.461	484.16667
2710.723	483.83333
2712.984	479.5
2715.243	484.16667
2717.5	485.5
2719.757	486.83333
2722.011	490.5
2724.264	498.5
2726.516	512.5
2728.766	491.16667
2731.015	508.83333
2733.262	503.5
2735.508	497.16667
2737.753	497.83333
2739.996	480.83333
2742.237	487.16667
2744.477	500.83333
2746.716	496.5
2748.953	481.83333
2751.189	492.16667
2753.423	479.5
2755.656	472.16667
2757.887	465.16667
2760.117	472.16667
2762.346	463.5
2764.573	458.83333
2766.798	467.83333
2769.022	463.5
2771.245	478.83333
2773.467	474.16667
2775.686	480.5
2777.905	475.5
2780.122	485.5
2782.337	494.83333
2784.552	490.5
2786.764	492.5
2788.976	497.5
2791.186	493.5
2793.394	504.16667
2795.601	507.83333
2797.807	526.16667
2800.011	521.83333
2802.214	521.16667
2804.415	527.5
2806.615	521.5
2808.814	532.83333
2811.011	533.16667
2813.206	544.83333
2815.401	566.16667
2817.594	559.5
2819.785	563.5
2821.975	558.83333
2824.164	568.16667
2826.351	587.16667
2828.537	591.83333
2830.722	607.83333
2832.905	606.5
2835.086	636.5
2837.267	666.16667
2839.445	680.5
2841.623	696.16667
2843.799	727.83333
2845.974	764.83333
2848.147	784.83333
2850.319	812.16667
2852.489	844.16667
2854.659	852.5
2856.826	859.5
2858.993	893.16667
2861.158	877.16667
2863.321	878.16667
2865.483	882.83333
2867.644	899.83333
2869.804	887.5
2871.962	889.83333
2874.118	882.16667
2876.274	874.83333
2878.428	885.83333
2880.58	877.16667
2882.731	860.83333
2884.881	876.16667
2887.03	884.83333
2889.177	883.16667
2891.322	905.5
2893.467	906.16667
2895.61	894.5
2897.751	909.5
2899.892	907.16667
2902.03	914.16667
2904.168	937.16667
2906.304	926.5
2908.439	940.83333
2910.572	924.83333
2912.704	933.83333
2914.835	948.16667
2916.965	936.83333
2919.093	954.5
2921.219	921.5
2923.345	939.5
2925.469	932.5
2927.591	917.5
2929.712	885.5
2931.832	875.83333
2933.951	862.5
2936.068	858.83333
2938.184	826.83333
2940.299	810.83333
2942.412	785.83333
2944.524	759.5
2946.634	751.83333
2948.744	709.16667
2950.851	728.83333
2952.958	679.5
2955.063	684.83333
2957.167	677.16667
2959.269	636.16667
2961.371	655.5
2963.471	624.5
2965.569	622.16667
2967.666	583.5
2969.762	587.5
2971.857	587.83333
2973.95	553.83333
2976.042	554.5
2978.133	541.5
2980.222	529.16667
2982.31	517.16667
2984.396	499.5
2986.482	501.83333
2988.566	491.16667
2990.648	488.5
2992.73	486.83333
2994.81	478.83333
2996.889	472.83333
2998.966	473.5
3001.042	478.83333
3003.117	472.16667
3005.191	469.5
3007.263	470.5
3009.334	453.83333
3011.403	469.83333
3013.472	446.83333
3015.539	446.83333
3017.604	448.83333
3019.669	412.83333
3021.732	420.5
3023.794	427.16667
3025.854	425.16667
3027.914	420.16667
3029.971	423.16667
3032.028	418.16667
3034.083	414.5
3036.137	400.5
3038.19	392.83333
3040.242	392.83333
3042.292	378.16667
3044.341	375.83333
3046.388	391.5
3048.435	361.5
3050.48	391.83333
3052.524	374.5
3054.566	354.83333
3056.607	378.83333
3058.647	354.83333
3060.686	351.16667
3062.723	340.5
3064.759	321.83333
3066.794	0.83333
3068.828	4.16667
3070.86	2.5
