-0.839	501.375
3.438	599.375
7.711	187.375
11.981	64.70833
16.247	45.04167
20.509	51.375
24.768	44.04167
29.024	54.04167
33.276	46.70833
37.524	51.375
41.769	49.70833
46.01	36.375
50.247	52.04167
54.481	57.70833
58.712	59.375
62.939	47.04167
67.162	63.04167
71.382	55.70833
75.599	47.04167
79.812	66.04167
84.021	84.375
88.227	61.70833
92.429	56.70833
96.628	53.04167
100.823	69.04167
105.015	75.375
109.204	67.70833
113.388	73.375
117.57	75.70833
121.748	87.04167
125.922	79.70833
130.093	100.375
134.261	97.04167
138.425	97.70833
142.585	136.70833
146.742	129.375
150.896	151.70833
155.046	191.70833
159.193	296.04167
163.336	483.70833
167.476	902.70833
171.613	1649.70833
175.746	2773.04167
179.875	4189.70833
184.002	5498.04167
188.124	6474.70833
192.244	6818.375
196.36	6877.04167
200.472	6694.70833
204.581	6588.375
208.687	6480.70833
212.79	6455.375
216.889	6543.04167
220.984	6555.04167
225.077	6607.375
229.165	6629.375
233.251	6705.375
237.333	6723.04167
241.412	6665.70833
245.487	6607.70833
249.559	6569.375
253.628	6548.70833
257.694	6492.70833
261.756	6460.375
265.814	6325.375
269.87	6172.375
273.922	5988.04167
277.97	5908.70833
282.016	5828.375
286.058	5861.375
290.097	5999.375
294.132	6136.04167
298.164	6103.04167
302.193	5874.375
306.219	5416.04167
310.241	4993.04167
314.26	4562.70833
318.276	4263.04167
322.288	4044.375
326.297	3904.04167
330.303	3731.375
334.305	3673.04167
338.305	3608.04167
342.301	3552.04167
346.294	3538.04167
350.283	3515.375
354.269	3502.04167
358.252	3488.70833
362.232	3442.70833
366.209	3433.70833
370.182	3394.70833
374.152	3385.70833
378.119	3384.04167
382.083	3356.70833
386.043	3397.04167
390	3368.04167
393.954	3393.375
397.905	3371.04167
401.852	3347.04167
405.797	3335.04167
409.738	3302.04167
413.676	3305.04167
417.61	3300.375
421.542	3294.70833
425.47	3274.04167
429.396	3270.375
433.318	3223.70833
437.236	3232.375
441.152	3267.70833
445.065	3212.375
448.974	3182.70833
452.88	3173.70833
456.783	3143.04167
460.683	3149.375
464.58	3133.70833
468.473	3136.70833
472.364	3176.04167
476.251	3182.375
480.135	3199.70833
484.016	3279.375
487.894	3266.70833
491.769	3272.375
495.641	3280.70833
499.509	3284.375
503.375	3248.70833
507.237	3252.375
511.096	3248.04167
514.952	3324.375
518.805	3357.375
522.655	3396.04167
526.502	3321.375
530.346	3240.04167
534.187	3255.375
538.024	3285.375
541.859	3288.375
545.69	3306.04167
549.519	3310.375
553.344	3268.375
557.166	3242.70833
560.985	3209.04167
564.802	3107.70833
568.615	3076.375
572.425	3029.70833
576.232	3032.70833
580.036	3004.04167
583.836	3019.04167
587.634	3029.70833
591.429	3053.04167
595.221	3101.375
599.01	3148.04167
602.796	3173.375
606.578	3201.375
610.358	3184.70833
614.135	3160.375
617.909	3154.375
621.679	3109.70833
625.447	3098.70833
629.212	3077.375
632.973	3091.04167
636.732	3064.04167
640.488	3089.04167
644.241	3073.70833
647.991	3045.375
651.737	3049.04167
655.481	3023.375
659.222	3015.04167
662.96	3022.375
666.695	3058.375
670.427	3073.375
674.156	3076.375
677.882	3061.375
681.605	3056.375
685.325	3041.04167
689.043	3047.04167
692.757	2993.70833
696.468	3014.04167
700.177	3003.04167
703.882	2971.70833
707.585	2959.04167
711.284	2953.375
714.981	2953.70833
718.675	2972.70833
722.366	2953.04167
726.054	2941.70833
729.739	2953.04167
733.421	2973.375
737.1	2945.04167
740.777	2963.375
744.45	2971.375
748.121	2997.04167
751.789	3046.375
755.453	3050.70833
759.115	3055.70833
762.774	3077.70833
766.431	3074.04167
770.084	3108.375
773.734	3137.375
777.382	3203.04167
781.027	3219.375
784.669	3239.375
788.308	3276.375
791.944	3247.375
795.577	3279.70833
799.208	3299.70833
802.835	3294.70833
806.46	3309.04167
810.082	3330.375
813.701	3345.04167
817.317	3364.04167
820.931	3370.04167
824.542	3365.04167
828.149	3290.04167
831.754	3291.04167
835.357	3275.375
838.956	3251.375
842.553	3281.04167
846.146	3259.70833
849.737	3241.04167
853.326	3237.04167
856.911	3252.04167
860.493	3269.04167
864.073	3296.04167
867.65	3329.375
871.225	3341.375
874.796	3365.375
878.365	3372.70833
881.931	3384.04167
885.494	3414.375
889.054	3425.04167
892.612	3415.04167
896.166	3364.04167
899.719	3343.70833
903.268	3311.70833
906.814	3279.70833
910.358	3249.70833
913.899	3207.70833
917.438	3214.04167
920.973	3207.375
924.506	3235.70833
928.036	3305.375
931.564	3353.70833
935.088	3380.04167
938.61	3419.70833
942.129	3470.70833
945.646	3517.375
949.16	3571.04167
952.671	3658.70833
956.179	3656.375
959.685	3624.70833
963.188	3613.70833
966.688	3544.70833
970.185	3461.70833
973.68	3374.70833
977.173	3308.375
980.662	3269.375
984.149	3241.04167
987.633	3220.04167
991.114	3289.04167
994.593	3363.04167
998.069	3426.70833
1001.542	3516.04167
1005.013	3475.375
1008.481	3292.04167
1011.947	3256.04167
1015.409	3214.375
1018.869	3216.04167
1022.327	3209.375
1025.782	3176.70833
1029.234	3174.70833
1032.683	3121.375
1036.13	3046.04167
1039.574	2940.70833
1043.016	2879.70833
1046.455	2797.04167
1049.891	2799.04167
1053.325	2790.375
1056.756	2807.04167
1060.184	2834.375
1063.61	2850.04167
1067.033	2861.375
1070.454	2847.375
1073.872	2878.375
1077.287	2891.375
1080.7	2876.375
1084.11	2874.04167
1087.517	2859.375
1090.922	2817.70833
1094.325	2774.375
1097.724	2776.70833
1101.122	2771.70833
1104.516	2767.70833
1107.908	2763.375
1111.298	2815.375
1114.684	2838.04167
1118.069	2894.04167
1121.45	2894.375
1124.83	2898.70833
1128.206	2931.04167
1131.58	2975.70833
1134.951	3060.04167
1138.32	3160.70833
1141.687	3257.04167
1145.05	3331.70833
1148.412	3331.375
1151.77	3296.375
1155.126	3309.70833
1158.48	3285.70833
1161.831	3295.70833
1165.18	3287.70833
1168.525	3335.70833
1171.869	3338.04167
1175.21	3349.04167
1178.548	3409.375
1181.884	3454.04167
1185.217	3503.04167
1188.548	3551.375
1191.877	3623.04167
1195.202	3718.70833
1198.526	3795.70833
1201.846	3813.70833
1205.165	3827.375
1208.48	3798.04167
1211.794	3779.04167
1215.104	3788.04167
1218.413	3801.70833
1221.719	3795.70833
1225.022	3731.04167
1228.323	3675.70833
1231.621	3630.70833
1234.917	3599.70833
1238.21	3615.375
1241.501	3592.70833
1244.79	3607.375
1248.076	3584.70833
1251.359	3645.04167
1254.64	3697.375
1257.919	3711.375
1261.195	3780.70833
1264.468	3861.70833
1267.74	3896.70833
1271.008	3887.375
1274.275	3891.04167
1277.538	3894.70833
1280.8	3868.04167
1284.059	3852.70833
1287.315	3905.70833
1290.569	3897.70833
1293.821	3910.70833
1297.07	3934.375
1300.317	3931.375
1303.562	3950.70833
1306.803	3929.375
1310.043	3890.375
1313.28	3861.04167
1316.515	3824.70833
1319.747	3803.04167
1322.977	3787.70833
1326.204	3725.70833
1329.429	3681.375
1332.652	3661.375
1335.872	3620.70833
1339.09	3598.375
1342.306	3575.70833
1345.519	3521.70833
1348.729	3479.375
1351.938	3453.70833
1355.144	3425.04167
1358.347	3361.375
1361.548	3358.04167
1364.747	3354.375
1367.944	3330.375
1371.138	3319.375
1374.329	3329.375
1377.518	3380.04167
1380.705	3387.70833
1383.89	3343.70833
1387.072	3247.04167
1390.252	3126.04167
1393.429	3000.70833
1396.605	2912.70833
1399.777	2829.04167
1402.948	2815.375
1406.116	2807.04167
1409.282	2783.70833
1412.445	2799.04167
1415.606	2814.375
1418.765	2867.375
1421.921	2893.375
1425.075	2973.375
1428.227	3086.04167
1431.376	3195.70833
1434.524	3333.70833
1437.668	3444.70833
1440.811	3488.70833
1443.951	3525.375
1447.089	3516.375
1450.224	3507.04167
1453.357	3495.375
1456.488	3454.70833
1459.617	3412.04167
1462.743	3375.04167
1465.867	3290.70833
1468.989	3238.04167
1472.108	3162.04167
1475.225	3109.375
1478.34	3086.70833
1481.453	3057.04167
1484.563	3084.70833
1487.671	3113.70833
1490.776	3159.70833
1493.88	3174.04167
1496.981	3229.70833
1500.08	3279.375
1503.176	3332.04167
1506.271	3358.375
1509.363	3389.04167
1512.452	3434.70833
1515.54	3458.70833
1518.625	3478.04167
1521.708	3591.04167
1524.789	3705.375
1527.867	3814.70833
1530.944	4013.375
1534.018	4179.04167
1537.089	4351.04167
1540.159	4401.70833
1543.226	4369.375
1546.291	4307.375
1549.354	4216.375
1552.415	4104.70833
1555.473	3999.375
1558.529	3927.70833
1561.583	3880.04167
1564.634	3845.375
1567.684	3866.04167
1570.731	3892.70833
1573.776	3915.70833
1576.819	3951.04167
1579.859	4006.375
1582.898	4051.04167
1585.934	4064.375
1588.968	4100.70833
1591.999	4090.70833
1595.029	4114.375
1598.056	4144.70833
1601.081	4154.04167
1604.104	4143.375
1607.125	4089.70833
1610.144	4020.70833
1613.16	3938.375
1616.174	3885.70833
1619.186	3782.70833
1622.196	3695.375
1625.203	3623.70833
1628.209	3561.70833
1631.212	3542.70833
1634.213	3514.375
1637.212	3499.70833
1640.209	3434.04167
1643.203	3326.04167
1646.196	3209.375
1649.186	3045.70833
1652.174	2977.04167
1655.16	2878.70833
1658.144	2806.70833
1661.125	2670.70833
1664.105	2556.70833
1667.082	2454.375
1670.057	2331.70833
1673.03	2176.04167
1676.001	2042.375
1678.97	1912.375
1681.937	1790.70833
1684.901	1688.04167
1687.863	1631.70833
1690.824	1560.375
1693.782	1534.375
1696.738	1468.04167
1699.692	1444.70833
1702.643	1399.375
1705.593	1373.04167
1708.54	1353.04167
1711.486	1366.04167
1714.429	1328.04167
1717.37	1330.70833
1720.309	1291.70833
1723.246	1288.04167
1726.181	1281.375
1729.113	1263.04167
1732.044	1255.04167
1734.972	1249.70833
1737.899	1249.375
1740.823	1251.70833
1743.745	1201.04167
1746.665	1192.70833
1749.583	1179.70833
1752.499	1155.375
1755.413	1160.04167
1758.325	1115.375
1761.235	1104.70833
1764.142	1096.70833
1767.048	1066.04167
1769.951	1087.04167
1772.852	1070.375
1775.752	1072.04167
1778.649	1057.375
1781.544	1079.375
1784.437	1023.04167
1787.328	1050.04167
1790.217	1046.375
1793.104	1017.70833
1795.989	1012.04167
1798.872	1005.70833
1801.753	1024.375
1804.631	1028.04167
1807.508	1020.04167
1810.383	1017.375
1813.255	990.375
1816.126	1001.04167
1818.994	991.70833
1821.861	978.04167
1824.725	975.04167
1827.587	978.375
1830.448	974.375
1833.306	947.375
1836.162	956.04167
1839.017	955.70833
1841.869	948.04167
1844.719	950.04167
1847.567	931.375
1850.414	923.375
1853.258	921.70833
1856.1	939.70833
1858.94	940.375
1861.778	923.04167
1864.614	929.04167
1867.448	919.04167
1870.28	912.04167
1873.111	942.04167
1875.939	908.375
1878.765	931.375
1881.589	911.375
1884.411	919.04167
1887.231	908.70833
1890.049	885.70833
1892.865	898.04167
1895.68	911.04167
1898.492	905.04167
1901.302	884.04167
1904.11	875.375
1906.916	868.70833
1909.721	872.375
1912.523	886.70833
1915.323	864.04167
1918.122	862.04167
1920.918	863.04167
1923.712	852.04167
1926.505	842.04167
1929.295	834.375
1932.084	859.70833
1934.87	856.375
1937.655	844.04167
1940.438	850.375
1943.218	839.04167
1945.997	852.375
1948.774	862.375
1951.549	842.70833
1954.322	837.04167
1957.093	835.375
1959.862	830.70833
1962.629	818.04167
1965.394	818.04167
1968.157	796.04167
1970.918	818.70833
1973.678	804.375
1976.435	821.04167
1979.19	797.04167
1981.944	797.375
1984.696	810.04167
1987.445	774.04167
1990.193	790.04167
1992.939	811.375
1995.683	787.04167
1998.425	774.375
2001.165	807.375
2003.903	770.375
2006.639	772.04167
2009.374	787.04167
2012.106	781.375
2014.837	764.04167
2017.566	768.70833
2020.292	774.04167
2023.017	772.375
2025.74	769.04167
2028.461	756.04167
2031.18	761.70833
2033.898	757.70833
2036.613	768.70833
2039.327	756.04167
2042.038	747.375
2044.748	742.70833
2047.456	745.375
2050.162	727.04167
2052.866	736.375
2055.568	756.04167
2058.268	726.70833
2060.967	733.04167
2063.663	723.04167
2066.358	727.04167
2069.051	722.70833
2071.742	731.04167
2074.431	733.70833
2077.118	723.70833
2079.804	717.04167
2082.487	723.70833
2085.169	730.375
2087.849	742.04167
2090.527	715.375
2093.203	721.70833
2095.877	741.70833
2098.55	717.70833
2101.22	732.04167
2103.889	735.375
2106.556	750.04167
2109.221	762.70833
2111.884	764.70833
2114.546	820.04167
2117.205	857.04167
2119.863	907.04167
2122.519	958.04167
2125.173	999.70833
2127.825	1055.375
2130.475	1059.70833
2133.124	1026.375
2135.771	971.04167
2138.416	960.375
2141.059	894.70833
2143.7	862.04167
2146.339	820.375
2148.977	772.70833
2151.613	766.375
2154.247	741.375
2156.879	724.70833
2159.51	720.70833
2162.138	710.375
2164.765	699.375
2167.39	695.04167
2170.013	692.70833
2172.634	685.375
2175.254	682.70833
2177.872	716.04167
2180.488	670.70833
2183.102	676.375
2185.714	655.04167
2188.325	646.375
2190.934	651.70833
2193.541	651.70833
2196.146	645.375
2198.75	635.04167
2201.351	623.04167
2203.951	629.70833
2206.549	646.375
2209.146	627.375
2211.74	622.375
2214.333	622.375
2216.924	601.375
2219.514	619.70833
2222.101	609.70833
2224.687	627.375
2227.271	604.04167
2229.853	589.70833
2232.433	592.70833
2235.012	612.375
2237.589	601.375
2240.164	627.70833
2242.738	602.04167
2245.309	589.375
2247.879	589.70833
2250.448	596.04167
2253.014	578.70833
2255.579	570.04167
2258.142	581.70833
2260.703	568.375
2263.262	568.70833
2265.82	563.375
2268.376	567.375
2270.93	551.04167
2273.483	547.70833
2276.033	551.04167
2278.583	545.70833
2281.13	553.375
2283.675	548.375
2286.219	541.375
2288.761	541.04167
2291.302	549.375
2293.841	555.04167
2296.377	533.375
2298.913	536.375
2301.446	552.375
2303.978	540.04167
2306.508	530.04167
2309.037	542.70833
2311.563	542.70833
2314.088	544.70833
2316.612	514.04167
2319.133	521.375
2321.653	526.70833
2324.171	517.70833
2326.688	533.375
2329.202	521.375
2331.715	515.04167
2334.227	510.70833
2336.736	516.70833
2339.244	520.04167
2341.751	493.375
2344.255	522.375
2346.758	511.70833
2349.259	498.04167
2351.759	519.70833
2354.257	501.70833
2356.753	499.04167
2359.247	507.375
2361.74	513.04167
2364.231	510.375
2366.721	508.04167
2369.209	489.70833
2371.695	505.375
2374.179	495.04167
2376.662	487.70833
2379.143	513.375
2381.622	498.375
2384.1	507.04167
2386.576	492.04167
2389.051	508.375
2391.524	510.70833
2393.995	494.04167
2396.464	482.04167
2398.932	488.375
2401.398	485.375
2403.863	490.70833
2406.325	480.375
2408.787	495.375
2411.246	492.375
2413.704	479.375
2416.16	485.04167
2418.615	485.04167
2421.068	493.04167
2423.519	494.04167
2425.969	478.70833
2428.417	476.70833
2430.863	500.70833
2433.308	488.70833
2435.751	495.70833
2438.193	471.04167
2440.633	482.04167
2443.071	487.375
2445.508	469.04167
2447.943	478.375
2450.376	469.04167
2452.808	476.04167
2455.238	468.375
2457.667	502.375
2460.093	469.375
2462.519	463.04167
2464.942	468.70833
2467.365	467.70833
2469.785	468.04167
2472.204	462.375
2474.621	458.04167
2477.037	475.70833
2479.451	450.04167
2481.863	447.375
2484.274	464.375
2486.683	467.04167
2489.091	468.375
2491.497	458.70833
2493.901	470.375
2496.304	454.70833
2498.705	474.375
2501.105	450.70833
2503.503	485.375
2505.899	445.375
2508.294	475.375
2510.687	456.04167
2513.079	461.375
2515.469	452.04167
2517.858	451.04167
2520.245	471.375
2522.63	459.04167
2525.014	440.04167
2527.396	449.04167
2529.776	445.04167
2532.156	458.375
2534.533	446.04167
2536.909	441.70833
2539.283	436.04167
2541.656	439.375
2544.027	464.375
2546.397	448.70833
2548.765	441.375
2551.131	446.04167
2553.496	445.70833
2555.86	457.04167
2558.221	449.04167
2560.582	438.70833
2562.94	432.375
2565.298	445.04167
2567.653	460.70833
2570.007	434.375
2572.36	450.70833
2574.711	428.375
2577.06	459.70833
2579.408	458.70833
2581.754	445.375
2584.099	456.375
2586.442	447.04167
2588.784	452.70833
2591.124	442.375
2593.463	438.70833
2595.8	447.70833
2598.135	437.04167
2600.469	444.375
2602.802	451.70833
2605.133	456.70833
2607.462	441.04167
2609.79	434.70833
2612.116	447.04167
2614.441	443.70833
2616.764	450.04167
2619.086	456.375
2621.406	429.04167
2623.725	459.70833
2626.042	462.70833
2628.358	428.70833
2630.672	435.04167
2632.985	453.375
2635.296	441.04167
2637.606	444.375
2639.914	433.70833
2642.22	441.70833
2644.525	446.04167
2646.829	447.70833
2649.131	454.04167
2651.432	474.375
2653.731	451.04167
2656.028	453.70833
2658.324	462.375
2660.619	449.04167
2662.912	469.04167
2665.204	448.375
2667.494	461.70833
2669.782	453.70833
2672.07	462.70833
2674.355	470.04167
2676.639	461.70833
2678.922	450.375
2681.203	465.70833
2683.483	445.04167
2685.761	453.04167
2688.038	463.04167
2690.313	473.375
2692.587	457.375
2694.859	450.70833
2697.13	466.375
2699.399	472.375
2701.667	478.70833
2703.933	477.375
2706.198	480.375
2708.461	479.04167
2710.723	488.375
2712.984	479.04167
2715.243	485.04167
2717.5	473.04167
2719.757	491.04167
2722.011	478.70833
2724.264	498.04167
2726.516	507.04167
2728.766	492.04167
2731.015	492.04167
2733.262	498.70833
2735.508	504.04167
2737.753	501.04167
2739.996	481.375
2742.237	485.04167
2744.477	494.04167
2746.716	503.04167
2748.953	478.375
2751.189	487.375
2753.423	482.70833
2755.656	459.04167
2757.887	463.70833
2760.117	472.375
2762.346	475.70833
2764.573	464.375
2766.798	464.375
2769.022	461.70833
2771.245	478.70833
2773.467	474.70833
2775.686	479.375
2777.905	473.70833
2780.122	490.375
2782.337	481.04167
2784.552	493.375
2786.764	482.375
2788.976	489.04167
2791.186	493.04167
2793.394	498.70833
2795.601	508.375
2797.807	505.70833
2800.011	527.375
2802.214	528.375
2804.415	515.375
2806.615	529.70833
2808.814	529.04167
2811.011	533.04167
2813.206	528.04167
2815.401	544.04167
2817.594	546.04167
2819.785	557.375
2821.975	547.70833
2824.164	562.70833
2826.351	574.04167
2828.537	587.70833
2830.722	591.70833
2832.905	603.04167
2835.086	635.375
2837.267	661.04167
2839.445	669.04167
2841.623	690.70833
2843.799	713.70833
2845.974	753.70833
2848.147	789.70833
2850.319	804.375
2852.489	836.70833
2854.659	850.375
2856.826	851.70833
2858.993	890.04167
2861.158	869.70833
2863.321	870.04167
2865.483	887.04167
2867.644	887.04167
2869.804	883.375
2871.962	868.70833
2874.118	881.375
2876.274	882.375
2878.428	876.70833
2880.58	871.375
2882.731	861.70833
2884.881	862.70833
2887.03	883.70833
2889.177	864.04167
2891.322	887.70833
2893.467	880.375
2895.61	892.04167
2897.751	906.375
2899.892	902.04167
2902.03	909.04167
2904.168	921.375
2906.304	917.70833
2908.439	937.375
2910.572	908.70833
2912.704	941.70833
2914.835	925.375
2916.965	929.375
2919.093	955.04167
2921.219	913.04167
2923.345	947.04167
2925.469	909.04167
2927.591	918.375
2929.712	880.375
2931.832	886.70833
2933.951	863.375
2936.068	853.04167
2938.184	823.04167
2940.299	811.375
2942.412	792.375
2944.524	750.70833
2946.634	740.04167
2948.744	697.04167
2950.851	734.375
2952.958	687.04167
2955.063	688.375
2957.167	682.375
2959.269	636.375
2961.371	667.04167
2963.471	621.70833
2965.569	641.70833
2967.666	601.375
2969.762	604.375
2971.857	590.04167
2973.95	567.04167
2976.042	565.375
2978.133	560.04167
2980.222	543.04167
2982.31	528.375
2984.396	511.70833
2986.482	510.04167
2988.566	502.04167
2990.648	509.04167
2992.73	501.70833
2994.81	483.70833
2996.889	496.04167
2998.966	497.04167
3001.042	496.375
3003.117	494.70833
3005.191	492.70833
3007.263	484.375
3009.334	467.375
3011.403	474.375
3013.472	465.04167
3015.539	467.04167
3017.604	472.04167
3019.669	434.04167
3021.732	437.70833
3023.794	447.70833
3025.854	441.375
3027.914	435.375
3029.971	447.04167
3032.028	431.04167
3034.083	435.70833
3036.137	427.04167
3038.19	413.70833
3040.242	398.375
3042.292	395.375
3044.341	397.04167
3046.388	403.04167
3048.435	383.04167
3050.48	401.04167
3052.524	383.04167
3054.566	370.70833
3056.607	387.04167
3058.647	374.375
3060.686	361.375
3062.723	348.70833
3064.759	334.04167
3066.794	-0.625
3068.828	2.04167
3070.86	3.375
