-0.839	548.29167
3.438	623.95833
7.711	184.95833
11.981	61.29167
16.247	46.29167
20.509	50.625
24.768	44.95833
29.024	53.95833
33.276	44.95833
37.524	48.29167
41.769	47.95833
46.01	34.29167
50.247	48.29167
54.481	54.625
58.712	60.95833
62.939	49.29167
67.162	62.29167
71.382	57.29167
75.599	46.625
79.812	66.29167
84.021	82.29167
88.227	61.625
92.429	59.625
96.628	55.95833
100.823	69.95833
105.015	72.29167
109.204	68.29167
113.388	70.95833
117.57	74.95833
121.748	83.625
125.922	79.625
130.093	99.29167
134.261	94.95833
138.425	94.95833
142.585	135.29167
146.742	127.95833
150.896	162.625
155.046	198.625
159.193	319.29167
163.336	539.625
167.476	998.625
171.613	1801.625
175.746	2962.625
179.875	4366.29167
184.002	5566.625
188.124	6411.625
192.244	6618.95833
196.36	6468.29167
200.472	6219.95833
204.581	6027.625
208.687	5795.29167
212.79	5694.95833
216.889	5630.625
220.984	5577.95833
225.077	5515.625
229.165	5500.95833
233.251	5474.29167
237.333	5397.625
241.412	5302.625
245.487	5244.95833
249.559	5181.625
253.628	5134.625
257.694	5054.95833
261.756	5008.95833
265.814	4918.625
269.87	4742.95833
273.922	4594.625
277.97	4530.625
282.016	4500.29167
286.058	4527.29167
290.097	4602.29167
294.132	4682.95833
298.164	4647.29167
302.193	4435.625
306.219	4101.29167
310.241	3786.29167
314.26	3508.29167
318.276	3256.625
322.288	3111.625
326.297	2968.95833
330.303	2875.625
334.305	2807.29167
338.305	2741.29167
342.301	2715.29167
346.294	2706.95833
350.283	2682.29167
354.269	2656.95833
358.252	2623.95833
362.232	2609.625
366.209	2575.29167
370.182	2549.625
374.152	2524.625
378.119	2545.29167
382.083	2508.29167
386.043	2538.95833
390	2525.29167
393.954	2532.625
397.905	2491.29167
401.852	2527.625
405.797	2463.95833
409.738	2483.95833
413.676	2449.95833
417.61	2469.625
421.542	2447.95833
425.47	2402.29167
429.396	2415.625
433.318	2401.29167
437.236	2376.29167
441.152	2416.625
445.065	2354.95833
448.974	2349.625
452.88	2336.29167
456.783	2327.95833
460.683	2300.29167
464.58	2302.29167
468.473	2317.29167
472.364	2298.29167
476.251	2313.29167
480.135	2360.29167
484.016	2370.95833
487.894	2389.625
491.769	2395.625
495.641	2373.29167
499.509	2378.29167
503.375	2369.95833
507.237	2401.29167
511.096	2389.29167
514.952	2488.95833
518.805	2584.625
522.655	2659.29167
526.502	2493.29167
530.346	2386.95833
534.187	2373.29167
538.024	2409.29167
541.859	2384.95833
545.69	2411.625
549.519	2413.625
553.344	2389.625
557.166	2335.29167
560.985	2330.29167
564.802	2276.29167
568.615	2255.95833
572.425	2193.95833
576.232	2206.625
580.036	2200.29167
583.836	2191.29167
587.634	2231.95833
591.429	2218.29167
595.221	2270.625
599.01	2294.95833
602.796	2319.625
606.578	2312.29167
610.358	2334.29167
614.135	2313.95833
617.909	2308.625
621.679	2269.625
625.447	2255.95833
629.212	2265.29167
632.973	2274.29167
636.732	2258.625
640.488	2259.29167
644.241	2226.625
647.991	2220.29167
651.737	2246.29167
655.481	2221.625
659.222	2215.29167
662.96	2222.625
666.695	2235.95833
670.427	2259.625
674.156	2253.29167
677.882	2236.29167
681.605	2245.95833
685.325	2188.625
689.043	2195.625
692.757	2169.625
696.468	2181.29167
700.177	2200.29167
703.882	2179.29167
707.585	2150.625
711.284	2166.625
714.981	2156.625
718.675	2158.625
722.366	2173.625
726.054	2178.29167
729.739	2155.95833
733.421	2176.29167
737.1	2153.625
740.777	2185.625
744.45	2203.625
748.121	2202.29167
751.789	2238.625
755.453	2231.29167
759.115	2261.29167
762.774	2264.29167
766.431	2263.625
770.084	2299.29167
773.734	2309.29167
777.382	2337.29167
781.027	2356.625
784.669	2362.625
788.308	2360.625
791.944	2392.625
795.577	2441.625
799.208	2454.625
802.835	2452.625
806.46	2470.95833
810.082	2477.29167
813.701	2479.95833
817.317	2525.95833
820.931	2491.29167
824.542	2503.625
828.149	2458.625
831.754	2440.95833
835.357	2413.625
838.956	2430.95833
842.553	2407.95833
846.146	2385.625
849.737	2351.625
853.326	2373.29167
856.911	2374.29167
860.493	2412.625
864.073	2432.95833
867.65	2460.95833
871.225	2482.625
874.796	2485.95833
878.365	2485.95833
881.931	2500.625
885.494	2500.625
889.054	2512.29167
892.612	2514.95833
896.166	2470.29167
899.719	2452.625
903.268	2429.95833
906.814	2421.29167
910.358	2414.29167
913.899	2396.29167
917.438	2392.95833
920.973	2388.95833
924.506	2422.95833
928.036	2459.29167
931.564	2492.95833
935.088	2551.29167
938.61	2544.29167
942.129	2597.625
945.646	2664.29167
949.16	2686.625
952.671	2723.625
956.179	2711.29167
959.685	2698.625
963.188	2720.625
966.688	2676.29167
970.185	2588.625
973.68	2535.29167
977.173	2481.95833
980.662	2445.29167
984.149	2445.625
987.633	2427.95833
991.114	2480.625
994.593	2511.625
998.069	2571.29167
1001.542	2631.29167
1005.013	2594.29167
1008.481	2443.95833
1011.947	2405.625
1015.409	2399.625
1018.869	2387.625
1022.327	2387.29167
1025.782	2365.95833
1029.234	2365.625
1032.683	2344.95833
1036.13	2267.29167
1039.574	2198.625
1043.016	2138.95833
1046.455	2079.95833
1049.891	2083.625
1053.325	2106.625
1056.756	2086.625
1060.184	2107.95833
1063.61	2104.29167
1067.033	2135.29167
1070.454	2135.29167
1073.872	2164.95833
1077.287	2140.625
1080.7	2182.29167
1084.11	2158.29167
1087.517	2111.29167
1090.922	2115.29167
1094.325	2081.95833
1097.724	2049.95833
1101.122	2057.95833
1104.516	2061.625
1107.908	2061.95833
1111.298	2081.29167
1114.684	2108.29167
1118.069	2135.95833
1121.45	2178.29167
1124.83	2167.29167
1128.206	2170.95833
1131.58	2205.29167
1134.951	2226.625
1138.32	2301.625
1141.687	2391.625
1145.05	2428.29167
1148.412	2421.29167
1151.77	2417.95833
1155.126	2431.625
1158.48	2385.29167
1161.831	2411.625
1165.18	2416.625
1168.525	2456.95833
1171.869	2481.29167
1175.21	2502.625
1178.548	2545.625
1181.884	2559.29167
1185.217	2578.29167
1188.548	2641.95833
1191.877	2703.625
1195.202	2815.29167
1198.526	2869.95833
1201.846	2866.95833
1205.165	2862.625
1208.48	2892.625
1211.794	2871.625
1215.104	2860.95833
1218.413	2849.625
1221.719	2865.625
1225.022	2834.29167
1228.323	2797.625
1231.621	2743.29167
1234.917	2734.625
1238.21	2729.625
1241.501	2719.625
1244.79	2705.95833
1248.076	2691.625
1251.359	2719.95833
1254.64	2771.29167
1257.919	2791.29167
1261.195	2815.95833
1264.468	2884.625
1267.74	2909.95833
1271.008	2905.95833
1274.275	2897.625
1277.538	2900.625
1280.8	2878.625
1284.059	2893.95833
1287.315	2932.95833
1290.569	2936.625
1293.821	2972.625
1297.07	2998.29167
1300.317	3006.95833
1303.562	3000.95833
1306.803	2953.95833
1310.043	2961.29167
1313.28	2955.625
1316.515	2904.95833
1319.747	2903.95833
1322.977	2882.29167
1326.204	2836.95833
1329.429	2802.95833
1332.652	2803.29167
1335.872	2754.29167
1339.09	2717.95833
1342.306	2700.29167
1345.519	2685.29167
1348.729	2645.95833
1351.938	2647.95833
1355.144	2640.95833
1358.347	2599.29167
1361.548	2578.29167
1364.747	2571.625
1367.944	2541.625
1371.138	2557.29167
1374.329	2542.95833
1377.518	2567.29167
1380.705	2580.625
1383.89	2560.625
1387.072	2489.29167
1390.252	2372.625
1393.429	2318.29167
1396.605	2232.29167
1399.777	2169.29167
1402.948	2140.625
1406.116	2150.95833
1409.282	2145.625
1412.445	2123.625
1415.606	2168.625
1418.765	2191.625
1421.921	2248.95833
1425.075	2300.625
1428.227	2360.29167
1431.376	2464.29167
1434.524	2541.95833
1437.668	2623.29167
1440.811	2641.29167
1443.951	2678.29167
1447.089	2677.29167
1450.224	2688.625
1453.357	2632.29167
1456.488	2642.29167
1459.617	2593.95833
1462.743	2517.625
1465.867	2483.29167
1468.989	2451.95833
1472.108	2413.29167
1475.225	2349.625
1478.34	2327.95833
1481.453	2307.29167
1484.563	2316.29167
1487.671	2354.625
1490.776	2367.95833
1493.88	2399.625
1496.981	2439.95833
1500.08	2460.625
1503.176	2495.95833
1506.271	2508.95833
1509.363	2553.29167
1512.452	2581.95833
1515.54	2606.95833
1518.625	2645.29167
1521.708	2712.29167
1524.789	2758.625
1527.867	2852.95833
1530.944	2993.625
1534.018	3116.625
1537.089	3254.95833
1540.159	3300.95833
1543.226	3281.625
1546.291	3236.29167
1549.354	3167.29167
1552.415	3088.625
1555.473	3029.625
1558.529	2978.625
1561.583	2957.29167
1564.634	2927.95833
1567.684	2921.95833
1570.731	2962.95833
1573.776	3000.625
1576.819	3032.95833
1579.859	3061.95833
1582.898	3094.625
1585.934	3121.29167
1588.968	3159.95833
1591.999	3141.29167
1595.029	3158.625
1598.056	3184.29167
1601.081	3214.29167
1604.104	3227.95833
1607.125	3171.29167
1610.144	3094.625
1613.16	3016.29167
1616.174	2945.95833
1619.186	2896.95833
1622.196	2805.29167
1625.203	2729.29167
1628.209	2678.29167
1631.212	2657.29167
1634.213	2675.29167
1637.212	2657.625
1640.209	2664.95833
1643.203	2609.625
1646.196	2527.95833
1649.186	2416.625
1652.174	2342.95833
1655.16	2277.625
1658.144	2204.625
1661.125	2110.95833
1664.105	2011.95833
1667.082	1930.29167
1670.057	1805.95833
1673.03	1699.29167
1676.001	1586.29167
1678.97	1497.29167
1681.937	1406.625
1684.901	1325.29167
1687.863	1286.95833
1690.824	1226.29167
1693.782	1218.625
1696.738	1160.95833
1699.692	1145.95833
1702.643	1094.625
1705.593	1095.29167
1708.54	1085.95833
1711.486	1091.625
1714.429	1055.29167
1717.37	1053.625
1720.309	1029.625
1723.246	1030.625
1726.181	1009.625
1729.113	1014.29167
1732.044	994.95833
1734.972	992.625
1737.899	992.29167
1740.823	993.29167
1743.745	956.29167
1746.665	945.95833
1749.583	929.29167
1752.499	923.29167
1755.413	935.95833
1758.325	886.95833
1761.235	884.29167
1764.142	869.29167
1767.048	880.95833
1769.951	867.95833
1772.852	861.625
1775.752	857.625
1778.649	842.625
1781.544	861.625
1784.437	830.29167
1787.328	846.29167
1790.217	820.29167
1793.104	795.29167
1795.989	802.95833
1798.872	806.625
1801.753	823.29167
1804.631	819.95833
1807.508	827.95833
1810.383	799.625
1813.255	801.95833
1816.126	807.29167
1818.994	810.625
1821.861	789.29167
1824.725	803.29167
1827.587	792.95833
1830.448	781.625
1833.306	765.95833
1836.162	786.29167
1839.017	776.29167
1841.869	762.95833
1844.719	782.29167
1847.567	752.29167
1850.414	741.625
1853.258	750.625
1856.1	765.29167
1858.94	755.625
1861.778	749.29167
1864.614	744.95833
1867.448	759.625
1870.28	749.29167
1873.111	784.625
1875.939	744.29167
1878.765	772.95833
1881.589	738.95833
1884.411	741.95833
1887.231	752.95833
1890.049	744.29167
1892.865	746.625
1895.68	745.95833
1898.492	731.625
1901.302	734.95833
1904.11	733.95833
1906.916	716.29167
1909.721	707.95833
1912.523	723.29167
1915.323	709.95833
1918.122	703.95833
1920.918	711.29167
1923.712	708.95833
1926.505	694.625
1929.295	697.625
1932.084	712.29167
1934.87	701.625
1937.655	706.625
1940.438	700.625
1943.218	699.29167
1945.997	708.29167
1948.774	696.29167
1951.549	707.95833
1954.322	699.29167
1957.093	689.625
1959.862	688.95833
1962.629	693.29167
1965.394	707.29167
1968.157	663.29167
1970.918	688.29167
1973.678	666.625
1976.435	685.95833
1979.19	675.95833
1981.944	665.95833
1984.696	675.625
1987.445	656.625
1990.193	660.95833
1992.939	681.625
1995.683	673.29167
1998.425	649.625
2001.165	690.95833
2003.903	649.29167
2006.639	664.625
2009.374	661.95833
2012.106	657.29167
2014.837	644.95833
2017.566	660.625
2020.292	657.625
2023.017	663.625
2025.74	655.625
2028.461	645.29167
2031.18	656.625
2033.898	640.29167
2036.613	653.95833
2039.327	642.625
2042.038	635.29167
2044.748	637.95833
2047.456	648.625
2050.162	632.29167
2052.866	633.29167
2055.568	650.95833
2058.268	627.29167
2060.967	637.29167
2063.663	624.95833
2066.358	627.95833
2069.051	614.625
2071.742	621.95833
2074.431	627.95833
2077.118	631.95833
2079.804	617.95833
2082.487	631.29167
2085.169	643.625
2087.849	655.625
2090.527	619.625
2093.203	628.625
2095.877	644.95833
2098.55	637.95833
2101.22	642.29167
2103.889	653.95833
2106.556	649.95833
2109.221	677.29167
2111.884	673.625
2114.546	728.625
2117.205	754.625
2119.863	805.625
2122.519	825.95833
2125.173	867.625
2127.825	904.95833
2130.475	896.95833
2133.124	875.95833
2135.771	851.95833
2138.416	811.625
2141.059	767.625
2143.7	759.95833
2146.339	723.625
2148.977	668.29167
2151.613	685.29167
2154.247	664.625
2156.879	657.29167
2159.51	619.29167
2162.138	615.625
2164.765	630.95833
2167.39	604.95833
2170.013	633.29167
2172.634	618.95833
2175.254	617.625
2177.872	635.95833
2180.488	597.29167
2183.102	612.29167
2185.714	601.29167
2188.325	581.625
2190.934	597.95833
2193.541	595.625
2196.146	598.95833
2198.75	582.29167
2201.351	579.29167
2203.951	574.95833
2206.549	593.29167
2209.146	579.95833
2211.74	568.29167
2214.333	576.29167
2216.924	559.95833
2219.514	572.95833
2222.101	569.95833
2224.687	580.29167
2227.271	568.95833
2229.853	558.95833
2232.433	543.95833
2235.012	573.95833
2237.589	571.95833
2240.164	574.625
2242.738	568.29167
2245.309	541.95833
2247.879	567.29167
2250.448	565.29167
2253.014	552.29167
2255.579	538.29167
2258.142	550.625
2260.703	535.29167
2263.262	549.29167
2265.82	548.625
2268.376	545.95833
2270.93	523.95833
2273.483	529.29167
2276.033	543.95833
2278.583	544.29167
2281.13	532.29167
2283.675	521.625
2286.219	540.95833
2288.761	540.625
2291.302	541.625
2293.841	531.625
2296.377	529.29167
2298.913	530.29167
2301.446	539.625
2303.978	530.625
2306.508	526.29167
2309.037	533.625
2311.563	530.29167
2314.088	546.29167
2316.612	516.95833
2319.133	528.625
2321.653	532.625
2324.171	522.95833
2326.688	540.95833
2329.202	524.29167
2331.715	534.29167
2334.227	533.95833
2336.736	535.29167
2339.244	519.625
2341.751	517.625
2344.255	535.29167
2346.758	534.95833
2349.259	518.95833
2351.759	518.625
2354.257	528.95833
2356.753	513.95833
2359.247	528.95833
2361.74	530.29167
2364.231	526.95833
2366.721	536.625
2369.209	519.625
2371.695	530.95833
2374.179	523.625
2376.662	509.625
2379.143	536.95833
2381.622	523.95833
2384.1	529.29167
2386.576	525.29167
2389.051	539.29167
2391.524	537.29167
2393.995	537.95833
2396.464	522.625
2398.932	519.95833
2401.398	515.29167
2403.863	528.625
2406.325	519.29167
2408.787	521.625
2411.246	533.625
2413.704	521.29167
2416.16	524.95833
2418.615	534.29167
2421.068	541.625
2423.519	538.625
2425.969	533.625
2428.417	534.95833
2430.863	559.625
2433.308	539.29167
2435.751	540.625
2438.193	527.29167
2440.633	542.625
2443.071	537.95833
2445.508	537.625
2447.943	527.29167
2450.376	526.625
2452.808	534.95833
2455.238	538.29167
2457.667	567.95833
2460.093	528.29167
2462.519	527.95833
2464.942	537.95833
2467.365	527.625
2469.785	544.29167
2472.204	539.95833
2474.621	538.95833
2477.037	550.95833
2479.451	521.95833
2481.863	531.625
2484.274	537.29167
2486.683	544.95833
2489.091	549.29167
2491.497	546.29167
2493.901	555.29167
2496.304	543.625
2498.705	548.95833
2501.105	546.29167
2503.503	571.95833
2505.899	539.95833
2508.294	560.29167
2510.687	554.625
2513.079	551.29167
2515.469	543.29167
2517.858	551.625
2520.245	558.29167
2522.63	553.29167
2525.014	538.29167
2527.396	542.29167
2529.776	535.625
2532.156	562.29167
2534.533	542.625
2536.909	550.95833
2539.283	535.95833
2541.656	556.625
2544.027	574.95833
2546.397	558.29167
2548.765	546.95833
2551.131	554.95833
2553.496	561.95833
2555.86	560.29167
2558.221	569.29167
2560.582	558.29167
2562.94	553.95833
2565.298	565.29167
2567.653	584.29167
2570.007	553.95833
2572.36	582.625
2574.711	557.95833
2577.06	586.625
2579.408	579.625
2581.754	574.29167
2584.099	585.95833
2586.442	579.95833
2588.784	584.625
2591.124	576.29167
2593.463	585.95833
2595.8	581.95833
2598.135	569.29167
2600.469	580.95833
2602.802	591.29167
2605.133	595.95833
2607.462	571.625
2609.79	576.29167
2612.116	587.29167
2614.441	590.625
2616.764	590.95833
2619.086	589.625
2621.406	577.625
2623.725	601.625
2626.042	601.29167
2628.358	587.95833
2630.672	585.625
2632.985	609.29167
2635.296	597.95833
2637.606	597.95833
2639.914	599.95833
2642.22	602.95833
2644.525	609.95833
2646.829	614.625
2649.131	619.625
2651.432	624.625
2653.731	618.625
2656.028	633.625
2658.324	637.625
2660.619	621.95833
2662.912	637.95833
2665.204	612.95833
2667.494	638.625
2669.782	615.95833
2672.07	633.29167
2674.355	641.95833
2676.639	632.95833
2678.922	630.95833
2681.203	633.29167
2683.483	622.95833
2685.761	628.95833
2688.038	641.95833
2690.313	667.625
2692.587	632.95833
2694.859	633.95833
2697.13	651.625
2699.399	654.95833
2701.667	667.625
2703.933	668.29167
2706.198	660.625
2708.461	679.95833
2710.723	675.95833
2712.984	681.625
2715.243	679.29167
2717.5	666.625
2719.757	701.625
2722.011	677.29167
2724.264	693.95833
2726.516	701.95833
2728.766	683.29167
2731.015	700.625
2733.262	700.29167
2735.508	702.29167
2737.753	706.95833
2739.996	686.95833
2742.237	692.95833
2744.477	698.625
2746.716	707.29167
2748.953	706.95833
2751.189	704.29167
2753.423	683.625
2755.656	684.95833
2757.887	678.95833
2760.117	687.625
2762.346	679.29167
2764.573	673.95833
2766.798	681.95833
2769.022	694.95833
2771.245	697.29167
2773.467	698.625
2775.686	694.95833
2777.905	710.29167
2780.122	713.95833
2782.337	715.29167
2784.552	703.625
2786.764	728.29167
2788.976	725.29167
2791.186	726.625
2793.394	740.29167
2795.601	736.29167
2797.807	749.29167
2800.011	751.625
2802.214	763.625
2804.415	757.95833
2806.615	765.29167
2808.814	758.95833
2811.011	776.29167
2813.206	761.29167
2815.401	785.625
2817.594	785.29167
2819.785	796.625
2821.975	795.29167
2824.164	788.95833
2826.351	800.29167
2828.537	828.625
2830.722	825.95833
2832.905	847.29167
2835.086	858.29167
2837.267	889.95833
2839.445	880.625
2841.623	904.29167
2843.799	914.95833
2845.974	942.95833
2848.147	968.95833
2850.319	988.29167
2852.489	1016.625
2854.659	1025.625
2856.826	1023.95833
2858.993	1060.625
2861.158	1050.29167
2863.321	1048.29167
2865.483	1059.95833
2867.644	1056.625
2869.804	1065.29167
2871.962	1051.95833
2874.118	1049.29167
2876.274	1056.625
2878.428	1049.29167
2880.58	1052.95833
2882.731	1034.29167
2884.881	1047.95833
2887.03	1035.625
2889.177	1038.625
2891.322	1059.95833
2893.467	1052.95833
2895.61	1059.625
2897.751	1076.29167
2899.892	1059.29167
2902.03	1084.95833
2904.168	1082.29167
2906.304	1086.29167
2908.439	1111.625
2910.572	1103.95833
2912.704	1123.29167
2914.835	1118.95833
2916.965	1098.29167
2919.093	1128.29167
2921.219	1101.625
2923.345	1122.29167
2925.469	1089.625
2927.591	1087.29167
2929.712	1054.95833
2931.832	1056.29167
2933.951	1046.29167
2936.068	1033.625
2938.184	1014.625
2940.299	997.625
2942.412	994.95833
2944.524	952.95833
2946.634	971.625
2948.744	927.625
2950.851	952.29167
2952.958	913.29167
2955.063	919.95833
2957.167	909.95833
2959.269	888.95833
2961.371	905.95833
2963.471	874.29167
2965.569	902.29167
2967.666	876.29167
2969.762	865.625
2971.857	856.625
2973.95	828.95833
2976.042	823.29167
2978.133	823.95833
2980.222	803.95833
2982.31	798.625
2984.396	773.95833
2986.482	781.625
2988.566	784.95833
2990.648	769.29167
2992.73	771.95833
2994.81	764.95833
2996.889	785.95833
2998.966	781.29167
3001.042	774.625
3003.117	775.625
3005.191	780.95833
3007.263	774.95833
3009.334	759.95833
3011.403	762.29167
3013.472	746.29167
3015.539	742.625
3017.604	747.625
3019.669	721.625
3021.732	724.95833
3023.794	726.95833
3025.854	723.95833
3027.914	706.625
3029.971	722.95833
3032.028	719.95833
3034.083	719.95833
3036.137	710.95833
3038.19	681.625
3040.242	659.625
3042.292	656.625
3044.341	658.95833
3046.388	660.625
3048.435	642.625
3050.48	653.95833
3052.524	651.625
3054.566	631.95833
3056.607	638.625
3058.647	624.95833
3060.686	602.29167
3062.723	587.95833
3064.759	563.95833
3066.794	-0.70833
3068.828	2.95833
3070.86	2.95833
