-0.839	527.16667
3.438	633.16667
7.711	177.16667
11.981	58.5
16.247	45.83333
20.509	52.16667
24.768	43.16667
29.024	54.83333
33.276	42.83333
37.524	51.83333
41.769	46.5
46.01	34.5
50.247	44.5
54.481	57.16667
58.712	60.83333
62.939	48.16667
67.162	61.5
71.382	58.83333
75.599	45.5
79.812	61.5
84.021	75.5
88.227	60.5
92.429	56.83333
96.628	54.16667
100.823	70.16667
105.015	72.5
109.204	65.83333
113.388	78.83333
117.57	71.83333
121.748	85.5
125.922	75.5
130.093	95.83333
134.261	91.83333
138.425	97.83333
142.585	138.16667
146.742	124.83333
150.896	153.5
155.046	191.5
159.193	312.83333
163.336	528.5
167.476	983.5
171.613	1781.5
175.746	2907.83333
179.875	4252.83333
184.002	5453.5
188.124	6273.5
192.244	6489.5
196.36	6338.83333
200.472	6087.5
204.581	5854.5
208.687	5671.16667
212.79	5539.16667
216.889	5461.83333
220.984	5422.16667
225.077	5370.83333
229.165	5330.5
233.251	5282.5
237.333	5243.83333
241.412	5117.5
245.487	5048.83333
249.559	4964.16667
253.628	4955.5
257.694	4880.16667
261.756	4850.5
265.814	4730.83333
269.87	4581.5
273.922	4450.5
277.97	4371.5
282.016	4325.5
286.058	4367.83333
290.097	4474.83333
294.132	4526.83333
298.164	4472.5
302.193	4258.16667
306.219	3993.16667
310.241	3652.5
314.26	3343.5
318.276	3124.5
322.288	2970.83333
326.297	2844.5
330.303	2747.16667
334.305	2654.5
338.305	2640.83333
342.301	2557.5
346.294	2553.16667
350.283	2526.5
354.269	2490.83333
358.252	2485.16667
362.232	2462.5
366.209	2439.83333
370.182	2416.16667
374.152	2414.5
378.119	2411.16667
382.083	2399.5
386.043	2399.16667
390	2381.5
393.954	2383.5
397.905	2374.83333
401.852	2355.16667
405.797	2314.5
409.738	2317.5
413.676	2319.5
417.61	2320.5
421.542	2297.5
425.47	2290.16667
429.396	2269.16667
433.318	2261.16667
437.236	2243.16667
441.152	2268.16667
445.065	2205.83333
448.974	2205.83333
452.88	2191.16667
456.783	2168.5
460.683	2153.5
464.58	2161.16667
468.473	2169.5
472.364	2162.83333
476.251	2149.5
480.135	2192.16667
484.016	2201.16667
487.894	2213.5
491.769	2232.5
495.641	2218.5
499.509	2209.5
503.375	2230.5
507.237	2224.16667
511.096	2241.83333
514.952	2328.83333
518.805	2435.16667
522.655	2491.16667
526.502	2364.16667
530.346	2261.16667
534.187	2234.5
538.024	2262.83333
541.859	2269.5
545.69	2288.5
549.519	2255.83333
553.344	2242.5
557.166	2215.83333
560.985	2176.5
564.802	2143.5
568.615	2088.83333
572.425	2064.83333
576.232	2057.16667
580.036	2061.16667
583.836	2059.5
587.634	2068.16667
591.429	2080.16667
595.221	2137.5
599.01	2155.83333
602.796	2167.5
606.578	2168.5
610.358	2169.83333
614.135	2153.16667
617.909	2145.83333
621.679	2134.16667
625.447	2096.83333
629.212	2114.83333
632.973	2099.16667
636.732	2092.16667
640.488	2128.83333
644.241	2068.5
647.991	2085.5
651.737	2074.83333
655.481	2059.16667
659.222	2074.16667
662.96	2063.5
666.695	2063.83333
670.427	2104.16667
674.156	2116.5
677.882	2109.83333
681.605	2077.83333
685.325	2049.5
689.043	2071.16667
692.757	2041.16667
696.468	2039.16667
700.177	2036.16667
703.882	2023.5
707.585	2013.83333
711.284	2012.16667
714.981	2021.83333
718.675	2043.83333
722.366	2046.5
726.054	2011.16667
729.739	2034.83333
733.421	2029.16667
737.1	2028.5
740.777	2058.83333
744.45	2076.83333
748.121	2069.16667
751.789	2122.16667
755.453	2090.83333
759.115	2113.83333
762.774	2105.83333
766.431	2126.83333
770.084	2147.83333
773.734	2184.83333
777.382	2215.83333
781.027	2234.5
784.669	2248.16667
788.308	2252.16667
791.944	2261.5
795.577	2297.83333
799.208	2324.5
802.835	2314.16667
806.46	2346.5
810.082	2348.83333
813.701	2339.83333
817.317	2361.83333
820.931	2349.83333
824.542	2343.16667
828.149	2327.16667
831.754	2309.16667
835.357	2296.5
838.956	2309.83333
842.553	2288.83333
846.146	2277.83333
849.737	2239.5
853.326	2263.16667
856.911	2265.5
860.493	2300.83333
864.073	2317.5
867.65	2326.16667
871.225	2387.5
874.796	2338.16667
878.365	2359.5
881.931	2386.83333
885.494	2400.16667
889.054	2397.16667
892.612	2396.16667
896.166	2360.83333
899.719	2355.83333
903.268	2333.5
906.814	2293.83333
910.358	2290.83333
913.899	2259.83333
917.438	2265.83333
920.973	2263.16667
924.506	2302.5
928.036	2363.16667
931.564	2377.5
935.088	2418.83333
938.61	2441.83333
942.129	2475.5
945.646	2533.83333
949.16	2574.83333
952.671	2615.83333
956.179	2587.5
959.685	2568.5
963.188	2581.16667
966.688	2530.16667
970.185	2476.16667
973.68	2415.16667
977.173	2375.5
980.662	2316.16667
984.149	2326.5
987.633	2305.5
991.114	2338.83333
994.593	2380.5
998.069	2458.5
1001.542	2524.16667
1005.013	2461.5
1008.481	2333.5
1011.947	2291.16667
1015.409	2266.16667
1018.869	2273.83333
1022.327	2276.5
1025.782	2247.16667
1029.234	2259.16667
1032.683	2215.83333
1036.13	2154.5
1039.574	2061.16667
1043.016	2016.5
1046.455	2005.83333
1049.891	1968.83333
1053.325	1995.5
1056.756	1999.83333
1060.184	2014.5
1063.61	2005.16667
1067.033	2035.5
1070.454	2023.5
1073.872	2060.16667
1077.287	2031.16667
1080.7	2071.5
1084.11	2051.5
1087.517	2025.5
1090.922	2013.5
1094.325	1985.16667
1097.724	1961.83333
1101.122	1962.16667
1104.516	1973.16667
1107.908	1960.83333
1111.298	1989.5
1114.684	2009.16667
1118.069	2028.16667
1121.45	2054.16667
1124.83	2043.5
1128.206	2049.83333
1131.58	2125.5
1134.951	2148.83333
1138.32	2220.83333
1141.687	2285.16667
1145.05	2330.5
1148.412	2321.5
1151.77	2329.83333
1155.126	2331.83333
1158.48	2300.83333
1161.831	2316.5
1165.18	2323.5
1168.525	2375.16667
1171.869	2393.5
1175.21	2397.16667
1178.548	2433.5
1181.884	2469.16667
1185.217	2488.83333
1188.548	2565.16667
1191.877	2615.83333
1195.202	2711.83333
1198.526	2795.5
1201.846	2800.5
1205.165	2790.16667
1208.48	2789.16667
1211.794	2762.16667
1215.104	2791.16667
1218.413	2770.16667
1221.719	2779.83333
1225.022	2728.5
1228.323	2657.83333
1231.621	2647.16667
1234.917	2640.5
1238.21	2636.5
1241.501	2612.16667
1244.79	2607.5
1248.076	2591.5
1251.359	2628.16667
1254.64	2694.83333
1257.919	2703.5
1261.195	2742.83333
1264.468	2788.83333
1267.74	2813.83333
1271.008	2813.5
1274.275	2829.83333
1277.538	2809.16667
1280.8	2777.5
1284.059	2799.16667
1287.315	2834.16667
1290.569	2852.83333
1293.821	2873.5
1297.07	2889.16667
1300.317	2924.16667
1303.562	2921.16667
1306.803	2869.5
1310.043	2876.16667
1313.28	2847.5
1316.515	2824.83333
1319.747	2804.16667
1322.977	2769.16667
1326.204	2761.16667
1329.429	2696.83333
1332.652	2661.16667
1335.872	2637.83333
1339.09	2618.83333
1342.306	2597.5
1345.519	2549.83333
1348.729	2553.83333
1351.938	2537.5
1355.144	2532.83333
1358.347	2478.5
1361.548	2462.16667
1364.747	2451.5
1367.944	2459.83333
1371.138	2441.5
1374.329	2454.83333
1377.518	2472.5
1380.705	2492.16667
1383.89	2456.83333
1387.072	2365.5
1390.252	2306.16667
1393.429	2214.83333
1396.605	2152.16667
1399.777	2094.83333
1402.948	2081.83333
1406.116	2071.16667
1409.282	2039.83333
1412.445	2034.16667
1415.606	2079.16667
1418.765	2119.83333
1421.921	2177.16667
1425.075	2200.16667
1428.227	2262.83333
1431.376	2385.16667
1434.524	2456.16667
1437.668	2556.16667
1440.811	2573.5
1443.951	2572.83333
1447.089	2602.5
1450.224	2605.5
1453.357	2563.83333
1456.488	2545.83333
1459.617	2499.83333
1462.743	2454.83333
1465.867	2391.83333
1468.989	2373.83333
1472.108	2289.16667
1475.225	2263.83333
1478.34	2235.83333
1481.453	2229.83333
1484.563	2215.83333
1487.671	2257.5
1490.776	2298.83333
1493.88	2327.16667
1496.981	2362.16667
1500.08	2401.83333
1503.176	2434.83333
1506.271	2444.5
1509.363	2479.83333
1512.452	2499.83333
1515.54	2526.83333
1518.625	2537.5
1521.708	2611.83333
1524.789	2679.5
1527.867	2758.16667
1530.944	2905.5
1534.018	3024.83333
1537.089	3188.5
1540.159	3207.83333
1543.226	3215.16667
1546.291	3164.83333
1549.354	3070.5
1552.415	2992.83333
1555.473	2938.83333
1558.529	2912.5
1561.583	2853.83333
1564.634	2845.83333
1567.684	2865.83333
1570.731	2867.16667
1573.776	2914.16667
1576.819	2948.83333
1579.859	2989.5
1582.898	3032.83333
1585.934	3062.5
1588.968	3081.5
1591.999	3078.5
1595.029	3076.16667
1598.056	3115.5
1601.081	3138.5
1604.104	3129.5
1607.125	3079.5
1610.144	3008.5
1613.16	2968.83333
1616.174	2887.16667
1619.186	2802.83333
1622.196	2716.5
1625.203	2637.83333
1628.209	2596.83333
1631.212	2576.83333
1634.213	2541.83333
1637.212	2574.16667
1640.209	2519.16667
1643.203	2445.83333
1646.196	2411.16667
1649.186	2323.83333
1652.174	2234.83333
1655.16	2174.16667
1658.144	2103.83333
1661.125	2012.5
1664.105	1927.16667
1667.082	1845.16667
1670.057	1745.83333
1673.03	1628.16667
1676.001	1530.5
1678.97	1422.5
1681.937	1351.5
1684.901	1273.5
1687.863	1237.83333
1690.824	1164.83333
1693.782	1162.5
1696.738	1106.83333
1699.692	1082.83333
1702.643	1050.16667
1705.593	1041.5
1708.54	1030.83333
1711.486	1034.16667
1714.429	997.16667
1717.37	993.16667
1720.309	969.83333
1723.246	985.5
1726.181	953.83333
1729.113	954.16667
1732.044	949.16667
1734.972	942.5
1737.899	947.5
1740.823	937.16667
1743.745	910.83333
1746.665	899.83333
1749.583	881.5
1752.499	882.16667
1755.413	868.16667
1758.325	845.16667
1761.235	837.83333
1764.142	831.83333
1767.048	800.16667
1769.951	823.16667
1772.852	811.16667
1775.752	808.83333
1778.649	805.5
1781.544	808.5
1784.437	792.16667
1787.328	816.16667
1790.217	781.5
1793.104	751.5
1795.989	771.16667
1798.872	762.16667
1801.753	768.16667
1804.631	762.83333
1807.508	781.83333
1810.383	767.5
1813.255	761.5
1816.126	763.5
1818.994	750.83333
1821.861	743.5
1824.725	748.16667
1827.587	753.5
1830.448	740.16667
1833.306	715.16667
1836.162	734.83333
1839.017	724.83333
1841.869	730.83333
1844.719	735.83333
1847.567	718.83333
1850.414	696.5
1853.258	701.16667
1856.1	717.16667
1858.94	727.5
1861.778	711.83333
1864.614	703.83333
1867.448	707.16667
1870.28	694.83333
1873.111	724.16667
1875.939	709.5
1878.765	717.16667
1881.589	698.83333
1884.411	697.5
1887.231	708.16667
1890.049	689.5
1892.865	706.5
1895.68	691.83333
1898.492	702.16667
1901.302	688.16667
1904.11	693.16667
1906.916	675.83333
1909.721	669.83333
1912.523	691.5
1915.323	664.83333
1918.122	667.5
1920.918	680.5
1923.712	668.16667
1926.505	666.5
1929.295	658.83333
1932.084	674.16667
1934.87	669.16667
1937.655	670.83333
1940.438	657.83333
1943.218	664.5
1945.997	675.16667
1948.774	677.83333
1951.549	670.16667
1954.322	662.16667
1957.093	661.16667
1959.862	653.5
1962.629	657.5
1965.394	640.83333
1968.157	636.83333
1970.918	644.83333
1973.678	628.5
1976.435	649.83333
1979.19	633.83333
1981.944	634.5
1984.696	626.83333
1987.445	618.83333
1990.193	632.83333
1992.939	647.16667
1995.683	625.83333
1998.425	615.5
2001.165	649.83333
2003.903	625.16667
2006.639	619.5
2009.374	636.5
2012.106	620.83333
2014.837	606.83333
2017.566	631.16667
2020.292	634.16667
2023.017	618.16667
2025.74	613.83333
2028.461	613.5
2031.18	614.83333
2033.898	607.16667
2036.613	603.83333
2039.327	616.83333
2042.038	609.16667
2044.748	609.5
2047.456	621.83333
2050.162	600.83333
2052.866	603.16667
2055.568	612.16667
2058.268	606.83333
2060.967	605.16667
2063.663	592.16667
2066.358	597.83333
2069.051	596.5
2071.742	608.16667
2074.431	599.83333
2077.118	600.5
2079.804	590.83333
2082.487	591.83333
2085.169	607.16667
2087.849	624.16667
2090.527	587.16667
2093.203	614.83333
2095.877	611.16667
2098.55	619.83333
2101.22	620.5
2103.889	627.83333
2106.556	625.16667
2109.221	650.5
2111.884	653.16667
2114.546	688.16667
2117.205	733.83333
2119.863	787.83333
2122.519	815.83333
2125.173	857.5
2127.825	875.5
2130.475	878.83333
2133.124	852.16667
2135.771	817.16667
2138.416	788.83333
2141.059	742.83333
2143.7	717.5
2146.339	692.83333
2148.977	653.83333
2151.613	651.16667
2154.247	629.83333
2156.879	625.83333
2159.51	600.5
2162.138	595.16667
2164.765	601.16667
2167.39	583.5
2170.013	608.16667
2172.634	601.16667
2175.254	588.16667
2177.872	620.83333
2180.488	580.83333
2183.102	581.16667
2185.714	571.16667
2188.325	563.83333
2190.934	582.5
2193.541	572.5
2196.146	563.16667
2198.75	557.5
2201.351	557.83333
2203.951	545.83333
2206.549	568.16667
2209.146	553.83333
2211.74	549.83333
2214.333	560.16667
2216.924	543.5
2219.514	551.16667
2222.101	544.16667
2224.687	561.16667
2227.271	542.83333
2229.853	540.5
2232.433	526.5
2235.012	542.16667
2237.589	550.16667
2240.164	548.5
2242.738	548.5
2245.309	536.16667
2247.879	540.83333
2250.448	546.16667
2253.014	531.83333
2255.579	513.5
2258.142	538.16667
2260.703	532.83333
2263.262	531.5
2265.82	518.16667
2268.376	532.5
2270.93	512.5
2273.483	517.83333
2276.033	523.5
2278.583	518.16667
2281.13	519.5
2283.675	505.83333
2286.219	514.5
2288.761	521.16667
2291.302	516.83333
2293.841	530.5
2296.377	512.5
2298.913	506.5
2301.446	525.83333
2303.978	521.83333
2306.508	506.83333
2309.037	520.5
2311.563	523.83333
2314.088	520.5
2316.612	502.83333
2319.133	511.16667
2321.653	519.83333
2324.171	495.16667
2326.688	521.5
2329.202	510.5
2331.715	514.16667
2334.227	506.83333
2336.736	513.5
2339.244	517.5
2341.751	505.16667
2344.255	515.16667
2346.758	511.16667
2349.259	495.83333
2351.759	513.5
2354.257	500.16667
2356.753	509.16667
2359.247	510.83333
2361.74	516.5
2364.231	509.83333
2366.721	518.16667
2369.209	497.5
2371.695	510.5
2374.179	513.16667
2376.662	498.83333
2379.143	520.16667
2381.622	512.5
2384.1	523.5
2386.576	517.16667
2389.051	526.5
2391.524	525.83333
2393.995	529.5
2396.464	513.16667
2398.932	510.5
2401.398	509.83333
2403.863	517.5
2406.325	514.83333
2408.787	517.83333
2411.246	521.5
2413.704	522.16667
2416.16	515.5
2418.615	513.16667
2421.068	539.83333
2423.519	536.5
2425.969	515.16667
2428.417	508.5
2430.863	541.16667
2433.308	531.16667
2435.751	524.16667
2438.193	526.5
2440.633	522.5
2443.071	525.5
2445.508	521.5
2447.943	519.5
2450.376	515.83333
2452.808	515.16667
2455.238	523.16667
2457.667	570.5
2460.093	527.5
2462.519	527.16667
2464.942	526.83333
2467.365	531.16667
2469.785	536.83333
2472.204	537.83333
2474.621	531.16667
2477.037	552.16667
2479.451	528.5
2481.863	514.5
2484.274	523.83333
2486.683	537.16667
2489.091	547.5
2491.497	534.16667
2493.901	541.5
2496.304	534.83333
2498.705	543.5
2501.105	538.5
2503.503	569.83333
2505.899	533.5
2508.294	547.5
2510.687	545.16667
2513.079	547.16667
2515.469	537.83333
2517.858	535.16667
2520.245	554.83333
2522.63	544.5
2525.014	532.83333
2527.396	535.16667
2529.776	529.16667
2532.156	553.16667
2534.533	531.83333
2536.909	534.5
2539.283	528.5
2541.656	540.5
2544.027	562.16667
2546.397	548.5
2548.765	545.5
2551.131	553.5
2553.496	563.16667
2555.86	549.83333
2558.221	556.5
2560.582	543.5
2562.94	541.16667
2565.298	554.16667
2567.653	579.83333
2570.007	546.5
2572.36	578.83333
2574.711	558.83333
2577.06	572.83333
2579.408	563.16667
2581.754	572.83333
2584.099	571.5
2586.442	565.83333
2588.784	563.5
2591.124	579.5
2593.463	577.16667
2595.8	572.5
2598.135	567.83333
2600.469	581.16667
2602.802	589.16667
2605.133	578.83333
2607.462	574.5
2609.79	571.16667
2612.116	584.16667
2614.441	584.5
2616.764	588.83333
2619.086	581.16667
2621.406	574.16667
2623.725	603.16667
2626.042	602.5
2628.358	591.16667
2630.672	581.83333
2632.985	608.16667
2635.296	604.16667
2637.606	600.83333
2639.914	588.16667
2642.22	594.5
2644.525	605.16667
2646.829	608.83333
2649.131	625.5
2651.432	617.16667
2653.731	631.83333
2656.028	627.83333
2658.324	638.16667
2660.619	618.5
2662.912	629.5
2665.204	622.5
2667.494	637.83333
2669.782	617.16667
2672.07	642.16667
2674.355	632.16667
2676.639	622.5
2678.922	620.5
2681.203	632.83333
2683.483	626.16667
2685.761	621.83333
2688.038	638.5
2690.313	652.83333
2692.587	644.5
2694.859	640.5
2697.13	644.83333
2699.399	661.16667
2701.667	660.83333
2703.933	649.83333
2706.198	664.83333
2708.461	669.5
2710.723	667.16667
2712.984	669.83333
2715.243	675.83333
2717.5	675.16667
2719.757	689.16667
2722.011	681.5
2724.264	684.16667
2726.516	706.16667
2728.766	684.83333
2731.015	694.16667
2733.262	706.16667
2735.508	700.16667
2737.753	694.5
2739.996	693.83333
2742.237	682.5
2744.477	708.83333
2746.716	689.5
2748.953	687.5
2751.189	711.16667
2753.423	689.5
2755.656	689.16667
2757.887	679.83333
2760.117	686.83333
2762.346	678.83333
2764.573	682.83333
2766.798	692.5
2769.022	681.83333
2771.245	708.16667
2773.467	694.16667
2775.686	705.83333
2777.905	709.83333
2780.122	715.16667
2782.337	724.5
2784.552	726.5
2786.764	710.83333
2788.976	709.16667
2791.186	728.5
2793.394	728.5
2795.601	739.83333
2797.807	747.83333
2800.011	768.5
2802.214	765.16667
2804.415	746.83333
2806.615	766.83333
2808.814	763.5
2811.011	772.83333
2813.206	772.16667
2815.401	786.83333
2817.594	788.16667
2819.785	797.83333
2821.975	799.5
2824.164	788.16667
2826.351	804.83333
2828.537	817.5
2830.722	830.83333
2832.905	824.5
2835.086	864.16667
2837.267	878.5
2839.445	882.5
2841.623	905.5
2843.799	921.16667
2845.974	951.83333
2848.147	981.83333
2850.319	997.16667
2852.489	1004.83333
2854.659	1019.16667
2856.826	1034.5
2858.993	1059.16667
2861.158	1052.16667
2863.321	1045.5
2865.483	1067.16667
2867.644	1064.83333
2869.804	1050.5
2871.962	1059.16667
2874.118	1065.16667
2876.274	1052.5
2878.428	1056.16667
2880.58	1037.5
2882.731	1024.5
2884.881	1038.16667
2887.03	1043.83333
2889.177	1039.83333
2891.322	1062.83333
2893.467	1060.5
2895.61	1044.83333
2897.751	1084.5
2899.892	1059.5
2902.03	1070.83333
2904.168	1080.16667
2906.304	1089.16667
2908.439	1097.5
2910.572	1103.83333
2912.704	1116.5
2914.835	1112.5
2916.965	1104.16667
2919.093	1121.83333
2921.219	1107.83333
2923.345	1120.83333
2925.469	1087.16667
2927.591	1088.16667
2929.712	1063.16667
2931.832	1071.16667
2933.951	1038.5
2936.068	1019.5
2938.184	1019.16667
2940.299	994.83333
2942.412	988.16667
2944.524	962.16667
2946.634	966.5
2948.744	922.83333
2950.851	954.16667
2952.958	909.83333
2955.063	926.83333
2957.167	917.16667
2959.269	902.16667
2961.371	928.83333
2963.471	886.5
2965.569	890.16667
2967.666	865.5
2969.762	868.83333
2971.857	859.5
2973.95	835.16667
2976.042	840.5
2978.133	830.16667
2980.222	817.16667
2982.31	797.5
2984.396	777.5
2986.482	777.5
2988.566	794.83333
2990.648	792.16667
2992.73	774.5
2994.81	770.16667
2996.889	782.5
2998.966	787.83333
3001.042	790.5
3003.117	788.16667
3005.191	779.16667
3007.263	773.5
3009.334	756.83333
3011.403	762.16667
3013.472	748.83333
3015.539	749.16667
3017.604	736.83333
3019.669	717.83333
3021.732	721.83333
3023.794	719.5
3025.854	741.5
3027.914	722.83333
3029.971	723.83333
3032.028	720.16667
3034.083	717.16667
3036.137	711.5
3038.19	696.5
3040.242	674.5
3042.292	659.83333
3044.341	663.5
3046.388	667.83333
3048.435	640.5
3050.48	659.16667
3052.524	639.5
3054.566	637.83333
3056.607	636.83333
3058.647	620.83333
3060.686	611.5
3062.723	585.5
3064.759	569.83333
3066.794	-1.5
3068.828	2.83333
3070.86	0.83333
