-0.839	662.5
3.438	803.5
7.711	233.16667
11.981	69.5
16.247	48.16667
20.509	55.16667
24.768	50.5
29.024	55.5
33.276	44.83333
37.524	52.16667
41.769	47.83333
46.01	32.83333
50.247	46.5
54.481	59.5
58.712	61.83333
62.939	50.83333
67.162	63.83333
71.382	59.16667
75.599	49.16667
79.812	66.83333
84.021	82.83333
88.227	64.16667
92.429	64.83333
96.628	58.83333
100.823	71.5
105.015	81.5
109.204	73.5
113.388	81.5
117.57	73.5
121.748	95.5
125.922	80.83333
130.093	107.83333
134.261	106.5
138.425	100.83333
142.585	142.83333
146.742	140.16667
150.896	173.5
155.046	210.83333
159.193	338.83333
163.336	564.83333
167.476	1056.5
171.613	1957.16667
175.746	3263.16667
179.875	4856.16667
184.002	6369.5
188.124	7445.5
192.244	7807.83333
196.36	7746.16667
200.472	7512.83333
204.581	7325.16667
208.687	7120.83333
212.79	7116.83333
216.889	7057.16667
220.984	7034.5
225.077	7079.83333
229.165	7100.5
233.251	7121.5
237.333	7097.83333
241.412	7011.83333
245.487	6919.5
249.559	6895.16667
253.628	6805.83333
257.694	6752.16667
261.756	6718.16667
265.814	6584.5
269.87	6395.83333
273.922	6191.5
277.97	6098.83333
282.016	5976.16667
286.058	6054.16667
290.097	6183.83333
294.132	6304.83333
298.164	6245.5
302.193	5979.5
306.219	5548.83333
310.241	5101.16667
314.26	4705.5
318.276	4388.83333
322.288	4155.83333
326.297	3975.5
330.303	3846.5
334.305	3760.83333
338.305	3707.5
342.301	3656.5
346.294	3607.83333
350.283	3603.5
354.269	3562.5
358.252	3554.16667
362.232	3520.5
366.209	3528.16667
370.182	3507.83333
374.152	3457.16667
378.119	3448.83333
382.083	3441.16667
386.043	3469.5
390	3431.5
393.954	3442.5
397.905	3418.16667
401.852	3410.16667
405.797	3371.16667
409.738	3342.5
413.676	3344.16667
417.61	3333.5
421.542	3319.5
425.47	3293.83333
429.396	3281.16667
433.318	3269.16667
437.236	3260.83333
441.152	3279.83333
445.065	3204.16667
448.974	3208.5
452.88	3171.83333
456.783	3171.83333
460.683	3156.16667
464.58	3158.83333
468.473	3155.83333
472.364	3175.83333
476.251	3167.5
480.135	3192.83333
484.016	3238.5
487.894	3261.83333
491.769	3271.16667
495.641	3293.5
499.509	3292.5
503.375	3269.16667
507.237	3247.16667
511.096	3241.83333
514.952	3262.16667
518.805	3275.16667
522.655	3326.83333
526.502	3275.16667
530.346	3259.83333
534.187	3272.5
538.024	3299.5
541.859	3310.83333
545.69	3332.83333
549.519	3297.5
553.344	3295.16667
557.166	3255.16667
560.985	3213.16667
564.802	3150.5
568.615	3092.5
572.425	3044.16667
576.232	3042.83333
580.036	3032.5
583.836	3043.16667
587.634	3044.5
591.429	3055.5
595.221	3133.5
599.01	3156.16667
602.796	3181.5
606.578	3180.16667
610.358	3193.16667
614.135	3148.16667
617.909	3151.83333
621.679	3133.16667
625.447	3066.83333
629.212	3088.16667
632.973	3095.16667
636.732	3089.16667
640.488	3092.16667
644.241	3054.5
647.991	3052.16667
651.737	3061.5
655.481	3037.16667
659.222	3040.5
662.96	3028.5
666.695	3036.83333
670.427	3050.16667
674.156	3068.5
677.882	3079.16667
681.605	3080.83333
685.325	3065.16667
689.043	3056.83333
692.757	3018.16667
696.468	3021.83333
700.177	3035.83333
703.882	2991.5
707.585	2969.5
711.284	2959.5
714.981	2968.83333
718.675	2972.5
722.366	2984.16667
726.054	2939.5
729.739	2988.16667
733.421	2967.83333
737.1	2958.83333
740.777	2964.83333
744.45	2988.16667
748.121	3010.16667
751.789	3067.16667
755.453	3057.83333
759.115	3091.16667
762.774	3115.16667
766.431	3101.5
770.084	3154.83333
773.734	3158.83333
777.382	3235.16667
781.027	3243.16667
784.669	3274.83333
788.308	3280.16667
791.944	3299.5
795.577	3262.83333
799.208	3292.5
802.835	3318.16667
806.46	3307.83333
810.082	3340.16667
813.701	3333.5
817.317	3358.83333
820.931	3379.5
824.542	3355.16667
828.149	3335.83333
831.754	3330.83333
835.357	3316.16667
838.956	3320.5
842.553	3318.5
846.146	3293.83333
849.737	3267.83333
853.326	3292.5
856.911	3288.5
860.493	3340.16667
864.073	3367.16667
867.65	3399.16667
871.225	3431.83333
874.796	3416.83333
878.365	3425.83333
881.931	3439.83333
885.494	3492.16667
889.054	3484.5
892.612	3478.5
896.166	3451.16667
899.719	3420.16667
903.268	3366.83333
906.814	3341.83333
910.358	3331.16667
913.899	3285.16667
917.438	3301.83333
920.973	3292.5
924.506	3310.5
928.036	3366.5
931.564	3389.5
935.088	3441.5
938.61	3460.16667
942.129	3515.5
945.646	3570.83333
949.16	3629.16667
952.671	3687.83333
956.179	3686.5
959.685	3657.16667
963.188	3645.16667
966.688	3574.83333
970.185	3463.5
973.68	3413.5
977.173	3340.5
980.662	3318.16667
984.149	3317.5
987.633	3284.5
991.114	3351.83333
994.593	3394.83333
998.069	3472.83333
1001.542	3552.5
1005.013	3524.5
1008.481	3333.5
1011.947	3298.83333
1015.409	3278.16667
1018.869	3264.83333
1022.327	3257.16667
1025.782	3240.83333
1029.234	3230.83333
1032.683	3168.5
1036.13	3056.16667
1039.574	2964.83333
1043.016	2896.83333
1046.455	2845.5
1049.891	2815.83333
1053.325	2828.83333
1056.756	2850.16667
1060.184	2854.16667
1063.61	2866.5
1067.033	2885.5
1070.454	2876.83333
1073.872	2934.16667
1077.287	2903.83333
1080.7	2930.16667
1084.11	2881.83333
1087.517	2868.5
1090.922	2839.83333
1094.325	2828.16667
1097.724	2816.16667
1101.122	2821.83333
1104.516	2808.83333
1107.908	2796.5
1111.298	2846.16667
1114.684	2893.5
1118.069	2906.16667
1121.45	2960.83333
1124.83	2938.83333
1128.206	2998.16667
1131.58	3035.5
1134.951	3109.5
1138.32	3188.5
1141.687	3329.16667
1145.05	3401.83333
1148.412	3393.16667
1151.77	3374.5
1155.126	3345.5
1158.48	3350.83333
1161.831	3350.83333
1165.18	3400.16667
1168.525	3465.83333
1171.869	3463.5
1175.21	3476.83333
1178.548	3515.83333
1181.884	3557.16667
1185.217	3592.5
1188.548	3660.5
1191.877	3731.83333
1195.202	3837.16667
1198.526	3896.5
1201.846	3936.83333
1205.165	3901.16667
1208.48	3888.16667
1211.794	3860.16667
1215.104	3861.5
1218.413	3871.16667
1221.719	3860.5
1225.022	3834.83333
1228.323	3751.83333
1231.621	3732.83333
1234.917	3687.5
1238.21	3718.83333
1241.501	3686.16667
1244.79	3697.83333
1248.076	3708.16667
1251.359	3736.5
1254.64	3829.5
1257.919	3821.5
1261.195	3898.83333
1264.468	3993.5
1267.74	4013.83333
1271.008	4045.5
1274.275	4029.5
1277.538	3965.83333
1280.8	4000.5
1284.059	3981.5
1287.315	3989.83333
1290.569	3996.16667
1293.821	4022.5
1297.07	4074.16667
1300.317	4067.16667
1303.562	4050.5
1306.803	4014.83333
1310.043	3969.5
1313.28	3950.5
1316.515	3912.83333
1319.747	3882.83333
1322.977	3812.5
1326.204	3804.5
1329.429	3726.5
1332.652	3729.16667
1335.872	3694.16667
1339.09	3670.16667
1342.306	3641.83333
1345.519	3590.16667
1348.729	3547.83333
1351.938	3546.5
1355.144	3459.83333
1358.347	3421.5
1361.548	3437.5
1364.747	3423.83333
1367.944	3398.5
1371.138	3409.5
1374.329	3413.16667
1377.518	3470.16667
1380.705	3479.16667
1383.89	3462.16667
1387.072	3350.5
1390.252	3197.83333
1393.429	3099.16667
1396.605	3026.16667
1399.777	2914.16667
1402.948	2910.5
1406.116	2887.83333
1409.282	2884.16667
1412.445	2871.5
1415.606	2913.5
1418.765	2954.83333
1421.921	3009.5
1425.075	3070.16667
1428.227	3142.5
1431.376	3298.83333
1434.524	3401.16667
1437.668	3492.16667
1440.811	3546.83333
1443.951	3550.83333
1447.089	3581.16667
1450.224	3558.16667
1453.357	3559.5
1456.488	3552.83333
1459.617	3484.83333
1462.743	3446.83333
1465.867	3374.16667
1468.989	3338.83333
1472.108	3266.5
1475.225	3221.16667
1478.34	3181.83333
1481.453	3152.83333
1484.563	3176.83333
1487.671	3204.5
1490.776	3268.16667
1493.88	3318.5
1496.981	3361.16667
1500.08	3423.83333
1503.176	3468.16667
1506.271	3495.5
1509.363	3516.83333
1512.452	3556.16667
1515.54	3608.16667
1518.625	3668.5
1521.708	3760.16667
1524.789	3852.5
1527.867	4035.16667
1530.944	4194.16667
1534.018	4367.5
1537.089	4544.5
1540.159	4617.5
1543.226	4612.83333
1546.291	4530.5
1549.354	4476.5
1552.415	4350.83333
1555.473	4263.5
1558.529	4148.83333
1561.583	4124.16667
1564.634	4078.16667
1567.684	4087.5
1570.731	4103.5
1573.776	4134.83333
1576.819	4170.16667
1579.859	4191.16667
1582.898	4263.5
1585.934	4288.5
1588.968	4307.83333
1591.999	4315.16667
1595.029	4331.5
1598.056	4346.83333
1601.081	4357.5
1604.104	4360.83333
1607.125	4297.5
1610.144	4228.5
1613.16	4113.5
1616.174	4030.5
1619.186	3912.5
1622.196	3811.16667
1625.203	3724.5
1628.209	3654.5
1631.212	3603.16667
1634.213	3576.5
1637.212	3537.83333
1640.209	3449.16667
1643.203	3345.5
1646.196	3227.83333
1649.186	3111.5
1652.174	3005.83333
1655.16	2917.5
1658.144	2807.83333
1661.125	2712.83333
1664.105	2620.83333
1667.082	2500.83333
1670.057	2383.83333
1673.03	2248.16667
1676.001	2095.83333
1678.97	1966.83333
1681.937	1856.16667
1684.901	1757.16667
1687.863	1687.5
1690.824	1606.5
1693.782	1573.5
1696.738	1515.5
1699.692	1487.83333
1702.643	1444.16667
1705.593	1422.83333
1708.54	1422.5
1711.486	1405.83333
1714.429	1363.83333
1717.37	1356.5
1720.309	1332.16667
1723.246	1334.16667
1726.181	1322.5
1729.113	1306.5
1732.044	1299.16667
1734.972	1283.5
1737.899	1287.16667
1740.823	1280.16667
1743.745	1229.16667
1746.665	1232.16667
1749.583	1209.5
1752.499	1191.16667
1755.413	1185.16667
1758.325	1155.83333
1761.235	1144.83333
1764.142	1126.5
1767.048	1113.83333
1769.951	1110.16667
1772.852	1108.5
1775.752	1103.16667
1778.649	1095.83333
1781.544	1089.5
1784.437	1051.5
1787.328	1076.16667
1790.217	1057.83333
1793.104	1024.83333
1795.989	1033.5
1798.872	1028.16667
1801.753	1051.16667
1804.631	1038.5
1807.508	1046.83333
1810.383	1024.16667
1813.255	1020.16667
1816.126	1022.83333
1818.994	1008.83333
1821.861	1008.83333
1824.725	1002.83333
1827.587	1006.16667
1830.448	998.5
1833.306	979.83333
1836.162	984.5
1839.017	977.83333
1841.869	972.83333
1844.719	954.5
1847.567	944.83333
1850.414	945.83333
1853.258	964.83333
1856.1	952.16667
1858.94	950.16667
1861.778	948.16667
1864.614	938.83333
1867.448	948.83333
1870.28	925.5
1873.111	954.16667
1875.939	936.16667
1878.765	948.83333
1881.589	930.83333
1884.411	927.5
1887.231	926.5
1890.049	917.5
1892.865	927.5
1895.68	904.16667
1898.492	928.16667
1901.302	915.83333
1904.11	904.16667
1906.916	886.16667
1909.721	881.83333
1912.523	899.16667
1915.323	875.5
1918.122	871.83333
1920.918	888.83333
1923.712	879.16667
1926.505	881.5
1929.295	871.5
1932.084	875.16667
1934.87	867.83333
1937.655	856.16667
1940.438	864.16667
1943.218	867.5
1945.997	863.16667
1948.774	866.83333
1951.549	870.83333
1954.322	852.5
1957.093	853.5
1959.862	850.16667
1962.629	840.5
1965.394	856.83333
1968.157	836.5
1970.918	844.5
1973.678	824.5
1976.435	841.5
1979.19	835.83333
1981.944	809.16667
1984.696	805.83333
1987.445	800.5
1990.193	804.16667
1992.939	823.5
1995.683	803.5
1998.425	790.5
2001.165	821.16667
2003.903	796.16667
2006.639	800.16667
2009.374	808.5
2012.106	802.5
2014.837	770.83333
2017.566	801.5
2020.292	799.5
2023.017	810.83333
2025.74	787.5
2028.461	784.83333
2031.18	798.16667
2033.898	769.16667
2036.613	783.16667
2039.327	776.5
2042.038	759.16667
2044.748	764.83333
2047.456	770.16667
2050.162	765.5
2052.866	757.16667
2055.568	778.5
2058.268	753.16667
2060.967	770.5
2063.663	747.5
2066.358	748.16667
2069.051	738.83333
2071.742	752.83333
2074.431	755.83333
2077.118	741.16667
2079.804	738.83333
2082.487	742.5
2085.169	751.5
2087.849	781.5
2090.527	738.16667
2093.203	743.83333
2095.877	758.5
2098.55	752.83333
2101.22	772.16667
2103.889	768.5
2106.556	773.83333
2109.221	799.83333
2111.884	811.83333
2114.546	859.16667
2117.205	902.16667
2119.863	973.16667
2122.519	1030.16667
2125.173	1093.83333
2127.825	1150.83333
2130.475	1145.5
2133.124	1108.16667
2135.771	1058.83333
2138.416	1020.83333
2141.059	952.16667
2143.7	911.5
2146.339	857.83333
2148.977	812.16667
2151.613	802.83333
2154.247	778.16667
2156.879	765.83333
2159.51	742.16667
2162.138	728.5
2164.765	724.5
2167.39	714.83333
2170.013	737.5
2172.634	714.16667
2175.254	703.5
2177.872	731.5
2180.488	682.83333
2183.102	695.16667
2185.714	686.16667
2188.325	658.5
2190.934	668.83333
2193.541	673.16667
2196.146	662.5
2198.75	653.5
2201.351	643.83333
2203.951	634.5
2206.549	664.5
2209.146	638.83333
2211.74	641.83333
2214.333	646.5
2216.924	619.83333
2219.514	643.5
2222.101	626.5
2224.687	629.83333
2227.271	632.5
2229.853	604.5
2232.433	603.83333
2235.012	636.5
2237.589	622.83333
2240.164	628.16667
2242.738	619.16667
2245.309	619.5
2247.879	617.83333
2250.448	609.5
2253.014	597.5
2255.579	582.5
2258.142	589.16667
2260.703	577.83333
2263.262	587.5
2265.82	571.5
2268.376	583.83333
2270.93	555.83333
2273.483	562.83333
2276.033	571.83333
2278.583	564.5
2281.13	560.83333
2283.675	558.5
2286.219	562.16667
2288.761	550.5
2291.302	559.83333
2293.841	564.83333
2296.377	538.83333
2298.913	546.5
2301.446	561.5
2303.978	548.16667
2306.508	539.5
2309.037	545.16667
2311.563	541.5
2314.088	547.5
2316.612	525.83333
2319.133	534.16667
2321.653	543.83333
2324.171	524.16667
2326.688	547.5
2329.202	525.16667
2331.715	533.16667
2334.227	524.16667
2336.736	531.5
2339.244	526.83333
2341.751	508.83333
2344.255	531.5
2346.758	527.5
2349.259	502.83333
2351.759	507.5
2354.257	519.5
2356.753	504.83333
2359.247	508.16667
2361.74	520.16667
2364.231	510.83333
2366.721	513.5
2369.209	497.16667
2371.695	507.16667
2374.179	499.83333
2376.662	494.5
2379.143	504.5
2381.622	499.16667
2384.1	505.83333
2386.576	498.16667
2389.051	502.16667
2391.524	512.5
2393.995	504.5
2396.464	489.5
2398.932	485.5
2401.398	494.83333
2403.863	492.5
2406.325	484.16667
2408.787	497.5
2411.246	485.16667
2413.704	481.83333
2416.16	486.5
2418.615	484.5
2421.068	500.83333
2423.519	488.83333
2425.969	477.83333
2428.417	482.83333
2430.863	506.83333
2433.308	489.5
2435.751	491.5
2438.193	478.83333
2440.633	479.83333
2443.071	487.16667
2445.508	466.83333
2447.943	469.16667
2450.376	476.5
2452.808	471.5
2455.238	472.16667
2457.667	503.5
2460.093	468.5
2462.519	456.83333
2464.942	473.83333
2467.365	472.5
2469.785	475.16667
2472.204	465.83333
2474.621	447.83333
2477.037	472.83333
2479.451	454.83333
2481.863	456.83333
2484.274	463.5
2486.683	462.16667
2489.091	468.5
2491.497	460.16667
2493.901	465.83333
2496.304	463.5
2498.705	459.83333
2501.105	449.5
2503.503	485.5
2505.899	443.5
2508.294	469.16667
2510.687	460.16667
2513.079	453.83333
2515.469	448.16667
2517.858	458.83333
2520.245	450.83333
2522.63	446.5
2525.014	444.83333
2527.396	448.5
2529.776	436.16667
2532.156	453.16667
2534.533	432.83333
2536.909	441.83333
2539.283	422.5
2541.656	434.5
2544.027	451.5
2546.397	437.5
2548.765	440.16667
2551.131	436.83333
2553.496	444.5
2555.86	453.83333
2558.221	449.5
2560.582	437.83333
2562.94	429.5
2565.298	445.5
2567.653	452.16667
2570.007	432.16667
2572.36	449.16667
2574.711	425.16667
2577.06	454.16667
2579.408	442.5
2581.754	431.5
2584.099	451.83333
2586.442	436.5
2588.784	440.16667
2591.124	435.16667
2593.463	435.83333
2595.8	444.5
2598.135	427.16667
2600.469	428.5
2602.802	442.83333
2605.133	442.83333
2607.462	430.5
2609.79	424.5
2612.116	433.16667
2614.441	430.83333
2616.764	438.83333
2619.086	436.16667
2621.406	424.83333
2623.725	448.83333
2626.042	443.16667
2628.358	437.83333
2630.672	425.83333
2632.985	445.83333
2635.296	437.5
2637.606	429.5
2639.914	422.5
2642.22	435.5
2644.525	436.16667
2646.829	437.83333
2649.131	452.83333
2651.432	447.16667
2653.731	437.83333
2656.028	449.5
2658.324	461.5
2660.619	442.83333
2662.912	448.83333
2665.204	433.83333
2667.494	456.16667
2669.782	446.83333
2672.07	447.83333
2674.355	451.16667
2676.639	452.5
2678.922	439.83333
2681.203	450.5
2683.483	434.83333
2685.761	436.16667
2688.038	445.16667
2690.313	458.5
2692.587	454.16667
2694.859	433.5
2697.13	442.83333
2699.399	458.5
2701.667	466.16667
2703.933	452.83333
2706.198	468.83333
2708.461	468.5
2710.723	474.16667
2712.984	473.16667
2715.243	467.16667
2717.5	458.5
2719.757	492.83333
2722.011	462.83333
2724.264	490.5
2726.516	494.5
2728.766	481.83333
2731.015	493.16667
2733.262	489.5
2735.508	478.83333
2737.753	482.83333
2739.996	463.83333
2742.237	466.83333
2744.477	485.5
2746.716	482.16667
2748.953	470.16667
2751.189	477.5
2753.423	464.5
2755.656	450.83333
2757.887	458.16667
2760.117	461.83333
2762.346	442.5
2764.573	446.5
2766.798	460.5
2769.022	458.5
2771.245	462.16667
2773.467	458.5
2775.686	465.5
2777.905	468.5
2780.122	466.5
2782.337	483.5
2784.552	473.16667
2786.764	474.5
2788.976	483.83333
2791.186	482.83333
2793.394	485.5
2795.601	499.16667
2797.807	497.5
2800.011	514.83333
2802.214	512.83333
2804.415	519.83333
2806.615	519.16667
2808.814	517.83333
2811.011	525.5
2813.206	518.16667
2815.401	545.5
2817.594	553.16667
2819.785	568.5
2821.975	547.16667
2824.164	556.83333
2826.351	573.83333
2828.537	596.5
2830.722	605.83333
2832.905	603.83333
2835.086	621.5
2837.267	660.5
2839.445	683.83333
2841.623	691.83333
2843.799	716.16667
2845.974	750.5
2848.147	764.83333
2850.319	801.16667
2852.489	836.16667
2854.659	829.5
2856.826	860.16667
2858.993	878.5
2861.158	867.16667
2863.321	861.83333
2865.483	886.16667
2867.644	883.83333
2869.804	869.16667
2871.962	876.83333
2874.118	872.16667
2876.274	868.16667
2878.428	868.16667
2880.58	859.83333
2882.731	857.16667
2884.881	866.16667
2887.03	867.83333
2889.177	871.16667
2891.322	894.5
2893.467	879.83333
2895.61	879.16667
2897.751	896.5
2899.892	895.16667
2902.03	912.16667
2904.168	903.5
2906.304	906.83333
2908.439	935.5
2910.572	920.5
2912.704	925.83333
2914.835	923.5
2916.965	914.83333
2919.093	936.83333
2921.219	898.83333
2923.345	924.16667
2925.469	899.83333
2927.591	898.83333
2929.712	880.83333
2931.832	863.16667
2933.951	841.5
2936.068	852.16667
2938.184	811.5
2940.299	792.5
2942.412	789.16667
2944.524	736.16667
2946.634	740.16667
2948.744	693.16667
2950.851	712.5
2952.958	676.5
2955.063	670.16667
2957.167	650.5
2959.269	630.16667
2961.371	650.16667
2963.471	616.16667
2965.569	609.83333
2967.666	573.5
2969.762	578.16667
2971.857	567.16667
2973.95	552.5
2976.042	541.83333
2978.133	529.83333
2980.222	513.16667
2982.31	506.5
2984.396	488.83333
2986.482	485.83333
2988.566	480.5
2990.648	475.16667
2992.73	466.5
2994.81	469.83333
2996.889	466.83333
2998.966	475.5
3001.042	463.5
3003.117	454.5
3005.191	461.16667
3007.263	464.16667
3009.334	445.83333
3011.403	453.5
3013.472	428.5
3015.539	437.16667
3017.604	440.16667
3019.669	411.16667
3021.732	414.5
3023.794	413.5
3025.854	415.83333
3027.914	405.16667
3029.971	427.16667
3032.028	399.5
3034.083	408.16667
3036.137	400.83333
3038.19	389.5
3040.242	376.16667
3042.292	375.5
3044.341	377.83333
3046.388	382.16667
3048.435	359.5
3050.48	376.83333
3052.524	366.83333
3054.566	356.5
3056.607	368.16667
3058.647	358.16667
3060.686	338.83333
3062.723	332.5
3064.759	312.5
3066.794	0.16667
3068.828	3.16667
3070.86	1.83333
