-0.839	440.875
3.438	475.54167
7.711	126.875
11.981	47.20833
16.247	42.875
20.509	40.54167
24.768	42.875
29.024	40.875
33.276	37.875
37.524	45.875
41.769	37.20833
46.01	29.20833
50.247	48.875
54.481	55.20833
58.712	61.20833
62.939	47.875
67.162	56.875
71.382	48.20833
75.599	41.20833
79.812	59.875
84.021	71.875
88.227	51.875
92.429	54.54167
96.628	41.54167
100.823	54.875
105.015	64.54167
109.204	64.54167
113.388	66.54167
117.57	60.875
121.748	78.875
125.922	67.875
130.093	80.875
134.261	85.20833
138.425	76.875
142.585	116.54167
146.742	109.20833
150.896	126.54167
155.046	148.54167
159.193	241.20833
163.336	420.20833
167.476	743.54167
171.613	1395.54167
175.746	2330.20833
179.875	3438.20833
184.002	4445.54167
188.124	5096.20833
192.244	5243.54167
196.36	5107.54167
200.472	4801.54167
204.581	4530.875
208.687	4273.54167
212.79	4098.875
216.889	3945.20833
220.984	3861.20833
225.077	3800.54167
229.165	3702.20833
233.251	3625.54167
237.333	3544.875
241.412	3466.54167
245.487	3389.54167
249.559	3287.54167
253.628	3268.20833
257.694	3219.54167
261.756	3187.20833
265.814	3119.54167
269.87	3035.875
273.922	2977.20833
277.97	2959.875
282.016	2961.20833
286.058	2976.20833
290.097	3070.20833
294.132	3103.20833
298.164	3076.54167
302.193	2964.20833
306.219	2763.875
310.241	2547.20833
314.26	2303.54167
318.276	2129.54167
322.288	1996.20833
326.297	1889.875
330.303	1799.20833
334.305	1736.875
338.305	1691.875
342.301	1658.875
346.294	1639.875
350.283	1613.54167
354.269	1599.20833
358.252	1589.54167
362.232	1560.20833
366.209	1548.20833
370.182	1527.875
374.152	1502.20833
378.119	1509.875
382.083	1490.54167
386.043	1491.54167
390	1488.20833
393.954	1464.875
397.905	1455.20833
401.852	1473.54167
405.797	1431.20833
409.738	1426.875
413.676	1436.54167
417.61	1413.875
421.542	1403.54167
425.47	1384.20833
429.396	1362.54167
433.318	1366.875
437.236	1346.54167
441.152	1376.875
445.065	1325.54167
448.974	1320.54167
452.88	1288.875
456.783	1291.20833
460.683	1274.54167
464.58	1297.20833
468.473	1291.875
472.364	1309.20833
476.251	1292.875
480.135	1314.20833
484.016	1326.875
487.894	1351.54167
491.769	1355.54167
495.641	1383.54167
499.509	1372.875
503.375	1412.20833
507.237	1434.54167
511.096	1538.54167
514.952	1849.54167
518.805	2229.54167
522.655	2332.20833
526.502	1806.54167
530.346	1450.20833
534.187	1373.20833
538.024	1344.875
541.859	1329.20833
545.69	1336.875
549.519	1333.875
553.344	1310.54167
557.166	1282.20833
560.985	1270.20833
564.802	1271.875
568.615	1253.20833
572.425	1228.875
576.232	1231.875
580.036	1213.875
583.836	1223.20833
587.634	1220.54167
591.429	1208.875
595.221	1253.875
599.01	1251.875
602.796	1272.20833
606.578	1268.20833
610.358	1270.20833
614.135	1270.20833
617.909	1260.875
621.679	1256.875
625.447	1234.20833
629.212	1258.875
632.973	1250.20833
636.732	1246.54167
640.488	1246.20833
644.241	1208.875
647.991	1226.54167
651.737	1233.20833
655.481	1220.20833
659.222	1223.20833
662.96	1196.875
666.695	1231.875
670.427	1237.54167
674.156	1244.54167
677.882	1245.54167
681.605	1255.875
685.325	1225.20833
689.043	1235.54167
692.757	1211.54167
696.468	1231.875
700.177	1229.20833
703.882	1195.20833
707.585	1195.875
711.284	1203.54167
714.981	1201.20833
718.675	1205.875
722.366	1222.54167
726.054	1205.54167
729.739	1218.875
733.421	1211.20833
737.1	1201.875
740.777	1223.54167
744.45	1222.875
748.121	1223.20833
751.789	1270.20833
755.453	1263.20833
759.115	1251.54167
762.774	1284.20833
766.431	1280.20833
770.084	1284.875
773.734	1287.875
777.382	1327.54167
781.027	1344.20833
784.669	1329.875
788.308	1358.54167
791.944	1368.875
795.577	1381.875
799.208	1377.20833
802.835	1376.875
806.46	1387.875
810.082	1388.875
813.701	1388.875
817.317	1413.20833
820.931	1397.20833
824.542	1417.54167
828.149	1402.875
831.754	1395.875
835.357	1397.20833
838.956	1394.20833
842.553	1396.20833
846.146	1389.875
849.737	1388.20833
853.326	1386.20833
856.911	1377.20833
860.493	1413.875
864.073	1421.20833
867.65	1457.54167
871.225	1459.54167
874.796	1466.875
878.365	1482.20833
881.931	1501.20833
885.494	1541.875
889.054	1571.875
892.612	1626.20833
896.166	1648.54167
899.719	1637.54167
903.268	1578.54167
906.814	1521.875
910.358	1479.20833
913.899	1445.875
917.438	1421.875
920.973	1400.54167
924.506	1419.54167
928.036	1441.54167
931.564	1464.20833
935.088	1486.54167
938.61	1488.875
942.129	1522.54167
945.646	1545.54167
949.16	1595.20833
952.671	1593.875
956.179	1603.54167
959.685	1574.875
963.188	1553.54167
966.688	1538.875
970.185	1484.875
973.68	1473.54167
977.173	1491.54167
980.662	1474.875
984.149	1496.875
987.633	1460.20833
991.114	1482.54167
994.593	1538.54167
998.069	1571.54167
1001.542	1655.875
1005.013	1584.875
1008.481	1494.54167
1011.947	1458.20833
1015.409	1433.54167
1018.869	1464.875
1022.327	1468.20833
1025.782	1454.875
1029.234	1467.54167
1032.683	1453.875
1036.13	1412.875
1039.574	1352.875
1043.016	1316.20833
1046.455	1291.875
1049.891	1247.20833
1053.325	1274.875
1056.756	1262.54167
1060.184	1267.20833
1063.61	1272.54167
1067.033	1272.875
1070.454	1273.20833
1073.872	1307.20833
1077.287	1299.875
1080.7	1303.875
1084.11	1300.875
1087.517	1284.875
1090.922	1275.875
1094.325	1262.20833
1097.724	1250.54167
1101.122	1275.20833
1104.516	1260.875
1107.908	1254.875
1111.298	1286.20833
1114.684	1298.54167
1118.069	1331.54167
1121.45	1326.875
1124.83	1318.20833
1128.206	1353.875
1131.58	1379.54167
1134.951	1413.54167
1138.32	1448.875
1141.687	1502.875
1145.05	1552.875
1148.412	1543.54167
1151.77	1531.54167
1155.126	1522.875
1158.48	1520.54167
1161.831	1561.54167
1165.18	1536.54167
1168.525	1567.20833
1171.869	1581.875
1175.21	1567.20833
1178.548	1577.20833
1181.884	1609.875
1185.217	1620.20833
1188.548	1633.54167
1191.877	1676.54167
1195.202	1740.54167
1198.526	1740.875
1201.846	1728.20833
1205.165	1766.875
1208.48	1742.875
1211.794	1758.875
1215.104	1751.20833
1218.413	1757.54167
1221.719	1748.875
1225.022	1736.20833
1228.323	1697.875
1231.621	1706.875
1234.917	1683.875
1238.21	1716.20833
1241.501	1700.20833
1244.79	1694.54167
1248.076	1682.20833
1251.359	1714.20833
1254.64	1760.875
1257.919	1764.20833
1261.195	1792.875
1264.468	1833.875
1267.74	1862.54167
1271.008	1869.20833
1274.275	1862.20833
1277.538	1837.875
1280.8	1822.20833
1284.059	1826.875
1287.315	1832.20833
1290.569	1860.20833
1293.821	1881.54167
1297.07	1876.875
1300.317	1882.20833
1303.562	1898.54167
1306.803	1857.54167
1310.043	1862.54167
1313.28	1866.875
1316.515	1839.20833
1319.747	1851.875
1322.977	1829.875
1326.204	1838.875
1329.429	1841.20833
1332.652	1822.875
1335.872	1827.54167
1339.09	1777.54167
1342.306	1747.20833
1345.519	1696.20833
1348.729	1673.20833
1351.938	1659.875
1355.144	1627.875
1358.347	1606.20833
1361.548	1621.54167
1364.747	1633.20833
1367.944	1615.875
1371.138	1637.875
1374.329	1642.54167
1377.518	1662.875
1380.705	1689.875
1383.89	1678.875
1387.072	1621.20833
1390.252	1557.875
1393.429	1532.20833
1396.605	1513.875
1399.777	1480.875
1402.948	1469.20833
1406.116	1478.20833
1409.282	1512.875
1412.445	1509.20833
1415.606	1550.875
1418.765	1545.875
1421.921	1559.20833
1425.075	1562.54167
1428.227	1587.875
1431.376	1654.875
1434.524	1707.20833
1437.668	1735.54167
1440.811	1771.20833
1443.951	1786.875
1447.089	1809.20833
1450.224	1791.54167
1453.357	1760.54167
1456.488	1745.875
1459.617	1695.54167
1462.743	1693.54167
1465.867	1631.54167
1468.989	1630.875
1472.108	1579.54167
1475.225	1546.875
1478.34	1520.875
1481.453	1537.20833
1484.563	1542.875
1487.671	1576.20833
1490.776	1601.20833
1493.88	1637.875
1496.981	1660.875
1500.08	1672.875
1503.176	1705.54167
1506.271	1725.54167
1509.363	1749.875
1512.452	1743.54167
1515.54	1774.20833
1518.625	1792.54167
1521.708	1846.54167
1524.789	1892.875
1527.867	1980.54167
1530.944	2059.20833
1534.018	2167.20833
1537.089	2270.20833
1540.159	2313.54167
1543.226	2324.20833
1546.291	2274.875
1549.354	2248.20833
1552.415	2204.20833
1555.473	2128.875
1558.529	2087.54167
1561.583	2054.54167
1564.634	2042.20833
1567.684	2004.20833
1570.731	2031.54167
1573.776	2032.20833
1576.819	2040.20833
1579.859	2060.875
1582.898	2071.54167
1585.934	2101.54167
1588.968	2100.20833
1591.999	2074.875
1595.029	2098.875
1598.056	2117.54167
1601.081	2125.54167
1604.104	2119.20833
1607.125	2094.54167
1610.144	2056.54167
1613.16	2005.875
1616.174	1954.54167
1619.186	1905.54167
1622.196	1862.20833
1625.203	1793.20833
1628.209	1794.20833
1631.212	1755.54167
1634.213	1749.875
1637.212	1720.20833
1640.209	1707.875
1643.203	1640.875
1646.196	1619.20833
1649.186	1564.54167
1652.174	1556.20833
1655.16	1508.875
1658.144	1481.20833
1661.125	1431.875
1664.105	1370.875
1667.082	1347.875
1670.057	1269.54167
1673.03	1195.54167
1676.001	1137.54167
1678.97	1045.20833
1681.937	991.20833
1684.901	936.20833
1687.863	930.54167
1690.824	867.54167
1693.782	882.54167
1696.738	833.54167
1699.692	829.875
1702.643	802.54167
1705.593	782.875
1708.54	783.875
1711.486	800.20833
1714.429	757.20833
1717.37	769.20833
1720.309	749.20833
1723.246	758.875
1726.181	726.875
1729.113	746.875
1732.044	729.20833
1734.972	729.875
1737.899	730.54167
1740.823	732.875
1743.745	735.54167
1746.665	701.54167
1749.583	692.20833
1752.499	689.20833
1755.413	682.54167
1758.325	666.20833
1761.235	668.875
1764.142	650.875
1767.048	640.20833
1769.951	642.875
1772.852	647.875
1775.752	640.54167
1778.649	644.875
1781.544	645.54167
1784.437	634.20833
1787.328	648.875
1790.217	645.20833
1793.104	619.20833
1795.989	622.54167
1798.872	609.875
1801.753	630.875
1804.631	638.20833
1807.508	639.20833
1810.383	628.54167
1813.255	620.875
1816.126	638.20833
1818.994	628.54167
1821.861	621.875
1824.725	633.20833
1827.587	626.20833
1830.448	631.54167
1833.306	608.54167
1836.162	622.875
1839.017	608.20833
1841.869	602.20833
1844.719	616.54167
1847.567	600.875
1850.414	595.875
1853.258	594.54167
1856.1	619.54167
1858.94	634.54167
1861.778	615.20833
1864.614	602.875
1867.448	612.54167
1870.28	601.20833
1873.111	627.20833
1875.939	607.54167
1878.765	631.875
1881.589	608.875
1884.411	617.875
1887.231	624.20833
1890.049	621.54167
1892.865	616.20833
1895.68	610.54167
1898.492	620.54167
1901.302	609.20833
1904.11	608.54167
1906.916	609.54167
1909.721	607.20833
1912.523	618.54167
1915.323	599.20833
1918.122	611.54167
1920.918	602.20833
1923.712	617.20833
1926.505	607.20833
1929.295	599.875
1932.084	616.875
1934.87	619.20833
1937.655	603.54167
1940.438	605.20833
1943.218	615.54167
1945.997	614.875
1948.774	625.875
1951.549	622.875
1954.322	615.20833
1957.093	630.20833
1959.862	619.875
1962.629	620.20833
1965.394	622.875
1968.157	609.54167
1970.918	619.875
1973.678	604.875
1976.435	626.20833
1979.19	618.20833
1981.944	614.20833
1984.696	612.54167
1987.445	614.875
1990.193	611.875
1992.939	638.20833
1995.683	624.20833
1998.425	601.875
2001.165	639.54167
2003.903	622.54167
2006.639	625.875
2009.374	630.54167
2012.106	635.875
2014.837	609.20833
2017.566	647.54167
2020.292	646.20833
2023.017	642.875
2025.74	634.20833
2028.461	621.20833
2031.18	630.875
2033.898	630.875
2036.613	654.54167
2039.327	644.54167
2042.038	630.875
2044.748	637.20833
2047.456	638.875
2050.162	633.20833
2052.866	634.54167
2055.568	649.54167
2058.268	636.54167
2060.967	660.54167
2063.663	637.875
2066.358	641.54167
2069.051	643.54167
2071.742	662.875
2074.431	663.875
2077.118	656.20833
2079.804	646.875
2082.487	657.875
2085.169	670.54167
2087.849	676.20833
2090.527	661.20833
2093.203	671.54167
2095.877	673.20833
2098.55	683.875
2101.22	685.20833
2103.889	699.20833
2106.556	693.54167
2109.221	703.875
2111.884	737.54167
2114.546	754.875
2117.205	800.875
2119.863	852.20833
2122.519	894.875
2125.173	922.875
2127.825	960.20833
2130.475	961.20833
2133.124	920.20833
2135.771	887.20833
2138.416	878.875
2141.059	820.20833
2143.7	825.54167
2146.339	787.20833
2148.977	743.20833
2151.613	760.20833
2154.247	745.54167
2156.879	737.875
2159.51	735.54167
2162.138	723.20833
2164.765	722.54167
2167.39	724.20833
2170.013	733.20833
2172.634	740.20833
2175.254	726.20833
2177.872	752.20833
2180.488	723.20833
2183.102	741.20833
2185.714	727.54167
2188.325	708.875
2190.934	721.20833
2193.541	725.54167
2196.146	718.20833
2198.75	719.20833
2201.351	719.875
2203.951	689.875
2206.549	720.875
2209.146	717.20833
2211.74	721.54167
2214.333	730.20833
2216.924	711.20833
2219.514	724.875
2222.101	698.875
2224.687	732.875
2227.271	717.20833
2229.853	730.875
2232.433	719.20833
2235.012	743.54167
2237.589	746.875
2240.164	767.875
2242.738	741.20833
2245.309	739.54167
2247.879	748.875
2250.448	763.875
2253.014	736.875
2255.579	720.875
2258.142	742.54167
2260.703	730.875
2263.262	731.20833
2265.82	742.54167
2268.376	735.875
2270.93	737.875
2273.483	733.875
2276.033	761.20833
2278.583	744.875
2281.13	731.875
2283.675	743.54167
2286.219	757.54167
2288.761	756.54167
2291.302	766.54167
2293.841	770.20833
2296.377	745.54167
2298.913	768.20833
2301.446	786.20833
2303.978	778.54167
2306.508	764.20833
2309.037	769.54167
2311.563	776.54167
2314.088	779.875
2316.612	771.20833
2319.133	787.54167
2321.653	786.20833
2324.171	776.875
2326.688	802.875
2329.202	791.875
2331.715	797.54167
2334.227	792.20833
2336.736	790.875
2339.244	792.54167
2341.751	780.54167
2344.255	806.875
2346.758	801.20833
2349.259	805.20833
2351.759	800.875
2354.257	799.875
2356.753	809.875
2359.247	814.875
2361.74	825.875
2364.231	821.875
2366.721	839.875
2369.209	832.20833
2371.695	828.875
2374.179	833.20833
2376.662	833.20833
2379.143	860.875
2381.622	844.54167
2384.1	857.875
2386.576	861.20833
2389.051	871.20833
2391.524	880.54167
2393.995	879.875
2396.464	863.54167
2398.932	871.20833
2401.398	881.54167
2403.863	871.875
2406.325	866.20833
2408.787	874.54167
2411.246	895.54167
2413.704	878.54167
2416.16	888.20833
2418.615	893.20833
2421.068	907.20833
2423.519	897.54167
2425.969	900.875
2428.417	926.20833
2430.863	944.20833
2433.308	920.875
2435.751	928.54167
2438.193	925.20833
2440.633	933.875
2443.071	933.54167
2445.508	925.54167
2447.943	938.875
2450.376	933.20833
2452.808	945.20833
2455.238	942.54167
2457.667	966.20833
2460.093	956.875
2462.519	954.875
2464.942	976.20833
2467.365	967.54167
2469.785	976.54167
2472.204	968.875
2474.621	963.20833
2477.037	990.20833
2479.451	978.20833
2481.863	976.875
2484.274	982.54167
2486.683	984.54167
2489.091	1008.54167
2491.497	1011.20833
2493.901	1006.20833
2496.304	1016.20833
2498.705	1016.54167
2501.105	1006.875
2503.503	1035.20833
2505.899	1024.875
2508.294	1054.875
2510.687	1029.20833
2513.079	1027.875
2515.469	1040.54167
2517.858	1046.20833
2520.245	1059.20833
2522.63	1042.54167
2525.014	1052.54167
2527.396	1052.875
2529.776	1051.20833
2532.156	1051.875
2534.533	1052.875
2536.909	1066.20833
2539.283	1047.20833
2541.656	1067.54167
2544.027	1097.20833
2546.397	1077.875
2548.765	1095.54167
2551.131	1082.20833
2553.496	1093.875
2555.86	1109.54167
2558.221	1098.875
2560.582	1113.54167
2562.94	1092.54167
2565.298	1125.875
2567.653	1150.20833
2570.007	1107.54167
2572.36	1138.20833
2574.711	1122.875
2577.06	1143.875
2579.408	1149.20833
2581.754	1165.20833
2584.099	1161.875
2586.442	1165.20833
2588.784	1173.54167
2591.124	1180.54167
2593.463	1163.875
2595.8	1175.54167
2598.135	1168.20833
2600.469	1183.875
2602.802	1193.54167
2605.133	1185.20833
2607.462	1178.875
2609.79	1190.20833
2612.116	1197.54167
2614.441	1203.875
2616.764	1217.54167
2619.086	1216.20833
2621.406	1212.54167
2623.725	1230.20833
2626.042	1237.875
2628.358	1238.20833
2630.672	1227.20833
2632.985	1267.54167
2635.296	1254.54167
2637.606	1271.20833
2639.914	1235.875
2642.22	1263.54167
2644.525	1271.20833
2646.829	1275.54167
2649.131	1296.875
2651.432	1300.54167
2653.731	1309.875
2656.028	1325.20833
2658.324	1336.54167
2660.619	1319.54167
2662.912	1329.875
2665.204	1339.875
2667.494	1354.20833
2669.782	1335.20833
2672.07	1355.20833
2674.355	1360.20833
2676.639	1337.20833
2678.922	1348.20833
2681.203	1366.20833
2683.483	1334.875
2685.761	1349.875
2688.038	1362.875
2690.313	1381.20833
2692.587	1357.54167
2694.859	1377.20833
2697.13	1388.54167
2699.399	1375.875
2701.667	1412.875
2703.933	1417.20833
2706.198	1402.875
2708.461	1415.54167
2710.723	1438.54167
2712.984	1437.20833
2715.243	1439.20833
2717.5	1444.875
2719.757	1468.20833
2722.011	1468.875
2724.264	1477.20833
2726.516	1487.20833
2728.766	1485.875
2731.015	1501.54167
2733.262	1492.54167
2735.508	1497.20833
2737.753	1507.20833
2739.996	1487.20833
2742.237	1493.54167
2744.477	1506.875
2746.716	1510.875
2748.953	1501.20833
2751.189	1508.20833
2753.423	1498.875
2755.656	1500.875
2757.887	1500.54167
2760.117	1507.20833
2762.346	1499.20833
2764.573	1501.875
2766.798	1513.20833
2769.022	1516.20833
2771.245	1523.875
2773.467	1522.875
2775.686	1522.54167
2777.905	1533.54167
2780.122	1540.54167
2782.337	1556.875
2784.552	1558.54167
2786.764	1569.20833
2788.976	1568.875
2791.186	1574.875
2793.394	1592.54167
2795.601	1616.20833
2797.807	1621.875
2800.011	1624.54167
2802.214	1639.20833
2804.415	1643.875
2806.615	1643.875
2808.814	1642.54167
2811.011	1653.875
2813.206	1641.20833
2815.401	1656.20833
2817.594	1665.875
2819.785	1670.20833
2821.975	1663.54167
2824.164	1671.875
2826.351	1689.875
2828.537	1697.54167
2830.722	1708.875
2832.905	1715.875
2835.086	1745.20833
2837.267	1765.20833
2839.445	1767.20833
2841.623	1805.54167
2843.799	1822.20833
2845.974	1837.20833
2848.147	1862.875
2850.319	1863.875
2852.489	1903.875
2854.659	1893.20833
2856.826	1926.20833
2858.993	1913.20833
2861.158	1937.875
2863.321	1949.875
2865.483	1960.54167
2867.644	1954.20833
2869.804	1964.54167
2871.962	1926.875
2874.118	1937.875
2876.274	1955.20833
2878.428	1923.54167
2880.58	1933.875
2882.731	1931.54167
2884.881	1928.20833
2887.03	1917.875
2889.177	1934.54167
2891.322	1946.54167
2893.467	1957.875
2895.61	1972.20833
2897.751	1969.20833
2899.892	1974.54167
2902.03	1970.20833
2904.168	2005.20833
2906.304	2002.20833
2908.439	2040.54167
2910.572	1996.20833
2912.704	2023.875
2914.835	2030.54167
2916.965	2043.20833
2919.093	2051.875
2921.219	2027.875
2923.345	2044.54167
2925.469	2026.20833
2927.591	2023.875
2929.712	1989.875
2931.832	1982.20833
2933.951	1973.54167
2936.068	1949.54167
2938.184	1942.875
2940.299	1935.54167
2942.412	1910.20833
2944.524	1891.54167
2946.634	1892.875
2948.744	1877.54167
2950.851	1898.20833
2952.958	1874.54167
2955.063	1890.54167
2957.167	1899.875
2959.269	1869.875
2961.371	1909.875
2963.471	1880.54167
2965.569	1897.54167
2967.666	1873.20833
2969.762	1875.875
2971.857	1847.875
2973.95	1841.20833
2976.042	1848.54167
2978.133	1815.875
2980.222	1787.54167
2982.31	1755.54167
2984.396	1764.875
2986.482	1769.20833
2988.566	1757.875
2990.648	1752.54167
2992.73	1756.54167
2994.81	1732.54167
2996.889	1749.875
2998.966	1764.20833
3001.042	1767.20833
3003.117	1751.20833
3005.191	1770.875
3007.263	1750.54167
3009.334	1751.20833
3011.403	1722.20833
3013.472	1697.54167
3015.539	1685.54167
3017.604	1695.20833
3019.669	1647.20833
3021.732	1646.875
3023.794	1662.20833
3025.854	1651.875
3027.914	1647.20833
3029.971	1671.20833
3032.028	1656.20833
3034.083	1654.20833
3036.137	1624.20833
3038.19	1587.20833
3040.242	1551.54167
3042.292	1516.54167
3044.341	1506.20833
3046.388	1512.54167
3048.435	1468.54167
3050.48	1491.54167
3052.524	1474.875
3054.566	1445.875
3056.607	1458.20833
3058.647	1419.20833
3060.686	1376.875
3062.723	1343.54167
3064.759	1315.20833
3066.794	-0.45833
3068.828	-0.79167
3070.86	-2.79167
