-0.839	424.16667
3.438	441.83333
7.711	127.83333
11.981	48.83333
16.247	46.16667
20.509	43.16667
24.768	44.16667
29.024	43.5
33.276	37.83333
37.524	49.83333
41.769	34.16667
46.01	29.83333
50.247	46.16667
54.481	59.83333
58.712	60.16667
62.939	47.5
67.162	56.83333
71.382	50.5
75.599	44.83333
79.812	59.5
84.021	78.16667
88.227	56.83333
92.429	59.83333
96.628	44.83333
100.823	62.16667
105.015	67.83333
109.204	67.16667
113.388	67.16667
117.57	65.5
121.748	80.83333
125.922	69.83333
130.093	87.16667
134.261	92.5
138.425	84.16667
142.585	125.5
146.742	119.5
150.896	140.5
155.046	168.83333
159.193	267.83333
163.336	456.5
167.476	838.5
171.613	1514.5
175.746	2563.83333
179.875	3822.83333
184.002	4911.5
188.124	5677.5
192.244	5877.16667
196.36	5756.5
200.472	5539.83333
204.581	5286.16667
208.687	5047.5
212.79	4953.16667
216.889	4853.5
220.984	4808.16667
225.077	4760.83333
229.165	4740.83333
233.251	4679.16667
237.333	4624.83333
241.412	4535.5
245.487	4494.5
249.559	4403.5
253.628	4346.5
257.694	4292.83333
261.756	4270.83333
265.814	4170.16667
269.87	4083.83333
273.922	4029.83333
277.97	4025.83333
282.016	4049.5
286.058	4112.83333
290.097	4195.83333
294.132	4250.83333
298.164	4216.83333
302.193	4021.16667
306.219	3711.83333
310.241	3431.16667
314.26	3132.83333
318.276	2861.83333
322.288	2710.16667
326.297	2562.16667
330.303	2440.16667
334.305	2371.83333
338.305	2308.83333
342.301	2265.83333
346.294	2234.5
350.283	2202.16667
354.269	2172.16667
358.252	2168.16667
362.232	2157.5
366.209	2146.5
370.182	2106.83333
374.152	2114.16667
378.119	2104.16667
382.083	2084.16667
386.043	2096.5
390	2057.16667
393.954	2059.16667
397.905	2035.5
401.852	2022.83333
405.797	1984.5
409.738	1982.16667
413.676	1935.5
417.61	1971.16667
421.542	1945.83333
425.47	1896.16667
429.396	1892.5
433.318	1884.16667
437.236	1879.16667
441.152	1898.83333
445.065	1824.16667
448.974	1840.83333
452.88	1804.5
456.783	1799.5
460.683	1799.83333
464.58	1783.83333
468.473	1814.5
472.364	1815.83333
476.251	1808.83333
480.135	1830.83333
484.016	1867.5
487.894	1875.5
491.769	1881.16667
495.641	1893.16667
499.509	1907.83333
503.375	1939.5
507.237	1964.16667
511.096	2088.5
514.952	2522.83333
518.805	3063.83333
522.655	3201.5
526.502	2508.16667
530.346	2015.83333
534.187	1906.83333
538.024	1860.5
541.859	1828.83333
545.69	1850.5
549.519	1827.16667
553.344	1807.83333
557.166	1775.5
560.985	1770.16667
564.802	1760.83333
568.615	1728.16667
572.425	1692.83333
576.232	1701.83333
580.036	1694.16667
583.836	1708.5
587.634	1709.83333
591.429	1696.16667
595.221	1746.5
599.01	1757.5
602.796	1762.16667
606.578	1766.5
610.358	1784.16667
614.135	1735.16667
617.909	1764.83333
621.679	1745.16667
625.447	1763.16667
629.212	1772.5
632.973	1753.16667
636.732	1757.83333
640.488	1765.83333
644.241	1723.83333
647.991	1715.5
651.737	1728.5
655.481	1697.83333
659.222	1696.5
662.96	1714.16667
666.695	1720.16667
670.427	1734.5
674.156	1740.5
677.882	1749.83333
681.605	1729.16667
685.325	1722.16667
689.043	1738.16667
692.757	1713.16667
696.468	1713.5
700.177	1738.5
703.882	1713.16667
707.585	1717.5
711.284	1718.16667
714.981	1714.83333
718.675	1723.5
722.366	1737.16667
726.054	1714.16667
729.739	1736.83333
733.421	1736.5
737.1	1727.16667
740.777	1742.16667
744.45	1748.5
748.121	1769.5
751.789	1812.5
755.453	1781.83333
759.115	1789.83333
762.774	1820.83333
766.431	1831.16667
770.084	1833.16667
773.734	1853.5
777.382	1913.83333
781.027	1905.5
784.669	1898.16667
788.308	1938.16667
791.944	1942.5
795.577	1959.16667
799.208	1981.16667
802.835	1963.83333
806.46	1983.5
810.082	2012.5
813.701	1995.16667
817.317	2006.83333
820.931	2000.5
824.542	2019.5
828.149	2007.16667
831.754	1980.83333
835.357	1978.83333
838.956	1994.83333
842.553	1985.16667
846.146	1978.83333
849.737	1973.5
853.326	1974.83333
856.911	1993.83333
860.493	2018.16667
864.073	2018.16667
867.65	2063.83333
871.225	2083.16667
874.796	2093.5
878.365	2093.16667
881.931	2131.16667
885.494	2156.16667
889.054	2175.16667
892.612	2222.5
896.166	2248.16667
899.719	2237.5
903.268	2181.5
906.814	2130.5
910.358	2078.16667
913.899	2040.83333
917.438	2025.16667
920.973	1989.5
924.506	2036.5
928.036	2070.83333
931.564	2105.16667
935.088	2141.83333
938.61	2155.5
942.129	2166.83333
945.646	2229.16667
949.16	2235.5
952.671	2294.16667
956.179	2279.5
959.685	2233.16667
963.188	2209.83333
966.688	2183.5
970.185	2133.83333
973.68	2122.16667
977.173	2102.5
980.662	2092.16667
984.149	2086.83333
987.633	2071.83333
991.114	2129.5
994.593	2180.5
998.069	2251.16667
1001.542	2311.83333
1005.013	2218.5
1008.481	2113.16667
1011.947	2096.5
1015.409	2058.16667
1018.869	2069.5
1022.327	2082.16667
1025.782	2088.83333
1029.234	2087.5
1032.683	2078.83333
1036.13	1998.5
1039.574	1934.5
1043.016	1883.5
1046.455	1845.16667
1049.891	1817.16667
1053.325	1809.5
1056.756	1823.83333
1060.184	1819.16667
1063.61	1829.83333
1067.033	1848.16667
1070.454	1846.5
1073.872	1865.16667
1077.287	1882.16667
1080.7	1885.83333
1084.11	1896.16667
1087.517	1887.83333
1090.922	1849.5
1094.325	1825.16667
1097.724	1814.5
1101.122	1812.16667
1104.516	1797.5
1107.908	1813.5
1111.298	1862.83333
1114.684	1880.83333
1118.069	1878.16667
1121.45	1905.5
1124.83	1910.16667
1128.206	1913.83333
1131.58	1933.83333
1134.951	1990.83333
1138.32	2021.5
1141.687	2098.5
1145.05	2162.16667
1148.412	2144.83333
1151.77	2146.5
1155.126	2150.16667
1158.48	2136.5
1161.831	2171.16667
1165.18	2166.5
1168.525	2193.83333
1171.869	2211.16667
1175.21	2211.16667
1178.548	2247.16667
1181.884	2265.83333
1185.217	2288.83333
1188.548	2322.16667
1191.877	2364.83333
1195.202	2410.83333
1198.526	2458.16667
1201.846	2452.16667
1205.165	2463.5
1208.48	2461.83333
1211.794	2458.16667
1215.104	2441.83333
1218.413	2468.5
1221.719	2453.5
1225.022	2442.83333
1228.323	2430.5
1231.621	2431.5
1234.917	2418.16667
1238.21	2435.83333
1241.501	2429.16667
1244.79	2420.83333
1248.076	2426.83333
1251.359	2465.83333
1254.64	2509.83333
1257.919	2484.16667
1261.195	2531.16667
1264.468	2569.16667
1267.74	2589.83333
1271.008	2601.5
1274.275	2610.83333
1277.538	2578.83333
1280.8	2555.5
1284.059	2569.5
1287.315	2599.5
1290.569	2605.16667
1293.821	2634.16667
1297.07	2631.83333
1300.317	2639.83333
1303.562	2666.16667
1306.803	2633.16667
1310.043	2591.83333
1313.28	2551.16667
1316.515	2565.16667
1319.747	2543.5
1322.977	2521.83333
1326.204	2498.83333
1329.429	2507.5
1332.652	2514.16667
1335.872	2478.16667
1339.09	2448.5
1342.306	2410.16667
1345.519	2383.16667
1348.729	2336.83333
1351.938	2330.16667
1355.144	2287.5
1358.347	2274.83333
1361.548	2287.83333
1364.747	2283.5
1367.944	2256.83333
1371.138	2276.83333
1374.329	2331.5
1377.518	2320.5
1380.705	2351.5
1383.89	2323.16667
1387.072	2299.83333
1390.252	2218.16667
1393.429	2182.16667
1396.605	2135.83333
1399.777	2069.5
1402.948	2083.5
1406.116	2073.83333
1409.282	2107.16667
1412.445	2122.83333
1415.606	2158.83333
1418.765	2167.83333
1421.921	2213.83333
1425.075	2207.83333
1428.227	2248.5
1431.376	2328.5
1434.524	2388.16667
1437.668	2452.16667
1440.811	2453.83333
1443.951	2511.5
1447.089	2528.16667
1450.224	2475.5
1453.357	2451.5
1456.488	2434.5
1459.617	2384.83333
1462.743	2345.16667
1465.867	2285.5
1468.989	2273.16667
1472.108	2220.16667
1475.225	2171.83333
1478.34	2165.83333
1481.453	2148.5
1484.563	2141.5
1487.671	2200.5
1490.776	2234.83333
1493.88	2245.83333
1496.981	2307.83333
1500.08	2331.83333
1503.176	2358.5
1506.271	2372.5
1509.363	2425.5
1512.452	2441.16667
1515.54	2497.5
1518.625	2529.16667
1521.708	2624.5
1524.789	2704.16667
1527.867	2834.83333
1530.944	2991.83333
1534.018	3125.83333
1537.089	3266.5
1540.159	3307.83333
1543.226	3303.16667
1546.291	3203.83333
1549.354	3140.83333
1552.415	3023.16667
1555.473	2950.5
1558.529	2877.16667
1561.583	2865.16667
1564.634	2814.5
1567.684	2812.5
1570.731	2770.5
1573.776	2780.83333
1576.819	2797.83333
1579.859	2808.16667
1582.898	2834.83333
1585.934	2850.5
1588.968	2870.16667
1591.999	2848.83333
1595.029	2875.83333
1598.056	2892.5
1601.081	2910.83333
1604.104	2897.16667
1607.125	2886.16667
1610.144	2839.16667
1613.16	2754.16667
1616.174	2688.83333
1619.186	2608.83333
1622.196	2554.83333
1625.203	2477.83333
1628.209	2437.16667
1631.212	2421.5
1634.213	2374.5
1637.212	2363.5
1640.209	2320.83333
1643.203	2273.83333
1646.196	2208.83333
1649.186	2165.16667
1652.174	2124.16667
1655.16	2059.16667
1658.144	2015.5
1661.125	1954.16667
1664.105	1870.16667
1667.082	1800.5
1670.057	1715.16667
1673.03	1629.16667
1676.001	1568.16667
1678.97	1481.16667
1681.937	1406.5
1684.901	1359.16667
1687.863	1335.16667
1690.824	1277.16667
1693.782	1264.16667
1696.738	1213.83333
1699.692	1204.5
1702.643	1171.5
1705.593	1152.83333
1708.54	1163.16667
1711.486	1157.5
1714.429	1120.5
1717.37	1136.83333
1720.309	1125.5
1723.246	1124.16667
1726.181	1091.83333
1729.113	1119.5
1732.044	1105.16667
1734.972	1091.5
1737.899	1107.16667
1740.823	1098.16667
1743.745	1104.83333
1746.665	1065.83333
1749.583	1054.5
1752.499	1035.5
1755.413	1016.5
1758.325	1001.16667
1761.235	1006.83333
1764.142	991.83333
1767.048	981.5
1769.951	970.16667
1772.852	983.16667
1775.752	980.16667
1778.649	989.5
1781.544	991.16667
1784.437	967.5
1787.328	981.16667
1790.217	978.16667
1793.104	947.5
1795.989	961.5
1798.872	947.5
1801.753	975.16667
1804.631	963.5
1807.508	977.83333
1810.383	976.16667
1813.255	959.16667
1816.126	966.5
1818.994	960.83333
1821.861	957.5
1824.725	966.16667
1827.587	957.16667
1830.448	972.5
1833.306	934.16667
1836.162	961.16667
1839.017	948.5
1841.869	955.5
1844.719	949.83333
1847.567	949.5
1850.414	937.83333
1853.258	956.16667
1856.1	955.5
1858.94	959.5
1861.778	959.5
1864.614	945.16667
1867.448	966.5
1870.28	948.83333
1873.111	976.83333
1875.939	962.16667
1878.765	986.83333
1881.589	975.83333
1884.411	965.16667
1887.231	980.16667
1890.049	967.83333
1892.865	969.83333
1895.68	962.83333
1898.492	969.16667
1901.302	960.83333
1904.11	973.16667
1906.916	957.5
1909.721	968.83333
1912.523	985.16667
1915.323	959.83333
1918.122	965.83333
1920.918	988.5
1923.712	978.16667
1926.505	979.5
1929.295	958.16667
1932.084	987.5
1934.87	986.83333
1937.655	977.83333
1940.438	986.16667
1943.218	983.83333
1945.997	1009.16667
1948.774	1000.83333
1951.549	1009.83333
1954.322	993.83333
1957.093	1011.16667
1959.862	1008.83333
1962.629	997.5
1965.394	998.16667
1968.157	986.16667
1970.918	1015.5
1973.678	1000.16667
1976.435	1006.5
1979.19	997.83333
1981.944	1008.83333
1984.696	1010.5
1987.445	1005.5
1990.193	1008.16667
1992.939	1022.83333
1995.683	1019.5
1998.425	999.5
2001.165	1044.5
2003.903	1014.16667
2006.639	1012.5
2009.374	1032.5
2012.106	1045.83333
2014.837	1006.16667
2017.566	1044.83333
2020.292	1043.5
2023.017	1059.16667
2025.74	1046.83333
2028.461	1043.83333
2031.18	1057.5
2033.898	1048.16667
2036.613	1060.5
2039.327	1068.16667
2042.038	1051.5
2044.748	1059.83333
2047.456	1072.16667
2050.162	1043.83333
2052.866	1061.16667
2055.568	1081.5
2058.268	1058.83333
2060.967	1075.83333
2063.663	1072.16667
2066.358	1083.5
2069.051	1080.16667
2071.742	1092.16667
2074.431	1102.16667
2077.118	1097.5
2079.804	1107.5
2082.487	1113.5
2085.169	1120.5
2087.849	1146.83333
2090.527	1131.16667
2093.203	1136.16667
2095.877	1153.83333
2098.55	1167.83333
2101.22	1198.16667
2103.889	1224.5
2106.556	1202.5
2109.221	1266.5
2111.884	1295.83333
2114.546	1376.83333
2117.205	1432.83333
2119.863	1541.5
2122.519	1590.5
2125.173	1656.83333
2127.825	1707.16667
2130.475	1706.5
2133.124	1651.16667
2135.771	1587.83333
2138.416	1558.16667
2141.059	1477.83333
2143.7	1469.83333
2146.339	1407.83333
2148.977	1363.83333
2151.613	1362.5
2154.247	1322.5
2156.879	1309.83333
2159.51	1304.83333
2162.138	1287.16667
2164.765	1288.5
2167.39	1277.5
2170.013	1280.5
2172.634	1275.83333
2175.254	1272.16667
2177.872	1304.16667
2180.488	1256.83333
2183.102	1275.83333
2185.714	1280.16667
2188.325	1259.5
2190.934	1278.5
2193.541	1265.16667
2196.146	1254.5
2198.75	1258.83333
2201.351	1250.83333
2203.951	1254.5
2206.549	1277.16667
2209.146	1271.83333
2211.74	1266.83333
2214.333	1283.83333
2216.924	1263.5
2219.514	1287.83333
2222.101	1269.83333
2224.687	1296.16667
2227.271	1289.5
2229.853	1285.16667
2232.433	1293.5
2235.012	1306.16667
2237.589	1287.83333
2240.164	1317.5
2242.738	1309.16667
2245.309	1318.83333
2247.879	1327.16667
2250.448	1318.5
2253.014	1299.83333
2255.579	1299.5
2258.142	1311.5
2260.703	1309.83333
2263.262	1308.5
2265.82	1341.16667
2268.376	1327.16667
2270.93	1316.16667
2273.483	1334.83333
2276.033	1331.5
2278.583	1344.16667
2281.13	1339.5
2283.675	1344.5
2286.219	1361.83333
2288.761	1362.83333
2291.302	1360.16667
2293.841	1371.83333
2296.377	1359.5
2298.913	1371.5
2301.446	1390.16667
2303.978	1394.83333
2306.508	1382.16667
2309.037	1406.16667
2311.563	1405.83333
2314.088	1411.83333
2316.612	1398.5
2319.133	1416.5
2321.653	1413.16667
2324.171	1409.16667
2326.688	1450.5
2329.202	1419.16667
2331.715	1437.5
2334.227	1439.83333
2336.736	1442.5
2339.244	1449.16667
2341.751	1445.83333
2344.255	1476.16667
2346.758	1455.5
2349.259	1459.83333
2351.759	1476.16667
2354.257	1486.83333
2356.753	1487.5
2359.247	1489.5
2361.74	1521.5
2364.231	1497.83333
2366.721	1520.16667
2369.209	1513.5
2371.695	1529.16667
2374.179	1546.16667
2376.662	1536.16667
2379.143	1546.83333
2381.622	1549.16667
2384.1	1570.83333
2386.576	1561.5
2389.051	1592.5
2391.524	1580.5
2393.995	1613.16667
2396.464	1584.83333
2398.932	1593.83333
2401.398	1600.83333
2403.863	1596.16667
2406.325	1614.5
2408.787	1610.5
2411.246	1627.5
2413.704	1631.16667
2416.16	1645.16667
2418.615	1649.16667
2421.068	1645.16667
2423.519	1669.83333
2425.969	1670.83333
2428.417	1677.5
2430.863	1703.83333
2433.308	1710.16667
2435.751	1704.5
2438.193	1706.83333
2440.633	1714.16667
2443.071	1723.5
2445.508	1722.83333
2447.943	1739.16667
2450.376	1727.16667
2452.808	1744.5
2455.238	1746.5
2457.667	1777.83333
2460.093	1766.83333
2462.519	1765.16667
2464.942	1789.83333
2467.365	1803.16667
2469.785	1797.5
2472.204	1803.16667
2474.621	1799.83333
2477.037	1836.5
2479.451	1819.16667
2481.863	1809.83333
2484.274	1822.16667
2486.683	1824.83333
2489.091	1850.5
2491.497	1864.5
2493.901	1866.16667
2496.304	1867.5
2498.705	1888.5
2501.105	1885.5
2503.503	1907.16667
2505.899	1893.5
2508.294	1923.16667
2510.687	1908.16667
2513.079	1913.83333
2515.469	1922.5
2517.858	1905.83333
2520.245	1940.83333
2522.63	1926.5
2525.014	1934.16667
2527.396	1956.16667
2529.776	1959.83333
2532.156	1975.83333
2534.533	1954.83333
2536.909	1988.83333
2539.283	1993.83333
2541.656	2007.16667
2544.027	2028.5
2546.397	2016.83333
2548.765	2019.83333
2551.131	2034.16667
2553.496	2050.83333
2555.86	2042.5
2558.221	2055.83333
2560.582	2060.83333
2562.94	2061.83333
2565.298	2108.5
2567.653	2102.16667
2570.007	2083.16667
2572.36	2115.16667
2574.711	2102.16667
2577.06	2144.16667
2579.408	2118.5
2581.754	2134.83333
2584.099	2158.83333
2586.442	2177.5
2588.784	2156.83333
2591.124	2184.83333
2593.463	2178.83333
2595.8	2197.5
2598.135	2177.83333
2600.469	2202.83333
2602.802	2228.83333
2605.133	2221.16667
2607.462	2216.83333
2609.79	2200.83333
2612.116	2256.16667
2614.441	2246.83333
2616.764	2263.83333
2619.086	2260.5
2621.406	2280.83333
2623.725	2288.5
2626.042	2299.5
2628.358	2302.16667
2630.672	2319.5
2632.985	2343.83333
2635.296	2348.16667
2637.606	2323.5
2639.914	2344.5
2642.22	2387.16667
2644.525	2357.83333
2646.829	2398.16667
2649.131	2413.5
2651.432	2442.16667
2653.731	2446.16667
2656.028	2476.5
2658.324	2445.5
2660.619	2478.5
2662.912	2492.16667
2665.204	2476.5
2667.494	2533.16667
2669.782	2504.5
2672.07	2514.83333
2674.355	2513.5
2676.639	2507.5
2678.922	2521.83333
2681.203	2547.83333
2683.483	2528.5
2685.761	2534.5
2688.038	2568.5
2690.313	2554.83333
2692.587	2547.16667
2694.859	2566.5
2697.13	2583.5
2699.399	2601.5
2701.667	2614.5
2703.933	2619.16667
2706.198	2616.83333
2708.461	2640.5
2710.723	2670.83333
2712.984	2671.5
2715.243	2696.5
2717.5	2709.83333
2719.757	2709.83333
2722.011	2727.16667
2724.264	2751.83333
2726.516	2765.16667
2728.766	2757.16667
2731.015	2777.83333
2733.262	2765.5
2735.508	2779.83333
2737.753	2797.16667
2739.996	2774.16667
2742.237	2792.83333
2744.477	2801.83333
2746.716	2786.5
2748.953	2785.16667
2751.189	2785.83333
2753.423	2798.5
2755.656	2770.16667
2757.887	2781.5
2760.117	2803.83333
2762.346	2808.83333
2764.573	2808.16667
2766.798	2842.16667
2769.022	2820.83333
2771.245	2849.5
2773.467	2853.83333
2775.686	2847.16667
2777.905	2880.83333
2780.122	2873.5
2782.337	2887.83333
2784.552	2890.16667
2786.764	2916.83333
2788.976	2924.5
2791.186	2945.5
2793.394	2965.16667
2795.601	2989.83333
2797.807	3016.16667
2800.011	3009.83333
2802.214	3024.83333
2804.415	3061.5
2806.615	3033.5
2808.814	3047.5
2811.011	3049.16667
2813.206	3040.16667
2815.401	3067.83333
2817.594	3073.16667
2819.785	3095.16667
2821.975	3085.83333
2824.164	3094.16667
2826.351	3103.5
2828.537	3145.16667
2830.722	3150.5
2832.905	3143.5
2835.086	3203.83333
2837.267	3226.5
2839.445	3237.16667
2841.623	3252.5
2843.799	3284.83333
2845.974	3312.5
2848.147	3361.5
2850.319	3368.16667
2852.489	3405.16667
2854.659	3426.16667
2856.826	3468.83333
2858.993	3486.83333
2861.158	3449.5
2863.321	3451.5
2865.483	3493.5
2867.644	3508.16667
2869.804	3486.83333
2871.962	3442.5
2874.118	3475.83333
2876.274	3438.5
2878.428	3440.5
2880.58	3429.5
2882.731	3419.16667
2884.881	3409.16667
2887.03	3403.5
2889.177	3406.5
2891.322	3449.83333
2893.467	3446.83333
2895.61	3406.16667
2897.751	3451.83333
2899.892	3455.16667
2902.03	3498.5
2904.168	3506.83333
2906.304	3517.5
2908.439	3554.16667
2910.572	3533.5
2912.704	3561.16667
2914.835	3584.16667
2916.965	3572.5
2919.093	3564.83333
2921.219	3557.5
2923.345	3575.83333
2925.469	3542.83333
2927.591	3534.83333
2929.712	3485.5
2931.832	3477.5
2933.951	3441.83333
2936.068	3417.16667
2938.184	3436.5
2940.299	3402.16667
2942.412	3364.83333
2944.524	3359.83333
2946.634	3343.5
2948.744	3340.83333
2950.851	3353.5
2952.958	3329.16667
2955.063	3352.5
2957.167	3362.16667
2959.269	3343.83333
2961.371	3393.83333
2963.471	3328.16667
2965.569	3385.5
2967.666	3347.5
2969.762	3338.5
2971.857	3307.16667
2973.95	3297.5
2976.042	3268.83333
2978.133	3227.16667
2980.222	3194.5
2982.31	3189.83333
2984.396	3138.83333
2986.482	3156.83333
2988.566	3139.5
2990.648	3138.5
2992.73	3139.5
2994.81	3129.5
2996.889	3159.16667
2998.966	3158.5
3001.042	3169.5
3003.117	3166.83333
3005.191	3169.16667
3007.263	3114.5
3009.334	3133.16667
3011.403	3101.83333
3013.472	3070.83333
3015.539	3033.5
3017.604	3016.16667
3019.669	2958.83333
3021.732	2985.16667
3023.794	2995.16667
3025.854	2971.5
3027.914	2959.16667
3029.971	3011.16667
3032.028	2991.5
3034.083	2962.5
3036.137	2908.83333
3038.19	2847.83333
3040.242	2787.16667
3042.292	2740.83333
3044.341	2725.5
3046.388	2730.16667
3048.435	2673.5
3050.48	2671.5
3052.524	2640.5
3054.566	2633.83333
3056.607	2623.16667
3058.647	2581.5
3060.686	2502.83333
3062.723	2426.5
3064.759	2362.83333
3066.794	0.83333
3068.828	0.83333
3070.86	-2.5
