-0.839	428
3.438	451.33333
7.711	120.66667
11.981	50.33333
16.247	44.66667
20.509	40.33333
24.768	41.66667
29.024	48.66667
33.276	41.66667
37.524	51
41.769	36.66667
46.01	34.66667
50.247	50.66667
54.481	61.33333
58.712	61.33333
62.939	45
67.162	55.33333
71.382	55.33333
75.599	45
79.812	59.66667
84.021	80
88.227	53.66667
92.429	55.66667
96.628	47
100.823	60.66667
105.015	69.66667
109.204	69.33333
113.388	69
117.57	70.33333
121.748	76.66667
125.922	73.66667
130.093	89.66667
134.261	90.66667
138.425	83.33333
142.585	126.66667
146.742	122
150.896	139
155.046	163.66667
159.193	272.33333
163.336	450.33333
167.476	827
171.613	1516
175.746	2559
179.875	3769.33333
184.002	4906
188.124	5690
192.244	5905.66667
196.36	5754
200.472	5495.33333
204.581	5298.33333
208.687	5060.66667
212.79	4910.66667
216.889	4848
220.984	4784.66667
225.077	4739
229.165	4706.66667
233.251	4659
237.333	4616
241.412	4477.33333
245.487	4437.66667
249.559	4374.33333
253.628	4319.33333
257.694	4274
261.756	4222
265.814	4167.33333
269.87	4067
273.922	4009.33333
277.97	4007.33333
282.016	4039.33333
286.058	4112.33333
290.097	4212
294.132	4260.66667
298.164	4196
302.193	4012.66667
306.219	3734
310.241	3412.66667
314.26	3111
318.276	2866.33333
322.288	2705
326.297	2525.66667
330.303	2411.66667
334.305	2348.66667
338.305	2284.33333
342.301	2251.33333
346.294	2219
350.283	2184.66667
354.269	2171.66667
358.252	2152.33333
362.232	2122
366.209	2103
370.182	2083.33333
374.152	2068.66667
378.119	2073.33333
382.083	2061.66667
386.043	2087
390	2007.33333
393.954	2028
397.905	2006.66667
401.852	1994
405.797	1977
409.738	1946
413.676	1937.33333
417.61	1928.33333
421.542	1910.66667
425.47	1893
429.396	1876.33333
433.318	1863.66667
437.236	1862.66667
441.152	1874.66667
445.065	1817
448.974	1813
452.88	1789
456.783	1760.66667
460.683	1774.66667
464.58	1767
468.473	1793.66667
472.364	1783.66667
476.251	1779.33333
480.135	1802
484.016	1832.66667
487.894	1844
491.769	1857
495.641	1889.33333
499.509	1883.66667
503.375	1913.66667
507.237	1937.33333
511.096	2068.33333
514.952	2501.66667
518.805	3035.66667
522.655	3192
526.502	2462.33333
530.346	1988.66667
534.187	1876.66667
538.024	1845.66667
541.859	1824.33333
545.69	1816.66667
549.519	1797.33333
553.344	1794.33333
557.166	1759
560.985	1732.33333
564.802	1720.66667
568.615	1702
572.425	1685.66667
576.232	1671
580.036	1680.33333
583.836	1684.33333
587.634	1682.33333
591.429	1658.33333
595.221	1715.33333
599.01	1718.33333
602.796	1747
606.578	1764.66667
610.358	1767
614.135	1732.66667
617.909	1743.33333
621.679	1737.33333
625.447	1720.33333
629.212	1724.66667
632.973	1723
636.732	1712.33333
640.488	1734.66667
644.241	1709.33333
647.991	1687.66667
651.737	1698.33333
655.481	1667.66667
659.222	1690.66667
662.96	1664
666.695	1700.33333
670.427	1704
674.156	1706
677.882	1696
681.605	1723
685.325	1702
689.043	1713
692.757	1684
696.468	1703.66667
700.177	1705.66667
703.882	1708.33333
707.585	1681.66667
711.284	1705
714.981	1679.33333
718.675	1698.66667
722.366	1712
726.054	1689.66667
729.739	1720.33333
733.421	1698.66667
737.1	1701.33333
740.777	1707.33333
744.45	1729.33333
748.121	1740.33333
751.789	1769.66667
755.453	1760
759.115	1770.66667
762.774	1787.66667
766.431	1794.66667
770.084	1809
773.734	1825.66667
777.382	1876.66667
781.027	1883.33333
784.669	1884.66667
788.308	1890
791.944	1920.33333
795.577	1947.33333
799.208	1961.66667
802.835	1957
806.46	1963.66667
810.082	1974.66667
813.701	1963
817.317	1993
820.931	1984.66667
824.542	1987
828.149	1989.66667
831.754	1974.66667
835.357	1975
838.956	1980.33333
842.553	1972.66667
846.146	1952
849.737	1953.33333
853.326	1960
856.911	1971.66667
860.493	1996
864.073	2009.33333
867.65	2051.33333
871.225	2083.66667
874.796	2069.33333
878.365	2091.33333
881.931	2126
885.494	2150.66667
889.054	2188.66667
892.612	2226.66667
896.166	2230.66667
899.719	2217.66667
903.268	2169.66667
906.814	2117.33333
910.358	2067.33333
913.899	2003.33333
917.438	2033.33333
920.973	2014
924.506	2023.33333
928.036	2044
931.564	2077.66667
935.088	2134
938.61	2141.66667
942.129	2152.66667
945.646	2212
949.16	2234
952.671	2257
956.179	2254
959.685	2244
963.188	2204.66667
966.688	2154.66667
970.185	2105.33333
973.68	2078.66667
977.173	2086.33333
980.662	2066.33333
984.149	2079.66667
987.633	2083
991.114	2098.33333
994.593	2161.66667
998.069	2231.33333
1001.542	2273.33333
1005.013	2221.66667
1008.481	2109.33333
1011.947	2082
1015.409	2043.66667
1018.869	2058.33333
1022.327	2070.66667
1025.782	2052.66667
1029.234	2066.33333
1032.683	2053.33333
1036.13	1969
1039.574	1912.66667
1043.016	1878.33333
1046.455	1836.66667
1049.891	1806.33333
1053.325	1812
1056.756	1790
1060.184	1822
1063.61	1822.66667
1067.033	1830.66667
1070.454	1828.66667
1073.872	1858
1077.287	1855
1080.7	1875
1084.11	1863.33333
1087.517	1851.66667
1090.922	1840.33333
1094.325	1800.33333
1097.724	1794.66667
1101.122	1807.66667
1104.516	1781.66667
1107.908	1793
1111.298	1834.33333
1114.684	1842
1118.069	1874.66667
1121.45	1898
1124.83	1875.66667
1128.206	1908.33333
1131.58	1944.33333
1134.951	1974.66667
1138.32	2036
1141.687	2108.33333
1145.05	2149
1148.412	2139
1151.77	2141
1155.126	2122
1158.48	2145
1161.831	2156
1165.18	2171.66667
1168.525	2188.33333
1171.869	2215.66667
1175.21	2227.33333
1178.548	2251.66667
1181.884	2264.66667
1185.217	2278.66667
1188.548	2325.33333
1191.877	2367.33333
1195.202	2417.66667
1198.526	2460.33333
1201.846	2458.66667
1205.165	2449.33333
1208.48	2452.66667
1211.794	2446.66667
1215.104	2455.66667
1218.413	2483
1221.719	2449.66667
1225.022	2430.66667
1228.323	2424.33333
1231.621	2421.66667
1234.917	2429.66667
1238.21	2441.33333
1241.501	2418.33333
1244.79	2433.33333
1248.076	2433.33333
1251.359	2461.33333
1254.64	2498.33333
1257.919	2501
1261.195	2552.66667
1264.468	2555.66667
1267.74	2615.66667
1271.008	2599
1274.275	2585.33333
1277.538	2577
1280.8	2576.33333
1284.059	2570.66667
1287.315	2625.33333
1290.569	2613.33333
1293.821	2621.33333
1297.07	2627.33333
1300.317	2655.66667
1303.562	2653
1306.803	2624
1310.043	2608
1313.28	2577.66667
1316.515	2552.66667
1319.747	2531.66667
1322.977	2513.66667
1326.204	2507.33333
1329.429	2501.33333
1332.652	2495
1335.872	2471.66667
1339.09	2440
1342.306	2418.33333
1345.519	2358.33333
1348.729	2358
1351.938	2348.66667
1355.144	2276
1358.347	2258.33333
1361.548	2266.66667
1364.747	2278.66667
1367.944	2247.66667
1371.138	2284.66667
1374.329	2303.66667
1377.518	2323.33333
1380.705	2344.33333
1383.89	2339
1387.072	2252.66667
1390.252	2229.66667
1393.429	2150.33333
1396.605	2121
1399.777	2076
1402.948	2084.33333
1406.116	2068.66667
1409.282	2092.33333
1412.445	2104
1415.606	2138.66667
1418.765	2147
1421.921	2195.33333
1425.075	2197.66667
1428.227	2251.66667
1431.376	2320.66667
1434.524	2376.66667
1437.668	2445.33333
1440.811	2484.33333
1443.951	2470.66667
1447.089	2491.66667
1450.224	2471
1453.357	2439.66667
1456.488	2429.66667
1459.617	2363
1462.743	2356.66667
1465.867	2265
1468.989	2272
1472.108	2222.66667
1475.225	2171.66667
1478.34	2156.66667
1481.453	2164
1484.563	2158
1487.671	2181.33333
1490.776	2235
1493.88	2262.33333
1496.981	2328.33333
1500.08	2332.66667
1503.176	2381
1506.271	2398.66667
1509.363	2425.33333
1512.452	2463.33333
1515.54	2511
1518.625	2547.66667
1521.708	2607
1524.789	2706
1527.867	2842.33333
1530.944	2991.66667
1534.018	3149.66667
1537.089	3283.66667
1540.159	3318
1543.226	3309.66667
1546.291	3230.33333
1549.354	3131.33333
1552.415	3048
1555.473	2959.33333
1558.529	2906
1561.583	2883.66667
1564.634	2833.66667
1567.684	2816.66667
1570.731	2807
1573.776	2797
1576.819	2827.66667
1579.859	2807.66667
1582.898	2844
1585.934	2866
1588.968	2897.33333
1591.999	2858.33333
1595.029	2871.33333
1598.056	2897.66667
1601.081	2933.66667
1604.104	2905.66667
1607.125	2881.66667
1610.144	2822.33333
1613.16	2783
1616.174	2689.33333
1619.186	2622
1622.196	2556
1625.203	2488.33333
1628.209	2435.66667
1631.212	2399.66667
1634.213	2355.66667
1637.212	2343.33333
1640.209	2309.33333
1643.203	2248
1646.196	2198
1649.186	2146
1652.174	2112.66667
1655.16	2070
1658.144	2001
1661.125	1930.33333
1664.105	1866.66667
1667.082	1799
1670.057	1711.33333
1673.03	1631
1676.001	1554.33333
1678.97	1473.33333
1681.937	1411
1684.901	1337.33333
1687.863	1314.66667
1690.824	1281
1693.782	1269.66667
1696.738	1210.33333
1699.692	1195.66667
1702.643	1186.33333
1705.593	1164.33333
1708.54	1171
1711.486	1161.33333
1714.429	1127.33333
1717.37	1126.33333
1720.309	1108
1723.246	1127.33333
1726.181	1090.66667
1729.113	1097
1732.044	1101.66667
1734.972	1083.33333
1737.899	1083.66667
1740.823	1096.66667
1743.745	1086.33333
1746.665	1046.66667
1749.583	1046
1752.499	1035.33333
1755.413	1029
1758.325	1002
1761.235	999
1764.142	979.33333
1767.048	995
1769.951	978
1772.852	985.33333
1775.752	975.66667
1778.649	968
1781.544	984
1784.437	956.66667
1787.328	984.33333
1790.217	969
1793.104	938
1795.989	944.33333
1798.872	952.66667
1801.753	982.33333
1804.631	977.66667
1807.508	973
1810.383	978.33333
1813.255	962.66667
1816.126	971
1818.994	957
1821.861	962.33333
1824.725	963
1827.587	958.33333
1830.448	950.33333
1833.306	937
1836.162	959
1839.017	957.33333
1841.869	954.66667
1844.719	948.33333
1847.567	931.66667
1850.414	942
1853.258	936
1856.1	966
1858.94	976
1861.778	959
1864.614	948
1867.448	958.66667
1870.28	945.66667
1873.111	971.33333
1875.939	969.66667
1878.765	984.33333
1881.589	970.33333
1884.411	961.33333
1887.231	985.33333
1890.049	962.33333
1892.865	961.66667
1895.68	971.66667
1898.492	982.33333
1901.302	955
1904.11	981
1906.916	972
1909.721	977.33333
1912.523	991
1915.323	949.33333
1918.122	963.66667
1920.918	977.33333
1923.712	966.33333
1926.505	997
1929.295	968
1932.084	998
1934.87	1004.66667
1937.655	970.33333
1940.438	989
1943.218	988.66667
1945.997	994.66667
1948.774	994.66667
1951.549	1010.33333
1954.322	999.33333
1957.093	1010.66667
1959.862	995.33333
1962.629	1019.33333
1965.394	1004
1968.157	987.33333
1970.918	1018.33333
1973.678	996.33333
1976.435	1013.66667
1979.19	1005.33333
1981.944	997.66667
1984.696	1008.33333
1987.445	1010.33333
1990.193	1022.66667
1992.939	1034
1995.683	1034.66667
1998.425	1012.66667
2001.165	1036.33333
2003.903	1023
2006.639	1027.33333
2009.374	1028.66667
2012.106	1039.66667
2014.837	1026.33333
2017.566	1052.66667
2020.292	1053.33333
2023.017	1050.33333
2025.74	1043
2028.461	1042.33333
2031.18	1060.33333
2033.898	1043.33333
2036.613	1068
2039.327	1074
2042.038	1060.66667
2044.748	1066.33333
2047.456	1078
2050.162	1054.33333
2052.866	1068
2055.568	1084.33333
2058.268	1090.66667
2060.967	1084.66667
2063.663	1080
2066.358	1091.66667
2069.051	1070.66667
2071.742	1096.33333
2074.431	1119.66667
2077.118	1109.66667
2079.804	1100.33333
2082.487	1119.33333
2085.169	1130.33333
2087.849	1142
2090.527	1144.33333
2093.203	1157.66667
2095.877	1170
2098.55	1177.66667
2101.22	1202.33333
2103.889	1214
2106.556	1221
2109.221	1278.66667
2111.884	1307.33333
2114.546	1392
2117.205	1449.66667
2119.863	1534.33333
2122.519	1605.66667
2125.173	1683.66667
2127.825	1722.66667
2130.475	1721
2133.124	1653.33333
2135.771	1628
2138.416	1561
2141.059	1510
2143.7	1477.66667
2146.339	1406.66667
2148.977	1368.66667
2151.613	1364
2154.247	1341.33333
2156.879	1324.33333
2159.51	1304.66667
2162.138	1289.66667
2164.765	1297
2167.39	1284.33333
2170.013	1308
2172.634	1310
2175.254	1293.33333
2177.872	1317
2180.488	1276.66667
2183.102	1285.66667
2185.714	1284.33333
2188.325	1273.33333
2190.934	1273.33333
2193.541	1284.33333
2196.146	1271.33333
2198.75	1270.66667
2201.351	1278.33333
2203.951	1276
2206.549	1292.66667
2209.146	1280.33333
2211.74	1278
2214.333	1306.66667
2216.924	1284.33333
2219.514	1293
2222.101	1284.33333
2224.687	1298.66667
2227.271	1298.66667
2229.853	1292.66667
2232.433	1284.33333
2235.012	1303.33333
2237.589	1307.33333
2240.164	1349
2242.738	1331.33333
2245.309	1332.66667
2247.879	1336.66667
2250.448	1348.66667
2253.014	1321.66667
2255.579	1326.66667
2258.142	1324.66667
2260.703	1321.33333
2263.262	1330
2265.82	1337
2268.376	1343.66667
2270.93	1347
2273.483	1344.66667
2276.033	1356
2278.583	1351.66667
2281.13	1361
2283.675	1369.66667
2286.219	1379
2288.761	1364.33333
2291.302	1398
2293.841	1403.33333
2296.377	1388.66667
2298.913	1383.33333
2301.446	1417.33333
2303.978	1407
2306.508	1408.33333
2309.037	1416
2311.563	1417.66667
2314.088	1431.66667
2316.612	1426.33333
2319.133	1444.66667
2321.653	1424
2324.171	1437
2326.688	1449.66667
2329.202	1457.33333
2331.715	1451.66667
2334.227	1473
2336.736	1451.66667
2339.244	1479.66667
2341.751	1467.66667
2344.255	1478.66667
2346.758	1493
2349.259	1503.33333
2351.759	1495.66667
2354.257	1491.66667
2356.753	1517.66667
2359.247	1516.33333
2361.74	1525
2364.231	1532.33333
2366.721	1550.66667
2369.209	1525
2371.695	1544.66667
2374.179	1540.33333
2376.662	1570.66667
2379.143	1570
2381.622	1595.33333
2384.1	1579.33333
2386.576	1599.66667
2389.051	1612.33333
2391.524	1626.66667
2393.995	1631
2396.464	1616.33333
2398.932	1621
2401.398	1640
2403.863	1621.66667
2406.325	1631
2408.787	1639.33333
2411.246	1665.66667
2413.704	1664
2416.16	1659.66667
2418.615	1673.33333
2421.068	1692.33333
2423.519	1690.33333
2425.969	1705
2428.417	1719.66667
2430.863	1735
2433.308	1737
2435.751	1736
2438.193	1722.66667
2440.633	1747
2443.071	1758
2445.508	1745.33333
2447.943	1761
2450.376	1768.66667
2452.808	1795.33333
2455.238	1785
2457.667	1824.33333
2460.093	1790.66667
2462.519	1806.33333
2464.942	1810
2467.365	1812.33333
2469.785	1828.66667
2472.204	1844
2474.621	1827.66667
2477.037	1864.66667
2479.451	1843.66667
2481.863	1838.33333
2484.274	1846.33333
2486.683	1879
2489.091	1889
2491.497	1882.33333
2493.901	1892.33333
2496.304	1911
2498.705	1934.66667
2501.105	1919
2503.503	1970.33333
2505.899	1924
2508.294	1972
2510.687	1962
2513.079	1957
2515.469	1939.66667
2517.858	1969
2520.245	1986
2522.63	1985.66667
2525.014	1963.33333
2527.396	1989.33333
2529.776	2005.66667
2532.156	2015.66667
2534.533	2026.66667
2536.909	2051
2539.283	2019.66667
2541.656	2030.66667
2544.027	2069.66667
2546.397	2050.33333
2548.765	2074.66667
2551.131	2076
2553.496	2088.33333
2555.86	2086
2558.221	2093.33333
2560.582	2097
2562.94	2102
2565.298	2130.33333
2567.653	2163.33333
2570.007	2119
2572.36	2152
2574.711	2156
2577.06	2183.33333
2579.408	2170.66667
2581.754	2188
2584.099	2205
2586.442	2180.66667
2588.784	2214
2591.124	2234.66667
2593.463	2244
2595.8	2227
2598.135	2229
2600.469	2256
2602.802	2252
2605.133	2270
2607.462	2259.33333
2609.79	2272
2612.116	2274.33333
2614.441	2306
2616.764	2311
2619.086	2332.33333
2621.406	2309
2623.725	2350
2626.042	2350
2628.358	2357.33333
2630.672	2356.66667
2632.985	2387
2635.296	2400.33333
2637.606	2414.66667
2639.914	2408
2642.22	2429.66667
2644.525	2435
2646.829	2445.33333
2649.131	2478
2651.432	2489.66667
2653.731	2489.33333
2656.028	2521.33333
2658.324	2513.33333
2660.619	2507.66667
2662.912	2552
2665.204	2553
2667.494	2552.33333
2669.782	2553.66667
2672.07	2570.33333
2674.355	2580.33333
2676.639	2567.33333
2678.922	2577
2681.203	2605.66667
2683.483	2580.66667
2685.761	2594.33333
2688.038	2607
2690.313	2625
2692.587	2634.33333
2694.859	2626
2697.13	2634.66667
2699.399	2643
2701.667	2670.66667
2703.933	2692.66667
2706.198	2701.66667
2708.461	2673.66667
2710.723	2714.66667
2712.984	2732
2715.243	2743
2717.5	2769.33333
2719.757	2792.33333
2722.011	2788
2724.264	2801.66667
2726.516	2813.33333
2728.766	2854.66667
2731.015	2839
2733.262	2856.33333
2735.508	2867.33333
2737.753	2855.66667
2739.996	2847.66667
2742.237	2878.33333
2744.477	2876.33333
2746.716	2847
2748.953	2852.66667
2751.189	2840
2753.423	2840.66667
2755.656	2860.66667
2757.887	2834.66667
2760.117	2848.33333
2762.346	2849
2764.573	2847.66667
2766.798	2869.66667
2769.022	2892
2771.245	2895.66667
2773.467	2911.66667
2775.686	2920.66667
2777.905	2916
2780.122	2931
2782.337	2939.33333
2784.552	2943.33333
2786.764	2973
2788.976	2996.66667
2791.186	3023
2793.394	3030
2795.601	3031.33333
2797.807	3047
2800.011	3091.33333
2802.214	3109
2804.415	3107
2806.615	3101.33333
2808.814	3107
2811.011	3119
2813.206	3116.33333
2815.401	3143.33333
2817.594	3159.33333
2819.785	3170
2821.975	3158
2824.164	3169
2826.351	3158
2828.537	3203.66667
2830.722	3196.33333
2832.905	3216
2835.086	3250
2837.267	3292
2839.445	3313.66667
2841.623	3319.66667
2843.799	3351.33333
2845.974	3405
2848.147	3429.33333
2850.319	3455
2852.489	3494
2854.659	3473.66667
2856.826	3527
2858.993	3547.33333
2861.158	3538
2863.321	3527.33333
2865.483	3564.33333
2867.644	3572.33333
2869.804	3571.33333
2871.962	3503.33333
2874.118	3553.33333
2876.274	3519
2878.428	3483.66667
2880.58	3499
2882.731	3489.33333
2884.881	3487.66667
2887.03	3486.33333
2889.177	3465.33333
2891.322	3512.66667
2893.467	3494
2895.61	3522.33333
2897.751	3533
2899.892	3525.66667
2902.03	3581.33333
2904.168	3579.66667
2906.304	3594.66667
2908.439	3637.33333
2910.572	3606.33333
2912.704	3652
2914.835	3626.33333
2916.965	3645
2919.093	3674.66667
2921.219	3619.33333
2923.345	3656.66667
2925.469	3609.66667
2927.591	3620.66667
2929.712	3566.66667
2931.832	3571.66667
2933.951	3535.33333
2936.068	3523.33333
2938.184	3492
2940.299	3459.66667
2942.412	3453.33333
2944.524	3427.33333
2946.634	3428.66667
2948.744	3399.66667
2950.851	3431
2952.958	3406
2955.063	3414
2957.167	3441
2959.269	3409.66667
2961.371	3442.66667
2963.471	3428.33333
2965.569	3450.33333
2967.666	3426.33333
2969.762	3428.66667
2971.857	3392.33333
2973.95	3354
2976.042	3344
2978.133	3302
2980.222	3291
2982.31	3219
2984.396	3229
2986.482	3191.66667
2988.566	3193.33333
2990.648	3211.33333
2992.73	3213.33333
2994.81	3197
2996.889	3216.33333
2998.966	3228.66667
3001.042	3223.66667
3003.117	3234
3005.191	3216
3007.263	3222.66667
3009.334	3194.66667
3011.403	3173.33333
3013.472	3129.66667
3015.539	3113.66667
3017.604	3090.33333
3019.669	3041.66667
3021.732	3020
3023.794	3049.66667
3025.854	3039.66667
3027.914	3064.33333
3029.971	3057
3032.028	3061.66667
3034.083	3058
3036.137	3000.33333
3038.19	2926
3040.242	2877
3042.292	2808
3044.341	2793.66667
3046.388	2776.33333
3048.435	2731.33333
3050.48	2744.66667
3052.524	2725.66667
3054.566	2704
3056.607	2692
3058.647	2631.33333
3060.686	2566
3062.723	2491
3064.759	2412
3066.794	0.66667
3068.828	-2
3070.86	-1.33333
