-0.839	448.20833
3.438	490.875
7.711	134.20833
11.981	48.875
16.247	43.20833
20.509	40.20833
24.768	40.875
29.024	42.875
33.276	35.20833
37.524	48.20833
41.769	35.875
46.01	26.875
50.247	44.54167
54.481	56.20833
58.712	62.20833
62.939	44.54167
67.162	56.20833
71.382	53.54167
75.599	41.875
79.812	53.54167
84.021	73.20833
88.227	53.54167
92.429	53.875
96.628	40.875
100.823	59.20833
105.015	68.54167
109.204	68.20833
113.388	68.875
117.57	59.54167
121.748	77.875
125.922	62.54167
130.093	86.20833
134.261	87.20833
138.425	81.20833
142.585	121.20833
146.742	109.875
150.896	126.875
155.046	158.20833
159.193	242.20833
163.336	417.54167
167.476	755.54167
171.613	1393.54167
175.746	2337.875
179.875	3482.54167
184.002	4528.20833
188.124	5160.20833
192.244	5312.875
196.36	5135.54167
200.472	4903.875
204.581	4599.20833
208.687	4348.875
212.79	4164.20833
216.889	4044.875
220.984	3956.54167
225.077	3850.875
229.165	3768.20833
233.251	3679.875
237.333	3619.20833
241.412	3520.54167
245.487	3461.54167
249.559	3401.875
253.628	3357.20833
257.694	3299.54167
261.756	3262.20833
265.814	3204.54167
269.87	3141.875
273.922	3045.54167
277.97	3037.54167
282.016	3032.20833
286.058	3034.875
290.097	3113.20833
294.132	3126.54167
298.164	3142.54167
302.193	3014.20833
306.219	2812.20833
310.241	2573.20833
314.26	2373.54167
318.276	2173.875
322.288	2041.54167
326.297	1938.20833
330.303	1849.54167
334.305	1815.54167
338.305	1768.54167
342.301	1724.20833
346.294	1702.20833
350.283	1667.20833
354.269	1643.875
358.252	1640.875
362.232	1621.54167
366.209	1601.20833
370.182	1572.54167
374.152	1561.54167
378.119	1559.54167
382.083	1559.875
386.043	1581.875
390	1530.20833
393.954	1536.875
397.905	1515.875
401.852	1525.20833
405.797	1500.875
409.738	1472.20833
413.676	1495.20833
417.61	1473.875
421.542	1463.20833
425.47	1438.20833
429.396	1431.54167
433.318	1426.20833
437.236	1413.54167
441.152	1417.20833
445.065	1385.54167
448.974	1377.20833
452.88	1349.54167
456.783	1356.20833
460.683	1326.875
464.58	1346.54167
468.473	1343.20833
472.364	1358.875
476.251	1371.875
480.135	1364.875
484.016	1391.875
487.894	1396.875
491.769	1416.54167
495.641	1435.54167
499.509	1436.875
503.375	1480.875
507.237	1482.54167
511.096	1569.54167
514.952	1900.875
518.805	2266.54167
522.655	2395.875
526.502	1849.20833
530.346	1526.54167
534.187	1438.875
538.024	1407.20833
541.859	1386.875
545.69	1413.20833
549.519	1378.875
553.344	1355.875
557.166	1325.875
560.985	1340.875
564.802	1328.20833
568.615	1300.875
572.425	1284.875
576.232	1274.875
580.036	1260.875
583.836	1305.20833
587.634	1282.20833
591.429	1273.54167
595.221	1306.875
599.01	1313.54167
602.796	1316.20833
606.578	1327.20833
610.358	1317.54167
614.135	1302.20833
617.909	1320.54167
621.679	1305.875
625.447	1307.20833
629.212	1315.20833
632.973	1303.875
636.732	1294.875
640.488	1294.54167
644.241	1264.54167
647.991	1265.20833
651.737	1288.875
655.481	1266.875
659.222	1266.875
662.96	1243.875
666.695	1287.54167
670.427	1282.20833
674.156	1296.54167
677.882	1297.875
681.605	1302.54167
685.325	1276.54167
689.043	1283.54167
692.757	1270.20833
696.468	1290.875
700.177	1264.20833
703.882	1257.20833
707.585	1257.20833
711.284	1259.54167
714.981	1254.875
718.675	1258.54167
722.366	1270.875
726.054	1249.20833
729.739	1262.20833
733.421	1262.54167
737.1	1259.875
740.777	1280.20833
744.45	1284.20833
748.121	1289.54167
751.789	1324.875
755.453	1301.20833
759.115	1317.875
762.774	1333.20833
766.431	1332.54167
770.084	1334.20833
773.734	1341.54167
777.382	1381.875
781.027	1391.20833
784.669	1396.875
788.308	1396.875
791.944	1410.54167
795.577	1435.54167
799.208	1428.875
802.835	1445.20833
806.46	1429.875
810.082	1451.875
813.701	1437.875
817.317	1464.20833
820.931	1451.875
824.542	1462.20833
828.149	1439.54167
831.754	1451.20833
835.357	1438.875
838.956	1448.875
842.553	1438.875
846.146	1448.54167
849.737	1423.20833
853.326	1429.875
856.911	1435.54167
860.493	1477.20833
864.073	1454.54167
867.65	1499.20833
871.225	1516.875
874.796	1509.54167
878.365	1534.20833
881.931	1529.875
885.494	1585.54167
889.054	1622.54167
892.612	1666.875
896.166	1688.20833
899.719	1687.875
903.268	1639.54167
906.814	1565.875
910.358	1510.20833
913.899	1460.20833
917.438	1468.875
920.973	1455.20833
924.506	1474.54167
928.036	1489.875
931.564	1524.54167
935.088	1530.875
938.61	1555.20833
942.129	1556.875
945.646	1599.875
949.16	1610.20833
952.671	1657.54167
956.179	1652.54167
959.685	1620.875
963.188	1603.875
966.688	1583.54167
970.185	1548.20833
973.68	1522.54167
977.173	1539.20833
980.662	1512.875
984.149	1530.54167
987.633	1507.54167
991.114	1543.875
994.593	1582.875
998.069	1634.54167
1001.542	1684.54167
1005.013	1655.20833
1008.481	1547.54167
1011.947	1503.20833
1015.409	1477.20833
1018.869	1510.875
1022.327	1524.54167
1025.782	1522.20833
1029.234	1526.20833
1032.683	1520.875
1036.13	1453.875
1039.574	1388.20833
1043.016	1347.875
1046.455	1328.54167
1049.891	1305.875
1053.325	1310.54167
1056.756	1308.54167
1060.184	1322.875
1063.61	1327.20833
1067.033	1320.54167
1070.454	1317.875
1073.872	1354.20833
1077.287	1334.54167
1080.7	1350.54167
1084.11	1347.20833
1087.517	1341.875
1090.922	1312.20833
1094.325	1306.54167
1097.724	1294.20833
1101.122	1305.875
1104.516	1302.20833
1107.908	1310.875
1111.298	1342.20833
1114.684	1325.875
1118.069	1354.20833
1121.45	1374.54167
1124.83	1370.54167
1128.206	1390.54167
1131.58	1410.54167
1134.951	1470.54167
1138.32	1509.54167
1141.687	1564.20833
1145.05	1593.54167
1148.412	1599.20833
1151.77	1572.875
1155.126	1575.20833
1158.48	1580.875
1161.831	1582.20833
1165.18	1592.54167
1168.525	1596.20833
1171.869	1626.54167
1175.21	1617.20833
1178.548	1632.20833
1181.884	1649.875
1185.217	1651.54167
1188.548	1685.20833
1191.877	1702.875
1195.202	1758.875
1198.526	1769.54167
1201.846	1782.20833
1205.165	1781.20833
1208.48	1769.54167
1211.794	1797.875
1215.104	1803.20833
1218.413	1815.20833
1221.719	1790.54167
1225.022	1772.20833
1228.323	1751.875
1231.621	1763.875
1234.917	1733.20833
1238.21	1762.875
1241.501	1763.20833
1244.79	1732.875
1248.076	1729.20833
1251.359	1759.875
1254.64	1805.20833
1257.919	1807.875
1261.195	1857.54167
1264.468	1869.20833
1267.74	1895.875
1271.008	1901.20833
1274.275	1880.20833
1277.538	1874.20833
1280.8	1865.875
1284.059	1873.54167
1287.315	1883.20833
1290.569	1905.875
1293.821	1908.20833
1297.07	1925.54167
1300.317	1931.54167
1303.562	1920.20833
1306.803	1913.20833
1310.043	1911.54167
1313.28	1879.20833
1316.515	1883.875
1319.747	1886.54167
1322.977	1879.20833
1326.204	1880.875
1329.429	1860.875
1332.652	1884.20833
1335.872	1868.875
1339.09	1808.875
1342.306	1791.54167
1345.519	1760.20833
1348.729	1721.20833
1351.938	1708.20833
1355.144	1671.54167
1358.347	1656.54167
1361.548	1670.54167
1364.747	1669.54167
1367.944	1631.54167
1371.138	1666.54167
1374.329	1711.875
1377.518	1713.54167
1380.705	1738.875
1383.89	1704.875
1387.072	1671.875
1390.252	1617.54167
1393.429	1608.20833
1396.605	1542.875
1399.777	1528.20833
1402.948	1522.875
1406.116	1521.20833
1409.282	1536.54167
1412.445	1564.875
1415.606	1578.54167
1418.765	1587.54167
1421.921	1613.20833
1425.075	1606.54167
1428.227	1640.875
1431.376	1690.875
1434.524	1754.54167
1437.668	1764.20833
1440.811	1799.20833
1443.951	1837.54167
1447.089	1847.20833
1450.224	1816.20833
1453.357	1796.875
1456.488	1776.875
1459.617	1731.20833
1462.743	1718.54167
1465.867	1652.875
1468.989	1647.875
1472.108	1616.54167
1475.225	1580.875
1478.34	1568.20833
1481.453	1573.54167
1484.563	1574.54167
1487.671	1610.875
1490.776	1616.54167
1493.88	1656.875
1496.981	1681.875
1500.08	1715.54167
1503.176	1723.20833
1506.271	1737.20833
1509.363	1783.54167
1512.452	1783.20833
1515.54	1802.54167
1518.625	1826.54167
1521.708	1885.875
1524.789	1929.54167
1527.867	2002.20833
1530.944	2099.875
1534.018	2215.20833
1537.089	2307.875
1540.159	2338.20833
1543.226	2357.20833
1546.291	2301.20833
1549.354	2264.875
1552.415	2206.54167
1555.473	2139.54167
1558.529	2117.20833
1561.583	2083.54167
1564.634	2055.875
1567.684	2039.875
1570.731	2046.875
1573.776	2060.54167
1576.819	2056.54167
1579.859	2053.875
1582.898	2092.54167
1585.934	2129.875
1588.968	2118.20833
1591.999	2100.54167
1595.029	2122.875
1598.056	2136.20833
1601.081	2145.20833
1604.104	2150.875
1607.125	2114.875
1610.144	2059.20833
1613.16	2019.20833
1616.174	1988.54167
1619.186	1928.54167
1622.196	1895.20833
1625.203	1846.54167
1628.209	1814.54167
1631.212	1831.875
1634.213	1791.20833
1637.212	1785.20833
1640.209	1758.875
1643.203	1728.54167
1646.196	1679.54167
1649.186	1627.20833
1652.174	1615.875
1655.16	1570.875
1658.144	1530.875
1661.125	1484.20833
1664.105	1411.875
1667.082	1378.20833
1670.057	1311.54167
1673.03	1234.54167
1676.001	1143.875
1678.97	1083.54167
1681.937	1024.20833
1684.901	962.54167
1687.863	946.875
1690.824	915.54167
1693.782	893.54167
1696.738	852.875
1699.692	851.875
1702.643	826.54167
1705.593	815.875
1708.54	812.54167
1711.486	806.875
1714.429	783.54167
1717.37	784.875
1720.309	781.54167
1723.246	786.875
1726.181	757.875
1729.113	769.54167
1732.044	755.20833
1734.972	762.20833
1737.899	756.54167
1740.823	749.20833
1743.745	763.875
1746.665	719.20833
1749.583	719.20833
1752.499	702.875
1755.413	697.20833
1758.325	683.875
1761.235	682.54167
1764.142	672.20833
1767.048	666.20833
1769.951	659.875
1772.852	652.54167
1775.752	652.54167
1778.649	665.20833
1781.544	671.875
1784.437	656.54167
1787.328	668.54167
1790.217	653.54167
1793.104	630.20833
1795.989	638.54167
1798.872	638.20833
1801.753	656.20833
1804.631	653.54167
1807.508	654.875
1810.383	632.20833
1813.255	652.54167
1816.126	640.875
1818.994	641.875
1821.861	641.875
1824.725	643.20833
1827.587	643.875
1830.448	642.54167
1833.306	623.20833
1836.162	639.20833
1839.017	630.20833
1841.869	622.875
1844.719	624.20833
1847.567	610.875
1850.414	617.875
1853.258	614.20833
1856.1	639.20833
1858.94	639.875
1861.778	630.54167
1864.614	626.20833
1867.448	634.20833
1870.28	615.20833
1873.111	636.20833
1875.939	635.54167
1878.765	649.20833
1881.589	632.875
1884.411	639.20833
1887.231	634.875
1890.049	636.875
1892.865	638.875
1895.68	619.20833
1898.492	628.20833
1901.302	620.54167
1904.11	634.875
1906.916	633.54167
1909.721	621.875
1912.523	646.875
1915.323	614.54167
1918.122	626.875
1920.918	627.20833
1923.712	615.20833
1926.505	635.20833
1929.295	612.20833
1932.084	642.54167
1934.87	641.875
1937.655	616.54167
1940.438	619.20833
1943.218	622.54167
1945.997	635.875
1948.774	643.54167
1951.549	649.875
1954.322	627.875
1957.093	635.875
1959.862	632.875
1962.629	621.54167
1965.394	626.20833
1968.157	618.875
1970.918	633.875
1973.678	632.54167
1976.435	642.54167
1979.19	628.875
1981.944	629.54167
1984.696	625.54167
1987.445	608.875
1990.193	624.54167
1992.939	647.875
1995.683	637.20833
1998.425	612.875
2001.165	647.54167
2003.903	635.20833
2006.639	638.875
2009.374	642.20833
2012.106	640.54167
2014.837	619.875
2017.566	644.54167
2020.292	646.20833
2023.017	645.875
2025.74	649.20833
2028.461	643.54167
2031.18	645.20833
2033.898	645.875
2036.613	646.54167
2039.327	653.20833
2042.038	625.875
2044.748	639.875
2047.456	646.54167
2050.162	639.20833
2052.866	640.54167
2055.568	664.20833
2058.268	649.54167
2060.967	660.875
2063.663	642.875
2066.358	662.54167
2069.051	646.54167
2071.742	653.54167
2074.431	662.875
2077.118	657.54167
2079.804	644.54167
2082.487	649.875
2085.169	668.20833
2087.849	681.875
2090.527	667.20833
2093.203	686.875
2095.877	677.20833
2098.55	674.875
2101.22	691.54167
2103.889	696.54167
2106.556	680.54167
2109.221	724.54167
2111.884	725.54167
2114.546	781.54167
2117.205	804.20833
2119.863	855.54167
2122.519	886.20833
2125.173	910.20833
2127.825	964.20833
2130.475	953.875
2133.124	916.875
2135.771	887.875
2138.416	873.875
2141.059	837.20833
2143.7	825.875
2146.339	783.54167
2148.977	752.20833
2151.613	774.875
2154.247	755.54167
2156.879	741.875
2159.51	742.20833
2162.138	723.20833
2164.765	723.20833
2167.39	722.875
2170.013	742.54167
2172.634	737.54167
2175.254	729.20833
2177.872	750.875
2180.488	726.54167
2183.102	731.875
2185.714	723.20833
2188.325	708.20833
2190.934	727.20833
2193.541	725.875
2196.146	710.20833
2198.75	717.20833
2201.351	712.875
2203.951	705.20833
2206.549	734.54167
2209.146	725.54167
2211.74	711.875
2214.333	726.20833
2216.924	698.20833
2219.514	721.54167
2222.101	713.54167
2224.687	736.20833
2227.271	717.54167
2229.853	730.20833
2232.433	720.54167
2235.012	736.20833
2237.589	728.20833
2240.164	735.54167
2242.738	743.875
2245.309	738.20833
2247.879	750.20833
2250.448	740.54167
2253.014	722.875
2255.579	733.54167
2258.142	730.20833
2260.703	720.20833
2263.262	727.875
2265.82	721.54167
2268.376	745.20833
2270.93	726.875
2273.483	728.54167
2276.033	745.875
2278.583	724.875
2281.13	726.54167
2283.675	733.54167
2286.219	739.20833
2288.761	748.875
2291.302	755.54167
2293.841	755.875
2296.377	731.20833
2298.913	761.875
2301.446	769.875
2303.978	769.54167
2306.508	770.20833
2309.037	766.54167
2311.563	764.54167
2314.088	775.875
2316.612	764.20833
2319.133	777.875
2321.653	778.20833
2324.171	776.54167
2326.688	776.875
2329.202	773.875
2331.715	786.54167
2334.227	773.54167
2336.736	785.54167
2339.244	788.54167
2341.751	778.54167
2344.255	800.54167
2346.758	792.20833
2349.259	788.875
2351.759	795.54167
2354.257	797.20833
2356.753	798.20833
2359.247	808.54167
2361.74	823.54167
2364.231	796.875
2366.721	823.20833
2369.209	805.875
2371.695	824.20833
2374.179	823.54167
2376.662	822.54167
2379.143	846.54167
2381.622	841.20833
2384.1	853.20833
2386.576	837.875
2389.051	860.20833
2391.524	866.20833
2393.995	854.875
2396.464	837.20833
2398.932	843.54167
2401.398	866.875
2403.863	860.54167
2406.325	846.20833
2408.787	869.54167
2411.246	862.875
2413.704	863.54167
2416.16	864.20833
2418.615	881.54167
2421.068	901.20833
2423.519	878.20833
2425.969	886.54167
2428.417	903.875
2430.863	918.54167
2433.308	904.20833
2435.751	896.54167
2438.193	911.20833
2440.633	906.20833
2443.071	918.54167
2445.508	900.875
2447.943	923.20833
2450.376	908.54167
2452.808	925.54167
2455.238	924.875
2457.667	947.54167
2460.093	937.20833
2462.519	929.875
2464.942	933.20833
2467.365	960.54167
2469.785	950.20833
2472.204	944.875
2474.621	939.875
2477.037	973.20833
2479.451	945.20833
2481.863	954.875
2484.274	956.20833
2486.683	973.20833
2489.091	975.20833
2491.497	974.20833
2493.901	982.875
2496.304	987.20833
2498.705	1000.20833
2501.105	986.54167
2503.503	1018.20833
2505.899	990.20833
2508.294	1023.54167
2510.687	1000.54167
2513.079	1012.875
2515.469	1000.875
2517.858	1006.54167
2520.245	1030.54167
2522.63	1027.875
2525.014	1025.20833
2527.396	1023.54167
2529.776	1018.54167
2532.156	1024.54167
2534.533	1027.875
2536.909	1032.875
2539.283	1041.54167
2541.656	1044.20833
2544.027	1071.54167
2546.397	1058.20833
2548.765	1068.54167
2551.131	1060.875
2553.496	1062.20833
2555.86	1079.875
2558.221	1070.875
2560.582	1064.875
2562.94	1073.54167
2565.298	1082.875
2567.653	1106.875
2570.007	1073.20833
2572.36	1095.875
2574.711	1098.875
2577.06	1126.875
2579.408	1114.54167
2581.754	1124.20833
2584.099	1125.875
2586.442	1125.54167
2588.784	1124.20833
2591.124	1128.875
2593.463	1139.20833
2595.8	1129.875
2598.135	1134.875
2600.469	1155.20833
2602.802	1170.54167
2605.133	1152.875
2607.462	1138.20833
2609.79	1167.54167
2612.116	1164.875
2614.441	1180.54167
2616.764	1176.20833
2619.086	1178.875
2621.406	1172.20833
2623.725	1209.54167
2626.042	1190.54167
2628.358	1200.875
2630.672	1201.875
2632.985	1224.875
2635.296	1228.54167
2637.606	1229.875
2639.914	1221.54167
2642.22	1224.20833
2644.525	1247.875
2646.829	1245.54167
2649.131	1271.875
2651.432	1272.54167
2653.731	1269.20833
2656.028	1271.875
2658.324	1282.54167
2660.619	1287.20833
2662.912	1305.20833
2665.204	1284.20833
2667.494	1305.20833
2669.782	1297.20833
2672.07	1308.20833
2674.355	1315.20833
2676.639	1298.875
2678.922	1311.20833
2681.203	1318.54167
2683.483	1309.20833
2685.761	1304.54167
2688.038	1325.54167
2690.313	1342.54167
2692.587	1330.20833
2694.859	1325.875
2697.13	1346.54167
2699.399	1351.54167
2701.667	1361.20833
2703.933	1358.20833
2706.198	1351.54167
2708.461	1378.20833
2710.723	1394.20833
2712.984	1384.875
2715.243	1402.875
2717.5	1409.20833
2719.757	1410.20833
2722.011	1412.20833
2724.264	1423.875
2726.516	1451.20833
2728.766	1420.875
2731.015	1446.875
2733.262	1446.54167
2735.508	1460.875
2737.753	1455.875
2739.996	1432.20833
2742.237	1439.875
2744.477	1447.20833
2746.716	1458.20833
2748.953	1453.20833
2751.189	1462.875
2753.423	1423.20833
2755.656	1457.20833
2757.887	1437.20833
2760.117	1464.20833
2762.346	1454.875
2764.573	1447.875
2766.798	1449.875
2769.022	1469.20833
2771.245	1467.875
2773.467	1474.20833
2775.686	1480.54167
2777.905	1492.20833
2780.122	1500.875
2782.337	1499.875
2784.552	1518.875
2786.764	1508.20833
2788.976	1533.875
2791.186	1539.54167
2793.394	1530.20833
2795.601	1557.54167
2797.807	1558.875
2800.011	1570.875
2802.214	1584.875
2804.415	1584.54167
2806.615	1577.54167
2808.814	1594.20833
2811.011	1592.20833
2813.206	1586.20833
2815.401	1598.20833
2817.594	1602.54167
2819.785	1620.54167
2821.975	1606.54167
2824.164	1607.875
2826.351	1635.54167
2828.537	1656.54167
2830.722	1657.54167
2832.905	1657.54167
2835.086	1684.20833
2837.267	1707.875
2839.445	1733.20833
2841.623	1736.54167
2843.799	1757.20833
2845.974	1777.54167
2848.147	1799.54167
2850.319	1793.20833
2852.489	1850.875
2854.659	1835.20833
2856.826	1886.20833
2858.993	1891.54167
2861.158	1887.20833
2863.321	1889.20833
2865.483	1911.20833
2867.644	1899.875
2869.804	1901.54167
2871.962	1891.54167
2874.118	1892.20833
2876.274	1873.54167
2878.428	1874.54167
2880.58	1878.875
2882.731	1872.20833
2884.881	1881.54167
2887.03	1865.20833
2889.177	1870.54167
2891.322	1895.54167
2893.467	1883.20833
2895.61	1897.20833
2897.751	1934.54167
2899.892	1928.20833
2902.03	1913.20833
2904.168	1932.20833
2906.304	1951.54167
2908.439	1975.875
2910.572	1958.20833
2912.704	1973.20833
2914.835	1991.54167
2916.965	1982.54167
2919.093	1981.875
2921.219	1970.54167
2923.345	1976.54167
2925.469	1980.20833
2927.591	1953.20833
2929.712	1922.20833
2931.832	1948.875
2933.951	1910.875
2936.068	1898.54167
2938.184	1873.875
2940.299	1856.20833
2942.412	1841.54167
2944.524	1828.875
2946.634	1839.54167
2948.744	1788.54167
2950.851	1860.875
2952.958	1820.54167
2955.063	1817.875
2957.167	1813.20833
2959.269	1813.54167
2961.371	1835.875
2963.471	1811.54167
2965.569	1824.54167
2967.666	1830.20833
2969.762	1807.20833
2971.857	1785.20833
2973.95	1783.20833
2976.042	1777.54167
2978.133	1754.20833
2980.222	1725.20833
2982.31	1699.54167
2984.396	1698.875
2986.482	1683.875
2988.566	1695.875
2990.648	1689.875
2992.73	1699.20833
2994.81	1682.20833
2996.889	1697.54167
2998.966	1674.54167
3001.042	1693.54167
3003.117	1701.54167
3005.191	1695.875
3007.263	1701.20833
3009.334	1688.54167
3011.403	1654.54167
3013.472	1649.875
3015.539	1633.54167
3017.604	1625.54167
3019.669	1583.54167
3021.732	1586.875
3023.794	1603.875
3025.854	1573.20833
3027.914	1594.20833
3029.971	1606.20833
3032.028	1592.54167
3034.083	1596.875
3036.137	1562.54167
3038.19	1525.20833
3040.242	1479.20833
3042.292	1468.875
3044.341	1440.54167
3046.388	1447.20833
3048.435	1401.875
3050.48	1441.875
3052.524	1426.875
3054.566	1399.20833
3056.607	1392.54167
3058.647	1382.54167
3060.686	1335.20833
3062.723	1289.875
3064.759	1262.20833
3066.794	0.20833
3068.828	0.20833
3070.86	-2.45833
