-0.839	284.25
3.438	297.58333
7.711	90.58333
11.981	47.58333
16.247	40.25
20.509	37.25
24.768	34.91667
29.024	43.91667
33.276	37.58333
37.524	42.91667
41.769	32.91667
46.01	29.58333
50.247	41.25
54.481	59.25
58.712	61.58333
62.939	42.58333
67.162	52.91667
71.382	50.25
75.599	42.91667
79.812	57.25
84.021	73.91667
88.227	53.25
92.429	48.91667
96.628	38.91667
100.823	53.91667
105.015	59.58333
109.204	61.25
113.388	63.25
117.57	55.91667
121.748	70.25
125.922	56.58333
130.093	76.25
134.261	74.25
138.425	64.91667
142.585	106.58333
146.742	91.25
150.896	103.58333
155.046	113.25
159.193	185.58333
163.336	294.25
167.476	525.58333
171.613	988.25
175.746	1634.58333
179.875	2414.25
184.002	3153.58333
188.124	3660.91667
192.244	3785.25
196.36	3714.58333
200.472	3579.58333
204.581	3473.25
208.687	3274.58333
212.79	3195.58333
216.889	3156.58333
220.984	3134.91667
225.077	3089.25
229.165	3070.91667
233.251	3025.58333
237.333	2974.91667
241.412	2961.58333
245.487	2912.58333
249.559	2863.91667
253.628	2858.58333
257.694	2820.91667
261.756	2800.58333
265.814	2785.58333
269.87	2734.58333
273.922	2722.25
277.97	2742.25
282.016	2779.25
286.058	2838.25
290.097	2914.25
294.132	2961.91667
298.164	2948.25
302.193	2839.25
306.219	2665.91667
310.241	2467.25
314.26	2227.25
318.276	2059.25
322.288	1942.25
326.297	1824.91667
330.303	1752.91667
334.305	1694.91667
338.305	1647.25
342.301	1635.25
346.294	1608.91667
350.283	1576.25
354.269	1567.91667
358.252	1558.25
362.232	1529.91667
366.209	1528.25
370.182	1508.25
374.152	1497.91667
378.119	1478.91667
382.083	1462.58333
386.043	1489.25
390	1447.25
393.954	1460.25
397.905	1450.58333
401.852	1452.91667
405.797	1422.91667
409.738	1401.91667
413.676	1427.25
417.61	1432.25
421.542	1419.91667
425.47	1400.25
429.396	1384.25
433.318	1384.91667
437.236	1376.58333
441.152	1385.25
445.065	1350.58333
448.974	1352.91667
452.88	1330.91667
456.783	1326.58333
460.683	1319.25
464.58	1334.58333
468.473	1331.25
472.364	1339.58333
476.251	1350.91667
480.135	1360.58333
484.016	1387.58333
487.894	1395.25
491.769	1404.58333
495.641	1420.91667
499.509	1428.91667
503.375	1469.25
507.237	1497.58333
511.096	1616.91667
514.952	2115.25
518.805	2700.58333
522.655	2866.25
526.502	2076.58333
530.346	1549.25
534.187	1440.58333
538.024	1399.58333
541.859	1380.91667
545.69	1366.58333
549.519	1363.25
553.344	1343.91667
557.166	1320.58333
560.985	1311.58333
564.802	1302.58333
568.615	1292.91667
572.425	1265.58333
576.232	1278.91667
580.036	1275.91667
583.836	1288.25
587.634	1279.25
591.429	1262.58333
595.221	1307.25
599.01	1293.58333
602.796	1290.58333
606.578	1323.25
610.358	1312.91667
614.135	1306.91667
617.909	1300.58333
621.679	1298.58333
625.447	1291.25
629.212	1290.91667
632.973	1298.25
636.732	1281.58333
640.488	1294.25
644.241	1269.91667
647.991	1270.25
651.737	1288.58333
655.481	1257.25
659.222	1262.58333
662.96	1253.58333
666.695	1275.25
670.427	1281.58333
674.156	1284.25
677.882	1275.25
681.605	1303.91667
685.325	1266.25
689.043	1286.25
692.757	1261.25
696.468	1275.58333
700.177	1269.25
703.882	1256.91667
707.585	1272.25
711.284	1253.58333
714.981	1258.25
718.675	1283.25
722.366	1292.91667
726.054	1265.58333
729.739	1263.58333
733.421	1264.91667
737.1	1251.58333
740.777	1269.25
744.45	1271.58333
748.121	1298.58333
751.789	1312.91667
755.453	1298.91667
759.115	1288.58333
762.774	1310.91667
766.431	1320.91667
770.084	1328.25
773.734	1335.25
777.382	1360.25
781.027	1375.25
784.669	1357.25
788.308	1377.91667
791.944	1395.58333
795.577	1414.91667
799.208	1422.25
802.835	1418.25
806.46	1424.25
810.082	1428.58333
813.701	1414.25
817.317	1440.25
820.931	1436.25
824.542	1436.91667
828.149	1425.91667
831.754	1417.58333
835.357	1414.58333
838.956	1419.91667
842.553	1409.25
846.146	1417.25
849.737	1405.58333
853.326	1417.25
856.911	1398.25
860.493	1433.91667
864.073	1432.58333
867.65	1474.25
871.225	1479.91667
874.796	1483.58333
878.365	1494.25
881.931	1500.91667
885.494	1548.91667
889.054	1553.91667
892.612	1585.91667
896.166	1589.25
899.719	1582.91667
903.268	1545.91667
906.814	1511.25
910.358	1463.58333
913.899	1453.58333
917.438	1455.58333
920.973	1435.91667
924.506	1462.91667
928.036	1489.91667
931.564	1512.91667
935.088	1543.25
938.61	1530.91667
942.129	1556.58333
945.646	1594.91667
949.16	1625.58333
952.671	1644.91667
956.179	1636.58333
959.685	1601.25
963.188	1586.91667
966.688	1570.91667
970.185	1517.25
973.68	1500.58333
977.173	1506.91667
980.662	1477.25
984.149	1476.25
987.633	1453.58333
991.114	1460.91667
994.593	1481.58333
998.069	1517.91667
1001.542	1548.25
1005.013	1522.58333
1008.481	1455.91667
1011.947	1442.25
1015.409	1426.91667
1018.869	1450.25
1022.327	1441.25
1025.782	1426.58333
1029.234	1433.58333
1032.683	1411.25
1036.13	1371.58333
1039.574	1323.58333
1043.016	1304.91667
1046.455	1271.58333
1049.891	1261.58333
1053.325	1259.58333
1056.756	1273.25
1060.184	1275.91667
1063.61	1276.91667
1067.033	1298.58333
1070.454	1297.91667
1073.872	1318.91667
1077.287	1302.58333
1080.7	1316.91667
1084.11	1319.25
1087.517	1303.91667
1090.922	1288.91667
1094.325	1275.91667
1097.724	1273.58333
1101.122	1285.25
1104.516	1278.58333
1107.908	1271.25
1111.298	1311.91667
1114.684	1319.58333
1118.069	1320.58333
1121.45	1345.58333
1124.83	1335.91667
1128.206	1358.25
1131.58	1385.58333
1134.951	1420.25
1138.32	1451.58333
1141.687	1495.58333
1145.05	1508.91667
1148.412	1513.25
1151.77	1513.25
1155.126	1504.91667
1158.48	1497.91667
1161.831	1517.58333
1165.18	1522.91667
1168.525	1541.25
1171.869	1565.58333
1175.21	1562.58333
1178.548	1590.58333
1181.884	1612.91667
1185.217	1605.25
1188.548	1650.58333
1191.877	1673.25
1195.202	1727.58333
1198.526	1748.58333
1201.846	1751.25
1205.165	1763.25
1208.48	1757.58333
1211.794	1774.58333
1215.104	1766.91667
1218.413	1785.91667
1221.719	1793.91667
1225.022	1743.58333
1228.323	1732.25
1231.621	1717.91667
1234.917	1705.25
1238.21	1740.58333
1241.501	1720.58333
1244.79	1709.91667
1248.076	1704.91667
1251.359	1736.58333
1254.64	1774.58333
1257.919	1770.91667
1261.195	1793.91667
1264.468	1819.58333
1267.74	1833.58333
1271.008	1854.58333
1274.275	1850.58333
1277.538	1842.58333
1280.8	1841.58333
1284.059	1843.25
1287.315	1856.25
1290.569	1852.91667
1293.821	1861.25
1297.07	1879.91667
1300.317	1891.25
1303.562	1897.91667
1306.803	1856.58333
1310.043	1860.58333
1313.28	1825.58333
1316.515	1820.25
1319.747	1834.91667
1322.977	1815.91667
1326.204	1811.58333
1329.429	1796.58333
1332.652	1816.58333
1335.872	1810.25
1339.09	1765.58333
1342.306	1756.91667
1345.519	1718.91667
1348.729	1684.58333
1351.938	1653.25
1355.144	1598.58333
1358.347	1598.91667
1361.548	1627.25
1364.747	1604.58333
1367.944	1575.25
1371.138	1599.91667
1374.329	1610.58333
1377.518	1596.91667
1380.705	1644.25
1383.89	1633.25
1387.072	1591.58333
1390.252	1553.58333
1393.429	1524.91667
1396.605	1503.91667
1399.777	1476.91667
1402.948	1501.91667
1406.116	1484.58333
1409.282	1518.25
1412.445	1506.25
1415.606	1558.91667
1418.765	1556.58333
1421.921	1577.58333
1425.075	1588.25
1428.227	1612.91667
1431.376	1676.58333
1434.524	1701.25
1437.668	1742.25
1440.811	1755.58333
1443.951	1764.25
1447.089	1780.58333
1450.224	1764.25
1453.357	1746.25
1456.488	1740.58333
1459.617	1718.25
1462.743	1691.58333
1465.867	1631.58333
1468.989	1637.58333
1472.108	1631.58333
1475.225	1579.91667
1478.34	1577.91667
1481.453	1571.58333
1484.563	1567.91667
1487.671	1607.25
1490.776	1601.25
1493.88	1632.58333
1496.981	1686.91667
1500.08	1676.91667
1503.176	1715.25
1506.271	1713.91667
1509.363	1731.58333
1512.452	1768.91667
1515.54	1778.25
1518.625	1833.91667
1521.708	1858.91667
1524.789	1929.91667
1527.867	1982.91667
1530.944	2071.25
1534.018	2139.58333
1537.089	2232.91667
1540.159	2263.58333
1543.226	2259.58333
1546.291	2210.25
1549.354	2181.25
1552.415	2128.25
1555.473	2066.91667
1558.529	2020.25
1561.583	2000.91667
1564.634	1984.25
1567.684	1971.25
1570.731	1947.25
1573.776	1965.58333
1576.819	1971.25
1579.859	1972.58333
1582.898	1989.25
1585.934	2010.58333
1588.968	2028.91667
1591.999	2020.25
1595.029	2023.58333
1598.056	2035.25
1601.081	2061.58333
1604.104	2073.58333
1607.125	2018.91667
1610.144	1970.25
1613.16	1943.91667
1616.174	1919.91667
1619.186	1866.25
1622.196	1811.58333
1625.203	1771.25
1628.209	1760.58333
1631.212	1719.25
1634.213	1718.91667
1637.212	1707.25
1640.209	1662.91667
1643.203	1602.25
1646.196	1591.58333
1649.186	1530.91667
1652.174	1529.58333
1655.16	1472.25
1658.144	1462.25
1661.125	1425.91667
1664.105	1361.58333
1667.082	1331.91667
1670.057	1285.58333
1673.03	1226.91667
1676.001	1180.25
1678.97	1121.58333
1681.937	1089.58333
1684.901	1029.58333
1687.863	1016.91667
1690.824	975.25
1693.782	988.25
1696.738	942.25
1699.692	941.25
1702.643	932.25
1705.593	914.25
1708.54	909.58333
1711.486	915.58333
1714.429	900.58333
1717.37	904.25
1720.309	878.25
1723.246	896.91667
1726.181	868.25
1729.113	892.91667
1732.044	873.58333
1734.972	870.25
1737.899	882.58333
1740.823	878.58333
1743.745	901.25
1746.665	853.58333
1749.583	856.91667
1752.499	843.91667
1755.413	849.58333
1758.325	830.91667
1761.235	847.25
1764.142	818.25
1767.048	824.58333
1769.951	819.58333
1772.852	820.58333
1775.752	822.58333
1778.649	834.91667
1781.544	834.25
1784.437	809.91667
1787.328	820.25
1790.217	829.91667
1793.104	812.25
1795.989	817.58333
1798.872	805.91667
1801.753	846.25
1804.631	835.25
1807.508	841.25
1810.383	836.25
1813.255	838.91667
1816.126	830.91667
1818.994	844.58333
1821.861	837.58333
1824.725	839.58333
1827.587	839.58333
1830.448	832.91667
1833.306	816.58333
1836.162	844.58333
1839.017	837.58333
1841.869	840.91667
1844.719	848.25
1847.567	837.25
1850.414	828.91667
1853.258	832.91667
1856.1	849.58333
1858.94	872.91667
1861.778	853.25
1864.614	842.25
1867.448	860.58333
1870.28	851.58333
1873.111	862.91667
1875.939	867.58333
1878.765	888.91667
1881.589	875.91667
1884.411	877.58333
1887.231	886.91667
1890.049	882.58333
1892.865	889.58333
1895.68	884.25
1898.492	878.91667
1901.302	889.25
1904.11	888.91667
1906.916	882.91667
1909.721	888.58333
1912.523	903.91667
1915.323	872.58333
1918.122	902.91667
1920.918	902.91667
1923.712	897.58333
1926.505	912.25
1929.295	889.25
1932.084	913.58333
1934.87	910.91667
1937.655	910.25
1940.438	909.25
1943.218	920.91667
1945.997	931.25
1948.774	953.25
1951.549	940.58333
1954.322	935.91667
1957.093	952.91667
1959.862	944.91667
1962.629	947.91667
1965.394	942.91667
1968.157	927.58333
1970.918	964.58333
1973.678	967.58333
1976.435	966.25
1979.19	948.91667
1981.944	962.58333
1984.696	961.58333
1987.445	948.58333
1990.193	963.58333
1992.939	985.91667
1995.683	979.91667
1998.425	974.58333
2001.165	1004.91667
2003.903	999.58333
2006.639	990.58333
2009.374	996.91667
2012.106	1014.91667
2014.837	988.25
2017.566	1008.25
2020.292	1017.25
2023.017	1039.58333
2025.74	1016.58333
2028.461	1032.58333
2031.18	1037.25
2033.898	1038.91667
2036.613	1050.25
2039.327	1059.25
2042.038	1049.25
2044.748	1046.58333
2047.456	1057.58333
2050.162	1059.25
2052.866	1054.91667
2055.568	1083.58333
2058.268	1067.25
2060.967	1074.25
2063.663	1058.91667
2066.358	1094.91667
2069.051	1070.25
2071.742	1090.25
2074.431	1108.58333
2077.118	1106.58333
2079.804	1093.58333
2082.487	1110.58333
2085.169	1138.25
2087.849	1150.91667
2090.527	1136.91667
2093.203	1155.58333
2095.877	1160.91667
2098.55	1174.91667
2101.22	1171.91667
2103.889	1203.25
2106.556	1193.58333
2109.221	1226.91667
2111.884	1239.25
2114.546	1295.58333
2117.205	1316.25
2119.863	1370.91667
2122.519	1378.58333
2125.173	1419.25
2127.825	1477.58333
2130.475	1458.25
2133.124	1431.25
2135.771	1399.58333
2138.416	1392.91667
2141.059	1365.58333
2143.7	1356.91667
2146.339	1306.91667
2148.977	1302.25
2151.613	1314.25
2154.247	1322.58333
2156.879	1308.91667
2159.51	1296.91667
2162.138	1295.25
2164.765	1304.58333
2167.39	1302.58333
2170.013	1319.58333
2172.634	1316.25
2175.254	1325.91667
2177.872	1365.58333
2180.488	1332.25
2183.102	1344.91667
2185.714	1330.58333
2188.325	1321.91667
2190.934	1336.91667
2193.541	1327.91667
2196.146	1355.91667
2198.75	1342.58333
2201.351	1355.91667
2203.951	1344.58333
2206.549	1367.58333
2209.146	1352.25
2211.74	1363.58333
2214.333	1366.25
2216.924	1381.91667
2219.514	1389.58333
2222.101	1382.91667
2224.687	1415.25
2227.271	1407.91667
2229.853	1413.58333
2232.433	1394.58333
2235.012	1426.91667
2237.589	1431.25
2240.164	1460.25
2242.738	1462.91667
2245.309	1435.58333
2247.879	1468.25
2250.448	1483.91667
2253.014	1457.25
2255.579	1454.58333
2258.142	1470.58333
2260.703	1446.91667
2263.262	1482.25
2265.82	1488.91667
2268.376	1487.25
2270.93	1506.58333
2273.483	1505.91667
2276.033	1523.91667
2278.583	1522.91667
2281.13	1526.91667
2283.675	1518.25
2286.219	1544.91667
2288.761	1562.91667
2291.302	1561.91667
2293.841	1575.91667
2296.377	1545.91667
2298.913	1575.25
2301.446	1594.25
2303.978	1594.25
2306.508	1599.25
2309.037	1607.58333
2311.563	1619.25
2314.088	1638.91667
2316.612	1616.25
2319.133	1659.25
2321.653	1639.58333
2324.171	1657.58333
2326.688	1666.58333
2329.202	1707.91667
2331.715	1728.91667
2334.227	1678.58333
2336.736	1676.25
2339.244	1682.58333
2341.751	1662.58333
2344.255	1706.25
2346.758	1721.25
2349.259	1713.58333
2351.759	1733.58333
2354.257	1750.58333
2356.753	1761.58333
2359.247	1764.58333
2361.74	1773.25
2364.231	1779.58333
2366.721	1800.25
2369.209	1789.25
2371.695	1799.25
2374.179	1804.58333
2376.662	1814.25
2379.143	1848.25
2381.622	1843.25
2384.1	1852.25
2386.576	1871.25
2389.051	1883.91667
2391.524	1904.58333
2393.995	1902.58333
2396.464	1896.25
2398.932	1908.91667
2401.398	1925.91667
2403.863	1908.91667
2406.325	1931.58333
2408.787	1938.91667
2411.246	1962.25
2413.704	1962.91667
2416.16	1977.25
2418.615	1975.25
2421.068	2031.25
2423.519	2023.58333
2425.969	2012.91667
2428.417	2045.25
2430.863	2075.91667
2433.308	2065.91667
2435.751	2055.58333
2438.193	2060.58333
2440.633	2090.91667
2443.071	2095.91667
2445.508	2088.58333
2447.943	2080.91667
2450.376	2102.25
2452.808	2122.25
2455.238	2134.91667
2457.667	2180.58333
2460.093	2164.58333
2462.519	2155.91667
2464.942	2181.25
2467.365	2209.91667
2469.785	2213.25
2472.204	2192.25
2474.621	2211.58333
2477.037	2264.58333
2479.451	2231.91667
2481.863	2224.25
2484.274	2263.91667
2486.683	2265.91667
2489.091	2279.58333
2491.497	2276.58333
2493.901	2286.91667
2496.304	2297.58333
2498.705	2318.58333
2501.105	2326.91667
2503.503	2360.91667
2505.899	2344.58333
2508.294	2380.25
2510.687	2381.25
2513.079	2377.25
2515.469	2385.58333
2517.858	2395.25
2520.245	2421.91667
2522.63	2412.25
2525.014	2426.25
2527.396	2445.91667
2529.776	2442.25
2532.156	2466.58333
2534.533	2462.25
2536.909	2468.58333
2539.283	2486.58333
2541.656	2524.91667
2544.027	2544.91667
2546.397	2542.91667
2548.765	2548.91667
2551.131	2546.58333
2553.496	2568.25
2555.86	2567.91667
2558.221	2573.91667
2560.582	2597.91667
2562.94	2598.25
2565.298	2621.91667
2567.653	2627.58333
2570.007	2621.25
2572.36	2668.91667
2574.711	2648.91667
2577.06	2698.91667
2579.408	2709.91667
2581.754	2692.91667
2584.099	2724.91667
2586.442	2716.25
2588.784	2748.58333
2591.124	2745.58333
2593.463	2770.25
2595.8	2773.25
2598.135	2766.58333
2600.469	2804.91667
2602.802	2813.58333
2605.133	2823.91667
2607.462	2789.91667
2609.79	2824.25
2612.116	2825.25
2614.441	2874.91667
2616.764	2893.25
2619.086	2884.58333
2621.406	2914.91667
2623.725	2925.91667
2626.042	2924.91667
2628.358	2944.25
2630.672	2940.58333
2632.985	2977.91667
2635.296	3010.25
2637.606	3020.91667
2639.914	3016.91667
2642.22	3042.91667
2644.525	3054.58333
2646.829	3056.91667
2649.131	3096.25
2651.432	3093.91667
2653.731	3113.91667
2656.028	3167.91667
2658.324	3170.58333
2660.619	3162.25
2662.912	3182.25
2665.204	3186.58333
2667.494	3206.25
2669.782	3180.91667
2672.07	3214.58333
2674.355	3237.58333
2676.639	3205.58333
2678.922	3226.25
2681.203	3243.91667
2683.483	3229.91667
2685.761	3235.58333
2688.038	3281.25
2690.313	3310.58333
2692.587	3278.25
2694.859	3295.58333
2697.13	3310.25
2699.399	3350.58333
2701.667	3364.58333
2703.933	3354.58333
2706.198	3369.25
2708.461	3389.58333
2710.723	3406.25
2712.984	3421.25
2715.243	3451.91667
2717.5	3446.58333
2719.757	3502.91667
2722.011	3494.58333
2724.264	3508.25
2726.516	3559.91667
2728.766	3552.58333
2731.015	3584.58333
2733.262	3595.58333
2735.508	3585.25
2737.753	3594.58333
2739.996	3600.91667
2742.237	3584.25
2744.477	3595.58333
2746.716	3607.58333
2748.953	3569.58333
2751.189	3565.91667
2753.423	3597.58333
2755.656	3618.91667
2757.887	3598.91667
2760.117	3608.25
2762.346	3644.25
2764.573	3599.58333
2766.798	3640.91667
2769.022	3667.91667
2771.245	3638.91667
2773.467	3691.91667
2775.686	3694.91667
2777.905	3723.91667
2780.122	3745.25
2782.337	3749.25
2784.552	3753.58333
2786.764	3786.91667
2788.976	3798.25
2791.186	3806.58333
2793.394	3855.25
2795.601	3877.25
2797.807	3904.91667
2800.011	3929.25
2802.214	3923.25
2804.415	3918.91667
2806.615	3939.91667
2808.814	3957.58333
2811.011	3940.25
2813.206	3939.91667
2815.401	3963.91667
2817.594	3948.91667
2819.785	3959.25
2821.975	3945.91667
2824.164	3924.91667
2826.351	3984.25
2828.537	3985.25
2830.722	3997.58333
2832.905	4035.91667
2835.086	4058.91667
2837.267	4074.25
2839.445	4110.58333
2841.623	4131.25
2843.799	4120.58333
2845.974	4162.58333
2848.147	4196.58333
2850.319	4209.58333
2852.489	4242.91667
2854.659	4252.91667
2856.826	4286.25
2858.993	4290.58333
2861.158	4284.91667
2863.321	4300.91667
2865.483	4332.91667
2867.644	4323.91667
2869.804	4322.91667
2871.962	4322.91667
2874.118	4280.58333
2876.274	4262.25
2878.428	4276.58333
2880.58	4251.91667
2882.731	4215.91667
2884.881	4234.58333
2887.03	4226.91667
2889.177	4232.91667
2891.322	4248.58333
2893.467	4284.25
2895.61	4301.58333
2897.751	4321.25
2899.892	4321.91667
2902.03	4352.58333
2904.168	4387.91667
2906.304	4391.58333
2908.439	4441.25
2910.572	4423.25
2912.704	4464.58333
2914.835	4495.58333
2916.965	4484.25
2919.093	4505.58333
2921.219	4475.91667
2923.345	4488.25
2925.469	4477.91667
2927.591	4440.25
2929.712	4430.91667
2931.832	4404.91667
2933.951	4377.25
2936.068	4353.91667
2938.184	4332.58333
2940.299	4336.25
2942.412	4306.58333
2944.524	4301.25
2946.634	4288.91667
2948.744	4289.58333
2950.851	4347.58333
2952.958	4314.91667
2955.063	4336.25
2957.167	4362.25
2959.269	4338.58333
2961.371	4430.25
2963.471	4409.25
2965.569	4385.58333
2967.666	4390.58333
2969.762	4353.91667
2971.857	4355.91667
2973.95	4310.58333
2976.042	4297.91667
2978.133	4267.91667
2980.222	4217.25
2982.31	4189.91667
2984.396	4152.58333
2986.482	4160.25
2988.566	4167.58333
2990.648	4162.58333
2992.73	4182.91667
2994.81	4165.58333
2996.889	4189.58333
2998.966	4208.91667
3001.042	4242.91667
3003.117	4252.58333
3005.191	4213.91667
3007.263	4247.58333
3009.334	4184.25
3011.403	4159.25
3013.472	4080.58333
3015.539	4063.91667
3017.604	4064.58333
3019.669	4006.25
3021.732	3963.91667
3023.794	4006.91667
3025.854	4002.91667
3027.914	3999.58333
3029.971	4024.58333
3032.028	4007.58333
3034.083	3991.58333
3036.137	3921.91667
3038.19	3841.58333
3040.242	3752.25
3042.292	3712.91667
3044.341	3651.58333
3046.388	3653.91667
3048.435	3609.25
3050.48	3581.91667
3052.524	3577.58333
3054.566	3534.58333
3056.607	3540.25
3058.647	3482.91667
3060.686	3387.25
3062.723	3287.91667
3064.759	3163.91667
3066.794	2.58333
3068.828	-0.75
3070.86	-2.41667
