-0.839	286.08333
3.438	300.75
7.711	88.41667
11.981	46.08333
16.247	39.08333
20.509	39.41667
24.768	38.41667
29.024	39.75
33.276	38.41667
37.524	42.75
41.769	36.75
46.01	29.41667
50.247	45.41667
54.481	57.08333
58.712	60.75
62.939	41.75
67.162	55.08333
71.382	48.75
75.599	39.41667
79.812	54.75
84.021	71.41667
88.227	50.08333
92.429	52.41667
96.628	38.08333
100.823	53.08333
105.015	64.75
109.204	65.08333
113.388	65.41667
117.57	56.75
121.748	73.08333
125.922	59.41667
130.093	77.75
134.261	74.41667
138.425	73.41667
142.585	104.41667
146.742	94.08333
150.896	107.41667
155.046	121.08333
159.193	184.08333
163.336	306.08333
167.476	542.75
171.613	992.75
175.746	1660.41667
179.875	2434.75
184.002	3192.75
188.124	3708.08333
192.244	3822.41667
196.36	3748.41667
200.472	3628.41667
204.581	3520.75
208.687	3350.41667
212.79	3264.08333
216.889	3215.75
220.984	3209.08333
225.077	3184.08333
229.165	3136.08333
233.251	3104.41667
237.333	3075.08333
241.412	3040.08333
245.487	2982.08333
249.559	2945.75
253.628	2930.08333
257.694	2887.08333
261.756	2893.08333
265.814	2880.41667
269.87	2822.08333
273.922	2790.41667
277.97	2822.41667
282.016	2836.08333
286.058	2893.41667
290.097	2983.41667
294.132	3049.08333
298.164	3022.41667
302.193	2926.41667
306.219	2754.08333
310.241	2537.41667
314.26	2330.75
318.276	2153.08333
322.288	2021.41667
326.297	1910.41667
330.303	1830.75
334.305	1792.08333
338.305	1754.41667
342.301	1704.75
346.294	1698.08333
350.283	1691.41667
354.269	1663.75
358.252	1647.08333
362.232	1632.08333
366.209	1635.75
370.182	1598.08333
374.152	1590.41667
378.119	1593.08333
382.083	1573.41667
386.043	1601.08333
390	1558.75
393.954	1561.41667
397.905	1553.75
401.852	1555.75
405.797	1537.41667
409.738	1525.75
413.676	1535.41667
417.61	1527.41667
421.542	1521.75
425.47	1500.75
429.396	1495.75
433.318	1486.41667
437.236	1484.75
441.152	1504.08333
445.065	1459.08333
448.974	1461.75
452.88	1425.75
456.783	1434.75
460.683	1424.41667
464.58	1433.75
468.473	1460.41667
472.364	1458.41667
476.251	1472.08333
480.135	1485.08333
484.016	1482.41667
487.894	1505.08333
491.769	1520.75
495.641	1539.41667
499.509	1559.08333
503.375	1582.75
507.237	1601.08333
511.096	1737.41667
514.952	2235.41667
518.805	2804.75
522.655	2979.75
526.502	2192.41667
530.346	1661.41667
534.187	1559.75
538.024	1519.08333
541.859	1470.08333
545.69	1486.75
549.519	1473.41667
553.344	1451.41667
557.166	1421.75
560.985	1417.75
564.802	1408.41667
568.615	1404.75
572.425	1379.75
576.232	1392.75
580.036	1374.08333
583.836	1395.41667
587.634	1392.75
591.429	1384.08333
595.221	1404.41667
599.01	1404.41667
602.796	1423.75
606.578	1429.41667
610.358	1426.75
614.135	1416.75
617.909	1437.75
621.679	1415.08333
625.447	1393.08333
629.212	1411.41667
632.973	1414.08333
636.732	1394.08333
640.488	1408.41667
644.241	1364.41667
647.991	1371.41667
651.737	1401.08333
655.481	1373.75
659.222	1372.41667
662.96	1372.75
666.695	1395.75
670.427	1365.08333
674.156	1409.41667
677.882	1398.08333
681.605	1404.41667
685.325	1394.75
689.043	1401.75
692.757	1387.08333
696.468	1402.41667
700.177	1374.41667
703.882	1343.41667
707.585	1366.41667
711.284	1368.41667
714.981	1369.08333
718.675	1379.41667
722.366	1381.41667
726.054	1369.75
729.739	1373.75
733.421	1370.75
737.1	1359.08333
740.777	1379.08333
744.45	1382.75
748.121	1389.75
751.789	1422.75
755.453	1398.75
759.115	1412.75
762.774	1421.41667
766.431	1425.75
770.084	1426.41667
773.734	1435.08333
777.382	1459.75
781.027	1467.41667
784.669	1484.41667
788.308	1462.08333
791.944	1488.08333
795.577	1504.75
799.208	1526.08333
802.835	1518.41667
806.46	1511.75
810.082	1534.75
813.701	1516.75
817.317	1535.41667
820.931	1537.08333
824.542	1534.08333
828.149	1514.41667
831.754	1488.75
835.357	1504.08333
838.956	1511.08333
842.553	1493.41667
846.146	1518.08333
849.737	1480.08333
853.326	1486.41667
856.911	1490.41667
860.493	1501.08333
864.073	1508.75
867.65	1540.08333
871.225	1568.08333
874.796	1563.08333
878.365	1568.41667
881.931	1575.41667
885.494	1611.41667
889.054	1610.08333
892.612	1666.41667
896.166	1670.08333
899.719	1650.75
903.268	1629.08333
906.814	1584.75
910.358	1555.41667
913.899	1520.41667
917.438	1536.41667
920.973	1498.75
924.506	1539.08333
928.036	1565.41667
931.564	1576.08333
935.088	1624.41667
938.61	1612.41667
942.129	1624.41667
945.646	1665.75
949.16	1680.75
952.671	1705.75
956.179	1709.75
959.685	1675.08333
963.188	1654.41667
966.688	1642.75
970.185	1598.75
973.68	1590.41667
977.173	1573.41667
980.662	1538.75
984.149	1549.75
987.633	1533.75
991.114	1542.75
994.593	1574.75
998.069	1609.41667
1001.542	1624.75
1005.013	1600.75
1008.481	1527.08333
1011.947	1516.08333
1015.409	1497.75
1018.869	1518.41667
1022.327	1514.75
1025.782	1514.41667
1029.234	1501.08333
1032.683	1498.75
1036.13	1445.41667
1039.574	1415.75
1043.016	1394.08333
1046.455	1358.08333
1049.891	1328.08333
1053.325	1342.75
1056.756	1333.41667
1060.184	1350.08333
1063.61	1354.41667
1067.033	1368.41667
1070.454	1364.41667
1073.872	1400.41667
1077.287	1368.41667
1080.7	1383.75
1084.11	1386.08333
1087.517	1376.41667
1090.922	1372.75
1094.325	1352.41667
1097.724	1332.08333
1101.122	1353.08333
1104.516	1346.41667
1107.908	1342.08333
1111.298	1352.41667
1114.684	1372.08333
1118.069	1390.75
1121.45	1408.41667
1124.83	1404.08333
1128.206	1425.41667
1131.58	1430.41667
1134.951	1478.75
1138.32	1512.08333
1141.687	1557.41667
1145.05	1566.41667
1148.412	1573.75
1151.77	1555.75
1155.126	1573.75
1158.48	1552.75
1161.831	1574.08333
1165.18	1576.75
1168.525	1605.41667
1171.869	1605.41667
1175.21	1606.75
1178.548	1635.75
1181.884	1650.08333
1185.217	1652.41667
1188.548	1706.41667
1191.877	1718.75
1195.202	1759.75
1198.526	1797.41667
1201.846	1791.41667
1205.165	1814.41667
1208.48	1805.08333
1211.794	1817.08333
1215.104	1819.08333
1218.413	1825.75
1221.719	1835.75
1225.022	1796.08333
1228.323	1753.08333
1231.621	1784.08333
1234.917	1770.08333
1238.21	1784.41667
1241.501	1756.08333
1244.79	1772.08333
1248.076	1767.41667
1251.359	1787.08333
1254.64	1847.08333
1257.919	1801.08333
1261.195	1847.75
1264.468	1857.75
1267.74	1878.08333
1271.008	1907.75
1274.275	1912.08333
1277.538	1885.75
1280.8	1888.08333
1284.059	1877.75
1287.315	1898.75
1290.569	1926.41667
1293.821	1928.08333
1297.07	1921.08333
1300.317	1930.41667
1303.562	1935.41667
1306.803	1913.75
1310.043	1921.08333
1313.28	1879.75
1316.515	1876.08333
1319.747	1876.75
1322.977	1868.75
1326.204	1853.08333
1329.429	1864.75
1332.652	1868.41667
1335.872	1853.41667
1339.09	1815.75
1342.306	1812.41667
1345.519	1766.75
1348.729	1718.75
1351.938	1708.08333
1355.144	1686.08333
1358.347	1658.41667
1361.548	1662.75
1364.747	1670.08333
1367.944	1634.08333
1371.138	1647.75
1374.329	1648.75
1377.518	1654.41667
1380.705	1688.08333
1383.89	1681.75
1387.072	1644.75
1390.252	1618.75
1393.429	1600.75
1396.605	1570.08333
1399.777	1532.08333
1402.948	1545.75
1406.116	1535.08333
1409.282	1571.08333
1412.445	1578.08333
1415.606	1612.08333
1418.765	1605.75
1421.921	1628.41667
1425.075	1631.75
1428.227	1661.41667
1431.376	1707.75
1434.524	1755.41667
1437.668	1789.75
1440.811	1803.41667
1443.951	1815.75
1447.089	1844.75
1450.224	1823.41667
1453.357	1785.08333
1456.488	1770.41667
1459.617	1753.08333
1462.743	1722.08333
1465.867	1689.41667
1468.989	1689.08333
1472.108	1663.75
1475.225	1634.08333
1478.34	1606.75
1481.453	1620.41667
1484.563	1613.41667
1487.671	1630.08333
1490.776	1640.08333
1493.88	1634.75
1496.981	1694.08333
1500.08	1725.75
1503.176	1718.41667
1506.271	1739.75
1509.363	1770.41667
1512.452	1782.75
1515.54	1808.75
1518.625	1835.75
1521.708	1864.08333
1524.789	1940.75
1527.867	1999.41667
1530.944	2103.08333
1534.018	2188.41667
1537.089	2258.08333
1540.159	2289.41667
1543.226	2255.75
1546.291	2213.08333
1549.354	2182.41667
1552.415	2154.41667
1555.473	2065.75
1558.529	2043.41667
1561.583	2013.08333
1564.634	1974.08333
1567.684	1965.75
1570.731	1981.41667
1573.776	1986.75
1576.819	1977.08333
1579.859	1986.75
1582.898	2009.75
1585.934	2023.41667
1588.968	2022.41667
1591.999	1992.08333
1595.029	2003.08333
1598.056	2055.41667
1601.081	2052.41667
1604.104	2060.08333
1607.125	2038.08333
1610.144	2002.41667
1613.16	1964.75
1616.174	1916.75
1619.186	1883.75
1622.196	1831.41667
1625.203	1794.08333
1628.209	1791.75
1631.212	1775.08333
1634.213	1767.08333
1637.212	1749.75
1640.209	1696.08333
1643.203	1665.08333
1646.196	1621.08333
1649.186	1572.41667
1652.174	1560.41667
1655.16	1523.75
1658.144	1511.41667
1661.125	1451.75
1664.105	1398.08333
1667.082	1372.08333
1670.057	1306.08333
1673.03	1254.75
1676.001	1201.41667
1678.97	1158.41667
1681.937	1106.08333
1684.901	1072.08333
1687.863	1050.08333
1690.824	1002.75
1693.782	1003.75
1696.738	981.08333
1699.692	964.08333
1702.643	940.75
1705.593	954.08333
1708.54	932.41667
1711.486	932.41667
1714.429	931.08333
1717.37	938.75
1720.309	904.41667
1723.246	926.08333
1726.181	900.08333
1729.113	909.08333
1732.044	915.41667
1734.972	901.75
1737.899	915.08333
1740.823	907.08333
1743.745	935.41667
1746.665	893.75
1749.583	891.08333
1752.499	884.08333
1755.413	866.75
1758.325	856.08333
1761.235	869.08333
1764.142	856.41667
1767.048	849.75
1769.951	839.41667
1772.852	853.41667
1775.752	853.08333
1778.649	855.41667
1781.544	859.08333
1784.437	837.75
1787.328	852.08333
1790.217	842.75
1793.104	834.75
1795.989	831.08333
1798.872	848.41667
1801.753	867.41667
1804.631	855.41667
1807.508	864.41667
1810.383	864.08333
1813.255	866.41667
1816.126	859.41667
1818.994	861.41667
1821.861	856.08333
1824.725	850.08333
1827.587	868.75
1830.448	859.75
1833.306	836.75
1836.162	866.75
1839.017	855.41667
1841.869	866.41667
1844.719	864.08333
1847.567	861.41667
1850.414	848.41667
1853.258	854.08333
1856.1	857.08333
1858.94	882.75
1861.778	867.75
1864.614	874.75
1867.448	876.75
1870.28	875.41667
1873.111	902.08333
1875.939	886.08333
1878.765	896.41667
1881.589	891.75
1884.411	901.75
1887.231	900.75
1890.049	902.08333
1892.865	896.41667
1895.68	894.75
1898.492	901.41667
1901.302	893.75
1904.11	902.75
1906.916	898.75
1909.721	900.41667
1912.523	905.08333
1915.323	882.08333
1918.122	905.08333
1920.918	922.08333
1923.712	897.41667
1926.505	923.75
1929.295	901.41667
1932.084	917.41667
1934.87	940.75
1937.655	930.08333
1940.438	918.41667
1943.218	924.08333
1945.997	942.75
1948.774	957.08333
1951.549	949.08333
1954.322	942.41667
1957.093	954.08333
1959.862	950.75
1962.629	961.75
1965.394	957.75
1968.157	950.41667
1970.918	968.08333
1973.678	957.08333
1976.435	978.08333
1979.19	959.08333
1981.944	958.75
1984.696	949.08333
1987.445	972.08333
1990.193	982.75
1992.939	1007.41667
1995.683	998.41667
1998.425	959.41667
2001.165	1004.08333
2003.903	989.41667
2006.639	1000.75
2009.374	1001.41667
2012.106	1013.41667
2014.837	997.08333
2017.566	1012.75
2020.292	1021.08333
2023.017	1040.08333
2025.74	1029.08333
2028.461	1030.08333
2031.18	1045.08333
2033.898	1026.08333
2036.613	1055.41667
2039.327	1045.75
2042.038	1037.75
2044.748	1055.41667
2047.456	1054.75
2050.162	1039.41667
2052.866	1055.08333
2055.568	1073.08333
2058.268	1055.41667
2060.967	1084.41667
2063.663	1075.08333
2066.358	1081.75
2069.051	1073.75
2071.742	1089.08333
2074.431	1104.08333
2077.118	1102.08333
2079.804	1102.75
2082.487	1104.08333
2085.169	1135.08333
2087.849	1140.08333
2090.527	1122.75
2093.203	1154.75
2095.877	1162.41667
2098.55	1155.41667
2101.22	1186.41667
2103.889	1189.75
2106.556	1190.41667
2109.221	1221.41667
2111.884	1230.08333
2114.546	1252.41667
2117.205	1297.08333
2119.863	1349.75
2122.519	1379.08333
2125.173	1402.41667
2127.825	1442.75
2130.475	1449.41667
2133.124	1405.41667
2135.771	1390.08333
2138.416	1384.41667
2141.059	1341.41667
2143.7	1334.75
2146.339	1310.08333
2148.977	1273.75
2151.613	1312.41667
2154.247	1283.08333
2156.879	1277.08333
2159.51	1287.75
2162.138	1262.08333
2164.765	1300.41667
2167.39	1277.08333
2170.013	1306.75
2172.634	1302.75
2175.254	1299.41667
2177.872	1336.75
2180.488	1296.75
2183.102	1309.08333
2185.714	1304.75
2188.325	1309.75
2190.934	1327.08333
2193.541	1326.08333
2196.146	1318.75
2198.75	1313.41667
2201.351	1330.75
2203.951	1317.75
2206.549	1356.08333
2209.146	1331.08333
2211.74	1333.41667
2214.333	1358.08333
2216.924	1339.41667
2219.514	1366.75
2222.101	1343.75
2224.687	1368.41667
2227.271	1372.41667
2229.853	1381.08333
2232.433	1384.08333
2235.012	1416.75
2237.589	1413.08333
2240.164	1423.75
2242.738	1421.08333
2245.309	1423.75
2247.879	1425.08333
2250.448	1464.75
2253.014	1433.08333
2255.579	1424.41667
2258.142	1438.08333
2260.703	1423.41667
2263.262	1434.75
2265.82	1452.41667
2268.376	1473.08333
2270.93	1456.41667
2273.483	1463.08333
2276.033	1497.75
2278.583	1482.08333
2281.13	1483.75
2283.675	1478.08333
2286.219	1489.41667
2288.761	1510.41667
2291.302	1524.75
2293.841	1526.41667
2296.377	1516.75
2298.913	1540.75
2301.446	1575.41667
2303.978	1563.08333
2306.508	1563.41667
2309.037	1574.41667
2311.563	1584.41667
2314.088	1593.75
2316.612	1574.08333
2319.133	1618.41667
2321.653	1609.08333
2324.171	1600.08333
2326.688	1620.41667
2329.202	1623.08333
2331.715	1641.08333
2334.227	1632.08333
2336.736	1652.08333
2339.244	1645.75
2341.751	1640.41667
2344.255	1670.41667
2346.758	1668.08333
2349.259	1675.41667
2351.759	1690.08333
2354.257	1702.41667
2356.753	1690.08333
2359.247	1715.08333
2361.74	1726.75
2364.231	1726.75
2366.721	1733.08333
2369.209	1737.75
2371.695	1743.08333
2374.179	1755.08333
2376.662	1777.75
2379.143	1803.08333
2381.622	1787.75
2384.1	1798.41667
2386.576	1814.75
2389.051	1826.08333
2391.524	1838.08333
2393.995	1849.08333
2396.464	1834.41667
2398.932	1864.41667
2401.398	1868.41667
2403.863	1871.75
2406.325	1861.08333
2408.787	1882.08333
2411.246	1908.41667
2413.704	1891.41667
2416.16	1905.41667
2418.615	1922.41667
2421.068	1950.08333
2423.519	1962.41667
2425.969	1950.41667
2428.417	1983.08333
2430.863	1993.08333
2433.308	1992.41667
2435.751	1984.75
2438.193	2007.08333
2440.633	2016.08333
2443.071	2024.75
2445.508	2016.75
2447.943	2044.41667
2450.376	2038.75
2452.808	2061.08333
2455.238	2059.08333
2457.667	2107.08333
2460.093	2099.75
2462.519	2081.41667
2464.942	2124.08333
2467.365	2108.41667
2469.785	2128.75
2472.204	2141.08333
2474.621	2125.41667
2477.037	2169.75
2479.451	2154.08333
2481.863	2162.41667
2484.274	2175.75
2486.683	2206.75
2489.091	2197.41667
2491.497	2217.75
2493.901	2216.75
2496.304	2232.08333
2498.705	2255.75
2501.105	2245.41667
2503.503	2296.08333
2505.899	2257.41667
2508.294	2311.75
2510.687	2291.08333
2513.079	2304.41667
2515.469	2311.75
2517.858	2314.75
2520.245	2348.41667
2522.63	2334.75
2525.014	2350.75
2527.396	2347.75
2529.776	2361.41667
2532.156	2363.41667
2534.533	2377.08333
2536.909	2384.08333
2539.283	2398.41667
2541.656	2406.75
2544.027	2443.08333
2546.397	2453.75
2548.765	2454.75
2551.131	2431.41667
2553.496	2477.41667
2555.86	2489.08333
2558.221	2486.75
2560.582	2502.41667
2562.94	2478.08333
2565.298	2530.41667
2567.653	2545.08333
2570.007	2527.41667
2572.36	2567.41667
2574.711	2562.08333
2577.06	2601.08333
2579.408	2610.41667
2581.754	2608.41667
2584.099	2635.41667
2586.442	2619.41667
2588.784	2640.75
2591.124	2656.75
2593.463	2653.75
2595.8	2696.41667
2598.135	2696.41667
2600.469	2688.75
2602.802	2721.75
2605.133	2738.41667
2607.462	2734.08333
2609.79	2736.41667
2612.116	2765.75
2614.441	2768.08333
2616.764	2781.08333
2619.086	2778.08333
2621.406	2778.41667
2623.725	2818.08333
2626.042	2835.08333
2628.358	2824.41667
2630.672	2854.08333
2632.985	2883.75
2635.296	2880.75
2637.606	2892.08333
2639.914	2919.08333
2642.22	2933.75
2644.525	2941.41667
2646.829	2949.41667
2649.131	2988.41667
2651.432	2986.75
2653.731	3032.41667
2656.028	3047.41667
2658.324	3044.41667
2660.619	3066.41667
2662.912	3078.08333
2665.204	3058.75
2667.494	3087.75
2669.782	3085.75
2672.07	3106.75
2674.355	3109.75
2676.639	3102.75
2678.922	3088.75
2681.203	3142.08333
2683.483	3118.75
2685.761	3131.75
2688.038	3153.41667
2690.313	3158.41667
2692.587	3182.08333
2694.859	3170.41667
2697.13	3179.41667
2699.399	3196.75
2701.667	3221.41667
2703.933	3256.08333
2706.198	3240.75
2708.461	3278.08333
2710.723	3290.75
2712.984	3306.41667
2715.243	3318.41667
2717.5	3309.41667
2719.757	3350.75
2722.011	3345.08333
2724.264	3407.08333
2726.516	3418.75
2728.766	3431.75
2731.015	3462.08333
2733.262	3462.41667
2735.508	3480.41667
2737.753	3462.08333
2739.996	3461.41667
2742.237	3480.08333
2744.477	3487.08333
2746.716	3477.08333
2748.953	3458.08333
2751.189	3502.08333
2753.423	3475.08333
2755.656	3474.08333
2757.887	3471.08333
2760.117	3492.08333
2762.346	3495.41667
2764.573	3487.41667
2766.798	3493.08333
2769.022	3519.08333
2771.245	3535.75
2773.467	3544.41667
2775.686	3528.75
2777.905	3577.08333
2780.122	3568.41667
2782.337	3612.41667
2784.552	3621.41667
2786.764	3622.41667
2788.976	3671.08333
2791.186	3690.41667
2793.394	3702.08333
2795.601	3714.75
2797.807	3750.08333
2800.011	3740.08333
2802.214	3786.41667
2804.415	3792.75
2806.615	3796.41667
2808.814	3795.75
2811.011	3782.41667
2813.206	3784.08333
2815.401	3787.41667
2817.594	3813.08333
2819.785	3789.75
2821.975	3793.75
2824.164	3795.08333
2826.351	3826.75
2828.537	3855.75
2830.722	3866.08333
2832.905	3855.41667
2835.086	3893.08333
2837.267	3923.75
2839.445	3950.75
2841.623	3959.41667
2843.799	3990.75
2845.974	4013.08333
2848.147	4026.08333
2850.319	4049.41667
2852.489	4074.08333
2854.659	4106.08333
2856.826	4125.75
2858.993	4139.08333
2861.158	4144.41667
2863.321	4124.08333
2865.483	4176.41667
2867.644	4195.08333
2869.804	4151.41667
2871.962	4149.41667
2874.118	4144.75
2876.274	4131.08333
2878.428	4113.08333
2880.58	4100.08333
2882.731	4090.75
2884.881	4089.75
2887.03	4101.75
2889.177	4087.75
2891.322	4118.41667
2893.467	4087.08333
2895.61	4135.08333
2897.751	4153.41667
2899.892	4174.08333
2902.03	4221.75
2904.168	4225.75
2906.304	4227.75
2908.439	4261.41667
2910.572	4263.41667
2912.704	4288.41667
2914.835	4306.75
2916.965	4296.75
2919.093	4347.41667
2921.219	4323.08333
2923.345	4319.41667
2925.469	4291.41667
2927.591	4290.75
2929.712	4263.08333
2931.832	4217.75
2933.951	4192.41667
2936.068	4178.08333
2938.184	4199.75
2940.299	4145.41667
2942.412	4157.41667
2944.524	4128.75
2946.634	4157.75
2948.744	4120.08333
2950.851	4175.08333
2952.958	4157.08333
2955.063	4165.41667
2957.167	4206.08333
2959.269	4198.08333
2961.371	4259.41667
2963.471	4213.41667
2965.569	4217.41667
2967.666	4218.41667
2969.762	4210.08333
2971.857	4210.75
2973.95	4166.08333
2976.042	4127.75
2978.133	4099.41667
2980.222	4086.41667
2982.31	4022.75
2984.396	4007.75
2986.482	4010.41667
2988.566	4024.08333
2990.648	4022.41667
2992.73	4034.41667
2994.81	4014.08333
2996.889	4040.08333
2998.966	4054.41667
3001.042	4073.75
3003.117	4060.75
3005.191	4093.08333
3007.263	4051.08333
3009.334	4036.41667
3011.403	4027.75
3013.472	3936.75
3015.539	3909.41667
3017.604	3897.41667
3019.669	3851.41667
3021.732	3818.75
3023.794	3845.75
3025.854	3823.08333
3027.914	3866.41667
3029.971	3887.75
3032.028	3891.08333
3034.083	3849.75
3036.137	3772.75
3038.19	3709.75
3040.242	3624.08333
3042.292	3579.08333
3044.341	3519.08333
3046.388	3505.08333
3048.435	3444.08333
3050.48	3454.75
3052.524	3455.41667
3054.566	3411.41667
3056.607	3401.08333
3058.647	3359.08333
3060.686	3266.41667
3062.723	3151.08333
3064.759	3051.75
3066.794	3.08333
3068.828	-1.58333
3070.86	0.41667
