-0.839	424.375
3.438	442.04167
7.711	124.04167
11.981	50.375
16.247	42.375
20.509	38.70833
24.768	41.04167
29.024	44.70833
33.276	36.04167
37.524	45.70833
41.769	38.375
46.01	33.375
50.247	48.04167
54.481	58.70833
58.712	65.375
62.939	46.04167
67.162	55.70833
71.382	51.375
75.599	42.04167
79.812	60.04167
84.021	76.375
88.227	51.04167
92.429	56.375
96.628	41.04167
100.823	60.04167
105.015	69.04167
109.204	69.375
113.388	68.04167
117.57	65.375
121.748	80.375
125.922	72.04167
130.093	84.375
134.261	93.375
138.425	82.04167
142.585	126.375
146.742	116.04167
150.896	143.70833
155.046	167.04167
159.193	271.04167
163.336	456.375
167.476	842.04167
171.613	1531.375
175.746	2530.70833
179.875	3790.70833
184.002	4922.04167
188.124	5677.375
192.244	5896.375
196.36	5793.70833
200.472	5519.375
204.581	5281.70833
208.687	5055.04167
212.79	4934.375
216.889	4875.70833
220.984	4800.375
225.077	4774.04167
229.165	4750.70833
233.251	4681.70833
237.333	4622.70833
241.412	4539.04167
245.487	4467.70833
249.559	4432.70833
253.628	4382.375
257.694	4326.375
261.756	4282.375
265.814	4200.04167
269.87	4116.04167
273.922	4041.375
277.97	4066.70833
282.016	4073.04167
286.058	4121.375
290.097	4190.70833
294.132	4256.70833
298.164	4194.375
302.193	4036.70833
306.219	3750.04167
310.241	3410.375
314.26	3140.04167
318.276	2892.70833
322.288	2710.04167
326.297	2565.70833
330.303	2456.375
334.305	2389.375
338.305	2333.04167
342.301	2284.70833
346.294	2264.375
350.283	2211.70833
354.269	2198.375
358.252	2172.70833
362.232	2159.70833
366.209	2125.04167
370.182	2130.70833
374.152	2101.04167
378.119	2099.375
382.083	2088.04167
386.043	2106.04167
390	2063.375
393.954	2061.04167
397.905	2039.375
401.852	2019.375
405.797	2007.04167
409.738	1982.04167
413.676	1961.04167
417.61	1965.375
421.542	1931.70833
425.47	1940.375
429.396	1905.04167
433.318	1890.70833
437.236	1877.04167
441.152	1886.375
445.065	1852.70833
448.974	1846.04167
452.88	1846.375
456.783	1819.70833
460.683	1801.04167
464.58	1807.04167
468.473	1815.70833
472.364	1820.375
476.251	1810.70833
480.135	1839.375
484.016	1859.375
487.894	1864.04167
491.769	1874.04167
495.641	1909.04167
499.509	1921.70833
503.375	1952.375
507.237	1976.375
511.096	2093.70833
514.952	2565.375
518.805	3068.04167
522.655	3235.70833
526.502	2502.70833
530.346	2016.70833
534.187	1911.70833
538.024	1878.375
541.859	1856.375
545.69	1884.04167
549.519	1854.70833
553.344	1818.375
557.166	1786.70833
560.985	1784.04167
564.802	1762.04167
568.615	1737.04167
572.425	1706.375
576.232	1707.04167
580.036	1709.70833
583.836	1734.375
587.634	1718.375
591.429	1710.70833
595.221	1770.70833
599.01	1765.04167
602.796	1780.375
606.578	1785.375
610.358	1809.04167
614.135	1776.375
617.909	1764.375
621.679	1766.70833
625.447	1761.375
629.212	1766.04167
632.973	1787.04167
636.732	1746.375
640.488	1768.375
644.241	1743.375
647.991	1731.04167
651.737	1743.70833
655.481	1714.70833
659.222	1714.70833
662.96	1705.04167
666.695	1737.70833
670.427	1728.375
674.156	1764.04167
677.882	1745.04167
681.605	1754.04167
685.325	1731.04167
689.043	1730.04167
692.757	1718.04167
696.468	1725.70833
700.177	1738.04167
703.882	1732.375
707.585	1735.375
711.284	1736.70833
714.981	1730.70833
718.675	1733.375
722.366	1757.04167
726.054	1726.70833
729.739	1730.375
733.421	1749.70833
737.1	1729.70833
740.777	1751.70833
744.45	1765.375
748.121	1781.375
751.789	1814.375
755.453	1799.04167
759.115	1801.70833
762.774	1825.04167
766.431	1829.70833
770.084	1841.375
773.734	1852.04167
777.382	1903.70833
781.027	1932.70833
784.669	1917.04167
788.308	1920.70833
791.944	1965.70833
795.577	1969.70833
799.208	1982.375
802.835	1981.70833
806.46	1989.375
810.082	2016.375
813.701	2008.70833
817.317	2011.04167
820.931	2012.70833
824.542	2017.375
828.149	1996.375
831.754	1979.70833
835.357	1991.70833
838.956	1976.04167
842.553	1983.375
846.146	1987.04167
849.737	1962.70833
853.326	1990.70833
856.911	1984.04167
860.493	2018.70833
864.073	2039.375
867.65	2063.70833
871.225	2113.70833
874.796	2112.04167
878.365	2109.04167
881.931	2129.70833
885.494	2152.375
889.054	2179.375
892.612	2251.70833
896.166	2263.70833
899.719	2231.70833
903.268	2182.70833
906.814	2128.70833
910.358	2084.375
913.899	2043.375
917.438	2017.04167
920.973	2034.70833
924.506	2044.375
928.036	2074.04167
931.564	2117.375
935.088	2154.04167
938.61	2154.375
942.129	2181.70833
945.646	2223.70833
949.16	2260.70833
952.671	2304.04167
956.179	2280.70833
959.685	2261.04167
963.188	2234.04167
966.688	2175.375
970.185	2147.04167
973.68	2108.375
977.173	2124.375
980.662	2105.70833
984.149	2104.04167
987.633	2088.04167
991.114	2135.04167
994.593	2187.70833
998.069	2243.375
1001.542	2303.04167
1005.013	2253.04167
1008.481	2134.04167
1011.947	2090.375
1015.409	2092.04167
1018.869	2089.04167
1022.327	2115.375
1025.782	2081.70833
1029.234	2085.375
1032.683	2091.04167
1036.13	2035.375
1039.574	1937.04167
1043.016	1876.375
1046.455	1841.04167
1049.891	1805.70833
1053.325	1834.70833
1056.756	1832.375
1060.184	1847.04167
1063.61	1830.04167
1067.033	1869.04167
1070.454	1863.70833
1073.872	1901.04167
1077.287	1870.04167
1080.7	1893.375
1084.11	1894.70833
1087.517	1890.70833
1090.922	1856.70833
1094.325	1832.375
1097.724	1819.375
1101.122	1814.70833
1104.516	1828.70833
1107.908	1828.375
1111.298	1851.70833
1114.684	1876.70833
1118.069	1885.04167
1121.45	1895.70833
1124.83	1894.70833
1128.206	1931.70833
1131.58	1966.70833
1134.951	1999.04167
1138.32	2066.04167
1141.687	2113.70833
1145.05	2142.375
1148.412	2165.375
1151.77	2156.04167
1155.126	2154.375
1158.48	2138.375
1161.831	2161.375
1165.18	2169.375
1168.525	2197.375
1171.869	2228.375
1175.21	2242.04167
1178.548	2256.04167
1181.884	2267.70833
1185.217	2279.375
1188.548	2319.70833
1191.877	2368.70833
1195.202	2434.04167
1198.526	2476.04167
1201.846	2473.375
1205.165	2468.04167
1208.48	2486.375
1211.794	2447.375
1215.104	2466.70833
1218.413	2496.04167
1221.719	2478.375
1225.022	2444.375
1228.323	2422.70833
1231.621	2446.70833
1234.917	2426.375
1238.21	2469.375
1241.501	2431.70833
1244.79	2446.04167
1248.076	2429.70833
1251.359	2468.375
1254.64	2511.70833
1257.919	2515.375
1261.195	2535.04167
1264.468	2574.04167
1267.74	2617.375
1271.008	2588.375
1274.275	2596.04167
1277.538	2567.70833
1280.8	2580.04167
1284.059	2567.375
1287.315	2607.375
1290.569	2610.70833
1293.821	2636.375
1297.07	2650.70833
1300.317	2664.04167
1303.562	2669.375
1306.803	2617.375
1310.043	2633.375
1313.28	2572.04167
1316.515	2579.70833
1319.747	2554.04167
1322.977	2532.04167
1326.204	2525.70833
1329.429	2520.70833
1332.652	2501.04167
1335.872	2499.70833
1339.09	2447.375
1342.306	2436.375
1345.519	2387.70833
1348.729	2359.04167
1351.938	2344.70833
1355.144	2277.375
1358.347	2281.70833
1361.548	2291.375
1364.747	2285.04167
1367.944	2269.375
1371.138	2308.375
1374.329	2337.70833
1377.518	2335.70833
1380.705	2376.70833
1383.89	2340.375
1387.072	2293.04167
1390.252	2233.04167
1393.429	2188.70833
1396.605	2138.70833
1399.777	2100.375
1402.948	2097.375
1406.116	2100.375
1409.282	2125.375
1412.445	2141.375
1415.606	2167.70833
1418.765	2172.04167
1421.921	2207.70833
1425.075	2222.375
1428.227	2281.70833
1431.376	2345.375
1434.524	2416.04167
1437.668	2458.375
1440.811	2483.04167
1443.951	2504.04167
1447.089	2517.04167
1450.224	2506.70833
1453.357	2466.04167
1456.488	2434.70833
1459.617	2379.70833
1462.743	2357.375
1465.867	2298.04167
1468.989	2313.04167
1472.108	2230.04167
1475.225	2195.04167
1478.34	2147.375
1481.453	2137.70833
1484.563	2148.70833
1487.671	2187.70833
1490.776	2220.375
1493.88	2254.375
1496.981	2285.70833
1500.08	2345.04167
1503.176	2352.04167
1506.271	2398.375
1509.363	2425.375
1512.452	2454.04167
1515.54	2498.04167
1518.625	2549.375
1521.708	2627.375
1524.789	2712.375
1527.867	2859.04167
1530.944	3016.375
1534.018	3165.04167
1537.089	3268.04167
1540.159	3324.04167
1543.226	3289.70833
1546.291	3199.375
1549.354	3117.375
1552.415	3025.04167
1555.473	2941.04167
1558.529	2883.70833
1561.583	2873.04167
1564.634	2793.04167
1567.684	2795.70833
1570.731	2768.04167
1573.776	2796.70833
1576.819	2801.375
1579.859	2803.375
1582.898	2849.375
1585.934	2841.70833
1588.968	2858.70833
1591.999	2842.04167
1595.029	2860.04167
1598.056	2887.375
1601.081	2916.70833
1604.104	2918.04167
1607.125	2884.375
1610.144	2832.70833
1613.16	2743.04167
1616.174	2689.375
1619.186	2634.375
1622.196	2571.70833
1625.203	2494.375
1628.209	2443.70833
1631.212	2424.04167
1634.213	2404.70833
1637.212	2367.375
1640.209	2337.375
1643.203	2290.375
1646.196	2204.70833
1649.186	2155.70833
1652.174	2132.04167
1655.16	2066.70833
1658.144	2036.70833
1661.125	1938.70833
1664.105	1903.375
1667.082	1824.04167
1670.057	1739.04167
1673.03	1647.70833
1676.001	1558.04167
1678.97	1484.04167
1681.937	1415.375
1684.901	1348.70833
1687.863	1330.70833
1690.824	1278.375
1693.782	1288.04167
1696.738	1203.70833
1699.692	1214.04167
1702.643	1169.04167
1705.593	1166.70833
1708.54	1158.04167
1711.486	1160.375
1714.429	1136.04167
1717.37	1140.375
1720.309	1118.04167
1723.246	1129.70833
1726.181	1092.375
1729.113	1114.70833
1732.044	1092.375
1734.972	1094.70833
1737.899	1093.70833
1740.823	1087.375
1743.745	1093.70833
1746.665	1061.70833
1749.583	1047.375
1752.499	1046.70833
1755.413	1026.70833
1758.325	1006.04167
1761.235	1006.04167
1764.142	982.375
1767.048	998.375
1769.951	981.70833
1772.852	984.375
1775.752	990.04167
1778.649	985.70833
1781.544	987.70833
1784.437	957.375
1787.328	983.375
1790.217	974.375
1793.104	969.375
1795.989	959.70833
1798.872	951.70833
1801.753	979.375
1804.631	985.375
1807.508	988.70833
1810.383	979.375
1813.255	983.375
1816.126	954.70833
1818.994	965.70833
1821.861	961.70833
1824.725	977.04167
1827.587	967.04167
1830.448	958.70833
1833.306	946.04167
1836.162	963.70833
1839.017	950.375
1841.869	965.70833
1844.719	945.70833
1847.567	941.04167
1850.414	943.375
1853.258	953.70833
1856.1	967.04167
1858.94	963.70833
1861.778	965.70833
1864.614	954.70833
1867.448	964.375
1870.28	940.04167
1873.111	995.375
1875.939	972.375
1878.765	985.70833
1881.589	980.04167
1884.411	975.70833
1887.231	982.70833
1890.049	976.70833
1892.865	981.70833
1895.68	971.04167
1898.492	980.70833
1901.302	966.70833
1904.11	972.70833
1906.916	973.375
1909.721	958.375
1912.523	980.04167
1915.323	960.375
1918.122	967.375
1920.918	983.04167
1923.712	975.04167
1926.505	972.375
1929.295	967.70833
1932.084	999.04167
1934.87	988.70833
1937.655	969.70833
1940.438	972.70833
1943.218	976.70833
1945.997	1005.70833
1948.774	1007.375
1951.549	1002.70833
1954.322	991.70833
1957.093	1007.375
1959.862	989.70833
1962.629	1002.04167
1965.394	1003.04167
1968.157	985.04167
1970.918	1011.375
1973.678	1012.70833
1976.435	1009.375
1979.19	1002.04167
1981.944	1010.70833
1984.696	1013.375
1987.445	997.04167
1990.193	1007.375
1992.939	1030.70833
1995.683	1022.04167
1998.425	1009.70833
2001.165	1045.04167
2003.903	1019.04167
2006.639	1017.70833
2009.374	1020.375
2012.106	1036.375
2014.837	1016.375
2017.566	1051.375
2020.292	1049.375
2023.017	1047.70833
2025.74	1040.70833
2028.461	1044.04167
2031.18	1053.70833
2033.898	1042.375
2036.613	1061.70833
2039.327	1054.04167
2042.038	1039.70833
2044.748	1062.375
2047.456	1059.70833
2050.162	1047.375
2052.866	1059.375
2055.568	1069.375
2058.268	1067.375
2060.967	1079.04167
2063.663	1070.70833
2066.358	1083.04167
2069.051	1085.04167
2071.742	1087.70833
2074.431	1096.04167
2077.118	1097.04167
2079.804	1074.375
2082.487	1101.375
2085.169	1112.04167
2087.849	1148.70833
2090.527	1124.70833
2093.203	1152.375
2095.877	1162.375
2098.55	1154.70833
2101.22	1177.375
2103.889	1205.375
2106.556	1213.375
2109.221	1250.70833
2111.884	1277.70833
2114.546	1352.04167
2117.205	1429.70833
2119.863	1513.375
2122.519	1585.70833
2125.173	1651.375
2127.825	1701.70833
2130.475	1701.04167
2133.124	1639.04167
2135.771	1586.04167
2138.416	1545.375
2141.059	1464.04167
2143.7	1453.375
2146.339	1397.70833
2148.977	1358.70833
2151.613	1333.04167
2154.247	1315.70833
2156.879	1305.375
2159.51	1290.04167
2162.138	1277.70833
2164.765	1275.375
2167.39	1264.70833
2170.013	1288.70833
2172.634	1282.04167
2175.254	1273.375
2177.872	1295.70833
2180.488	1267.375
2183.102	1275.04167
2185.714	1259.04167
2188.325	1236.70833
2190.934	1265.375
2193.541	1265.04167
2196.146	1248.70833
2198.75	1249.375
2201.351	1255.04167
2203.951	1242.04167
2206.549	1258.375
2209.146	1240.70833
2211.74	1278.70833
2214.333	1281.375
2216.924	1261.04167
2219.514	1281.375
2222.101	1261.375
2224.687	1288.70833
2227.271	1279.70833
2229.853	1258.04167
2232.433	1270.04167
2235.012	1295.04167
2237.589	1294.04167
2240.164	1311.04167
2242.738	1303.70833
2245.309	1309.04167
2247.879	1319.375
2250.448	1328.70833
2253.014	1313.04167
2255.579	1283.375
2258.142	1295.375
2260.703	1310.04167
2263.262	1308.375
2265.82	1307.04167
2268.376	1326.375
2270.93	1318.375
2273.483	1318.70833
2276.033	1338.04167
2278.583	1340.70833
2281.13	1346.70833
2283.675	1338.04167
2286.219	1348.375
2288.761	1355.375
2291.302	1352.70833
2293.841	1364.375
2296.377	1341.70833
2298.913	1363.70833
2301.446	1391.70833
2303.978	1374.70833
2306.508	1390.375
2309.037	1377.04167
2311.563	1397.375
2314.088	1404.375
2316.612	1381.70833
2319.133	1409.70833
2321.653	1409.375
2324.171	1403.04167
2326.688	1416.70833
2329.202	1398.04167
2331.715	1416.375
2334.227	1449.04167
2336.736	1422.375
2339.244	1421.04167
2341.751	1443.375
2344.255	1461.70833
2346.758	1452.70833
2349.259	1451.70833
2351.759	1463.375
2354.257	1473.04167
2356.753	1468.04167
2359.247	1482.375
2361.74	1489.70833
2364.231	1499.04167
2366.721	1510.375
2369.209	1502.70833
2371.695	1519.70833
2374.179	1527.375
2376.662	1508.70833
2379.143	1545.70833
2381.622	1553.375
2384.1	1536.70833
2386.576	1560.375
2389.051	1579.375
2391.524	1578.04167
2393.995	1590.04167
2396.464	1569.375
2398.932	1575.375
2401.398	1589.375
2403.863	1587.375
2406.325	1600.375
2408.787	1613.04167
2411.246	1615.04167
2413.704	1624.04167
2416.16	1623.04167
2418.615	1641.04167
2421.068	1643.04167
2423.519	1639.04167
2425.969	1647.04167
2428.417	1679.375
2430.863	1685.04167
2433.308	1691.04167
2435.751	1687.375
2438.193	1692.375
2440.633	1693.70833
2443.071	1709.375
2445.508	1695.04167
2447.943	1716.375
2450.376	1715.375
2452.808	1731.375
2455.238	1741.04167
2457.667	1763.04167
2460.093	1750.04167
2462.519	1741.04167
2464.942	1764.70833
2467.365	1774.70833
2469.785	1791.04167
2472.204	1798.04167
2474.621	1774.70833
2477.037	1816.375
2479.451	1785.70833
2481.863	1806.04167
2484.274	1800.375
2486.683	1814.70833
2489.091	1836.70833
2491.497	1856.04167
2493.901	1841.375
2496.304	1857.70833
2498.705	1858.70833
2501.105	1865.70833
2503.503	1890.375
2505.899	1871.04167
2508.294	1914.04167
2510.687	1892.375
2513.079	1903.04167
2515.469	1914.375
2517.858	1912.70833
2520.245	1932.04167
2522.63	1932.375
2525.014	1926.70833
2527.396	1939.375
2529.776	1945.70833
2532.156	1946.70833
2534.533	1947.375
2536.909	1965.04167
2539.283	1957.70833
2541.656	1981.375
2544.027	2017.70833
2546.397	2012.04167
2548.765	2000.04167
2551.131	2010.04167
2553.496	2029.04167
2555.86	2039.70833
2558.221	2036.375
2560.582	2050.375
2562.94	2062.70833
2565.298	2059.375
2567.653	2086.375
2570.007	2060.70833
2572.36	2098.70833
2574.711	2080.70833
2577.06	2120.70833
2579.408	2104.04167
2581.754	2110.375
2584.099	2141.375
2586.442	2133.375
2588.784	2148.70833
2591.124	2182.70833
2593.463	2167.375
2595.8	2176.70833
2598.135	2165.375
2600.469	2182.375
2602.802	2200.04167
2605.133	2225.375
2607.462	2187.70833
2609.79	2205.04167
2612.116	2216.04167
2614.441	2233.70833
2616.764	2239.04167
2619.086	2246.70833
2621.406	2242.70833
2623.725	2287.70833
2626.042	2286.04167
2628.358	2275.375
2630.672	2294.70833
2632.985	2303.04167
2635.296	2323.04167
2637.606	2319.375
2639.914	2331.70833
2642.22	2365.375
2644.525	2364.04167
2646.829	2368.375
2649.131	2386.375
2651.432	2407.04167
2653.731	2407.70833
2656.028	2433.04167
2658.324	2443.375
2660.619	2446.04167
2662.912	2470.375
2665.204	2465.70833
2667.494	2489.70833
2669.782	2474.04167
2672.07	2494.375
2674.355	2490.04167
2676.639	2491.70833
2678.922	2464.375
2681.203	2495.70833
2683.483	2492.70833
2685.761	2500.04167
2688.038	2538.04167
2690.313	2541.70833
2692.587	2531.375
2694.859	2538.375
2697.13	2542.70833
2699.399	2579.70833
2701.667	2584.375
2703.933	2587.04167
2706.198	2591.375
2708.461	2611.70833
2710.723	2622.375
2712.984	2644.70833
2715.243	2681.70833
2717.5	2664.04167
2719.757	2703.04167
2722.011	2701.375
2724.264	2705.04167
2726.516	2745.375
2728.766	2739.70833
2731.015	2743.70833
2733.262	2768.04167
2735.508	2767.375
2737.753	2780.04167
2739.996	2763.70833
2742.237	2790.70833
2744.477	2768.70833
2746.716	2773.375
2748.953	2767.375
2751.189	2769.70833
2753.423	2749.04167
2755.656	2762.375
2757.887	2753.70833
2760.117	2777.375
2762.346	2762.375
2764.573	2772.70833
2766.798	2778.375
2769.022	2794.04167
2771.245	2812.70833
2773.467	2813.375
2775.686	2832.04167
2777.905	2818.04167
2780.122	2856.04167
2782.337	2861.375
2784.552	2856.375
2786.764	2886.375
2788.976	2908.04167
2791.186	2905.70833
2793.394	2933.04167
2795.601	2959.375
2797.807	2988.04167
2800.011	2969.04167
2802.214	3010.04167
2804.415	3017.04167
2806.615	3012.375
2808.814	3023.04167
2811.011	3020.70833
2813.206	3035.70833
2815.401	3033.04167
2817.594	3072.70833
2819.785	3036.375
2821.975	3036.04167
2824.164	3051.04167
2826.351	3101.70833
2828.537	3110.04167
2830.722	3133.375
2832.905	3111.04167
2835.086	3141.04167
2837.267	3193.375
2839.445	3225.375
2841.623	3228.70833
2843.799	3244.375
2845.974	3304.70833
2848.147	3334.375
2850.319	3332.04167
2852.489	3391.04167
2854.659	3381.04167
2856.826	3418.375
2858.993	3458.04167
2861.158	3443.70833
2863.321	3431.04167
2865.483	3456.04167
2867.644	3462.70833
2869.804	3449.375
2871.962	3434.04167
2874.118	3435.70833
2876.274	3426.70833
2878.428	3412.375
2880.58	3394.375
2882.731	3375.04167
2884.881	3389.04167
2887.03	3379.375
2889.177	3378.375
2891.322	3383.70833
2893.467	3389.04167
2895.61	3437.04167
2897.751	3437.375
2899.892	3441.04167
2902.03	3462.04167
2904.168	3485.375
2906.304	3496.70833
2908.439	3534.04167
2910.572	3505.04167
2912.704	3516.70833
2914.835	3554.04167
2916.965	3539.375
2919.093	3542.375
2921.219	3509.375
2923.345	3510.375
2925.469	3510.375
2927.591	3502.70833
2929.712	3464.04167
2931.832	3460.04167
2933.951	3431.70833
2936.068	3391.375
2938.184	3363.70833
2940.299	3351.70833
2942.412	3343.375
2944.524	3306.04167
2946.634	3319.375
2948.744	3290.04167
2950.851	3352.375
2952.958	3309.04167
2955.063	3317.70833
2957.167	3345.04167
2959.269	3313.375
2961.371	3329.04167
2963.471	3335.04167
2965.569	3323.70833
2967.666	3300.70833
2969.762	3305.04167
2971.857	3287.375
2973.95	3238.70833
2976.042	3247.70833
2978.133	3202.375
2980.222	3182.375
2982.31	3131.70833
2984.396	3120.04167
2986.482	3097.375
2988.566	3087.70833
2990.648	3100.375
2992.73	3095.04167
2994.81	3112.375
2996.889	3114.04167
2998.966	3111.70833
3001.042	3132.375
3003.117	3120.375
3005.191	3108.04167
3007.263	3101.04167
3009.334	3117.375
3011.403	3080.04167
3013.472	3017.375
3015.539	2998.04167
3017.604	2957.70833
3019.669	2922.04167
3021.732	2940.375
3023.794	2942.375
3025.854	2937.70833
3027.914	2965.375
3029.971	2956.375
3032.028	2950.04167
3034.083	2944.04167
3036.137	2902.04167
3038.19	2827.375
3040.242	2761.375
3042.292	2702.04167
3044.341	2686.04167
3046.388	2688.70833
3048.435	2640.375
3050.48	2639.70833
3052.524	2623.04167
3054.566	2607.70833
3056.607	2606.375
3058.647	2548.04167
3060.686	2475.70833
3062.723	2419.04167
3064.759	2344.04167
3066.794	1.375
3068.828	-0.95833
3070.86	-3.625
