-0.839	433.41667
3.438	451.41667
7.711	128.41667
11.981	51.41667
16.247	43.41667
20.509	40.08333
24.768	44.75
29.024	40.75
33.276	39.08333
37.524	43.75
41.769	37.41667
46.01	34.41667
50.247	48.08333
54.481	58.75
58.712	63.08333
62.939	44.41667
67.162	64.41667
71.382	50.08333
75.599	45.75
79.812	59.08333
84.021	74.41667
88.227	54.08333
92.429	58.41667
96.628	43.41667
100.823	62.75
105.015	74.08333
109.204	69.41667
113.388	69.41667
117.57	65.41667
121.748	75.08333
125.922	66.41667
130.093	86.75
134.261	91.08333
138.425	85.08333
142.585	122.75
146.742	119.08333
150.896	140.75
155.046	165.41667
159.193	265.41667
163.336	446.08333
167.476	829.08333
171.613	1503.75
175.746	2527.08333
179.875	3775.75
184.002	4872.75
188.124	5678.75
192.244	5887.08333
196.36	5745.75
200.472	5508.08333
204.581	5270.41667
208.687	5038.41667
212.79	4888.08333
216.889	4823.08333
220.984	4794.08333
225.077	4752.75
229.165	4693.75
233.251	4656.41667
237.333	4608.75
241.412	4529.75
245.487	4453.08333
249.559	4413.41667
253.628	4324.41667
257.694	4280.41667
261.756	4234.08333
265.814	4168.75
269.87	4072.75
273.922	4005.41667
277.97	4015.41667
282.016	4061.41667
286.058	4108.08333
290.097	4210.75
294.132	4243.08333
298.164	4207.41667
302.193	4023.08333
306.219	3743.75
310.241	3402.41667
314.26	3131.75
318.276	2883.75
322.288	2705.08333
326.297	2526.41667
330.303	2401.41667
334.305	2368.08333
338.305	2288.41667
342.301	2264.75
346.294	2233.41667
350.283	2191.75
354.269	2166.08333
358.252	2167.08333
362.232	2126.41667
366.209	2140.08333
370.182	2094.08333
374.152	2075.41667
378.119	2074.41667
382.083	2057.41667
386.043	2095.08333
390	2052.41667
393.954	2013.08333
397.905	2008.08333
401.852	2013.41667
405.797	1966.08333
409.738	1971.08333
413.676	1941.08333
417.61	1943.41667
421.542	1929.75
425.47	1904.08333
429.396	1871.75
433.318	1868.75
437.236	1838.41667
441.152	1864.75
445.065	1815.75
448.974	1823.08333
452.88	1794.08333
456.783	1770.75
460.683	1777.08333
464.58	1783.75
468.473	1789.75
472.364	1783.41667
476.251	1789.75
480.135	1792.41667
484.016	1838.75
487.894	1857.41667
491.769	1865.41667
495.641	1886.41667
499.509	1899.75
503.375	1913.08333
507.237	1971.75
511.096	2054.41667
514.952	2533.08333
518.805	3025.75
522.655	3191.75
526.502	2481.08333
530.346	2018.41667
534.187	1890.08333
538.024	1860.41667
541.859	1818.08333
545.69	1835.08333
549.519	1815.41667
553.344	1799.75
557.166	1773.08333
560.985	1758.08333
564.802	1738.08333
568.615	1722.41667
572.425	1694.08333
576.232	1672.41667
580.036	1693.75
583.836	1683.08333
587.634	1687.41667
591.429	1679.08333
595.221	1728.75
599.01	1735.08333
602.796	1751.41667
606.578	1772.75
610.358	1764.08333
614.135	1738.08333
617.909	1764.08333
621.679	1754.08333
625.447	1732.75
629.212	1736.41667
632.973	1742.08333
636.732	1731.75
640.488	1733.75
644.241	1706.41667
647.991	1704.75
651.737	1727.41667
655.481	1677.41667
659.222	1703.08333
662.96	1689.41667
666.695	1716.41667
670.427	1718.08333
674.156	1723.08333
677.882	1732.75
681.605	1722.75
685.325	1704.08333
689.043	1706.41667
692.757	1689.75
696.468	1713.41667
700.177	1690.41667
703.882	1690.75
707.585	1707.75
711.284	1699.41667
714.981	1704.08333
718.675	1728.08333
722.366	1730.75
726.054	1688.41667
729.739	1708.75
733.421	1713.75
737.1	1714.75
740.777	1720.41667
744.45	1731.75
748.121	1744.75
751.789	1779.08333
755.453	1776.41667
759.115	1769.75
762.774	1800.41667
766.431	1818.75
770.084	1817.08333
773.734	1828.08333
777.382	1882.08333
781.027	1887.08333
784.669	1895.08333
788.308	1909.08333
791.944	1932.08333
795.577	1963.75
799.208	1974.75
802.835	1956.08333
806.46	1964.08333
810.082	1989.08333
813.701	1982.75
817.317	2008.41667
820.931	1993.41667
824.542	1993.75
828.149	1948.41667
831.754	1973.41667
835.357	1974.08333
838.956	1979.41667
842.553	1989.75
846.146	1962.41667
849.737	1981.08333
853.326	1959.41667
856.911	1956.75
860.493	2004.75
864.073	1998.75
867.65	2035.75
871.225	2094.41667
874.796	2063.08333
878.365	2085.41667
881.931	2106.41667
885.494	2155.75
889.054	2165.75
892.612	2221.75
896.166	2239.75
899.719	2222.41667
903.268	2170.08333
906.814	2109.75
910.358	2073.08333
913.899	2041.75
917.438	2030.75
920.973	1999.08333
924.506	2047.75
928.036	2064.75
931.564	2104.08333
935.088	2118.08333
938.61	2123.41667
942.129	2156.08333
945.646	2220.08333
949.16	2230.75
952.671	2252.75
956.179	2275.75
959.685	2225.08333
963.188	2191.41667
966.688	2165.08333
970.185	2115.41667
973.68	2081.75
977.173	2083.75
980.662	2060.41667
984.149	2102.75
987.633	2048.41667
991.114	2120.08333
994.593	2175.41667
998.069	2230.08333
1001.542	2257.41667
1005.013	2230.75
1008.481	2084.08333
1011.947	2062.41667
1015.409	2064.41667
1018.869	2068.41667
1022.327	2075.08333
1025.782	2070.08333
1029.234	2077.75
1032.683	2044.08333
1036.13	1989.08333
1039.574	1929.75
1043.016	1879.41667
1046.455	1822.75
1049.891	1803.75
1053.325	1810.41667
1056.756	1814.08333
1060.184	1825.75
1063.61	1833.75
1067.033	1850.08333
1070.454	1816.41667
1073.872	1850.75
1077.287	1829.75
1080.7	1863.08333
1084.11	1859.41667
1087.517	1870.75
1090.922	1853.08333
1094.325	1819.41667
1097.724	1795.75
1101.122	1789.41667
1104.516	1809.08333
1107.908	1792.75
1111.298	1838.08333
1114.684	1863.41667
1118.069	1870.41667
1121.45	1903.08333
1124.83	1895.75
1128.206	1923.75
1131.58	1915.08333
1134.951	2000.75
1138.32	2025.75
1141.687	2105.08333
1145.05	2135.08333
1148.412	2149.41667
1151.77	2114.08333
1155.126	2126.75
1158.48	2134.41667
1161.831	2165.08333
1165.18	2158.75
1168.525	2204.75
1171.869	2211.08333
1175.21	2217.41667
1178.548	2219.41667
1181.884	2260.75
1185.217	2262.08333
1188.548	2297.08333
1191.877	2343.75
1195.202	2423.41667
1198.526	2454.41667
1201.846	2461.08333
1205.165	2456.41667
1208.48	2462.08333
1211.794	2458.08333
1215.104	2443.08333
1218.413	2463.75
1221.719	2450.08333
1225.022	2428.75
1228.323	2400.08333
1231.621	2436.41667
1234.917	2410.75
1238.21	2445.41667
1241.501	2444.75
1244.79	2431.75
1248.076	2424.41667
1251.359	2434.08333
1254.64	2499.75
1257.919	2484.41667
1261.195	2536.41667
1264.468	2588.41667
1267.74	2604.75
1271.008	2594.08333
1274.275	2572.08333
1277.538	2571.41667
1280.8	2552.08333
1284.059	2553.08333
1287.315	2566.41667
1290.569	2590.75
1293.821	2601.41667
1297.07	2623.08333
1300.317	2648.41667
1303.562	2632.08333
1306.803	2610.41667
1310.043	2604.41667
1313.28	2580.41667
1316.515	2552.41667
1319.747	2531.41667
1322.977	2532.41667
1326.204	2499.41667
1329.429	2482.75
1332.652	2474.75
1335.872	2475.75
1339.09	2439.41667
1342.306	2422.41667
1345.519	2370.08333
1348.729	2326.08333
1351.938	2325.08333
1355.144	2277.08333
1358.347	2268.08333
1361.548	2263.41667
1364.747	2275.41667
1367.944	2237.08333
1371.138	2277.41667
1374.329	2303.75
1377.518	2320.41667
1380.705	2338.75
1383.89	2342.41667
1387.072	2262.75
1390.252	2211.41667
1393.429	2161.08333
1396.605	2121.75
1399.777	2063.41667
1402.948	2087.41667
1406.116	2078.08333
1409.282	2103.41667
1412.445	2119.08333
1415.606	2140.75
1418.765	2140.41667
1421.921	2186.75
1425.075	2183.08333
1428.227	2251.41667
1431.376	2349.75
1434.524	2391.08333
1437.668	2456.41667
1440.811	2443.08333
1443.951	2480.41667
1447.089	2492.08333
1450.224	2468.75
1453.357	2433.08333
1456.488	2408.41667
1459.617	2365.41667
1462.743	2358.41667
1465.867	2294.75
1468.989	2274.75
1472.108	2218.41667
1475.225	2165.08333
1478.34	2159.41667
1481.453	2167.75
1484.563	2152.41667
1487.671	2186.75
1490.776	2206.08333
1493.88	2253.41667
1496.981	2299.41667
1500.08	2332.41667
1503.176	2348.41667
1506.271	2397.08333
1509.363	2419.75
1512.452	2457.41667
1515.54	2498.75
1518.625	2541.75
1521.708	2613.75
1524.789	2716.08333
1527.867	2826.08333
1530.944	2999.75
1534.018	3159.08333
1537.089	3254.41667
1540.159	3321.08333
1543.226	3295.75
1546.291	3219.41667
1549.354	3111.41667
1552.415	3046.41667
1555.473	2934.75
1558.529	2879.75
1561.583	2852.75
1564.634	2828.08333
1567.684	2784.41667
1570.731	2803.41667
1573.776	2776.41667
1576.819	2803.41667
1579.859	2799.75
1582.898	2855.41667
1585.934	2879.08333
1588.968	2881.08333
1591.999	2852.41667
1595.029	2886.08333
1598.056	2896.08333
1601.081	2929.75
1604.104	2891.41667
1607.125	2861.08333
1610.144	2799.75
1613.16	2749.08333
1616.174	2693.08333
1619.186	2621.41667
1622.196	2549.75
1625.203	2472.41667
1628.209	2443.75
1631.212	2376.08333
1634.213	2376.75
1637.212	2333.41667
1640.209	2305.08333
1643.203	2265.75
1646.196	2203.08333
1649.186	2129.41667
1652.174	2110.75
1655.16	2030.41667
1658.144	2006.08333
1661.125	1932.08333
1664.105	1858.08333
1667.082	1808.75
1670.057	1707.75
1673.03	1627.08333
1676.001	1554.75
1678.97	1475.75
1681.937	1397.75
1684.901	1346.08333
1687.863	1315.41667
1690.824	1275.08333
1693.782	1260.75
1696.738	1212.41667
1699.692	1198.75
1702.643	1178.41667
1705.593	1177.08333
1708.54	1149.08333
1711.486	1151.41667
1714.429	1130.75
1717.37	1121.41667
1720.309	1105.75
1723.246	1116.08333
1726.181	1089.08333
1729.113	1092.75
1732.044	1087.08333
1734.972	1065.41667
1737.899	1084.75
1740.823	1083.41667
1743.745	1102.41667
1746.665	1042.75
1749.583	1051.41667
1752.499	1036.75
1755.413	1020.08333
1758.325	997.75
1761.235	998.08333
1764.142	965.75
1767.048	975.41667
1769.951	983.41667
1772.852	965.41667
1775.752	971.41667
1778.649	972.41667
1781.544	984.41667
1784.437	969.08333
1787.328	976.75
1790.217	967.41667
1793.104	938.41667
1795.989	952.75
1798.872	947.08333
1801.753	978.75
1804.631	959.41667
1807.508	981.41667
1810.383	964.41667
1813.255	953.41667
1816.126	980.75
1818.994	961.41667
1821.861	963.75
1824.725	957.08333
1827.587	962.75
1830.448	956.08333
1833.306	941.08333
1836.162	951.75
1839.017	945.41667
1841.869	941.41667
1844.719	946.08333
1847.567	925.08333
1850.414	941.41667
1853.258	946.08333
1856.1	961.08333
1858.94	961.75
1861.778	956.08333
1864.614	955.08333
1867.448	959.41667
1870.28	950.41667
1873.111	972.08333
1875.939	961.41667
1878.765	988.41667
1881.589	966.41667
1884.411	972.75
1887.231	964.41667
1890.049	963.41667
1892.865	975.08333
1895.68	948.08333
1898.492	974.08333
1901.302	959.41667
1904.11	953.08333
1906.916	968.08333
1909.721	953.75
1912.523	971.41667
1915.323	958.41667
1918.122	974.75
1920.918	973.08333
1923.712	964.41667
1926.505	985.41667
1929.295	974.41667
1932.084	983.41667
1934.87	987.75
1937.655	967.41667
1940.438	982.41667
1943.218	985.41667
1945.997	990.08333
1948.774	994.75
1951.549	1006.08333
1954.322	998.75
1957.093	1001.08333
1959.862	981.41667
1962.629	993.41667
1965.394	1001.75
1968.157	992.75
1970.918	996.41667
1973.678	992.75
1976.435	1008.08333
1979.19	999.75
1981.944	992.08333
1984.696	1001.41667
1987.445	997.75
1990.193	1011.08333
1992.939	1021.08333
1995.683	1028.41667
1998.425	993.41667
2001.165	1031.41667
2003.903	1020.75
2006.639	1019.08333
2009.374	1030.08333
2012.106	1032.41667
2014.837	1030.75
2017.566	1037.08333
2020.292	1043.41667
2023.017	1046.41667
2025.74	1039.08333
2028.461	1050.75
2031.18	1052.75
2033.898	1028.08333
2036.613	1052.08333
2039.327	1074.41667
2042.038	1056.08333
2044.748	1053.41667
2047.456	1069.75
2050.162	1061.08333
2052.866	1059.75
2055.568	1091.41667
2058.268	1059.08333
2060.967	1096.08333
2063.663	1069.08333
2066.358	1085.41667
2069.051	1082.08333
2071.742	1075.08333
2074.431	1109.75
2077.118	1100.41667
2079.804	1094.75
2082.487	1108.41667
2085.169	1120.08333
2087.849	1133.75
2090.527	1125.41667
2093.203	1137.08333
2095.877	1156.75
2098.55	1167.75
2101.22	1188.41667
2103.889	1195.41667
2106.556	1216.41667
2109.221	1256.75
2111.884	1296.41667
2114.546	1382.41667
2117.205	1452.08333
2119.863	1532.08333
2122.519	1586.41667
2125.173	1650.41667
2127.825	1724.75
2130.475	1706.75
2133.124	1653.41667
2135.771	1606.08333
2138.416	1542.41667
2141.059	1487.08333
2143.7	1449.75
2146.339	1406.08333
2148.977	1364.41667
2151.613	1345.41667
2154.247	1318.08333
2156.879	1307.41667
2159.51	1301.08333
2162.138	1272.75
2164.765	1292.41667
2167.39	1272.75
2170.013	1295.75
2172.634	1289.08333
2175.254	1279.41667
2177.872	1314.08333
2180.488	1276.75
2183.102	1263.75
2185.714	1271.41667
2188.325	1252.41667
2190.934	1258.41667
2193.541	1267.75
2196.146	1260.75
2198.75	1249.08333
2201.351	1258.41667
2203.951	1249.08333
2206.549	1278.41667
2209.146	1267.41667
2211.74	1242.75
2214.333	1277.41667
2216.924	1258.08333
2219.514	1289.75
2222.101	1264.41667
2224.687	1295.75
2227.271	1296.75
2229.853	1285.75
2232.433	1273.41667
2235.012	1313.08333
2237.589	1300.41667
2240.164	1331.41667
2242.738	1306.41667
2245.309	1299.41667
2247.879	1316.41667
2250.448	1327.75
2253.014	1313.41667
2255.579	1301.75
2258.142	1322.75
2260.703	1307.75
2263.262	1311.08333
2265.82	1330.08333
2268.376	1337.75
2270.93	1315.08333
2273.483	1315.75
2276.033	1335.75
2278.583	1340.41667
2281.13	1334.08333
2283.675	1347.41667
2286.219	1350.41667
2288.761	1364.41667
2291.302	1365.41667
2293.841	1371.75
2296.377	1363.08333
2298.913	1369.08333
2301.446	1393.08333
2303.978	1393.08333
2306.508	1387.75
2309.037	1393.41667
2311.563	1402.75
2314.088	1418.75
2316.612	1397.75
2319.133	1427.08333
2321.653	1423.75
2324.171	1426.75
2326.688	1425.41667
2329.202	1423.41667
2331.715	1441.08333
2334.227	1445.75
2336.736	1441.41667
2339.244	1445.08333
2341.751	1447.75
2344.255	1457.41667
2346.758	1463.75
2349.259	1475.75
2351.759	1479.08333
2354.257	1481.75
2356.753	1492.41667
2359.247	1497.41667
2361.74	1502.41667
2364.231	1509.41667
2366.721	1521.75
2369.209	1522.75
2371.695	1524.41667
2374.179	1517.41667
2376.662	1541.41667
2379.143	1562.08333
2381.622	1560.08333
2384.1	1559.08333
2386.576	1551.08333
2389.051	1595.08333
2391.524	1609.75
2393.995	1607.41667
2396.464	1592.08333
2398.932	1584.41667
2401.398	1610.08333
2403.863	1597.08333
2406.325	1616.41667
2408.787	1627.08333
2411.246	1621.08333
2413.704	1620.41667
2416.16	1629.75
2418.615	1661.08333
2421.068	1656.75
2423.519	1668.75
2425.969	1682.75
2428.417	1683.41667
2430.863	1713.41667
2433.308	1711.75
2435.751	1715.41667
2438.193	1712.41667
2440.633	1719.08333
2443.071	1727.08333
2445.508	1713.08333
2447.943	1735.75
2450.376	1747.75
2452.808	1757.08333
2455.238	1764.75
2457.667	1779.41667
2460.093	1760.75
2462.519	1758.75
2464.942	1761.75
2467.365	1798.75
2469.785	1813.75
2472.204	1819.08333
2474.621	1807.41667
2477.037	1841.75
2479.451	1797.41667
2481.863	1821.41667
2484.274	1829.08333
2486.683	1850.75
2489.091	1867.75
2491.497	1868.75
2493.901	1853.75
2496.304	1867.41667
2498.705	1882.41667
2501.105	1896.41667
2503.503	1930.08333
2505.899	1908.75
2508.294	1930.75
2510.687	1914.75
2513.079	1939.41667
2515.469	1928.75
2517.858	1930.41667
2520.245	1950.41667
2522.63	1954.75
2525.014	1951.75
2527.396	1967.08333
2529.776	1964.08333
2532.156	1997.41667
2534.533	1975.75
2536.909	1970.08333
2539.283	1998.41667
2541.656	2017.08333
2544.027	2049.08333
2546.397	2013.41667
2548.765	2027.41667
2551.131	2045.75
2553.496	2056.41667
2555.86	2041.75
2558.221	2080.75
2560.582	2069.41667
2562.94	2062.75
2565.298	2071.08333
2567.653	2104.41667
2570.007	2088.75
2572.36	2128.08333
2574.711	2129.75
2577.06	2141.41667
2579.408	2140.75
2581.754	2155.41667
2584.099	2156.75
2586.442	2161.08333
2588.784	2191.75
2591.124	2190.08333
2593.463	2203.08333
2595.8	2177.41667
2598.135	2202.75
2600.469	2213.08333
2602.802	2224.41667
2605.133	2237.75
2607.462	2235.08333
2609.79	2229.08333
2612.116	2245.75
2614.441	2263.75
2616.764	2268.41667
2619.086	2268.75
2621.406	2288.41667
2623.725	2302.75
2626.042	2302.75
2628.358	2321.41667
2630.672	2322.08333
2632.985	2373.08333
2635.296	2354.08333
2637.606	2377.75
2639.914	2345.75
2642.22	2370.75
2644.525	2396.08333
2646.829	2395.41667
2649.131	2442.75
2651.432	2471.08333
2653.731	2450.08333
2656.028	2472.75
2658.324	2462.75
2660.619	2486.75
2662.912	2507.75
2665.204	2491.08333
2667.494	2494.75
2669.782	2513.41667
2672.07	2512.41667
2674.355	2534.41667
2676.639	2519.75
2678.922	2513.08333
2681.203	2557.75
2683.483	2517.75
2685.761	2560.75
2688.038	2554.41667
2690.313	2589.08333
2692.587	2593.41667
2694.859	2586.08333
2697.13	2589.41667
2699.399	2607.08333
2701.667	2619.08333
2703.933	2643.41667
2706.198	2638.08333
2708.461	2664.41667
2710.723	2648.41667
2712.984	2682.75
2715.243	2696.08333
2717.5	2717.75
2719.757	2736.08333
2722.011	2765.75
2724.264	2773.41667
2726.516	2805.08333
2728.766	2804.08333
2731.015	2798.75
2733.262	2788.75
2735.508	2811.08333
2737.753	2816.75
2739.996	2810.75
2742.237	2800.41667
2744.477	2803.41667
2746.716	2815.08333
2748.953	2819.08333
2751.189	2796.75
2753.423	2806.41667
2755.656	2803.75
2757.887	2798.41667
2760.117	2816.08333
2762.346	2799.41667
2764.573	2797.75
2766.798	2811.41667
2769.022	2839.08333
2771.245	2858.08333
2773.467	2865.08333
2775.686	2862.41667
2777.905	2866.08333
2780.122	2878.75
2782.337	2923.08333
2784.552	2897.41667
2786.764	2916.41667
2788.976	2938.41667
2791.186	2965.41667
2793.394	2981.41667
2795.601	2986.41667
2797.807	3012.41667
2800.011	3037.08333
2802.214	3068.08333
2804.415	3048.75
2806.615	3063.08333
2808.814	3073.75
2811.011	3045.41667
2813.206	3082.08333
2815.401	3073.75
2817.594	3086.08333
2819.785	3101.75
2821.975	3091.75
2824.164	3115.75
2826.351	3129.08333
2828.537	3158.41667
2830.722	3161.41667
2832.905	3141.75
2835.086	3184.75
2837.267	3241.41667
2839.445	3242.75
2841.623	3272.41667
2843.799	3284.75
2845.974	3323.75
2848.147	3371.41667
2850.319	3388.75
2852.489	3420.75
2854.659	3435.75
2856.826	3468.75
2858.993	3507.41667
2861.158	3510.75
2863.321	3482.41667
2865.483	3501.75
2867.644	3506.41667
2869.804	3503.08333
2871.962	3494.41667
2874.118	3469.08333
2876.274	3472.75
2878.428	3445.75
2880.58	3424.08333
2882.731	3432.41667
2884.881	3425.08333
2887.03	3418.75
2889.177	3448.08333
2891.322	3449.08333
2893.467	3429.41667
2895.61	3434.08333
2897.751	3486.41667
2899.892	3483.41667
2902.03	3495.41667
2904.168	3519.75
2906.304	3552.75
2908.439	3568.41667
2910.572	3565.08333
2912.704	3602.41667
2914.835	3586.08333
2916.965	3582.08333
2919.093	3617.41667
2921.219	3565.41667
2923.345	3582.75
2925.469	3583.08333
2927.591	3559.08333
2929.712	3502.75
2931.832	3515.41667
2933.951	3472.75
2936.068	3432.08333
2938.184	3419.41667
2940.299	3416.08333
2942.412	3390.41667
2944.524	3377.08333
2946.634	3383.41667
2948.744	3358.75
2950.851	3369.41667
2952.958	3359.08333
2955.063	3365.08333
2957.167	3399.41667
2959.269	3349.41667
2961.371	3425.75
2963.471	3353.41667
2965.569	3380.08333
2967.666	3357.41667
2969.762	3360.08333
2971.857	3298.41667
2973.95	3299.08333
2976.042	3247.75
2978.133	3251.08333
2980.222	3215.08333
2982.31	3197.41667
2984.396	3152.75
2986.482	3138.41667
2988.566	3134.08333
2990.648	3168.41667
2992.73	3154.08333
2994.81	3131.75
2996.889	3161.08333
2998.966	3183.41667
3001.042	3189.08333
3003.117	3179.08333
3005.191	3182.08333
3007.263	3172.08333
3009.334	3161.75
3011.403	3119.08333
3013.472	3064.08333
3015.539	3031.41667
3017.604	3029.08333
3019.669	2981.41667
3021.732	2991.75
3023.794	2978.75
3025.854	2965.08333
3027.914	2986.41667
3029.971	3008.41667
3032.028	2993.08333
3034.083	2975.41667
3036.137	2933.41667
3038.19	2862.75
3040.242	2795.41667
3042.292	2775.08333
3044.341	2738.75
3046.388	2705.41667
3048.435	2657.08333
3050.48	2691.41667
3052.524	2686.41667
3054.566	2633.41667
3056.607	2637.08333
3058.647	2593.75
3060.686	2519.08333
3062.723	2448.08333
3064.759	2376.75
3066.794	-0.58333
3068.828	-1.25
3070.86	-4.58333
