-0.839	427.29167
3.438	447.95833
7.711	124.625
11.981	49.625
16.247	44.95833
20.509	42.625
24.768	41.95833
29.024	42.95833
33.276	40.95833
37.524	48.625
41.769	37.95833
46.01	33.29167
50.247	48.95833
54.481	59.95833
58.712	63.625
62.939	46.29167
67.162	56.29167
71.382	53.625
75.599	42.625
79.812	57.95833
84.021	76.625
88.227	51.95833
92.429	61.29167
96.628	49.29167
100.823	65.29167
105.015	74.29167
109.204	72.29167
113.388	68.625
117.57	65.625
121.748	82.95833
125.922	70.29167
130.093	87.95833
134.261	95.29167
138.425	79.625
142.585	123.625
146.742	117.95833
150.896	136.95833
155.046	166.95833
159.193	269.625
163.336	450.29167
167.476	825.95833
171.613	1522.95833
175.746	2555.625
179.875	3782.29167
184.002	4915.95833
188.124	5690.95833
192.244	5866.29167
196.36	5738.95833
200.472	5501.29167
204.581	5270.95833
208.687	5080.29167
212.79	4907.625
216.889	4820.95833
220.984	4760.95833
225.077	4754.625
229.165	4702.625
233.251	4660.95833
237.333	4561.625
241.412	4493.95833
245.487	4456.625
249.559	4364.625
253.628	4317.95833
257.694	4283.29167
261.756	4208.95833
265.814	4149.29167
269.87	4066.29167
273.922	4009.625
277.97	4018.29167
282.016	4053.625
286.058	4097.95833
290.097	4191.29167
294.132	4237.625
298.164	4181.625
302.193	3996.625
306.219	3698.95833
310.241	3407.625
314.26	3104.95833
318.276	2872.625
322.288	2670.29167
326.297	2535.625
330.303	2425.625
334.305	2355.95833
338.305	2287.95833
342.301	2255.95833
346.294	2204.95833
350.283	2175.625
354.269	2129.625
358.252	2148.625
362.232	2139.625
366.209	2099.625
370.182	2074.95833
374.152	2082.95833
378.119	2074.29167
382.083	2039.625
386.043	2056.29167
390	2018.95833
393.954	2011.95833
397.905	1985.625
401.852	1972.95833
405.797	1972.625
409.738	1939.625
413.676	1935.625
417.61	1918.625
421.542	1894.29167
425.47	1887.625
429.396	1858.29167
433.318	1865.95833
437.236	1845.95833
441.152	1859.29167
445.065	1795.29167
448.974	1801.625
452.88	1781.625
456.783	1769.625
460.683	1770.95833
464.58	1760.29167
468.473	1760.29167
472.364	1779.95833
476.251	1793.95833
480.135	1812.95833
484.016	1819.29167
487.894	1828.29167
491.769	1854.625
495.641	1865.95833
499.509	1889.625
503.375	1897.29167
507.237	1945.625
511.096	2065.29167
514.952	2498.625
518.805	3021.625
522.655	3191.625
526.502	2455.625
530.346	1983.95833
534.187	1882.95833
538.024	1862.625
541.859	1789.95833
545.69	1833.625
549.519	1812.29167
553.344	1797.29167
557.166	1742.95833
560.985	1748.625
564.802	1733.29167
568.615	1686.95833
572.425	1688.625
576.232	1662.625
580.036	1648.95833
583.836	1671.29167
587.634	1688.95833
591.429	1687.29167
595.221	1721.625
599.01	1736.95833
602.796	1727.95833
606.578	1761.95833
610.358	1760.29167
614.135	1737.29167
617.909	1726.625
621.679	1739.95833
625.447	1735.625
629.212	1724.95833
632.973	1731.95833
636.732	1721.95833
640.488	1726.625
644.241	1683.625
647.991	1697.95833
651.737	1709.29167
655.481	1666.29167
659.222	1675.625
662.96	1672.95833
666.695	1689.29167
670.427	1706.95833
674.156	1714.625
677.882	1732.625
681.605	1712.625
685.325	1693.625
689.043	1692.625
692.757	1695.625
696.468	1696.625
700.177	1696.29167
703.882	1695.625
707.585	1680.95833
711.284	1692.625
714.981	1676.29167
718.675	1700.625
722.366	1708.29167
726.054	1693.625
729.739	1717.625
733.421	1703.29167
737.1	1704.29167
740.777	1728.625
744.45	1712.29167
748.121	1724.95833
751.789	1781.29167
755.453	1770.29167
759.115	1773.29167
762.774	1789.29167
766.431	1789.29167
770.084	1820.95833
773.734	1827.95833
777.382	1869.95833
781.027	1895.29167
784.669	1890.625
788.308	1899.625
791.944	1924.29167
795.577	1939.95833
799.208	1956.29167
802.835	1972.95833
806.46	1961.29167
810.082	1962.625
813.701	1965.95833
817.317	1987.29167
820.931	1986.29167
824.542	1995.29167
828.149	1972.625
831.754	1968.29167
835.357	1973.625
838.956	1975.625
842.553	1967.29167
846.146	1941.95833
849.737	1948.625
853.326	1960.95833
856.911	1965.29167
860.493	2007.95833
864.073	1983.29167
867.65	2054.95833
871.225	2063.95833
874.796	2075.95833
878.365	2091.625
881.931	2103.95833
885.494	2158.625
889.054	2171.625
892.612	2209.29167
896.166	2224.29167
899.719	2237.29167
903.268	2153.95833
906.814	2098.95833
910.358	2060.625
913.899	2030.95833
917.438	2008.95833
920.973	1999.625
924.506	2018.29167
928.036	2037.95833
931.564	2086.625
935.088	2132.29167
938.61	2130.29167
942.129	2163.95833
945.646	2196.625
949.16	2237.95833
952.671	2276.95833
956.179	2271.95833
959.685	2229.29167
963.188	2188.29167
966.688	2160.625
970.185	2091.95833
973.68	2084.625
977.173	2066.625
980.662	2058.95833
984.149	2055.95833
987.633	2068.29167
991.114	2103.625
994.593	2160.95833
998.069	2228.625
1001.542	2281.95833
1005.013	2223.95833
1008.481	2077.29167
1011.947	2060.625
1015.409	2053.625
1018.869	2082.29167
1022.327	2067.29167
1025.782	2071.625
1029.234	2058.95833
1032.683	2032.625
1036.13	1989.29167
1039.574	1895.625
1043.016	1874.29167
1046.455	1814.95833
1049.891	1789.625
1053.325	1811.29167
1056.756	1800.95833
1060.184	1804.29167
1063.61	1813.625
1067.033	1841.625
1070.454	1815.95833
1073.872	1866.625
1077.287	1851.625
1080.7	1858.95833
1084.11	1866.625
1087.517	1848.625
1090.922	1838.95833
1094.325	1818.29167
1097.724	1790.625
1101.122	1824.29167
1104.516	1796.95833
1107.908	1796.29167
1111.298	1823.95833
1114.684	1849.625
1118.069	1856.29167
1121.45	1898.95833
1124.83	1875.29167
1128.206	1902.95833
1131.58	1926.95833
1134.951	2008.95833
1138.32	2032.95833
1141.687	2105.29167
1145.05	2131.95833
1148.412	2127.95833
1151.77	2136.29167
1155.126	2164.95833
1158.48	2113.625
1161.831	2143.95833
1165.18	2171.95833
1168.525	2202.625
1171.869	2236.95833
1175.21	2229.95833
1178.548	2255.29167
1181.884	2284.625
1185.217	2293.95833
1188.548	2323.625
1191.877	2356.625
1195.202	2427.95833
1198.526	2438.625
1201.846	2454.29167
1205.165	2445.625
1208.48	2460.625
1211.794	2461.29167
1215.104	2445.625
1218.413	2450.95833
1221.719	2449.95833
1225.022	2426.625
1228.323	2395.625
1231.621	2428.29167
1234.917	2406.29167
1238.21	2459.95833
1241.501	2444.95833
1244.79	2405.29167
1248.076	2424.29167
1251.359	2466.95833
1254.64	2503.95833
1257.919	2500.95833
1261.195	2530.95833
1264.468	2582.95833
1267.74	2579.95833
1271.008	2592.29167
1274.275	2595.625
1277.538	2558.29167
1280.8	2565.625
1284.059	2560.29167
1287.315	2570.95833
1290.569	2595.29167
1293.821	2603.95833
1297.07	2643.29167
1300.317	2644.29167
1303.562	2645.29167
1306.803	2627.29167
1310.043	2595.625
1313.28	2579.29167
1316.515	2536.625
1319.747	2539.29167
1322.977	2535.95833
1326.204	2497.95833
1329.429	2481.95833
1332.652	2479.625
1335.872	2454.625
1339.09	2423.95833
1342.306	2411.625
1345.519	2371.29167
1348.729	2336.95833
1351.938	2305.95833
1355.144	2289.29167
1358.347	2264.29167
1361.548	2279.625
1364.747	2282.625
1367.944	2257.29167
1371.138	2277.625
1374.329	2298.625
1377.518	2305.29167
1380.705	2336.95833
1383.89	2316.95833
1387.072	2273.625
1390.252	2217.625
1393.429	2166.29167
1396.605	2093.625
1399.777	2067.625
1402.948	2069.29167
1406.116	2083.95833
1409.282	2093.29167
1412.445	2111.29167
1415.606	2134.625
1418.765	2165.29167
1421.921	2177.625
1425.075	2193.625
1428.227	2239.95833
1431.376	2321.625
1434.524	2379.625
1437.668	2449.625
1440.811	2468.95833
1443.951	2486.625
1447.089	2486.625
1450.224	2464.95833
1453.357	2449.95833
1456.488	2429.29167
1459.617	2362.95833
1462.743	2348.625
1465.867	2286.95833
1468.989	2255.95833
1472.108	2231.625
1475.225	2170.29167
1478.34	2167.95833
1481.453	2157.29167
1484.563	2166.95833
1487.671	2186.625
1490.776	2227.29167
1493.88	2273.625
1496.981	2291.625
1500.08	2317.29167
1503.176	2358.625
1506.271	2387.29167
1509.363	2423.95833
1512.452	2462.625
1515.54	2509.29167
1518.625	2528.95833
1521.708	2621.95833
1524.789	2701.95833
1527.867	2839.625
1530.944	3002.625
1534.018	3154.625
1537.089	3308.625
1540.159	3323.95833
1543.226	3319.625
1546.291	3231.625
1549.354	3116.625
1552.415	3034.625
1555.473	2941.625
1558.529	2891.625
1561.583	2869.95833
1564.634	2812.625
1567.684	2831.95833
1570.731	2792.29167
1573.776	2821.29167
1576.819	2819.29167
1579.859	2817.29167
1582.898	2857.625
1585.934	2877.29167
1588.968	2886.29167
1591.999	2873.29167
1595.029	2874.95833
1598.056	2901.625
1601.081	2919.29167
1604.104	2920.29167
1607.125	2882.29167
1610.144	2816.625
1613.16	2761.625
1616.174	2689.625
1619.186	2616.95833
1622.196	2543.625
1625.203	2467.625
1628.209	2454.29167
1631.212	2401.625
1634.213	2377.625
1637.212	2361.29167
1640.209	2300.95833
1643.203	2266.625
1646.196	2199.625
1649.186	2152.29167
1652.174	2106.625
1655.16	2046.95833
1658.144	1996.95833
1661.125	1920.29167
1664.105	1875.625
1667.082	1796.625
1670.057	1720.95833
1673.03	1621.95833
1676.001	1550.95833
1678.97	1465.625
1681.937	1421.29167
1684.901	1336.29167
1687.863	1306.625
1690.824	1258.29167
1693.782	1267.29167
1696.738	1213.29167
1699.692	1183.95833
1702.643	1160.95833
1705.593	1175.95833
1708.54	1159.625
1711.486	1166.625
1714.429	1127.625
1717.37	1132.95833
1720.309	1095.29167
1723.246	1128.29167
1726.181	1083.29167
1729.113	1107.95833
1732.044	1089.95833
1734.972	1078.95833
1737.899	1087.29167
1740.823	1088.95833
1743.745	1099.29167
1746.665	1049.625
1749.583	1044.29167
1752.499	1033.625
1755.413	1020.95833
1758.325	1006.29167
1761.235	1005.95833
1764.142	981.29167
1767.048	970.95833
1769.951	985.95833
1772.852	959.29167
1775.752	976.29167
1778.649	973.95833
1781.544	987.29167
1784.437	964.29167
1787.328	972.625
1790.217	967.29167
1793.104	941.29167
1795.989	952.625
1798.872	941.625
1801.753	975.625
1804.631	971.29167
1807.508	971.29167
1810.383	976.95833
1813.255	952.95833
1816.126	962.625
1818.994	963.29167
1821.861	965.95833
1824.725	969.95833
1827.587	965.95833
1830.448	960.95833
1833.306	937.95833
1836.162	955.625
1839.017	953.625
1841.869	962.29167
1844.719	948.625
1847.567	941.625
1850.414	933.625
1853.258	946.625
1856.1	963.29167
1858.94	969.29167
1861.778	940.625
1864.614	960.625
1867.448	963.625
1870.28	947.625
1873.111	973.625
1875.939	966.29167
1878.765	976.625
1881.589	967.625
1884.411	979.29167
1887.231	981.29167
1890.049	982.29167
1892.865	988.95833
1895.68	972.95833
1898.492	972.625
1901.302	970.95833
1904.11	970.29167
1906.916	957.29167
1909.721	962.29167
1912.523	987.29167
1915.323	964.95833
1918.122	961.625
1920.918	975.29167
1923.712	971.625
1926.505	979.29167
1929.295	964.625
1932.084	981.625
1934.87	988.29167
1937.655	982.625
1940.438	982.625
1943.218	985.29167
1945.997	994.625
1948.774	1011.29167
1951.549	1009.29167
1954.322	995.29167
1957.093	1013.625
1959.862	1018.625
1962.629	1001.29167
1965.394	1007.29167
1968.157	992.29167
1970.918	1029.29167
1973.678	1016.625
1976.435	1014.625
1979.19	1010.625
1981.944	1001.29167
1984.696	1012.29167
1987.445	1006.95833
1990.193	1009.625
1992.939	1036.625
1995.683	1019.29167
1998.425	1008.625
2001.165	1044.95833
2003.903	1029.95833
2006.639	1040.29167
2009.374	1044.29167
2012.106	1042.29167
2014.837	1019.29167
2017.566	1046.95833
2020.292	1051.29167
2023.017	1058.95833
2025.74	1046.29167
2028.461	1050.29167
2031.18	1064.95833
2033.898	1056.29167
2036.613	1082.625
2039.327	1077.29167
2042.038	1059.625
2044.748	1061.29167
2047.456	1064.625
2050.162	1050.625
2052.866	1075.95833
2055.568	1089.29167
2058.268	1077.29167
2060.967	1091.95833
2063.663	1083.95833
2066.358	1090.29167
2069.051	1083.95833
2071.742	1091.625
2074.431	1104.95833
2077.118	1111.29167
2079.804	1100.625
2082.487	1120.625
2085.169	1138.29167
2087.849	1139.625
2090.527	1142.625
2093.203	1144.29167
2095.877	1176.95833
2098.55	1173.95833
2101.22	1199.95833
2103.889	1223.95833
2106.556	1221.95833
2109.221	1270.625
2111.884	1311.29167
2114.546	1387.625
2117.205	1461.625
2119.863	1551.29167
2122.519	1604.29167
2125.173	1668.29167
2127.825	1736.625
2130.475	1714.625
2133.124	1659.95833
2135.771	1614.95833
2138.416	1563.29167
2141.059	1503.625
2143.7	1475.95833
2146.339	1414.625
2148.977	1362.625
2151.613	1369.625
2154.247	1338.95833
2156.879	1326.29167
2159.51	1301.29167
2162.138	1294.625
2164.765	1292.625
2167.39	1302.625
2170.013	1306.29167
2172.634	1316.95833
2175.254	1287.95833
2177.872	1318.95833
2180.488	1288.95833
2183.102	1285.29167
2185.714	1283.95833
2188.325	1271.29167
2190.934	1294.29167
2193.541	1286.29167
2196.146	1280.625
2198.75	1270.95833
2201.351	1265.625
2203.951	1256.625
2206.549	1300.95833
2209.146	1288.95833
2211.74	1284.29167
2214.333	1314.625
2216.924	1283.95833
2219.514	1295.95833
2222.101	1301.625
2224.687	1309.29167
2227.271	1310.29167
2229.853	1315.95833
2232.433	1305.625
2235.012	1324.95833
2237.589	1323.95833
2240.164	1346.29167
2242.738	1334.625
2245.309	1326.625
2247.879	1358.29167
2250.448	1362.29167
2253.014	1317.95833
2255.579	1333.625
2258.142	1331.29167
2260.703	1328.29167
2263.262	1342.625
2265.82	1352.625
2268.376	1355.29167
2270.93	1344.625
2273.483	1354.95833
2276.033	1348.95833
2278.583	1352.625
2281.13	1369.625
2283.675	1360.29167
2286.219	1377.625
2288.761	1368.625
2291.302	1395.625
2293.841	1406.95833
2296.377	1373.95833
2298.913	1406.625
2301.446	1415.29167
2303.978	1425.95833
2306.508	1412.625
2309.037	1432.95833
2311.563	1428.625
2314.088	1455.625
2316.612	1427.29167
2319.133	1441.625
2321.653	1448.95833
2324.171	1448.95833
2326.688	1463.95833
2329.202	1466.29167
2331.715	1481.29167
2334.227	1477.625
2336.736	1474.625
2339.244	1487.29167
2341.751	1466.29167
2344.255	1512.29167
2346.758	1493.95833
2349.259	1485.29167
2351.759	1499.95833
2354.257	1503.29167
2356.753	1523.95833
2359.247	1516.29167
2361.74	1548.95833
2364.231	1531.29167
2366.721	1555.29167
2369.209	1531.95833
2371.695	1556.29167
2374.179	1558.625
2376.662	1562.95833
2379.143	1602.95833
2381.622	1582.95833
2384.1	1597.95833
2386.576	1602.95833
2389.051	1614.29167
2391.524	1621.29167
2393.995	1636.625
2396.464	1622.29167
2398.932	1617.29167
2401.398	1636.625
2403.863	1621.625
2406.325	1638.29167
2408.787	1664.95833
2411.246	1652.625
2413.704	1659.95833
2416.16	1676.95833
2418.615	1680.29167
2421.068	1694.29167
2423.519	1711.95833
2425.969	1699.625
2428.417	1717.95833
2430.863	1737.625
2433.308	1740.625
2435.751	1752.29167
2438.193	1750.29167
2440.633	1758.29167
2443.071	1779.95833
2445.508	1760.625
2447.943	1758.29167
2450.376	1775.95833
2452.808	1791.29167
2455.238	1795.95833
2457.667	1821.95833
2460.093	1806.95833
2462.519	1795.625
2464.942	1830.625
2467.365	1835.95833
2469.785	1845.625
2472.204	1831.95833
2474.621	1856.29167
2477.037	1890.625
2479.451	1854.625
2481.863	1855.625
2484.274	1864.29167
2486.683	1884.95833
2489.091	1902.625
2491.497	1914.29167
2493.901	1911.29167
2496.304	1903.29167
2498.705	1923.625
2501.105	1931.95833
2503.503	1966.625
2505.899	1960.95833
2508.294	1976.625
2510.687	1956.625
2513.079	1976.625
2515.469	1979.625
2517.858	1981.29167
2520.245	1995.95833
2522.63	1983.625
2525.014	1993.625
2527.396	2018.29167
2529.776	1991.95833
2532.156	2024.95833
2534.533	2030.625
2536.909	2033.95833
2539.283	2027.95833
2541.656	2046.95833
2544.027	2074.625
2546.397	2072.625
2548.765	2087.29167
2551.131	2086.95833
2553.496	2105.625
2555.86	2111.29167
2558.221	2106.625
2560.582	2112.95833
2562.94	2114.95833
2565.298	2128.95833
2567.653	2156.625
2570.007	2140.95833
2572.36	2153.625
2574.711	2172.625
2577.06	2180.625
2579.408	2185.625
2581.754	2190.95833
2584.099	2223.95833
2586.442	2220.625
2588.784	2217.95833
2591.124	2237.29167
2593.463	2261.95833
2595.8	2244.625
2598.135	2247.625
2600.469	2280.95833
2602.802	2275.95833
2605.133	2279.95833
2607.462	2264.625
2609.79	2283.625
2612.116	2280.625
2614.441	2313.625
2616.764	2318.29167
2619.086	2326.95833
2621.406	2318.95833
2623.725	2358.625
2626.042	2353.625
2628.358	2367.29167
2630.672	2374.29167
2632.985	2397.29167
2635.296	2418.29167
2637.606	2410.625
2639.914	2398.625
2642.22	2443.625
2644.525	2460.625
2646.829	2469.29167
2649.131	2486.29167
2651.432	2519.29167
2653.731	2524.95833
2656.028	2544.95833
2658.324	2551.625
2660.619	2546.29167
2662.912	2565.95833
2665.204	2538.625
2667.494	2585.625
2669.782	2565.29167
2672.07	2577.625
2674.355	2587.625
2676.639	2571.625
2678.922	2590.625
2681.203	2610.95833
2683.483	2601.625
2685.761	2599.625
2688.038	2629.95833
2690.313	2639.625
2692.587	2642.95833
2694.859	2642.29167
2697.13	2653.29167
2699.399	2664.95833
2701.667	2693.625
2703.933	2715.95833
2706.198	2719.29167
2708.461	2726.95833
2710.723	2746.95833
2712.984	2750.625
2715.243	2790.29167
2717.5	2779.29167
2719.757	2798.29167
2722.011	2802.95833
2724.264	2820.625
2726.516	2860.29167
2728.766	2848.95833
2731.015	2866.29167
2733.262	2870.95833
2735.508	2876.29167
2737.753	2872.625
2739.996	2882.625
2742.237	2841.29167
2744.477	2869.95833
2746.716	2888.95833
2748.953	2875.95833
2751.189	2887.29167
2753.423	2861.625
2755.656	2874.95833
2757.887	2830.625
2760.117	2860.95833
2762.346	2877.625
2764.573	2897.625
2766.798	2902.29167
2769.022	2896.29167
2771.245	2912.29167
2773.467	2914.95833
2775.686	2935.95833
2777.905	2953.29167
2780.122	2953.29167
2782.337	2979.625
2784.552	2970.625
2786.764	2997.95833
2788.976	3032.29167
2791.186	3036.29167
2793.394	3039.625
2795.601	3061.625
2797.807	3098.29167
2800.011	3085.625
2802.214	3144.95833
2804.415	3140.625
2806.615	3140.625
2808.814	3150.29167
2811.011	3133.95833
2813.206	3149.29167
2815.401	3172.29167
2817.594	3164.625
2819.785	3166.95833
2821.975	3170.95833
2824.164	3175.95833
2826.351	3189.95833
2828.537	3227.29167
2830.722	3247.29167
2832.905	3232.95833
2835.086	3285.29167
2837.267	3310.95833
2839.445	3333.29167
2841.623	3348.95833
2843.799	3369.29167
2845.974	3411.29167
2848.147	3421.95833
2850.319	3465.95833
2852.489	3502.95833
2854.659	3493.625
2856.826	3555.95833
2858.993	3571.95833
2861.158	3554.95833
2863.321	3535.95833
2865.483	3580.29167
2867.644	3583.625
2869.804	3583.29167
2871.962	3548.29167
2874.118	3554.95833
2876.274	3534.625
2878.428	3521.625
2880.58	3532.625
2882.731	3491.625
2884.881	3517.95833
2887.03	3509.95833
2889.177	3517.625
2891.322	3532.625
2893.467	3517.95833
2895.61	3532.625
2897.751	3555.95833
2899.892	3569.625
2902.03	3579.95833
2904.168	3599.29167
2906.304	3620.29167
2908.439	3644.29167
2910.572	3619.625
2912.704	3672.29167
2914.835	3657.29167
2916.965	3681.625
2919.093	3681.95833
2921.219	3666.95833
2923.345	3675.625
2925.469	3654.95833
2927.591	3618.95833
2929.712	3577.95833
2931.832	3576.95833
2933.951	3559.29167
2936.068	3522.95833
2938.184	3477.95833
2940.299	3462.29167
2942.412	3471.625
2944.524	3437.625
2946.634	3443.625
2948.744	3400.625
2950.851	3458.29167
2952.958	3428.625
2955.063	3456.29167
2957.167	3466.95833
2959.269	3433.625
2961.371	3468.29167
2963.471	3449.625
2965.569	3488.29167
2967.666	3427.95833
2969.762	3431.95833
2971.857	3410.625
2973.95	3370.95833
2976.042	3377.95833
2978.133	3322.29167
2980.222	3298.95833
2982.31	3248.29167
2984.396	3228.625
2986.482	3210.95833
2988.566	3214.95833
2990.648	3188.625
2992.73	3231.625
2994.81	3226.29167
2996.889	3246.625
2998.966	3261.95833
3001.042	3274.625
3003.117	3243.29167
3005.191	3247.29167
3007.263	3247.625
3009.334	3225.625
3011.403	3218.29167
3013.472	3162.95833
3015.539	3136.625
3017.604	3114.95833
3019.669	3079.29167
3021.732	3079.625
3023.794	3062.95833
3025.854	3055.95833
3027.914	3065.625
3029.971	3072.95833
3032.028	3077.95833
3034.083	3053.95833
3036.137	3018.29167
3038.19	2929.95833
3040.242	2888.29167
3042.292	2823.95833
3044.341	2794.95833
3046.388	2771.625
3048.435	2741.625
3050.48	2755.95833
3052.524	2728.95833
3054.566	2721.625
3056.607	2715.625
3058.647	2653.625
3060.686	2581.95833
3062.723	2501.625
3064.759	2432.95833
3066.794	0.29167
3068.828	-0.375
3070.86	-1.375
