-0.839	436.04167
3.438	443.70833
7.711	123.70833
11.981	52.375
16.247	42.375
20.509	42.04167
24.768	40.04167
29.024	42.375
33.276	35.375
37.524	47.04167
41.769	40.04167
46.01	31.375
50.247	48.375
54.481	58.375
58.712	60.375
62.939	44.70833
67.162	58.70833
71.382	50.04167
75.599	41.04167
79.812	63.70833
84.021	76.04167
88.227	52.04167
92.429	59.70833
96.628	41.375
100.823	58.04167
105.015	69.375
109.204	71.70833
113.388	69.04167
117.57	64.04167
121.748	79.70833
125.922	70.04167
130.093	86.375
134.261	94.70833
138.425	84.375
142.585	125.04167
146.742	118.04167
150.896	141.04167
155.046	164.04167
159.193	264.04167
163.336	449.70833
167.476	827.04167
171.613	1526.04167
175.746	2537.375
179.875	3766.04167
184.002	4908.70833
188.124	5701.70833
192.244	5870.04167
196.36	5779.70833
200.472	5530.375
204.581	5254.70833
208.687	5038.70833
212.79	4892.70833
216.889	4806.04167
220.984	4790.04167
225.077	4752.70833
229.165	4726.375
233.251	4670.375
237.333	4576.04167
241.412	4511.04167
245.487	4450.04167
249.559	4385.375
253.628	4311.70833
257.694	4263.375
261.756	4275.04167
265.814	4154.04167
269.87	4077.04167
273.922	3986.04167
277.97	4017.04167
282.016	4060.375
286.058	4105.70833
290.097	4204.375
294.132	4225.375
298.164	4161.375
302.193	3980.70833
306.219	3703.04167
310.241	3417.70833
314.26	3095.04167
318.276	2867.04167
322.288	2673.04167
326.297	2529.375
330.303	2417.375
334.305	2331.04167
338.305	2269.04167
342.301	2233.375
346.294	2204.70833
350.283	2201.70833
354.269	2159.70833
358.252	2140.70833
362.232	2141.04167
366.209	2105.70833
370.182	2087.375
374.152	2093.70833
378.119	2081.04167
382.083	2066.04167
386.043	2076.04167
390	2030.70833
393.954	2011.04167
397.905	1993.375
401.852	1988.375
405.797	1968.375
409.738	1951.04167
413.676	1947.04167
417.61	1937.70833
421.542	1907.70833
425.47	1904.04167
429.396	1873.04167
433.318	1858.70833
437.236	1858.70833
441.152	1864.04167
445.065	1814.375
448.974	1826.70833
452.88	1799.04167
456.783	1778.70833
460.683	1763.70833
464.58	1763.375
468.473	1775.375
472.364	1801.70833
476.251	1777.70833
480.135	1813.04167
484.016	1816.70833
487.894	1828.04167
491.769	1865.70833
495.641	1883.70833
499.509	1886.375
503.375	1929.375
507.237	1941.70833
511.096	2067.04167
514.952	2520.375
518.805	3027.04167
522.655	3192.70833
526.502	2459.375
530.346	1976.375
534.187	1882.70833
538.024	1835.04167
541.859	1823.04167
545.69	1837.375
549.519	1802.70833
553.344	1789.375
557.166	1748.70833
560.985	1750.70833
564.802	1716.375
568.615	1708.375
572.425	1679.04167
576.232	1677.04167
580.036	1656.70833
583.836	1680.375
587.634	1674.04167
591.429	1665.375
595.221	1727.04167
599.01	1735.70833
602.796	1725.04167
606.578	1751.375
610.358	1761.70833
614.135	1736.70833
617.909	1756.375
621.679	1735.70833
625.447	1732.70833
629.212	1746.04167
632.973	1738.70833
636.732	1708.04167
640.488	1730.375
644.241	1692.375
647.991	1697.04167
651.737	1708.70833
655.481	1679.375
659.222	1673.04167
662.96	1697.04167
666.695	1698.04167
670.427	1706.70833
674.156	1726.375
677.882	1718.04167
681.605	1718.70833
685.325	1692.375
689.043	1706.70833
692.757	1677.04167
696.468	1685.04167
700.177	1718.375
703.882	1703.375
707.585	1693.375
711.284	1700.70833
714.981	1701.04167
718.675	1711.04167
722.366	1728.70833
726.054	1690.04167
729.739	1700.04167
733.421	1706.375
737.1	1705.70833
740.777	1726.04167
744.45	1729.375
748.121	1730.375
751.789	1780.70833
755.453	1768.70833
759.115	1776.375
762.774	1796.70833
766.431	1790.70833
770.084	1805.04167
773.734	1835.375
777.382	1861.04167
781.027	1886.70833
784.669	1889.70833
788.308	1916.70833
791.944	1917.70833
795.577	1934.70833
799.208	1959.04167
802.835	1963.04167
806.46	1985.375
810.082	1971.04167
813.701	1969.375
817.317	1982.04167
820.931	2005.375
824.542	1989.70833
828.149	1968.70833
831.754	1977.70833
835.357	1984.375
838.956	1977.70833
842.553	1958.70833
846.146	1956.70833
849.737	1945.04167
853.326	1967.70833
856.911	1976.375
860.493	2005.70833
864.073	2009.375
867.65	2063.04167
871.225	2070.04167
874.796	2060.04167
878.365	2074.375
881.931	2106.375
885.494	2131.375
889.054	2158.04167
892.612	2217.375
896.166	2227.70833
899.719	2204.70833
903.268	2166.70833
906.814	2120.04167
910.358	2056.375
913.899	2020.70833
917.438	2022.04167
920.973	1996.70833
924.506	2028.70833
928.036	2069.04167
931.564	2091.375
935.088	2134.04167
938.61	2135.70833
942.129	2154.375
945.646	2207.70833
949.16	2232.70833
952.671	2288.375
956.179	2279.70833
959.685	2217.375
963.188	2209.375
966.688	2140.375
970.185	2113.375
973.68	2098.70833
977.173	2084.04167
980.662	2072.04167
984.149	2077.04167
987.633	2061.70833
991.114	2105.375
994.593	2161.04167
998.069	2223.70833
1001.542	2260.04167
1005.013	2205.375
1008.481	2097.375
1011.947	2062.04167
1015.409	2059.375
1018.869	2050.70833
1022.327	2055.375
1025.782	2061.375
1029.234	2060.04167
1032.683	2057.04167
1036.13	1981.70833
1039.574	1903.04167
1043.016	1850.04167
1046.455	1827.375
1049.891	1806.04167
1053.325	1804.375
1056.756	1796.70833
1060.184	1826.375
1063.61	1831.375
1067.033	1832.70833
1070.454	1822.04167
1073.872	1863.375
1077.287	1849.375
1080.7	1879.70833
1084.11	1865.04167
1087.517	1842.04167
1090.922	1848.04167
1094.325	1812.04167
1097.724	1800.04167
1101.122	1792.04167
1104.516	1804.70833
1107.908	1796.04167
1111.298	1836.375
1114.684	1858.375
1118.069	1874.375
1121.45	1889.375
1124.83	1884.04167
1128.206	1907.375
1131.58	1936.04167
1134.951	1985.04167
1138.32	2040.375
1141.687	2103.70833
1145.05	2163.375
1148.412	2151.375
1151.77	2115.04167
1155.126	2159.375
1158.48	2136.04167
1161.831	2173.375
1165.18	2161.375
1168.525	2193.70833
1171.869	2219.04167
1175.21	2232.375
1178.548	2227.70833
1181.884	2258.04167
1185.217	2280.70833
1188.548	2318.70833
1191.877	2357.70833
1195.202	2408.04167
1198.526	2472.375
1201.846	2463.375
1205.165	2455.04167
1208.48	2452.04167
1211.794	2442.04167
1215.104	2468.70833
1218.413	2451.04167
1221.719	2484.70833
1225.022	2438.70833
1228.323	2395.04167
1231.621	2425.70833
1234.917	2426.70833
1238.21	2425.375
1241.501	2415.70833
1244.79	2406.70833
1248.076	2417.04167
1251.359	2437.70833
1254.64	2505.70833
1257.919	2485.375
1261.195	2533.04167
1264.468	2590.375
1267.74	2574.04167
1271.008	2597.04167
1274.275	2584.375
1277.538	2553.375
1280.8	2579.375
1284.059	2564.375
1287.315	2605.375
1290.569	2606.70833
1293.821	2614.375
1297.07	2618.375
1300.317	2636.04167
1303.562	2656.70833
1306.803	2613.04167
1310.043	2600.375
1313.28	2598.375
1316.515	2541.70833
1319.747	2525.375
1322.977	2509.70833
1326.204	2508.375
1329.429	2487.375
1332.652	2488.70833
1335.872	2488.375
1339.09	2428.375
1342.306	2406.375
1345.519	2382.04167
1348.729	2341.70833
1351.938	2332.375
1355.144	2268.70833
1358.347	2248.70833
1361.548	2280.04167
1364.747	2273.04167
1367.944	2243.70833
1371.138	2267.70833
1374.329	2285.70833
1377.518	2315.375
1380.705	2321.04167
1383.89	2345.70833
1387.072	2254.70833
1390.252	2206.70833
1393.429	2154.04167
1396.605	2099.375
1399.777	2077.04167
1402.948	2067.375
1406.116	2062.375
1409.282	2084.70833
1412.445	2106.04167
1415.606	2134.70833
1418.765	2155.04167
1421.921	2173.04167
1425.075	2217.04167
1428.227	2258.375
1431.376	2322.04167
1434.524	2404.70833
1437.668	2433.70833
1440.811	2471.04167
1443.951	2487.70833
1447.089	2507.04167
1450.224	2455.04167
1453.357	2446.375
1456.488	2439.375
1459.617	2386.04167
1462.743	2362.04167
1465.867	2301.70833
1468.989	2284.375
1472.108	2216.70833
1475.225	2190.375
1478.34	2157.04167
1481.453	2151.04167
1484.563	2153.375
1487.671	2210.70833
1490.776	2220.70833
1493.88	2273.70833
1496.981	2312.375
1500.08	2313.70833
1503.176	2367.70833
1506.271	2396.70833
1509.363	2445.70833
1512.452	2433.04167
1515.54	2475.70833
1518.625	2546.04167
1521.708	2616.70833
1524.789	2723.04167
1527.867	2824.04167
1530.944	3003.375
1534.018	3138.04167
1537.089	3286.70833
1540.159	3311.375
1543.226	3310.04167
1546.291	3211.375
1549.354	3128.70833
1552.415	3048.70833
1555.473	2948.375
1558.529	2889.375
1561.583	2841.375
1564.634	2806.70833
1567.684	2797.375
1570.731	2797.70833
1573.776	2802.375
1576.819	2804.04167
1579.859	2822.375
1582.898	2848.70833
1585.934	2851.70833
1588.968	2875.375
1591.999	2884.04167
1595.029	2860.70833
1598.056	2923.70833
1601.081	2915.70833
1604.104	2928.375
1607.125	2893.04167
1610.144	2819.04167
1613.16	2763.04167
1616.174	2701.375
1619.186	2629.04167
1622.196	2539.70833
1625.203	2471.04167
1628.209	2426.04167
1631.212	2402.70833
1634.213	2381.375
1637.212	2349.70833
1640.209	2309.375
1643.203	2253.375
1646.196	2200.375
1649.186	2157.70833
1652.174	2108.04167
1655.16	2057.375
1658.144	2016.375
1661.125	1925.70833
1664.105	1851.375
1667.082	1801.04167
1670.057	1722.70833
1673.03	1638.70833
1676.001	1569.375
1678.97	1469.375
1681.937	1401.375
1684.901	1343.70833
1687.863	1304.04167
1690.824	1262.70833
1693.782	1279.04167
1696.738	1225.70833
1699.692	1206.04167
1702.643	1187.70833
1705.593	1160.70833
1708.54	1145.70833
1711.486	1136.70833
1714.429	1123.375
1717.37	1127.04167
1720.309	1100.70833
1723.246	1118.375
1726.181	1100.04167
1729.113	1094.04167
1732.044	1083.375
1734.972	1093.70833
1737.899	1078.04167
1740.823	1077.70833
1743.745	1086.04167
1746.665	1042.04167
1749.583	1032.04167
1752.499	1027.70833
1755.413	1039.375
1758.325	1007.70833
1761.235	1004.70833
1764.142	987.375
1767.048	975.04167
1769.951	970.04167
1772.852	978.04167
1775.752	977.70833
1778.649	975.375
1781.544	982.375
1784.437	957.375
1787.328	979.375
1790.217	968.375
1793.104	945.04167
1795.989	944.375
1798.872	940.04167
1801.753	968.04167
1804.631	972.04167
1807.508	974.04167
1810.383	954.375
1813.255	947.04167
1816.126	963.04167
1818.994	964.375
1821.861	961.04167
1824.725	957.375
1827.587	957.04167
1830.448	963.70833
1833.306	940.04167
1836.162	958.04167
1839.017	941.04167
1841.869	964.70833
1844.719	938.375
1847.567	938.04167
1850.414	926.70833
1853.258	941.375
1856.1	957.375
1858.94	968.375
1861.778	950.04167
1864.614	954.375
1867.448	959.375
1870.28	943.04167
1873.111	972.04167
1875.939	977.375
1878.765	983.375
1881.589	954.375
1884.411	966.04167
1887.231	974.375
1890.049	975.375
1892.865	980.70833
1895.68	953.04167
1898.492	971.04167
1901.302	955.375
1904.11	975.04167
1906.916	970.375
1909.721	967.04167
1912.523	972.70833
1915.323	970.70833
1918.122	973.04167
1920.918	977.70833
1923.712	957.375
1926.505	971.375
1929.295	975.375
1932.084	987.70833
1934.87	995.375
1937.655	979.375
1940.438	973.04167
1943.218	984.04167
1945.997	992.375
1948.774	1023.375
1951.549	1003.375
1954.322	996.04167
1957.093	1005.04167
1959.862	982.70833
1962.629	1003.70833
1965.394	1003.70833
1968.157	992.375
1970.918	1006.70833
1973.678	1001.04167
1976.435	1012.70833
1979.19	997.375
1981.944	1000.04167
1984.696	1005.375
1987.445	993.375
1990.193	1014.70833
1992.939	1020.04167
1995.683	1021.375
1998.425	1007.04167
2001.165	1040.04167
2003.903	1033.375
2006.639	1035.375
2009.374	1026.70833
2012.106	1030.70833
2014.837	1024.70833
2017.566	1043.70833
2020.292	1038.375
2023.017	1051.04167
2025.74	1060.70833
2028.461	1058.375
2031.18	1063.70833
2033.898	1049.70833
2036.613	1049.70833
2039.327	1078.70833
2042.038	1057.70833
2044.748	1058.70833
2047.456	1073.70833
2050.162	1064.04167
2052.866	1075.70833
2055.568	1084.375
2058.268	1083.04167
2060.967	1087.70833
2063.663	1081.375
2066.358	1091.375
2069.051	1082.04167
2071.742	1097.70833
2074.431	1120.04167
2077.118	1106.70833
2079.804	1104.04167
2082.487	1108.375
2085.169	1136.04167
2087.849	1146.04167
2090.527	1140.375
2093.203	1160.04167
2095.877	1157.375
2098.55	1166.70833
2101.22	1214.04167
2103.889	1222.375
2106.556	1216.04167
2109.221	1261.70833
2111.884	1303.375
2114.546	1385.04167
2117.205	1459.04167
2119.863	1534.375
2122.519	1598.375
2125.173	1674.04167
2127.825	1715.04167
2130.475	1701.375
2133.124	1662.375
2135.771	1600.70833
2138.416	1561.04167
2141.059	1488.375
2143.7	1464.70833
2146.339	1412.04167
2148.977	1356.04167
2151.613	1359.04167
2154.247	1324.375
2156.879	1334.04167
2159.51	1302.04167
2162.138	1296.375
2164.765	1303.04167
2167.39	1278.375
2170.013	1304.70833
2172.634	1302.375
2175.254	1274.375
2177.872	1313.375
2180.488	1277.70833
2183.102	1294.04167
2185.714	1273.70833
2188.325	1276.04167
2190.934	1265.375
2193.541	1288.70833
2196.146	1280.04167
2198.75	1273.375
2201.351	1281.70833
2203.951	1258.70833
2206.549	1291.70833
2209.146	1276.04167
2211.74	1270.04167
2214.333	1295.04167
2216.924	1279.04167
2219.514	1291.04167
2222.101	1285.375
2224.687	1293.375
2227.271	1295.70833
2229.853	1292.375
2232.433	1295.70833
2235.012	1317.04167
2237.589	1329.04167
2240.164	1328.375
2242.738	1333.70833
2245.309	1317.375
2247.879	1334.04167
2250.448	1361.375
2253.014	1308.70833
2255.579	1327.04167
2258.142	1313.375
2260.703	1319.375
2263.262	1324.04167
2265.82	1328.04167
2268.376	1334.375
2270.93	1341.04167
2273.483	1332.70833
2276.033	1351.70833
2278.583	1346.375
2281.13	1359.04167
2283.675	1354.375
2286.219	1361.04167
2288.761	1381.04167
2291.302	1383.375
2293.841	1394.04167
2296.377	1353.70833
2298.913	1398.04167
2301.446	1404.04167
2303.978	1421.04167
2306.508	1401.70833
2309.037	1416.70833
2311.563	1436.375
2314.088	1425.04167
2316.612	1413.375
2319.133	1433.04167
2321.653	1442.04167
2324.171	1438.04167
2326.688	1469.04167
2329.202	1448.70833
2331.715	1450.04167
2334.227	1466.375
2336.736	1465.04167
2339.244	1461.375
2341.751	1467.375
2344.255	1490.04167
2346.758	1465.04167
2349.259	1482.70833
2351.759	1488.70833
2354.257	1489.04167
2356.753	1509.70833
2359.247	1521.70833
2361.74	1535.70833
2364.231	1521.375
2366.721	1555.70833
2369.209	1540.70833
2371.695	1549.375
2374.179	1557.375
2376.662	1557.70833
2379.143	1577.375
2381.622	1566.04167
2384.1	1609.04167
2386.576	1594.04167
2389.051	1595.04167
2391.524	1623.04167
2393.995	1621.70833
2396.464	1613.04167
2398.932	1609.04167
2401.398	1635.375
2403.863	1623.04167
2406.325	1643.04167
2408.787	1641.70833
2411.246	1653.04167
2413.704	1656.375
2416.16	1666.70833
2418.615	1660.70833
2421.068	1680.04167
2423.519	1698.04167
2425.969	1675.70833
2428.417	1715.375
2430.863	1754.70833
2433.308	1729.70833
2435.751	1741.70833
2438.193	1725.70833
2440.633	1736.04167
2443.071	1748.04167
2445.508	1736.70833
2447.943	1758.04167
2450.376	1761.70833
2452.808	1775.04167
2455.238	1761.04167
2457.667	1823.70833
2460.093	1815.375
2462.519	1797.375
2464.942	1801.04167
2467.365	1831.70833
2469.785	1846.04167
2472.204	1822.04167
2474.621	1845.375
2477.037	1852.04167
2479.451	1838.04167
2481.863	1838.70833
2484.274	1846.04167
2486.683	1868.70833
2489.091	1890.04167
2491.497	1890.375
2493.901	1909.70833
2496.304	1886.70833
2498.705	1911.70833
2501.105	1905.70833
2503.503	1948.04167
2505.899	1925.04167
2508.294	1963.375
2510.687	1941.04167
2513.079	1953.04167
2515.469	1957.375
2517.858	1962.375
2520.245	2003.70833
2522.63	1986.70833
2525.014	1998.375
2527.396	1975.70833
2529.776	1991.70833
2532.156	1997.375
2534.533	2009.375
2536.909	2024.04167
2539.283	2009.70833
2541.656	2047.04167
2544.027	2047.70833
2546.397	2056.375
2548.765	2074.04167
2551.131	2081.70833
2553.496	2070.04167
2555.86	2085.375
2558.221	2100.70833
2560.582	2094.04167
2562.94	2093.04167
2565.298	2124.375
2567.653	2148.04167
2570.007	2118.70833
2572.36	2157.04167
2574.711	2146.70833
2577.06	2178.04167
2579.408	2169.70833
2581.754	2186.04167
2584.099	2208.70833
2586.442	2203.375
2588.784	2211.70833
2591.124	2251.375
2593.463	2196.375
2595.8	2235.375
2598.135	2238.375
2600.469	2237.04167
2602.802	2263.375
2605.133	2249.375
2607.462	2252.04167
2609.79	2254.70833
2612.116	2284.375
2614.441	2292.375
2616.764	2329.04167
2619.086	2308.70833
2621.406	2300.70833
2623.725	2343.04167
2626.042	2361.375
2628.358	2368.04167
2630.672	2378.04167
2632.985	2377.04167
2635.296	2402.375
2637.606	2387.375
2639.914	2403.375
2642.22	2415.04167
2644.525	2422.70833
2646.829	2462.375
2649.131	2483.70833
2651.432	2471.375
2653.731	2484.70833
2656.028	2499.70833
2658.324	2508.70833
2660.619	2521.70833
2662.912	2529.375
2665.204	2532.375
2667.494	2559.375
2669.782	2561.04167
2672.07	2539.375
2674.355	2581.70833
2676.639	2569.70833
2678.922	2547.70833
2681.203	2579.70833
2683.483	2566.04167
2685.761	2586.04167
2688.038	2600.70833
2690.313	2625.70833
2692.587	2615.375
2694.859	2626.04167
2697.13	2631.375
2699.399	2643.70833
2701.667	2667.04167
2703.933	2669.04167
2706.198	2696.04167
2708.461	2694.375
2710.723	2728.04167
2712.984	2709.04167
2715.243	2763.04167
2717.5	2764.375
2719.757	2790.04167
2722.011	2783.375
2724.264	2788.70833
2726.516	2833.375
2728.766	2834.70833
2731.015	2840.70833
2733.262	2833.70833
2735.508	2845.375
2737.753	2875.375
2739.996	2837.04167
2742.237	2832.70833
2744.477	2854.375
2746.716	2836.04167
2748.953	2820.04167
2751.189	2855.70833
2753.423	2832.70833
2755.656	2819.70833
2757.887	2850.04167
2760.117	2831.375
2762.346	2852.04167
2764.573	2856.375
2766.798	2866.70833
2769.022	2871.70833
2771.245	2892.70833
2773.467	2912.70833
2775.686	2912.70833
2777.905	2930.375
2780.122	2922.70833
2782.337	2946.04167
2784.552	2960.04167
2786.764	2973.375
2788.976	2975.375
2791.186	2984.04167
2793.394	3020.375
2795.601	3032.04167
2797.807	3044.04167
2800.011	3102.70833
2802.214	3102.375
2804.415	3100.375
2806.615	3122.70833
2808.814	3132.04167
2811.011	3120.70833
2813.206	3122.70833
2815.401	3146.375
2817.594	3143.04167
2819.785	3141.70833
2821.975	3138.04167
2824.164	3145.70833
2826.351	3167.04167
2828.537	3217.375
2830.722	3209.04167
2832.905	3221.375
2835.086	3265.70833
2837.267	3281.70833
2839.445	3290.375
2841.623	3311.70833
2843.799	3349.70833
2845.974	3381.375
2848.147	3442.375
2850.319	3434.04167
2852.489	3474.04167
2854.659	3471.70833
2856.826	3516.375
2858.993	3559.70833
2861.158	3520.375
2863.321	3527.70833
2865.483	3544.70833
2867.644	3578.375
2869.804	3542.375
2871.962	3495.70833
2874.118	3548.375
2876.274	3529.375
2878.428	3478.04167
2880.58	3486.70833
2882.731	3462.70833
2884.881	3476.70833
2887.03	3470.375
2889.177	3491.70833
2891.322	3482.70833
2893.467	3519.375
2895.61	3506.375
2897.751	3540.04167
2899.892	3548.70833
2902.03	3563.375
2904.168	3583.70833
2906.304	3586.04167
2908.439	3619.04167
2910.572	3599.70833
2912.704	3641.375
2914.835	3660.375
2916.965	3657.04167
2919.093	3673.375
2921.219	3619.04167
2923.345	3632.70833
2925.469	3617.375
2927.591	3574.70833
2929.712	3551.04167
2931.832	3571.70833
2933.951	3550.04167
2936.068	3485.70833
2938.184	3473.70833
2940.299	3448.375
2942.412	3440.04167
2944.524	3414.70833
2946.634	3407.70833
2948.744	3391.04167
2950.851	3434.70833
2952.958	3419.70833
2955.063	3408.375
2957.167	3422.70833
2959.269	3414.04167
2961.371	3461.04167
2963.471	3438.04167
2965.569	3426.70833
2967.666	3404.375
2969.762	3388.70833
2971.857	3384.70833
2973.95	3339.375
2976.042	3346.70833
2978.133	3329.70833
2980.222	3265.375
2982.31	3242.70833
2984.396	3189.375
2986.482	3188.375
2988.566	3222.04167
2990.648	3180.375
2992.73	3193.375
2994.81	3183.375
2996.889	3220.04167
2998.966	3207.375
3001.042	3224.04167
3003.117	3222.04167
3005.191	3208.04167
3007.263	3215.375
3009.334	3201.375
3011.403	3160.70833
3013.472	3101.04167
3015.539	3079.375
3017.604	3114.375
3019.669	3044.04167
3021.732	3036.375
3023.794	3045.375
3025.854	3026.375
3027.914	3043.375
3029.971	3041.04167
3032.028	3046.04167
3034.083	3049.70833
3036.137	2978.04167
3038.19	2896.375
3040.242	2835.04167
3042.292	2803.04167
3044.341	2772.375
3046.388	2775.375
3048.435	2725.04167
3050.48	2720.375
3052.524	2720.375
3054.566	2698.70833
3056.607	2677.70833
3058.647	2634.375
3060.686	2575.04167
3062.723	2481.70833
3064.759	2434.04167
3066.794	-1.29167
3068.828	-1.95833
3070.86	-0.29167
