-0.839	282.20833
3.438	296.20833
7.711	90.54167
11.981	45.875
16.247	38.875
20.509	40.20833
24.768	37.54167
29.024	40.54167
33.276	37.875
37.524	46.875
41.769	37.20833
46.01	30.54167
50.247	45.20833
54.481	53.54167
58.712	56.875
62.939	42.20833
67.162	56.54167
71.382	50.20833
75.599	39.54167
79.812	55.875
84.021	69.20833
88.227	49.875
92.429	49.54167
96.628	39.20833
100.823	53.20833
105.015	64.875
109.204	61.20833
113.388	59.875
117.57	57.54167
121.748	67.54167
125.922	55.54167
130.093	77.875
134.261	78.20833
138.425	72.20833
142.585	103.20833
146.742	96.875
150.896	102.20833
155.046	117.875
159.193	188.875
163.336	303.875
167.476	543.20833
171.613	987.54167
175.746	1637.875
179.875	2428.875
184.002	3125.20833
188.124	3657.54167
192.244	3785.875
196.36	3738.54167
200.472	3589.54167
204.581	3440.875
208.687	3294.54167
212.79	3220.20833
216.889	3154.20833
220.984	3148.20833
225.077	3085.54167
229.165	3061.54167
233.251	3023.875
237.333	2989.54167
241.412	2954.875
245.487	2932.20833
249.559	2885.54167
253.628	2854.875
257.694	2834.20833
261.756	2821.54167
265.814	2800.875
269.87	2756.20833
273.922	2729.54167
277.97	2754.875
282.016	2782.54167
286.058	2812.875
290.097	2929.875
294.132	3005.875
298.164	2964.20833
302.193	2851.20833
306.219	2685.20833
310.241	2456.875
314.26	2257.54167
318.276	2093.20833
322.288	1954.54167
326.297	1840.54167
330.303	1774.54167
334.305	1732.875
338.305	1671.54167
342.301	1656.54167
346.294	1629.20833
350.283	1608.875
354.269	1593.54167
358.252	1561.54167
362.232	1555.875
366.209	1556.54167
370.182	1533.875
374.152	1520.875
378.119	1512.20833
382.083	1491.875
386.043	1524.54167
390	1474.875
393.954	1485.20833
397.905	1471.54167
401.852	1473.20833
405.797	1468.875
409.738	1461.54167
413.676	1442.875
417.61	1457.54167
421.542	1456.875
425.47	1433.54167
429.396	1414.54167
433.318	1411.54167
437.236	1403.54167
441.152	1419.875
445.065	1387.875
448.974	1378.875
452.88	1355.54167
456.783	1365.20833
460.683	1355.875
464.58	1358.20833
468.473	1368.875
472.364	1384.875
476.251	1386.20833
480.135	1383.20833
484.016	1415.20833
487.894	1427.875
491.769	1434.875
495.641	1461.54167
499.509	1479.875
503.375	1497.875
507.237	1521.875
511.096	1665.875
514.952	2139.54167
518.805	2735.54167
522.655	2885.20833
526.502	2104.875
530.346	1581.20833
534.187	1473.54167
538.024	1441.20833
541.859	1403.20833
545.69	1417.54167
549.519	1395.54167
553.344	1374.54167
557.166	1338.54167
560.985	1336.875
564.802	1345.54167
568.615	1311.875
572.425	1301.54167
576.232	1307.54167
580.036	1287.875
583.836	1318.875
587.634	1303.875
591.429	1312.875
595.221	1353.54167
599.01	1335.875
602.796	1353.875
606.578	1344.875
610.358	1353.20833
614.135	1338.20833
617.909	1346.20833
621.679	1334.875
625.447	1327.54167
629.212	1334.875
632.973	1338.20833
636.732	1314.20833
640.488	1315.20833
644.241	1309.20833
647.991	1292.20833
651.737	1326.875
655.481	1295.875
659.222	1289.875
662.96	1286.875
666.695	1293.20833
670.427	1315.54167
674.156	1315.54167
677.882	1326.875
681.605	1343.20833
685.325	1301.54167
689.043	1323.20833
692.757	1298.20833
696.468	1303.875
700.177	1316.875
703.882	1297.875
707.585	1292.875
711.284	1290.875
714.981	1297.54167
718.675	1292.875
722.366	1308.54167
726.054	1298.20833
729.739	1306.875
733.421	1304.54167
737.1	1281.875
740.777	1316.20833
744.45	1303.875
748.121	1315.875
751.789	1356.20833
755.453	1335.54167
759.115	1336.20833
762.774	1344.875
766.431	1357.54167
770.084	1359.20833
773.734	1373.54167
777.382	1388.875
781.027	1399.54167
784.669	1399.875
788.308	1408.20833
791.944	1415.20833
795.577	1433.54167
799.208	1459.20833
802.835	1447.54167
806.46	1459.20833
810.082	1466.54167
813.701	1450.54167
817.317	1464.875
820.931	1472.20833
824.542	1470.875
828.149	1451.875
831.754	1439.20833
835.357	1442.54167
838.956	1461.20833
842.553	1444.20833
846.146	1432.20833
849.737	1432.54167
853.326	1437.875
856.911	1435.54167
860.493	1457.20833
864.073	1445.54167
867.65	1462.20833
871.225	1507.54167
874.796	1484.20833
878.365	1493.875
881.931	1514.54167
885.494	1547.20833
889.054	1567.54167
892.612	1606.875
896.166	1617.54167
899.719	1601.54167
903.268	1569.54167
906.814	1543.20833
910.358	1525.20833
913.899	1465.875
917.438	1463.875
920.973	1447.54167
924.506	1475.875
928.036	1503.20833
931.564	1531.20833
935.088	1565.20833
938.61	1570.54167
942.129	1587.54167
945.646	1605.875
949.16	1641.875
952.671	1646.54167
956.179	1642.875
959.685	1635.20833
963.188	1610.875
966.688	1580.20833
970.185	1527.54167
973.68	1524.54167
977.173	1525.20833
980.662	1493.54167
984.149	1488.54167
987.633	1488.20833
991.114	1489.54167
994.593	1504.54167
998.069	1548.54167
1001.542	1574.20833
1005.013	1539.54167
1008.481	1464.54167
1011.947	1458.20833
1015.409	1439.875
1018.869	1452.20833
1022.327	1447.875
1025.782	1443.54167
1029.234	1477.875
1032.683	1461.20833
1036.13	1405.20833
1039.574	1343.54167
1043.016	1336.20833
1046.455	1304.54167
1049.891	1293.54167
1053.325	1308.875
1056.756	1292.875
1060.184	1297.20833
1063.61	1281.20833
1067.033	1322.20833
1070.454	1289.20833
1073.872	1343.875
1077.287	1338.875
1080.7	1320.875
1084.11	1334.54167
1087.517	1325.875
1090.922	1326.54167
1094.325	1303.54167
1097.724	1299.875
1101.122	1302.20833
1104.516	1295.20833
1107.908	1302.54167
1111.298	1318.20833
1114.684	1340.875
1118.069	1348.875
1121.45	1355.875
1124.83	1358.20833
1128.206	1365.875
1131.58	1415.20833
1134.951	1443.20833
1138.32	1467.875
1141.687	1508.20833
1145.05	1531.875
1148.412	1523.20833
1151.77	1505.875
1155.126	1519.20833
1158.48	1509.54167
1161.831	1541.54167
1165.18	1534.875
1168.525	1551.875
1171.869	1570.54167
1175.21	1590.54167
1178.548	1600.875
1181.884	1616.875
1185.217	1606.20833
1188.548	1663.875
1191.877	1692.875
1195.202	1752.20833
1198.526	1758.20833
1201.846	1754.20833
1205.165	1783.54167
1208.48	1778.20833
1211.794	1791.54167
1215.104	1778.20833
1218.413	1801.54167
1221.719	1790.875
1225.022	1757.875
1228.323	1731.875
1231.621	1749.875
1234.917	1710.875
1238.21	1747.20833
1241.501	1724.20833
1244.79	1746.20833
1248.076	1718.875
1251.359	1752.54167
1254.64	1805.54167
1257.919	1773.875
1261.195	1801.875
1264.468	1821.54167
1267.74	1842.54167
1271.008	1855.54167
1274.275	1856.875
1277.538	1843.875
1280.8	1852.875
1284.059	1845.20833
1287.315	1868.875
1290.569	1869.20833
1293.821	1895.875
1297.07	1888.20833
1300.317	1906.54167
1303.562	1900.54167
1306.803	1901.54167
1310.043	1863.875
1313.28	1852.54167
1316.515	1838.20833
1319.747	1851.875
1322.977	1834.54167
1326.204	1839.875
1329.429	1834.54167
1332.652	1835.875
1335.872	1812.20833
1339.09	1784.875
1342.306	1767.20833
1345.519	1721.54167
1348.729	1689.20833
1351.938	1653.20833
1355.144	1633.20833
1358.347	1601.20833
1361.548	1640.20833
1364.747	1631.54167
1367.944	1598.54167
1371.138	1603.875
1374.329	1629.875
1377.518	1645.20833
1380.705	1657.875
1383.89	1638.875
1387.072	1608.20833
1390.252	1565.54167
1393.429	1532.875
1396.605	1513.20833
1399.777	1496.54167
1402.948	1503.20833
1406.116	1515.875
1409.282	1531.875
1412.445	1538.875
1415.606	1575.20833
1418.765	1585.875
1421.921	1592.875
1425.075	1593.20833
1428.227	1619.54167
1431.376	1674.875
1434.524	1734.875
1437.668	1759.20833
1440.811	1780.875
1443.951	1793.54167
1447.089	1786.875
1450.224	1773.54167
1453.357	1758.20833
1456.488	1742.54167
1459.617	1724.875
1462.743	1701.875
1465.867	1659.875
1468.989	1641.20833
1472.108	1619.20833
1475.225	1590.54167
1478.34	1575.875
1481.453	1582.20833
1484.563	1581.54167
1487.671	1597.875
1490.776	1609.20833
1493.88	1632.875
1496.981	1672.875
1500.08	1674.875
1503.176	1690.54167
1506.271	1742.875
1509.363	1753.20833
1512.452	1776.54167
1515.54	1794.875
1518.625	1818.20833
1521.708	1881.20833
1524.789	1928.20833
1527.867	1977.20833
1530.944	2065.875
1534.018	2169.875
1537.089	2226.20833
1540.159	2281.20833
1543.226	2252.875
1546.291	2201.54167
1549.354	2162.54167
1552.415	2130.54167
1555.473	2071.20833
1558.529	2034.54167
1561.583	2011.875
1564.634	1972.20833
1567.684	1965.20833
1570.731	1956.54167
1573.776	1950.20833
1576.819	1970.20833
1579.859	1960.20833
1582.898	2003.54167
1585.934	1985.875
1588.968	2027.875
1591.999	2008.54167
1595.029	2020.875
1598.056	2033.54167
1601.081	2059.54167
1604.104	2052.875
1607.125	2020.20833
1610.144	1966.875
1613.16	1937.20833
1616.174	1901.54167
1619.186	1882.875
1622.196	1827.20833
1625.203	1768.20833
1628.209	1752.20833
1631.212	1758.875
1634.213	1740.54167
1637.212	1686.875
1640.209	1686.875
1643.203	1629.20833
1646.196	1590.20833
1649.186	1554.54167
1652.174	1524.20833
1655.16	1484.20833
1658.144	1483.20833
1661.125	1421.20833
1664.105	1387.54167
1667.082	1347.20833
1670.057	1301.20833
1673.03	1229.875
1676.001	1180.875
1678.97	1133.20833
1681.937	1098.54167
1684.901	1039.20833
1687.863	1028.20833
1690.824	995.875
1693.782	999.20833
1696.738	939.20833
1699.692	943.54167
1702.643	935.54167
1705.593	929.20833
1708.54	928.20833
1711.486	932.54167
1714.429	905.54167
1717.37	908.54167
1720.309	897.20833
1723.246	907.875
1726.181	883.54167
1729.113	900.875
1732.044	893.54167
1734.972	880.54167
1737.899	897.20833
1740.823	893.20833
1743.745	921.54167
1746.665	860.20833
1749.583	870.20833
1752.499	855.875
1755.413	850.20833
1758.325	847.54167
1761.235	848.875
1764.142	829.54167
1767.048	837.875
1769.951	834.54167
1772.852	829.54167
1775.752	828.20833
1778.649	834.54167
1781.544	846.54167
1784.437	818.54167
1787.328	846.20833
1790.217	823.875
1793.104	818.20833
1795.989	822.20833
1798.872	814.54167
1801.753	849.20833
1804.631	842.54167
1807.508	861.20833
1810.383	851.875
1813.255	842.54167
1816.126	852.875
1818.994	857.20833
1821.861	842.875
1824.725	847.875
1827.587	855.875
1830.448	851.875
1833.306	835.20833
1836.162	856.20833
1839.017	835.20833
1841.869	848.20833
1844.719	846.54167
1847.567	823.54167
1850.414	830.875
1853.258	845.20833
1856.1	851.875
1858.94	866.20833
1861.778	862.875
1864.614	855.20833
1867.448	873.875
1870.28	862.54167
1873.111	898.20833
1875.939	880.20833
1878.765	892.875
1881.589	875.20833
1884.411	878.875
1887.231	900.20833
1890.049	888.54167
1892.865	885.54167
1895.68	888.875
1898.492	893.20833
1901.302	879.54167
1904.11	897.875
1906.916	892.54167
1909.721	896.20833
1912.523	908.875
1915.323	884.54167
1918.122	897.54167
1920.918	907.875
1923.712	890.54167
1926.505	915.875
1929.295	887.875
1932.084	928.54167
1934.87	931.54167
1937.655	914.20833
1940.438	911.875
1943.218	934.20833
1945.997	939.54167
1948.774	942.20833
1951.549	952.875
1954.322	940.20833
1957.093	953.20833
1959.862	951.54167
1962.629	957.20833
1965.394	940.54167
1968.157	939.875
1970.918	968.20833
1973.678	964.54167
1976.435	962.20833
1979.19	964.20833
1981.944	939.20833
1984.696	963.875
1987.445	966.875
1990.193	959.54167
1992.939	995.54167
1995.683	992.54167
1998.425	976.54167
2001.165	1003.54167
2003.903	989.20833
2006.639	990.54167
2009.374	996.20833
2012.106	1010.875
2014.837	986.20833
2017.566	1027.875
2020.292	1014.20833
2023.017	1037.875
2025.74	1030.54167
2028.461	1038.54167
2031.18	1038.54167
2033.898	1015.54167
2036.613	1057.20833
2039.327	1066.54167
2042.038	1048.20833
2044.748	1053.54167
2047.456	1057.875
2050.162	1054.875
2052.866	1059.875
2055.568	1068.54167
2058.268	1072.875
2060.967	1094.20833
2063.663	1077.54167
2066.358	1091.20833
2069.051	1079.20833
2071.742	1095.54167
2074.431	1107.54167
2077.118	1102.875
2079.804	1108.875
2082.487	1117.20833
2085.169	1150.20833
2087.849	1149.875
2090.527	1131.875
2093.203	1163.20833
2095.877	1154.875
2098.55	1158.875
2101.22	1200.54167
2103.889	1196.20833
2106.556	1187.54167
2109.221	1213.875
2111.884	1252.20833
2114.546	1296.875
2117.205	1322.875
2119.863	1356.20833
2122.519	1401.875
2125.173	1421.875
2127.825	1464.20833
2130.475	1454.875
2133.124	1427.54167
2135.771	1390.875
2138.416	1378.875
2141.059	1354.20833
2143.7	1361.20833
2146.339	1323.54167
2148.977	1321.20833
2151.613	1312.20833
2154.247	1296.20833
2156.879	1315.20833
2159.51	1294.54167
2162.138	1297.54167
2164.765	1295.20833
2167.39	1293.54167
2170.013	1325.20833
2172.634	1328.875
2175.254	1311.875
2177.872	1348.875
2180.488	1305.20833
2183.102	1327.875
2185.714	1314.875
2188.325	1321.54167
2190.934	1339.875
2193.541	1348.875
2196.146	1322.875
2198.75	1337.875
2201.351	1348.54167
2203.951	1346.875
2206.549	1373.20833
2209.146	1364.875
2211.74	1360.20833
2214.333	1396.54167
2216.924	1377.875
2219.514	1393.54167
2222.101	1381.54167
2224.687	1393.54167
2227.271	1398.54167
2229.853	1400.54167
2232.433	1394.20833
2235.012	1421.54167
2237.589	1432.54167
2240.164	1445.54167
2242.738	1435.875
2245.309	1438.54167
2247.879	1441.875
2250.448	1463.875
2253.014	1450.875
2255.579	1461.54167
2258.142	1465.20833
2260.703	1454.54167
2263.262	1468.54167
2265.82	1482.20833
2268.376	1488.20833
2270.93	1483.875
2273.483	1488.54167
2276.033	1506.20833
2278.583	1520.20833
2281.13	1526.54167
2283.675	1523.20833
2286.219	1523.875
2288.761	1533.54167
2291.302	1538.875
2293.841	1557.875
2296.377	1542.20833
2298.913	1550.20833
2301.446	1572.54167
2303.978	1594.875
2306.508	1586.54167
2309.037	1608.20833
2311.563	1611.20833
2314.088	1621.20833
2316.612	1618.875
2319.133	1636.20833
2321.653	1631.54167
2324.171	1639.875
2326.688	1655.875
2329.202	1660.54167
2331.715	1655.54167
2334.227	1668.875
2336.736	1673.54167
2339.244	1673.54167
2341.751	1671.20833
2344.255	1704.875
2346.758	1709.875
2349.259	1699.54167
2351.759	1716.875
2354.257	1704.875
2356.753	1732.20833
2359.247	1745.54167
2361.74	1774.20833
2364.231	1771.20833
2366.721	1790.54167
2369.209	1795.54167
2371.695	1794.20833
2374.179	1781.875
2376.662	1798.875
2379.143	1839.54167
2381.622	1839.20833
2384.1	1845.875
2386.576	1868.20833
2389.051	1871.875
2391.524	1889.54167
2393.995	1897.20833
2396.464	1883.20833
2398.932	1879.875
2401.398	1902.54167
2403.863	1910.54167
2406.325	1929.20833
2408.787	1935.54167
2411.246	1944.20833
2413.704	1965.54167
2416.16	1951.875
2418.615	1964.20833
2421.068	1981.20833
2423.519	1994.875
2425.969	2007.54167
2428.417	2024.20833
2430.863	2052.54167
2433.308	2066.20833
2435.751	2040.54167
2438.193	2071.54167
2440.633	2083.875
2443.071	2061.54167
2445.508	2077.875
2447.943	2074.54167
2450.376	2114.875
2452.808	2110.875
2455.238	2115.875
2457.667	2150.20833
2460.093	2134.54167
2462.519	2141.54167
2464.942	2161.54167
2467.365	2195.875
2469.785	2189.20833
2472.204	2197.54167
2474.621	2184.875
2477.037	2224.875
2479.451	2221.875
2481.863	2221.20833
2484.274	2238.20833
2486.683	2238.20833
2489.091	2258.54167
2491.497	2265.54167
2493.901	2287.875
2496.304	2286.54167
2498.705	2315.875
2501.105	2296.54167
2503.503	2370.875
2505.899	2319.20833
2508.294	2365.20833
2510.687	2350.54167
2513.079	2356.54167
2515.469	2370.875
2517.858	2365.54167
2520.245	2411.875
2522.63	2397.875
2525.014	2399.875
2527.396	2421.875
2529.776	2425.875
2532.156	2449.54167
2534.533	2448.875
2536.909	2444.20833
2539.283	2457.20833
2541.656	2493.20833
2544.027	2501.875
2546.397	2516.54167
2548.765	2528.20833
2551.131	2517.20833
2553.496	2548.20833
2555.86	2556.54167
2558.221	2545.20833
2560.582	2554.20833
2562.94	2581.20833
2565.298	2606.875
2567.653	2626.54167
2570.007	2604.875
2572.36	2623.20833
2574.711	2637.20833
2577.06	2677.875
2579.408	2660.54167
2581.754	2683.20833
2584.099	2711.54167
2586.442	2723.54167
2588.784	2748.20833
2591.124	2745.875
2593.463	2766.20833
2595.8	2767.875
2598.135	2749.20833
2600.469	2781.20833
2602.802	2793.875
2605.133	2807.20833
2607.462	2785.20833
2609.79	2814.54167
2612.116	2815.20833
2614.441	2837.875
2616.764	2859.20833
2619.086	2872.20833
2621.406	2884.875
2623.725	2877.54167
2626.042	2921.875
2628.358	2910.54167
2630.672	2938.20833
2632.985	2969.875
2635.296	2989.54167
2637.606	2977.875
2639.914	2980.875
2642.22	3002.20833
2644.525	3023.20833
2646.829	3042.54167
2649.131	3050.54167
2651.432	3093.875
2653.731	3086.20833
2656.028	3100.875
2658.324	3132.54167
2660.619	3135.875
2662.912	3176.54167
2665.204	3156.20833
2667.494	3166.20833
2669.782	3166.875
2672.07	3172.54167
2674.355	3198.54167
2676.639	3193.20833
2678.922	3187.875
2681.203	3201.875
2683.483	3227.875
2685.761	3219.54167
2688.038	3247.54167
2690.313	3267.875
2692.587	3267.54167
2694.859	3275.875
2697.13	3273.875
2699.399	3303.20833
2701.667	3314.54167
2703.933	3323.875
2706.198	3353.875
2708.461	3364.20833
2710.723	3380.54167
2712.984	3387.875
2715.243	3429.20833
2717.5	3438.20833
2719.757	3458.54167
2722.011	3452.20833
2724.264	3475.20833
2726.516	3521.54167
2728.766	3510.20833
2731.015	3538.20833
2733.262	3538.20833
2735.508	3580.54167
2737.753	3554.875
2739.996	3550.54167
2742.237	3529.20833
2744.477	3565.54167
2746.716	3553.875
2748.953	3560.875
2751.189	3566.54167
2753.423	3581.54167
2755.656	3562.20833
2757.887	3560.875
2760.117	3580.20833
2762.346	3584.20833
2764.573	3597.875
2766.798	3609.875
2769.022	3622.20833
2771.245	3639.875
2773.467	3661.875
2775.686	3656.54167
2777.905	3675.20833
2780.122	3663.20833
2782.337	3715.875
2784.552	3719.875
2786.764	3725.54167
2788.976	3766.20833
2791.186	3786.875
2793.394	3793.875
2795.601	3833.20833
2797.807	3858.875
2800.011	3876.875
2802.214	3887.20833
2804.415	3891.20833
2806.615	3884.20833
2808.814	3911.20833
2811.011	3905.875
2813.206	3893.54167
2815.401	3911.875
2817.594	3921.20833
2819.785	3914.875
2821.975	3913.20833
2824.164	3924.20833
2826.351	3949.54167
2828.537	3969.875
2830.722	3987.54167
2832.905	3961.54167
2835.086	4018.54167
2837.267	4066.20833
2839.445	4059.875
2841.623	4051.20833
2843.799	4082.20833
2845.974	4116.875
2848.147	4140.54167
2850.319	4146.54167
2852.489	4226.875
2854.659	4193.875
2856.826	4226.54167
2858.993	4270.20833
2861.158	4276.20833
2863.321	4269.20833
2865.483	4257.875
2867.644	4315.20833
2869.804	4254.54167
2871.962	4253.875
2874.118	4242.20833
2876.274	4259.875
2878.428	4223.875
2880.58	4212.20833
2882.731	4180.20833
2884.881	4189.54167
2887.03	4199.20833
2889.177	4213.875
2891.322	4249.20833
2893.467	4231.54167
2895.61	4283.875
2897.751	4269.875
2899.892	4280.875
2902.03	4324.54167
2904.168	4333.54167
2906.304	4332.54167
2908.439	4398.875
2910.572	4367.54167
2912.704	4418.20833
2914.835	4421.54167
2916.965	4439.875
2919.093	4447.20833
2921.219	4417.20833
2923.345	4459.54167
2925.469	4432.875
2927.591	4407.875
2929.712	4364.20833
2931.832	4368.875
2933.951	4330.20833
2936.068	4289.875
2938.184	4280.54167
2940.299	4262.54167
2942.412	4248.20833
2944.524	4243.54167
2946.634	4274.54167
2948.744	4234.20833
2950.851	4301.875
2952.958	4293.20833
2955.063	4321.875
2957.167	4317.875
2959.269	4317.20833
2961.371	4362.875
2963.471	4339.875
2965.569	4345.20833
2967.666	4323.54167
2969.762	4337.875
2971.857	4321.20833
2973.95	4289.54167
2976.042	4258.875
2978.133	4224.20833
2980.222	4180.20833
2982.31	4162.20833
2984.396	4146.54167
2986.482	4141.54167
2988.566	4105.54167
2990.648	4116.54167
2992.73	4123.875
2994.81	4133.20833
2996.889	4167.54167
2998.966	4153.875
3001.042	4202.20833
3003.117	4205.54167
3005.191	4171.20833
3007.263	4175.875
3009.334	4138.20833
3011.403	4136.20833
3013.472	4073.20833
3015.539	4042.20833
3017.604	4026.20833
3019.669	3952.54167
3021.732	3977.20833
3023.794	3949.54167
3025.854	3946.875
3027.914	3961.875
3029.971	3996.54167
3032.028	3971.54167
3034.083	3948.20833
3036.137	3886.20833
3038.19	3808.20833
3040.242	3717.54167
3042.292	3661.54167
3044.341	3616.54167
3046.388	3582.20833
3048.435	3563.54167
3050.48	3556.875
3052.524	3542.875
3054.566	3500.20833
3056.607	3504.54167
3058.647	3447.54167
3060.686	3348.875
3062.723	3252.54167
3064.759	3129.20833
3066.794	2.875
3068.828	-0.45833
3070.86	-3.45833
