-0.839	307.25
3.438	326.58333
7.711	94.91667
11.981	43.91667
16.247	36.91667
20.509	36.58333
24.768	40.58333
29.024	43.25
33.276	36.58333
37.524	43.58333
41.769	36.91667
46.01	30.25
50.247	43.91667
54.481	57.25
58.712	60.91667
62.939	43.25
67.162	55.91667
71.382	53.58333
75.599	41.91667
79.812	56.25
84.021	72.25
88.227	52.91667
92.429	52.91667
96.628	39.58333
100.823	56.58333
105.015	64.91667
109.204	65.58333
113.388	64.25
117.57	61.58333
121.748	73.25
125.922	61.91667
130.093	81.58333
134.261	79.91667
138.425	77.25
142.585	109.91667
146.742	103.58333
150.896	120.25
155.046	135.58333
159.193	220.91667
163.336	350.91667
167.476	646.58333
171.613	1177.58333
175.746	1960.25
179.875	2900.91667
184.002	3787.25
188.124	4411.58333
192.244	4624.25
196.36	4573.91667
200.472	4389.25
204.581	4289.91667
208.687	4123.91667
212.79	4053.91667
216.889	4040.25
220.984	4029.58333
225.077	4075.58333
229.165	4037.25
233.251	4063.25
237.333	4040.91667
241.412	4002.58333
245.487	3952.25
249.559	3905.58333
253.628	3878.58333
257.694	3844.91667
261.756	3792.25
265.814	3754.91667
269.87	3666.25
273.922	3586.58333
277.97	3606.25
282.016	3626.25
286.058	3632.25
290.097	3736.25
294.132	3755.25
298.164	3732.58333
302.193	3558.25
306.219	3285.91667
310.241	3019.25
314.26	2769.58333
318.276	2554.58333
322.288	2399.58333
326.297	2240.91667
330.303	2173.91667
334.305	2104.58333
338.305	2054.58333
342.301	2021.91667
346.294	1998.58333
350.283	1972.58333
354.269	1940.25
358.252	1933.58333
362.232	1923.25
366.209	1913.91667
370.182	1882.58333
374.152	1886.25
378.119	1900.91667
382.083	1873.91667
386.043	1890.25
390	1840.91667
393.954	1849.91667
397.905	1824.58333
401.852	1821.91667
405.797	1800.25
409.738	1781.58333
413.676	1786.91667
417.61	1773.25
421.542	1765.25
425.47	1730.25
429.396	1710.25
433.318	1705.58333
437.236	1666.91667
441.152	1700.91667
445.065	1663.58333
448.974	1658.58333
452.88	1663.58333
456.783	1641.58333
460.683	1646.25
464.58	1654.25
468.473	1654.25
472.364	1644.25
476.251	1654.91667
480.135	1689.58333
484.016	1690.58333
487.894	1698.91667
491.769	1719.25
495.641	1736.58333
499.509	1730.91667
503.375	1752.58333
507.237	1745.25
511.096	1806.58333
514.952	1979.58333
518.805	2159.91667
522.655	2216.91667
526.502	1928.91667
530.346	1728.58333
534.187	1707.91667
538.024	1687.91667
541.859	1647.58333
545.69	1681.91667
549.519	1671.91667
553.344	1636.91667
557.166	1617.58333
560.985	1603.58333
564.802	1604.91667
568.615	1577.58333
572.425	1556.25
576.232	1553.58333
580.036	1549.91667
583.836	1564.25
587.634	1563.91667
591.429	1551.58333
595.221	1588.91667
599.01	1577.25
602.796	1605.58333
606.578	1633.91667
610.358	1629.25
614.135	1621.58333
617.909	1605.58333
621.679	1592.25
625.447	1593.25
629.212	1612.58333
632.973	1599.58333
636.732	1592.91667
640.488	1596.91667
644.241	1563.91667
647.991	1561.91667
651.737	1597.58333
655.481	1548.58333
659.222	1557.58333
662.96	1561.91667
666.695	1553.91667
670.427	1577.25
674.156	1591.91667
677.882	1586.25
681.605	1607.25
685.325	1564.25
689.043	1591.58333
692.757	1572.25
696.468	1556.25
700.177	1591.58333
703.882	1573.91667
707.585	1560.25
711.284	1568.25
714.981	1561.58333
718.675	1575.25
722.366	1593.25
726.054	1554.25
729.739	1564.58333
733.421	1571.25
737.1	1553.58333
740.777	1572.91667
744.45	1591.91667
748.121	1595.58333
751.789	1634.91667
755.453	1615.25
759.115	1633.58333
762.774	1638.91667
766.431	1649.58333
770.084	1677.25
773.734	1680.91667
777.382	1720.58333
781.027	1729.91667
784.669	1724.25
788.308	1742.91667
791.944	1753.25
795.577	1787.91667
799.208	1801.58333
802.835	1799.25
806.46	1810.58333
810.082	1802.25
813.701	1801.25
817.317	1812.25
820.931	1828.58333
824.542	1826.91667
828.149	1818.25
831.754	1784.58333
835.357	1792.25
838.956	1814.25
842.553	1768.58333
846.146	1752.25
849.737	1780.58333
853.326	1768.58333
856.911	1774.25
860.493	1807.91667
864.073	1781.58333
867.65	1852.91667
871.225	1887.25
874.796	1865.91667
878.365	1889.58333
881.931	1911.91667
885.494	1920.25
889.054	1935.25
892.612	1986.91667
896.166	1995.58333
899.719	1965.25
903.268	1914.25
906.814	1890.91667
910.358	1855.25
913.899	1812.58333
917.438	1830.58333
920.973	1810.58333
924.506	1836.58333
928.036	1843.91667
931.564	1864.91667
935.088	1894.91667
938.61	1894.91667
942.129	1905.91667
945.646	1963.58333
949.16	1998.91667
952.671	2022.91667
956.179	2049.58333
959.685	2005.91667
963.188	1983.91667
966.688	1962.91667
970.185	1887.58333
973.68	1870.58333
977.173	1879.25
980.662	1853.91667
984.149	1871.25
987.633	1848.58333
991.114	1879.25
994.593	1920.58333
998.069	1984.91667
1001.542	2035.91667
1005.013	1989.25
1008.481	1889.91667
1011.947	1859.91667
1015.409	1863.91667
1018.869	1863.58333
1022.327	1864.91667
1025.782	1850.58333
1029.234	1877.25
1032.683	1848.91667
1036.13	1807.58333
1039.574	1733.58333
1043.016	1682.58333
1046.455	1647.58333
1049.891	1623.91667
1053.325	1645.25
1056.756	1630.91667
1060.184	1669.25
1063.61	1655.25
1067.033	1663.25
1070.454	1657.58333
1073.872	1696.91667
1077.287	1689.58333
1080.7	1684.25
1084.11	1698.58333
1087.517	1678.58333
1090.922	1671.25
1094.325	1640.25
1097.724	1618.91667
1101.122	1639.91667
1104.516	1625.25
1107.908	1619.91667
1111.298	1657.25
1114.684	1661.91667
1118.069	1686.58333
1121.45	1702.91667
1124.83	1705.58333
1128.206	1730.58333
1131.58	1747.25
1134.951	1780.25
1138.32	1815.58333
1141.687	1887.25
1145.05	1907.91667
1148.412	1928.91667
1151.77	1923.58333
1155.126	1917.58333
1158.48	1922.25
1161.831	1943.25
1165.18	1939.25
1168.525	1949.91667
1171.869	1977.58333
1175.21	2021.91667
1178.548	2019.58333
1181.884	2047.91667
1185.217	2046.25
1188.548	2088.25
1191.877	2131.58333
1195.202	2172.58333
1198.526	2187.91667
1201.846	2205.58333
1205.165	2217.25
1208.48	2189.58333
1211.794	2222.58333
1215.104	2210.58333
1218.413	2231.25
1221.719	2211.58333
1225.022	2194.58333
1228.323	2177.91667
1231.621	2180.25
1234.917	2172.91667
1238.21	2211.25
1241.501	2195.91667
1244.79	2194.25
1248.076	2194.58333
1251.359	2218.58333
1254.64	2238.25
1257.919	2248.58333
1261.195	2289.91667
1264.468	2305.58333
1267.74	2327.25
1271.008	2361.91667
1274.275	2339.58333
1277.538	2332.58333
1280.8	2325.91667
1284.059	2316.58333
1287.315	2342.25
1290.569	2344.58333
1293.821	2383.25
1297.07	2368.25
1300.317	2389.58333
1303.562	2386.58333
1306.803	2373.58333
1310.043	2343.25
1313.28	2299.91667
1316.515	2312.91667
1319.747	2284.58333
1322.977	2263.58333
1326.204	2253.91667
1329.429	2235.25
1332.652	2234.91667
1335.872	2238.25
1339.09	2196.58333
1342.306	2192.58333
1345.519	2167.91667
1348.729	2126.91667
1351.938	2092.25
1355.144	2072.25
1358.347	2059.58333
1361.548	2056.91667
1364.747	2071.58333
1367.944	2036.91667
1371.138	2066.58333
1374.329	2076.91667
1377.518	2105.25
1380.705	2109.91667
1383.89	2123.91667
1387.072	2060.91667
1390.252	1996.91667
1393.429	1948.58333
1396.605	1915.58333
1399.777	1872.25
1402.948	1850.91667
1406.116	1859.58333
1409.282	1872.58333
1412.445	1881.25
1415.606	1898.25
1418.765	1915.58333
1421.921	1963.91667
1425.075	1994.58333
1428.227	2006.91667
1431.376	2085.91667
1434.524	2170.58333
1437.668	2190.91667
1440.811	2218.25
1443.951	2232.25
1447.089	2257.58333
1450.224	2227.25
1453.357	2179.91667
1456.488	2159.25
1459.617	2145.58333
1462.743	2111.58333
1465.867	2065.25
1468.989	2043.25
1472.108	2001.91667
1475.225	1942.25
1478.34	1938.58333
1481.453	1943.91667
1484.563	1926.58333
1487.671	1962.91667
1490.776	1979.58333
1493.88	2024.91667
1496.981	2041.25
1500.08	2088.91667
1503.176	2106.58333
1506.271	2138.25
1509.363	2181.25
1512.452	2186.58333
1515.54	2253.25
1518.625	2284.91667
1521.708	2365.58333
1524.789	2447.91667
1527.867	2570.58333
1530.944	2730.58333
1534.018	2856.91667
1537.089	2957.91667
1540.159	2999.58333
1543.226	2952.91667
1546.291	2863.58333
1549.354	2787.91667
1552.415	2709.91667
1555.473	2596.91667
1558.529	2567.58333
1561.583	2526.25
1564.634	2493.58333
1567.684	2467.25
1570.731	2464.58333
1573.776	2477.25
1576.819	2478.91667
1579.859	2484.25
1582.898	2510.25
1585.934	2512.25
1588.968	2552.25
1591.999	2532.91667
1595.029	2535.58333
1598.056	2554.58333
1601.081	2565.91667
1604.104	2552.25
1607.125	2517.91667
1610.144	2454.91667
1613.16	2423.58333
1616.174	2367.91667
1619.186	2301.25
1622.196	2267.58333
1625.203	2237.58333
1628.209	2176.91667
1631.212	2144.25
1634.213	2128.25
1637.212	2092.25
1640.209	2060.91667
1643.203	2029.91667
1646.196	1959.91667
1649.186	1891.58333
1652.174	1862.91667
1655.16	1807.91667
1658.144	1758.91667
1661.125	1689.91667
1664.105	1618.25
1667.082	1547.91667
1670.057	1465.91667
1673.03	1393.58333
1676.001	1316.25
1678.97	1228.91667
1681.937	1169.58333
1684.901	1104.91667
1687.863	1097.91667
1690.824	1052.25
1693.782	1051.58333
1696.738	990.25
1699.692	978.25
1702.643	959.25
1705.593	952.91667
1708.54	934.91667
1711.486	936.58333
1714.429	928.25
1717.37	903.58333
1720.309	884.25
1723.246	898.91667
1726.181	866.58333
1729.113	871.25
1732.044	850.25
1734.972	852.91667
1737.899	864.25
1740.823	861.25
1743.745	846.58333
1746.665	811.25
1749.583	813.25
1752.499	801.58333
1755.413	805.58333
1758.325	784.25
1761.235	775.58333
1764.142	747.91667
1767.048	746.91667
1769.951	754.25
1772.852	749.91667
1775.752	737.25
1778.649	740.25
1781.544	757.58333
1784.437	727.58333
1787.328	737.91667
1790.217	729.91667
1793.104	717.25
1795.989	711.91667
1798.872	708.58333
1801.753	724.91667
1804.631	704.58333
1807.508	724.25
1810.383	709.91667
1813.255	706.25
1816.126	701.91667
1818.994	697.58333
1821.861	707.58333
1824.725	702.58333
1827.587	703.58333
1830.448	692.91667
1833.306	665.58333
1836.162	679.91667
1839.017	671.25
1841.869	676.58333
1844.719	674.25
1847.567	660.58333
1850.414	661.58333
1853.258	666.25
1856.1	687.25
1858.94	685.25
1861.778	675.91667
1864.614	667.91667
1867.448	660.58333
1870.28	654.91667
1873.111	674.58333
1875.939	669.58333
1878.765	678.25
1881.589	664.25
1884.411	662.58333
1887.231	659.58333
1890.049	661.58333
1892.865	651.58333
1895.68	650.58333
1898.492	651.58333
1901.302	644.91667
1904.11	648.91667
1906.916	637.25
1909.721	638.58333
1912.523	654.25
1915.323	628.91667
1918.122	643.58333
1920.918	640.91667
1923.712	630.25
1926.505	632.58333
1929.295	625.91667
1932.084	642.25
1934.87	637.25
1937.655	631.58333
1940.438	624.25
1943.218	629.25
1945.997	635.91667
1948.774	651.25
1951.549	631.91667
1954.322	621.25
1957.093	636.25
1959.862	614.91667
1962.629	628.91667
1965.394	618.58333
1968.157	591.58333
1970.918	619.91667
1973.678	607.58333
1976.435	621.25
1979.19	608.58333
1981.944	601.91667
1984.696	603.25
1987.445	591.91667
1990.193	605.25
1992.939	623.91667
1995.683	608.58333
1998.425	588.58333
2001.165	619.25
2003.903	598.91667
2006.639	588.25
2009.374	608.91667
2012.106	610.91667
2014.837	579.58333
2017.566	602.58333
2020.292	596.91667
2023.017	603.25
2025.74	591.91667
2028.461	582.58333
2031.18	588.58333
2033.898	591.58333
2036.613	593.58333
2039.327	593.58333
2042.038	584.58333
2044.748	588.25
2047.456	580.58333
2050.162	570.25
2052.866	587.25
2055.568	580.58333
2058.268	579.58333
2060.967	598.91667
2063.663	575.91667
2066.358	585.91667
2069.051	575.58333
2071.742	585.58333
2074.431	587.25
2077.118	579.25
2079.804	576.25
2082.487	587.25
2085.169	595.58333
2087.849	608.91667
2090.527	591.58333
2093.203	603.25
2095.877	611.58333
2098.55	606.58333
2101.22	620.25
2103.889	627.25
2106.556	631.25
2109.221	666.58333
2111.884	692.58333
2114.546	757.25
2117.205	809.58333
2119.863	879.25
2122.519	932.91667
2125.173	992.91667
2127.825	1047.25
2130.475	1048.25
2133.124	995.58333
2135.771	932.58333
2138.416	917.25
2141.059	852.25
2143.7	825.25
2146.339	768.58333
2148.977	715.91667
2151.613	712.25
2154.247	698.25
2156.879	671.25
2159.51	657.58333
2162.138	644.58333
2164.765	639.58333
2167.39	623.25
2170.013	638.25
2172.634	619.25
2175.254	602.58333
2177.872	639.25
2180.488	609.25
2183.102	607.91667
2185.714	590.25
2188.325	577.25
2190.934	581.58333
2193.541	588.25
2196.146	571.58333
2198.75	562.25
2201.351	567.58333
2203.951	547.25
2206.549	569.91667
2209.146	553.91667
2211.74	552.25
2214.333	556.91667
2216.924	529.25
2219.514	546.25
2222.101	543.25
2224.687	562.58333
2227.271	544.25
2229.853	541.58333
2232.433	524.58333
2235.012	552.91667
2237.589	548.25
2240.164	539.58333
2242.738	545.91667
2245.309	529.91667
2247.879	539.91667
2250.448	543.91667
2253.014	521.25
2255.579	509.25
2258.142	522.91667
2260.703	512.58333
2263.262	515.58333
2265.82	509.58333
2268.376	519.91667
2270.93	495.58333
2273.483	497.25
2276.033	515.58333
2278.583	498.58333
2281.13	508.91667
2283.675	491.58333
2286.219	496.58333
2288.761	498.58333
2291.302	511.25
2293.841	517.25
2296.377	497.58333
2298.913	501.25
2301.446	515.25
2303.978	509.25
2306.508	500.91667
2309.037	496.25
2311.563	503.25
2314.088	514.91667
2316.612	484.25
2319.133	502.91667
2321.653	503.25
2324.171	487.58333
2326.688	496.91667
2329.202	489.58333
2331.715	494.25
2334.227	492.58333
2336.736	490.91667
2339.244	491.58333
2341.751	485.25
2344.255	498.91667
2346.758	491.91667
2349.259	475.58333
2351.759	482.58333
2354.257	488.25
2356.753	478.91667
2359.247	487.91667
2361.74	496.58333
2364.231	483.58333
2366.721	492.58333
2369.209	490.58333
2371.695	482.58333
2374.179	482.58333
2376.662	485.91667
2379.143	503.25
2381.622	486.58333
2384.1	495.58333
2386.576	484.25
2389.051	503.91667
2391.524	498.91667
2393.995	498.58333
2396.464	488.25
2398.932	485.91667
2401.398	488.58333
2403.863	481.25
2406.325	485.91667
2408.787	497.25
2411.246	496.58333
2413.704	493.58333
2416.16	482.91667
2418.615	483.58333
2421.068	490.58333
2423.519	489.25
2425.969	482.25
2428.417	503.58333
2430.863	505.58333
2433.308	501.58333
2435.751	487.91667
2438.193	485.91667
2440.633	500.58333
2443.071	495.25
2445.508	473.58333
2447.943	487.58333
2450.376	484.58333
2452.808	490.25
2455.238	488.58333
2457.667	512.25
2460.093	495.25
2462.519	481.58333
2464.942	486.58333
2467.365	495.58333
2469.785	496.25
2472.204	488.91667
2474.621	485.25
2477.037	508.25
2479.451	477.91667
2481.863	481.25
2484.274	496.91667
2486.683	486.25
2489.091	506.58333
2491.497	504.91667
2493.901	493.91667
2496.304	501.58333
2498.705	509.58333
2501.105	493.91667
2503.503	519.91667
2505.899	484.58333
2508.294	512.91667
2510.687	494.25
2513.079	497.25
2515.469	489.25
2517.858	493.25
2520.245	511.25
2522.63	492.25
2525.014	490.58333
2527.396	502.91667
2529.776	496.25
2532.156	497.58333
2534.533	493.91667
2536.909	489.58333
2539.283	483.91667
2541.656	499.25
2544.027	513.58333
2546.397	504.58333
2548.765	504.25
2551.131	499.25
2553.496	507.58333
2555.86	508.58333
2558.221	498.58333
2560.582	504.58333
2562.94	486.58333
2565.298	508.25
2567.653	508.58333
2570.007	480.58333
2572.36	510.25
2574.711	506.58333
2577.06	527.25
2579.408	510.25
2581.754	504.58333
2584.099	514.58333
2586.442	507.91667
2588.784	510.25
2591.124	516.25
2593.463	515.25
2595.8	510.58333
2598.135	496.58333
2600.469	505.58333
2602.802	528.25
2605.133	521.25
2607.462	510.25
2609.79	511.58333
2612.116	525.91667
2614.441	511.58333
2616.764	522.58333
2619.086	511.91667
2621.406	517.91667
2623.725	529.58333
2626.042	534.25
2628.358	521.25
2630.672	520.58333
2632.985	531.25
2635.296	539.25
2637.606	534.91667
2639.914	522.25
2642.22	536.91667
2644.525	523.58333
2646.829	527.58333
2649.131	549.25
2651.432	557.25
2653.731	542.58333
2656.028	549.25
2658.324	550.91667
2660.619	543.25
2662.912	565.25
2665.204	538.58333
2667.494	557.91667
2669.782	550.58333
2672.07	555.91667
2674.355	564.91667
2676.639	550.91667
2678.922	547.25
2681.203	564.58333
2683.483	539.91667
2685.761	546.58333
2688.038	565.91667
2690.313	573.25
2692.587	564.91667
2694.859	554.25
2697.13	566.58333
2699.399	561.25
2701.667	572.25
2703.933	581.58333
2706.198	594.91667
2708.461	590.25
2710.723	591.58333
2712.984	591.91667
2715.243	599.58333
2717.5	589.58333
2719.757	609.58333
2722.011	590.91667
2724.264	607.91667
2726.516	616.91667
2728.766	605.91667
2731.015	611.91667
2733.262	611.91667
2735.508	602.91667
2737.753	613.25
2739.996	596.25
2742.237	594.58333
2744.477	614.91667
2746.716	615.25
2748.953	608.58333
2751.189	606.25
2753.423	597.25
2755.656	594.91667
2757.887	596.91667
2760.117	607.91667
2762.346	595.91667
2764.573	585.58333
2766.798	594.58333
2769.022	595.91667
2771.245	613.91667
2773.467	604.91667
2775.686	615.25
2777.905	617.58333
2780.122	625.91667
2782.337	633.91667
2784.552	615.91667
2786.764	626.91667
2788.976	627.91667
2791.186	632.91667
2793.394	640.25
2795.601	656.25
2797.807	652.58333
2800.011	666.25
2802.214	672.58333
2804.415	673.25
2806.615	670.58333
2808.814	691.91667
2811.011	692.25
2813.206	688.25
2815.401	694.25
2817.594	717.25
2819.785	720.58333
2821.975	704.58333
2824.164	715.58333
2826.351	729.91667
2828.537	738.25
2830.722	753.25
2832.905	754.91667
2835.086	776.58333
2837.267	799.58333
2839.445	815.58333
2841.623	809.58333
2843.799	843.58333
2845.974	844.58333
2848.147	871.91667
2850.319	887.25
2852.489	915.58333
2854.659	910.91667
2856.826	935.91667
2858.993	954.91667
2861.158	935.91667
2863.321	932.58333
2865.483	946.58333
2867.644	958.58333
2869.804	954.91667
2871.962	937.91667
2874.118	945.25
2876.274	942.91667
2878.428	932.91667
2880.58	930.58333
2882.731	915.58333
2884.881	925.58333
2887.03	928.25
2889.177	926.91667
2891.322	935.91667
2893.467	934.25
2895.61	933.58333
2897.751	953.91667
2899.892	931.58333
2902.03	944.25
2904.168	958.58333
2906.304	955.91667
2908.439	975.25
2910.572	971.25
2912.704	968.58333
2914.835	983.25
2916.965	964.58333
2919.093	988.25
2921.219	950.25
2923.345	963.91667
2925.469	947.25
2927.591	939.91667
2929.712	911.91667
2931.832	916.58333
2933.951	906.91667
2936.068	890.91667
2938.184	859.91667
2940.299	854.25
2942.412	843.91667
2944.524	808.58333
2946.634	808.58333
2948.744	779.58333
2950.851	807.58333
2952.958	763.58333
2955.063	773.58333
2957.167	774.58333
2959.269	747.25
2961.371	764.58333
2963.471	735.91667
2965.569	758.25
2967.666	705.58333
2969.762	717.91667
2971.857	693.25
2973.95	688.58333
2976.042	702.58333
2978.133	677.91667
2980.222	668.91667
2982.31	646.58333
2984.396	633.91667
2986.482	639.91667
2988.566	631.91667
2990.648	612.58333
2992.73	614.91667
2994.81	609.25
2996.889	619.91667
2998.966	616.25
3001.042	612.91667
3003.117	616.25
3005.191	625.91667
3007.263	616.25
3009.334	608.91667
3011.403	598.25
3013.472	576.58333
3015.539	584.58333
3017.604	597.58333
3019.669	566.58333
3021.732	565.58333
3023.794	566.91667
3025.854	565.25
3027.914	554.58333
3029.971	562.91667
3032.028	549.25
3034.083	547.25
3036.137	557.25
3038.19	531.25
3040.242	515.58333
3042.292	510.91667
3044.341	495.91667
3046.388	511.91667
3048.435	488.91667
3050.48	502.91667
3052.524	499.58333
3054.566	472.25
3056.607	493.91667
3058.647	488.58333
3060.686	459.91667
3062.723	448.25
3064.759	432.91667
3066.794	-1.41667
3068.828	-0.41667
3070.86	-2.41667
