-0.839	299.875
3.438	326.20833
7.711	102.20833
11.981	46.54167
16.247	41.54167
20.509	41.54167
24.768	39.20833
29.024	40.54167
33.276	36.875
37.524	46.875
41.769	34.20833
46.01	32.875
50.247	47.54167
54.481	56.20833
58.712	63.54167
62.939	43.54167
67.162	60.875
71.382	49.20833
75.599	42.875
79.812	60.875
84.021	73.875
88.227	55.875
92.429	54.875
96.628	35.20833
100.823	58.54167
105.015	64.54167
109.204	67.20833
113.388	65.20833
117.57	59.875
121.748	68.54167
125.922	64.20833
130.093	78.20833
134.261	85.875
138.425	77.20833
142.585	117.20833
146.742	102.20833
150.896	120.875
155.046	132.875
159.193	210.875
163.336	357.875
167.476	641.54167
171.613	1163.20833
175.746	1948.20833
179.875	2881.875
184.002	3771.875
188.124	4393.54167
192.244	4567.875
196.36	4535.875
200.472	4381.54167
204.581	4239.20833
208.687	4099.54167
212.79	4059.20833
216.889	4031.20833
220.984	4026.875
225.077	4013.54167
229.165	4019.875
233.251	4008.20833
237.333	4024.875
241.412	3963.20833
245.487	3926.875
249.559	3864.20833
253.628	3828.54167
257.694	3806.54167
261.756	3812.875
265.814	3696.20833
269.87	3657.54167
273.922	3604.54167
277.97	3599.54167
282.016	3601.20833
286.058	3633.20833
290.097	3740.20833
294.132	3743.20833
298.164	3715.875
302.193	3510.54167
306.219	3295.875
310.241	3008.875
314.26	2747.875
318.276	2527.875
322.288	2391.54167
326.297	2248.54167
330.303	2163.875
334.305	2079.20833
338.305	2039.875
342.301	2019.54167
346.294	1982.54167
350.283	1964.20833
354.269	1936.54167
358.252	1929.20833
362.232	1917.875
366.209	1916.54167
370.182	1874.875
374.152	1873.875
378.119	1863.875
382.083	1864.54167
386.043	1890.875
390	1852.54167
393.954	1838.54167
397.905	1827.20833
401.852	1828.20833
405.797	1791.875
409.738	1767.54167
413.676	1769.20833
417.61	1750.54167
421.542	1736.20833
425.47	1720.875
429.396	1709.54167
433.318	1694.54167
437.236	1676.20833
441.152	1696.20833
445.065	1648.54167
448.974	1646.54167
452.88	1637.875
456.783	1637.875
460.683	1620.54167
464.58	1634.875
468.473	1637.875
472.364	1653.20833
476.251	1641.54167
480.135	1660.54167
484.016	1686.20833
487.894	1687.54167
491.769	1713.54167
495.641	1717.875
499.509	1726.875
503.375	1750.875
507.237	1757.875
511.096	1773.54167
514.952	1974.54167
518.805	2167.54167
522.655	2215.20833
526.502	1919.20833
530.346	1730.54167
534.187	1691.20833
538.024	1662.875
541.859	1649.54167
545.69	1661.20833
549.519	1634.20833
553.344	1631.54167
557.166	1606.20833
560.985	1599.54167
564.802	1608.875
568.615	1575.875
572.425	1542.20833
576.232	1540.54167
580.036	1538.54167
583.836	1550.875
587.634	1548.20833
591.429	1531.54167
595.221	1582.20833
599.01	1590.54167
602.796	1579.875
606.578	1609.875
610.358	1605.20833
614.135	1594.54167
617.909	1602.20833
621.679	1583.20833
625.447	1566.20833
629.212	1584.20833
632.973	1581.875
636.732	1583.875
640.488	1578.54167
644.241	1559.20833
647.991	1569.875
651.737	1573.20833
655.481	1540.875
659.222	1557.54167
662.96	1539.20833
666.695	1567.20833
670.427	1562.20833
674.156	1579.875
677.882	1567.54167
681.605	1581.54167
685.325	1549.54167
689.043	1573.20833
692.757	1559.54167
696.468	1575.54167
700.177	1586.54167
703.882	1557.54167
707.585	1563.54167
711.284	1551.54167
714.981	1569.20833
718.675	1566.54167
722.366	1572.875
726.054	1543.54167
729.739	1556.54167
733.421	1563.20833
737.1	1564.54167
740.777	1573.54167
744.45	1591.20833
748.121	1586.54167
751.789	1624.875
755.453	1607.54167
759.115	1631.875
762.774	1646.20833
766.431	1639.20833
770.084	1654.54167
773.734	1672.875
777.382	1715.20833
781.027	1707.20833
784.669	1720.875
788.308	1721.20833
791.944	1730.20833
795.577	1751.20833
799.208	1775.20833
802.835	1791.54167
806.46	1805.20833
810.082	1812.20833
813.701	1803.20833
817.317	1803.20833
820.931	1806.20833
824.542	1807.54167
828.149	1800.20833
831.754	1789.20833
835.357	1791.20833
838.956	1795.54167
842.553	1761.20833
846.146	1764.20833
849.737	1754.20833
853.326	1768.20833
856.911	1781.875
860.493	1802.875
864.073	1800.875
867.65	1832.20833
871.225	1855.20833
874.796	1844.20833
878.365	1883.20833
881.931	1889.20833
885.494	1914.875
889.054	1930.54167
892.612	1972.20833
896.166	1948.54167
899.719	1928.54167
903.268	1909.875
906.814	1887.54167
910.358	1859.54167
913.899	1827.875
917.438	1821.54167
920.973	1797.54167
924.506	1821.54167
928.036	1833.875
931.564	1872.54167
935.088	1896.20833
938.61	1890.54167
942.129	1887.875
945.646	1952.875
949.16	1970.20833
952.671	1998.54167
956.179	2010.20833
959.685	1984.54167
963.188	1957.20833
966.688	1925.54167
970.185	1888.20833
973.68	1862.54167
977.173	1863.20833
980.662	1834.20833
984.149	1836.875
987.633	1846.20833
991.114	1860.20833
994.593	1930.20833
998.069	1985.20833
1001.542	2022.20833
1005.013	1978.54167
1008.481	1888.20833
1011.947	1869.54167
1015.409	1840.875
1018.869	1849.875
1022.327	1840.875
1025.782	1843.875
1029.234	1858.875
1032.683	1831.54167
1036.13	1780.54167
1039.574	1717.20833
1043.016	1678.875
1046.455	1646.54167
1049.891	1609.54167
1053.325	1618.54167
1056.756	1623.54167
1060.184	1650.875
1063.61	1632.20833
1067.033	1655.20833
1070.454	1636.875
1073.872	1669.54167
1077.287	1662.20833
1080.7	1672.875
1084.11	1693.54167
1087.517	1672.54167
1090.922	1659.875
1094.325	1628.54167
1097.724	1617.20833
1101.122	1632.54167
1104.516	1615.54167
1107.908	1610.875
1111.298	1643.54167
1114.684	1658.20833
1118.069	1661.54167
1121.45	1682.54167
1124.83	1686.54167
1128.206	1714.54167
1131.58	1717.54167
1134.951	1749.54167
1138.32	1814.875
1141.687	1873.20833
1145.05	1900.54167
1148.412	1923.20833
1151.77	1897.20833
1155.126	1908.20833
1158.48	1911.875
1161.831	1920.54167
1165.18	1920.54167
1168.525	1963.20833
1171.869	1967.20833
1175.21	2008.20833
1178.548	2003.875
1181.884	2044.875
1185.217	2035.20833
1188.548	2051.20833
1191.877	2112.20833
1195.202	2155.54167
1198.526	2182.20833
1201.846	2211.20833
1205.165	2214.875
1208.48	2182.54167
1211.794	2201.875
1215.104	2200.54167
1218.413	2208.875
1221.719	2185.20833
1225.022	2200.54167
1228.323	2153.20833
1231.621	2161.54167
1234.917	2178.20833
1238.21	2194.875
1241.501	2180.875
1244.79	2166.875
1248.076	2163.20833
1251.359	2203.20833
1254.64	2245.875
1257.919	2238.54167
1261.195	2266.875
1264.468	2302.875
1267.74	2335.54167
1271.008	2340.875
1274.275	2317.875
1277.538	2322.875
1280.8	2302.54167
1284.059	2306.20833
1287.315	2333.875
1290.569	2360.54167
1293.821	2369.54167
1297.07	2371.875
1300.317	2372.875
1303.562	2362.875
1306.803	2337.54167
1310.043	2306.875
1313.28	2315.875
1316.515	2300.875
1319.747	2268.20833
1322.977	2262.20833
1326.204	2237.20833
1329.429	2226.875
1332.652	2232.54167
1335.872	2210.20833
1339.09	2191.875
1342.306	2160.54167
1345.519	2131.875
1348.729	2113.54167
1351.938	2095.20833
1355.144	2058.875
1358.347	2050.54167
1361.548	2040.54167
1364.747	2068.875
1367.944	2019.20833
1371.138	2053.875
1374.329	2057.875
1377.518	2072.54167
1380.705	2112.54167
1383.89	2089.20833
1387.072	2048.20833
1390.252	1999.875
1393.429	1947.54167
1396.605	1894.875
1399.777	1843.875
1402.948	1862.54167
1406.116	1829.20833
1409.282	1854.20833
1412.445	1880.54167
1415.606	1911.875
1418.765	1923.875
1421.921	1943.54167
1425.075	1963.875
1428.227	2008.20833
1431.376	2084.20833
1434.524	2142.20833
1437.668	2174.875
1440.811	2196.875
1443.951	2218.20833
1447.089	2241.875
1450.224	2203.54167
1453.357	2184.875
1456.488	2166.20833
1459.617	2141.20833
1462.743	2096.875
1465.867	2045.20833
1468.989	2022.875
1472.108	1992.20833
1475.225	1935.20833
1478.34	1906.54167
1481.453	1914.875
1484.563	1908.54167
1487.671	1943.875
1490.776	1981.54167
1493.88	2006.875
1496.981	2043.20833
1500.08	2079.875
1503.176	2092.20833
1506.271	2123.20833
1509.363	2167.875
1512.452	2184.20833
1515.54	2226.54167
1518.625	2274.20833
1521.708	2366.54167
1524.789	2456.54167
1527.867	2553.875
1530.944	2710.54167
1534.018	2859.20833
1537.089	2954.20833
1540.159	2939.875
1543.226	2934.54167
1546.291	2842.875
1549.354	2774.54167
1552.415	2691.54167
1555.473	2618.875
1558.529	2529.20833
1561.583	2514.54167
1564.634	2490.875
1567.684	2466.54167
1570.731	2463.20833
1573.776	2453.20833
1576.819	2459.875
1579.859	2467.54167
1582.898	2502.54167
1585.934	2514.54167
1588.968	2548.54167
1591.999	2535.875
1595.029	2514.875
1598.056	2539.20833
1601.081	2541.20833
1604.104	2542.54167
1607.125	2506.875
1610.144	2452.54167
1613.16	2392.875
1616.174	2373.54167
1619.186	2312.875
1622.196	2250.54167
1625.203	2207.54167
1628.209	2176.20833
1631.212	2135.54167
1634.213	2130.20833
1637.212	2090.875
1640.209	2035.54167
1643.203	1998.20833
1646.196	1943.875
1649.186	1880.20833
1652.174	1833.54167
1655.16	1794.54167
1658.144	1748.54167
1661.125	1674.54167
1664.105	1601.875
1667.082	1540.20833
1670.057	1467.875
1673.03	1379.20833
1676.001	1312.20833
1678.97	1239.875
1681.937	1168.54167
1684.901	1114.875
1687.863	1089.20833
1690.824	1025.875
1693.782	1035.54167
1696.738	983.54167
1699.692	966.875
1702.643	941.20833
1705.593	945.20833
1708.54	932.54167
1711.486	926.54167
1714.429	905.20833
1717.37	898.875
1720.309	882.875
1723.246	891.54167
1726.181	859.875
1729.113	870.54167
1732.044	868.875
1734.972	845.54167
1737.899	858.54167
1740.823	850.875
1743.745	866.20833
1746.665	814.54167
1749.583	810.54167
1752.499	799.54167
1755.413	789.20833
1758.325	760.875
1761.235	768.20833
1764.142	751.54167
1767.048	758.20833
1769.951	746.875
1772.852	736.20833
1775.752	735.54167
1778.649	745.875
1781.544	727.875
1784.437	718.20833
1787.328	721.875
1790.217	727.54167
1793.104	691.54167
1795.989	694.54167
1798.872	694.20833
1801.753	719.54167
1804.631	710.20833
1807.508	721.875
1810.383	698.875
1813.255	705.875
1816.126	706.875
1818.994	701.20833
1821.861	700.875
1824.725	692.54167
1827.587	689.20833
1830.448	700.20833
1833.306	664.20833
1836.162	685.54167
1839.017	676.54167
1841.869	678.54167
1844.719	672.875
1847.567	659.875
1850.414	649.54167
1853.258	648.875
1856.1	664.54167
1858.94	688.20833
1861.778	666.875
1864.614	654.20833
1867.448	662.20833
1870.28	652.875
1873.111	675.54167
1875.939	663.54167
1878.765	680.20833
1881.589	656.875
1884.411	649.20833
1887.231	660.20833
1890.049	647.54167
1892.865	652.875
1895.68	650.20833
1898.492	647.54167
1901.302	638.875
1904.11	650.54167
1906.916	646.54167
1909.721	643.54167
1912.523	638.875
1915.323	619.20833
1918.122	629.20833
1920.918	643.54167
1923.712	618.875
1926.505	615.20833
1929.295	620.54167
1932.084	634.20833
1934.87	638.20833
1937.655	625.20833
1940.438	616.54167
1943.218	631.20833
1945.997	623.875
1948.774	647.875
1951.549	629.54167
1954.322	627.54167
1957.093	628.875
1959.862	616.875
1962.629	604.875
1965.394	616.875
1968.157	592.875
1970.918	616.54167
1973.678	613.20833
1976.435	619.54167
1979.19	604.875
1981.944	606.875
1984.696	597.54167
1987.445	594.875
1990.193	600.875
1992.939	618.20833
1995.683	605.20833
1998.425	584.875
2001.165	615.875
2003.903	591.54167
2006.639	593.54167
2009.374	588.20833
2012.106	605.54167
2014.837	577.875
2017.566	598.54167
2020.292	602.875
2023.017	599.875
2025.74	587.54167
2028.461	594.20833
2031.18	599.54167
2033.898	576.20833
2036.613	587.54167
2039.327	593.54167
2042.038	589.54167
2044.748	581.54167
2047.456	580.875
2050.162	571.20833
2052.866	580.20833
2055.568	582.875
2058.268	582.20833
2060.967	584.875
2063.663	574.20833
2066.358	587.20833
2069.051	568.20833
2071.742	576.54167
2074.431	582.20833
2077.118	592.20833
2079.804	574.875
2082.487	585.54167
2085.169	588.875
2087.849	598.54167
2090.527	582.20833
2093.203	598.20833
2095.877	609.20833
2098.55	609.875
2101.22	621.20833
2103.889	633.54167
2106.556	638.875
2109.221	660.54167
2111.884	696.20833
2114.546	745.875
2117.205	811.20833
2119.863	878.875
2122.519	923.875
2125.173	973.875
2127.825	1040.20833
2130.475	1031.875
2133.124	984.20833
2135.771	939.20833
2138.416	908.54167
2141.059	845.875
2143.7	822.20833
2146.339	754.54167
2148.977	711.20833
2151.613	708.20833
2154.247	680.20833
2156.879	668.20833
2159.51	653.875
2162.138	621.54167
2164.765	624.20833
2167.39	606.20833
2170.013	622.875
2172.634	623.54167
2175.254	596.54167
2177.872	635.54167
2180.488	589.54167
2183.102	602.875
2185.714	591.54167
2188.325	564.20833
2190.934	580.54167
2193.541	578.20833
2196.146	564.54167
2198.75	555.20833
2201.351	559.875
2203.951	544.20833
2206.549	561.54167
2209.146	550.54167
2211.74	546.20833
2214.333	557.54167
2216.924	543.875
2219.514	540.20833
2222.101	528.54167
2224.687	552.875
2227.271	535.54167
2229.853	523.875
2232.433	522.54167
2235.012	541.20833
2237.589	541.875
2240.164	541.54167
2242.738	533.54167
2245.309	510.20833
2247.879	539.20833
2250.448	544.54167
2253.014	514.875
2255.579	510.54167
2258.142	517.875
2260.703	504.54167
2263.262	507.54167
2265.82	503.875
2268.376	517.54167
2270.93	500.875
2273.483	492.54167
2276.033	505.875
2278.583	505.20833
2281.13	494.875
2283.675	494.20833
2286.219	503.20833
2288.761	499.20833
2291.302	503.20833
2293.841	512.875
2296.377	493.54167
2298.913	494.54167
2301.446	510.20833
2303.978	499.54167
2306.508	486.875
2309.037	498.875
2311.563	505.875
2314.088	505.20833
2316.612	486.54167
2319.133	497.875
2321.653	493.875
2324.171	485.54167
2326.688	499.875
2329.202	480.54167
2331.715	504.20833
2334.227	489.20833
2336.736	488.54167
2339.244	482.54167
2341.751	485.20833
2344.255	504.20833
2346.758	488.20833
2349.259	478.54167
2351.759	488.54167
2354.257	480.20833
2356.753	482.875
2359.247	487.54167
2361.74	489.20833
2364.231	488.20833
2366.721	492.20833
2369.209	482.875
2371.695	479.875
2374.179	474.20833
2376.662	472.20833
2379.143	507.20833
2381.622	483.20833
2384.1	488.54167
2386.576	479.875
2389.051	495.875
2391.524	493.20833
2393.995	495.20833
2396.464	479.20833
2398.932	485.54167
2401.398	492.875
2403.863	485.875
2406.325	479.20833
2408.787	481.54167
2411.246	484.20833
2413.704	480.20833
2416.16	480.20833
2418.615	482.875
2421.068	477.54167
2423.519	488.20833
2425.969	479.54167
2428.417	487.54167
2430.863	508.54167
2433.308	499.54167
2435.751	498.20833
2438.193	483.20833
2440.633	495.54167
2443.071	497.54167
2445.508	483.875
2447.943	479.875
2450.376	477.54167
2452.808	487.875
2455.238	480.54167
2457.667	514.54167
2460.093	496.20833
2462.519	476.54167
2464.942	475.875
2467.365	494.875
2469.785	505.54167
2472.204	492.54167
2474.621	484.875
2477.037	505.54167
2479.451	477.20833
2481.863	481.875
2484.274	479.54167
2486.683	477.54167
2489.091	499.875
2491.497	493.875
2493.901	487.20833
2496.304	495.20833
2498.705	499.20833
2501.105	486.20833
2503.503	513.54167
2505.899	483.20833
2508.294	512.20833
2510.687	479.20833
2513.079	486.20833
2515.469	485.54167
2517.858	488.20833
2520.245	504.20833
2522.63	488.20833
2525.014	490.54167
2527.396	486.875
2529.776	490.20833
2532.156	498.875
2534.533	482.54167
2536.909	499.20833
2539.283	479.54167
2541.656	497.875
2544.027	508.875
2546.397	495.54167
2548.765	496.54167
2551.131	497.20833
2553.496	498.875
2555.86	502.20833
2558.221	504.875
2560.582	492.20833
2562.94	478.54167
2565.298	503.875
2567.653	514.875
2570.007	492.875
2572.36	494.54167
2574.711	495.54167
2577.06	531.20833
2579.408	513.875
2581.754	500.875
2584.099	499.875
2586.442	504.54167
2588.784	507.54167
2591.124	505.875
2593.463	507.54167
2595.8	510.54167
2598.135	497.875
2600.469	507.875
2602.802	516.20833
2605.133	521.875
2607.462	509.20833
2609.79	509.20833
2612.116	520.54167
2614.441	517.875
2616.764	517.54167
2619.086	514.54167
2621.406	514.20833
2623.725	524.54167
2626.042	527.54167
2628.358	524.875
2630.672	517.875
2632.985	531.20833
2635.296	520.20833
2637.606	532.20833
2639.914	511.20833
2642.22	528.875
2644.525	527.875
2646.829	533.54167
2649.131	542.20833
2651.432	547.20833
2653.731	540.875
2656.028	549.54167
2658.324	551.54167
2660.619	532.54167
2662.912	564.20833
2665.204	545.875
2667.494	556.20833
2669.782	544.20833
2672.07	554.54167
2674.355	560.20833
2676.639	545.875
2678.922	543.875
2681.203	551.54167
2683.483	543.20833
2685.761	546.54167
2688.038	560.875
2690.313	578.20833
2692.587	549.54167
2694.859	545.54167
2697.13	571.875
2699.399	563.875
2701.667	578.20833
2703.933	576.54167
2706.198	578.54167
2708.461	584.20833
2710.723	590.20833
2712.984	586.875
2715.243	594.875
2717.5	584.20833
2719.757	591.20833
2722.011	591.875
2724.264	609.20833
2726.516	618.20833
2728.766	598.20833
2731.015	613.875
2733.262	601.875
2735.508	604.875
2737.753	601.54167
2739.996	584.875
2742.237	595.54167
2744.477	602.54167
2746.716	604.54167
2748.953	605.20833
2751.189	597.20833
2753.423	596.875
2755.656	589.20833
2757.887	586.54167
2760.117	594.54167
2762.346	596.54167
2764.573	581.875
2766.798	589.20833
2769.022	601.54167
2771.245	606.875
2773.467	593.875
2775.686	614.20833
2777.905	608.54167
2780.122	609.875
2782.337	616.54167
2784.552	606.20833
2786.764	634.875
2788.976	630.54167
2791.186	631.875
2793.394	635.20833
2795.601	646.54167
2797.807	660.875
2800.011	657.20833
2802.214	665.20833
2804.415	673.54167
2806.615	664.875
2808.814	687.54167
2811.011	687.54167
2813.206	691.20833
2815.401	698.54167
2817.594	721.54167
2819.785	714.20833
2821.975	691.54167
2824.164	716.20833
2826.351	715.875
2828.537	734.875
2830.722	747.54167
2832.905	753.54167
2835.086	770.875
2837.267	796.20833
2839.445	803.20833
2841.623	814.20833
2843.799	827.54167
2845.974	846.875
2848.147	878.20833
2850.319	895.54167
2852.489	917.20833
2854.659	907.20833
2856.826	939.20833
2858.993	958.20833
2861.158	930.20833
2863.321	928.20833
2865.483	956.54167
2867.644	947.875
2869.804	941.875
2871.962	951.20833
2874.118	937.875
2876.274	930.875
2878.428	930.20833
2880.58	930.20833
2882.731	907.20833
2884.881	912.20833
2887.03	925.20833
2889.177	920.54167
2891.322	918.54167
2893.467	920.20833
2895.61	923.20833
2897.751	948.20833
2899.892	956.20833
2902.03	936.20833
2904.168	951.54167
2906.304	951.20833
2908.439	960.20833
2910.572	942.20833
2912.704	965.875
2914.835	968.54167
2916.965	955.54167
2919.093	970.54167
2921.219	940.54167
2923.345	970.875
2925.469	945.20833
2927.591	936.875
2929.712	899.20833
2931.832	908.54167
2933.951	890.875
2936.068	871.875
2938.184	865.875
2940.299	851.875
2942.412	838.54167
2944.524	809.875
2946.634	795.20833
2948.744	765.54167
2950.851	816.54167
2952.958	766.54167
2955.063	770.54167
2957.167	764.875
2959.269	736.875
2961.371	753.875
2963.471	736.20833
2965.569	737.20833
2967.666	711.54167
2969.762	715.54167
2971.857	696.54167
2973.95	685.54167
2976.042	685.54167
2978.133	665.20833
2980.222	656.54167
2982.31	647.54167
2984.396	632.20833
2986.482	634.875
2988.566	643.20833
2990.648	615.54167
2992.73	618.20833
2994.81	607.875
2996.889	609.875
2998.966	607.875
3001.042	620.875
3003.117	616.20833
3005.191	610.875
3007.263	612.54167
3009.334	605.54167
3011.403	598.54167
3013.472	580.54167
3015.539	584.875
3017.604	591.875
3019.669	553.20833
3021.732	564.875
3023.794	560.20833
3025.854	560.20833
3027.914	555.54167
3029.971	564.875
3032.028	547.875
3034.083	552.20833
3036.137	548.875
3038.19	535.875
3040.242	518.875
3042.292	508.20833
3044.341	489.54167
3046.388	517.20833
3048.435	478.20833
3050.48	511.875
3052.524	503.20833
3054.566	470.875
3056.607	490.20833
3058.647	477.54167
3060.686	448.20833
3062.723	454.54167
3064.759	433.54167
3066.794	0.20833
3068.828	-0.79167
3070.86	-1.79167
