-0.839	329.875
3.438	361.54167
7.711	105.875
11.981	45.54167
16.247	41.875
20.509	39.20833
24.768	41.875
29.024	45.54167
33.276	37.20833
37.524	44.20833
41.769	36.54167
46.01	33.20833
50.247	44.875
54.481	60.875
58.712	60.875
62.939	45.875
67.162	56.54167
71.382	53.54167
75.599	41.20833
79.812	59.54167
84.021	71.54167
88.227	52.20833
92.429	55.20833
96.628	40.54167
100.823	61.20833
105.015	64.875
109.204	64.54167
113.388	65.20833
117.57	61.20833
121.748	77.875
125.922	66.875
130.093	86.54167
134.261	88.20833
138.425	79.20833
142.585	117.54167
146.742	107.875
150.896	127.875
155.046	144.54167
159.193	231.875
163.336	393.875
167.476	704.875
171.613	1273.20833
175.746	2160.875
179.875	3179.875
184.002	4160.875
188.124	4813.20833
192.244	5078.54167
196.36	5004.875
200.472	4856.20833
204.581	4704.875
208.687	4525.20833
212.79	4456.20833
216.889	4470.875
220.984	4449.875
225.077	4470.875
229.165	4489.20833
233.251	4460.20833
237.333	4467.875
241.412	4407.875
245.487	4364.20833
249.559	4289.54167
253.628	4254.54167
257.694	4197.54167
261.756	4182.54167
265.814	4129.54167
269.87	4029.875
273.922	3952.54167
277.97	3963.875
282.016	3980.875
286.058	4019.20833
290.097	4107.20833
294.132	4177.54167
298.164	4085.54167
302.193	3899.54167
306.219	3619.20833
310.241	3327.20833
314.26	3058.54167
318.276	2815.54167
322.288	2637.20833
326.297	2505.54167
330.303	2404.54167
334.305	2331.875
338.305	2279.54167
342.301	2245.875
346.294	2206.20833
350.283	2220.875
354.269	2181.875
358.252	2158.20833
362.232	2165.20833
366.209	2137.54167
370.182	2120.20833
374.152	2100.875
378.119	2096.875
382.083	2069.20833
386.043	2115.875
390	2093.875
393.954	2060.20833
397.905	2052.20833
401.852	2044.875
405.797	2003.54167
409.738	1999.875
413.676	1997.875
417.61	1989.54167
421.542	1964.54167
425.47	1935.54167
429.396	1920.20833
433.318	1915.54167
437.236	1903.54167
441.152	1914.20833
445.065	1866.875
448.974	1868.875
452.88	1843.875
456.783	1842.54167
460.683	1829.20833
464.58	1847.875
468.473	1840.54167
472.364	1854.875
476.251	1864.54167
480.135	1883.875
484.016	1911.875
487.894	1918.54167
491.769	1923.54167
495.641	1940.20833
499.509	1940.875
503.375	1959.54167
507.237	1954.875
511.096	1986.875
514.952	2179.20833
518.805	2363.875
522.655	2424.54167
526.502	2135.20833
530.346	1937.20833
534.187	1904.875
538.024	1881.875
541.859	1875.875
545.69	1886.875
549.519	1867.875
553.344	1846.54167
557.166	1820.875
560.985	1802.875
564.802	1812.20833
568.615	1775.54167
572.425	1756.54167
576.232	1744.20833
580.036	1746.54167
583.836	1750.20833
587.634	1756.54167
591.429	1749.54167
595.221	1806.875
599.01	1785.875
602.796	1797.20833
606.578	1824.54167
610.358	1812.54167
614.135	1797.20833
617.909	1803.875
621.679	1803.54167
625.447	1788.20833
629.212	1810.875
632.973	1800.20833
636.732	1784.54167
640.488	1796.54167
644.241	1760.54167
647.991	1757.20833
651.737	1776.875
655.481	1747.20833
659.222	1756.54167
662.96	1741.54167
666.695	1767.875
670.427	1774.20833
674.156	1775.20833
677.882	1775.20833
681.605	1777.875
685.325	1772.875
689.043	1775.875
692.757	1766.54167
696.468	1790.54167
700.177	1777.875
703.882	1771.20833
707.585	1764.20833
711.284	1776.54167
714.981	1775.54167
718.675	1775.20833
722.366	1788.875
726.054	1756.875
729.739	1761.20833
733.421	1764.54167
737.1	1778.875
740.777	1765.54167
744.45	1788.20833
748.121	1782.875
751.789	1841.875
755.453	1815.20833
759.115	1835.20833
762.774	1852.54167
766.431	1851.875
770.084	1859.20833
773.734	1878.20833
777.382	1907.54167
781.027	1917.875
784.669	1920.20833
788.308	1933.54167
791.944	1948.54167
795.577	1969.875
799.208	2003.875
802.835	2006.20833
806.46	2017.875
810.082	2019.20833
813.701	2012.54167
817.317	2033.875
820.931	2036.20833
824.542	2034.20833
828.149	2020.54167
831.754	1999.875
835.357	1991.54167
838.956	1999.20833
842.553	2001.20833
846.146	1971.54167
849.737	1967.875
853.326	1959.875
856.911	1992.20833
860.493	2021.20833
864.073	2015.54167
867.65	2057.54167
871.225	2067.875
874.796	2070.54167
878.365	2074.54167
881.931	2097.20833
885.494	2132.20833
889.054	2148.20833
892.612	2184.20833
896.166	2203.54167
899.719	2174.20833
903.268	2133.875
906.814	2085.20833
910.358	2061.20833
913.899	2035.875
917.438	2016.20833
920.973	1998.20833
924.506	2022.875
928.036	2065.54167
931.564	2070.54167
935.088	2102.875
938.61	2091.20833
942.129	2114.875
945.646	2155.20833
949.16	2211.54167
952.671	2242.54167
956.179	2244.20833
959.685	2207.20833
963.188	2197.875
966.688	2155.20833
970.185	2105.20833
973.68	2047.20833
977.173	2074.875
980.662	2064.54167
984.149	2072.875
987.633	2056.54167
991.114	2095.20833
994.593	2131.54167
998.069	2208.54167
1001.542	2273.875
1005.013	2205.54167
1008.481	2106.54167
1011.947	2093.20833
1015.409	2059.20833
1018.869	2060.20833
1022.327	2080.20833
1025.782	2056.875
1029.234	2066.20833
1032.683	2056.875
1036.13	1995.875
1039.574	1928.54167
1043.016	1891.54167
1046.455	1841.20833
1049.891	1812.20833
1053.325	1825.54167
1056.756	1818.875
1060.184	1852.54167
1063.61	1851.54167
1067.033	1861.20833
1070.454	1850.20833
1073.872	1875.875
1077.287	1864.54167
1080.7	1889.54167
1084.11	1888.875
1087.517	1884.875
1090.922	1871.875
1094.325	1826.20833
1097.724	1804.20833
1101.122	1810.875
1104.516	1800.54167
1107.908	1797.875
1111.298	1841.20833
1114.684	1863.875
1118.069	1870.875
1121.45	1884.54167
1124.83	1900.54167
1128.206	1907.54167
1131.58	1920.20833
1134.951	1970.875
1138.32	2011.20833
1141.687	2060.54167
1145.05	2116.875
1148.412	2107.875
1151.77	2119.875
1155.126	2114.20833
1158.48	2134.54167
1161.831	2137.875
1165.18	2132.54167
1168.525	2168.875
1171.869	2179.20833
1175.21	2200.875
1178.548	2217.54167
1181.884	2255.54167
1185.217	2246.20833
1188.548	2299.20833
1191.877	2325.20833
1195.202	2402.875
1198.526	2438.54167
1201.846	2442.54167
1205.165	2436.20833
1208.48	2432.20833
1211.794	2430.54167
1215.104	2425.20833
1218.413	2466.875
1221.719	2443.875
1225.022	2425.20833
1228.323	2401.20833
1231.621	2410.54167
1234.917	2379.20833
1238.21	2425.20833
1241.501	2414.20833
1244.79	2423.875
1248.076	2412.20833
1251.359	2419.20833
1254.64	2496.875
1257.919	2479.54167
1261.195	2493.20833
1264.468	2550.54167
1267.74	2576.54167
1271.008	2611.54167
1274.275	2574.54167
1277.538	2562.20833
1280.8	2561.875
1284.059	2555.875
1287.315	2587.54167
1290.569	2577.875
1293.821	2611.54167
1297.07	2628.54167
1300.317	2632.20833
1303.562	2637.54167
1306.803	2592.54167
1310.043	2566.20833
1313.28	2530.20833
1316.515	2526.54167
1319.747	2514.54167
1322.977	2512.54167
1326.204	2476.54167
1329.429	2455.20833
1332.652	2461.20833
1335.872	2461.20833
1339.09	2420.54167
1342.306	2405.875
1345.519	2375.20833
1348.729	2339.20833
1351.938	2339.20833
1355.144	2311.54167
1358.347	2276.875
1361.548	2283.875
1364.747	2295.54167
1367.944	2264.54167
1371.138	2285.875
1374.329	2300.54167
1377.518	2328.20833
1380.705	2343.20833
1383.89	2342.875
1387.072	2270.54167
1390.252	2201.54167
1393.429	2170.54167
1396.605	2108.54167
1399.777	2058.875
1402.948	2054.54167
1406.116	2053.875
1409.282	2079.54167
1412.445	2077.875
1415.606	2123.875
1418.765	2134.20833
1421.921	2161.875
1425.075	2179.54167
1428.227	2221.54167
1431.376	2313.20833
1434.524	2385.875
1437.668	2424.54167
1440.811	2444.875
1443.951	2478.54167
1447.089	2457.20833
1450.224	2450.20833
1453.357	2398.54167
1456.488	2387.54167
1459.617	2343.875
1462.743	2318.54167
1465.867	2263.875
1468.989	2252.875
1472.108	2195.54167
1475.225	2152.875
1478.34	2131.20833
1481.453	2109.20833
1484.563	2121.875
1487.671	2134.20833
1490.776	2155.54167
1493.88	2194.20833
1496.981	2248.20833
1500.08	2282.54167
1503.176	2296.20833
1506.271	2335.54167
1509.363	2390.54167
1512.452	2422.875
1515.54	2448.20833
1518.625	2508.54167
1521.708	2583.54167
1524.789	2683.54167
1527.867	2805.875
1530.944	2983.54167
1534.018	3127.875
1537.089	3245.20833
1540.159	3279.54167
1543.226	3202.875
1546.291	3099.54167
1549.354	3012.20833
1552.415	2940.54167
1555.473	2852.20833
1558.529	2774.54167
1561.583	2718.20833
1564.634	2709.54167
1567.684	2694.875
1570.731	2680.54167
1573.776	2684.20833
1576.819	2713.20833
1579.859	2724.54167
1582.898	2741.54167
1585.934	2749.20833
1588.968	2750.875
1591.999	2742.54167
1595.029	2758.875
1598.056	2766.875
1601.081	2803.875
1604.104	2784.20833
1607.125	2738.20833
1610.144	2717.54167
1613.16	2655.20833
1616.174	2587.875
1619.186	2537.54167
1622.196	2478.20833
1625.203	2434.875
1628.209	2390.54167
1631.212	2386.54167
1634.213	2332.20833
1637.212	2328.875
1640.209	2318.54167
1643.203	2217.20833
1646.196	2153.20833
1649.186	2103.54167
1652.174	2053.54167
1655.16	1996.875
1658.144	1945.875
1661.125	1860.20833
1664.105	1790.20833
1667.082	1723.875
1670.057	1640.875
1673.03	1541.54167
1676.001	1469.54167
1678.97	1389.20833
1681.937	1305.20833
1684.901	1239.875
1687.863	1217.875
1690.824	1170.20833
1693.782	1151.20833
1696.738	1103.875
1699.692	1084.54167
1702.643	1062.20833
1705.593	1056.54167
1708.54	1041.20833
1711.486	1039.20833
1714.429	1004.875
1717.37	1000.875
1720.309	996.20833
1723.246	1004.54167
1726.181	983.54167
1729.113	965.20833
1732.044	941.875
1734.972	954.54167
1737.899	963.20833
1740.823	958.20833
1743.745	960.54167
1746.665	914.875
1749.583	902.875
1752.499	892.875
1755.413	888.54167
1758.325	866.20833
1761.235	866.875
1764.142	838.20833
1767.048	846.54167
1769.951	835.875
1772.852	828.54167
1775.752	819.54167
1778.649	827.875
1781.544	829.54167
1784.437	814.54167
1787.328	826.20833
1790.217	818.875
1793.104	793.54167
1795.989	790.875
1798.872	776.875
1801.753	807.20833
1804.631	792.875
1807.508	791.20833
1810.383	808.875
1813.255	779.875
1816.126	789.54167
1818.994	781.20833
1821.861	771.54167
1824.725	776.54167
1827.587	770.875
1830.448	770.54167
1833.306	759.875
1836.162	769.54167
1839.017	761.875
1841.869	760.20833
1844.719	747.875
1847.567	744.20833
1850.414	740.54167
1853.258	741.54167
1856.1	745.875
1858.94	757.875
1861.778	749.54167
1864.614	739.54167
1867.448	734.875
1870.28	722.20833
1873.111	752.54167
1875.939	732.875
1878.765	761.54167
1881.589	734.875
1884.411	741.54167
1887.231	741.875
1890.049	740.20833
1892.865	722.20833
1895.68	723.54167
1898.492	736.54167
1901.302	718.875
1904.11	729.54167
1906.916	701.875
1909.721	713.875
1912.523	724.54167
1915.323	700.875
1918.122	713.54167
1920.918	717.54167
1923.712	702.875
1926.505	717.875
1929.295	690.54167
1932.084	718.54167
1934.87	709.875
1937.655	690.20833
1940.438	688.875
1943.218	697.54167
1945.997	707.54167
1948.774	712.54167
1951.549	694.875
1954.322	702.875
1957.093	710.54167
1959.862	694.875
1962.629	689.20833
1965.394	683.54167
1968.157	672.875
1970.918	684.20833
1973.678	681.20833
1976.435	687.54167
1979.19	675.875
1981.944	665.54167
1984.696	672.875
1987.445	658.54167
1990.193	676.875
1992.939	687.54167
1995.683	673.875
1998.425	664.54167
2001.165	691.20833
2003.903	665.875
2006.639	659.20833
2009.374	668.875
2012.106	680.20833
2014.837	662.54167
2017.566	671.875
2020.292	664.54167
2023.017	666.20833
2025.74	660.20833
2028.461	665.20833
2031.18	664.875
2033.898	649.20833
2036.613	669.20833
2039.327	665.20833
2042.038	655.20833
2044.748	653.54167
2047.456	660.875
2050.162	631.54167
2052.866	654.20833
2055.568	654.20833
2058.268	655.875
2060.967	665.875
2063.663	640.20833
2066.358	647.54167
2069.051	648.20833
2071.742	640.875
2074.431	648.20833
2077.118	648.20833
2079.804	640.20833
2082.487	645.54167
2085.169	665.875
2087.849	679.54167
2090.527	652.54167
2093.203	668.875
2095.877	671.875
2098.55	665.54167
2101.22	689.54167
2103.889	712.54167
2106.556	702.20833
2109.221	728.875
2111.884	776.20833
2114.546	840.20833
2117.205	878.875
2119.863	966.54167
2122.519	1017.875
2125.173	1077.20833
2127.825	1151.875
2130.475	1144.54167
2133.124	1082.20833
2135.771	1056.875
2138.416	1017.54167
2141.059	942.20833
2143.7	908.20833
2146.339	848.54167
2148.977	804.875
2151.613	805.875
2154.247	767.54167
2156.879	744.875
2159.51	730.20833
2162.138	712.875
2164.765	704.875
2167.39	700.54167
2170.013	696.875
2172.634	693.875
2175.254	678.20833
2177.872	695.54167
2180.488	656.54167
2183.102	667.875
2185.714	650.875
2188.325	642.54167
2190.934	643.20833
2193.541	638.54167
2196.146	634.875
2198.75	621.20833
2201.351	625.54167
2203.951	606.20833
2206.549	635.54167
2209.146	618.20833
2211.74	608.875
2214.333	623.20833
2216.924	604.54167
2219.514	610.875
2222.101	588.54167
2224.687	621.875
2227.271	600.20833
2229.853	591.54167
2232.433	583.54167
2235.012	610.54167
2237.589	597.875
2240.164	594.875
2242.738	592.54167
2245.309	593.54167
2247.879	603.875
2250.448	607.20833
2253.014	587.875
2255.579	566.54167
2258.142	573.20833
2260.703	579.875
2263.262	570.54167
2265.82	569.54167
2268.376	571.875
2270.93	557.54167
2273.483	559.20833
2276.033	562.875
2278.583	557.20833
2281.13	552.875
2283.675	548.54167
2286.219	565.20833
2288.761	557.20833
2291.302	558.875
2293.841	571.20833
2296.377	546.20833
2298.913	547.20833
2301.446	563.875
2303.978	559.875
2306.508	553.20833
2309.037	553.20833
2311.563	554.20833
2314.088	558.20833
2316.612	550.875
2319.133	552.20833
2321.653	543.54167
2324.171	544.875
2326.688	554.20833
2329.202	545.20833
2331.715	555.20833
2334.227	545.20833
2336.736	547.54167
2339.244	541.54167
2341.751	531.20833
2344.255	555.20833
2346.758	539.20833
2349.259	540.54167
2351.759	541.54167
2354.257	535.20833
2356.753	524.875
2359.247	540.54167
2361.74	549.20833
2364.231	536.20833
2366.721	553.20833
2369.209	526.875
2371.695	541.54167
2374.179	533.54167
2376.662	544.54167
2379.143	543.20833
2381.622	540.875
2384.1	551.20833
2386.576	533.54167
2389.051	557.54167
2391.524	555.20833
2393.995	551.54167
2396.464	541.54167
2398.932	536.20833
2401.398	542.875
2403.863	528.875
2406.325	537.875
2408.787	532.875
2411.246	542.875
2413.704	539.54167
2416.16	539.20833
2418.615	543.54167
2421.068	543.875
2423.519	548.54167
2425.969	526.54167
2428.417	555.54167
2430.863	568.54167
2433.308	546.875
2435.751	541.54167
2438.193	540.54167
2440.633	548.54167
2443.071	542.54167
2445.508	533.20833
2447.943	536.20833
2450.376	539.20833
2452.808	539.875
2455.238	525.54167
2457.667	570.20833
2460.093	544.875
2462.519	530.875
2464.942	534.54167
2467.365	554.54167
2469.785	544.20833
2472.204	548.54167
2474.621	530.875
2477.037	548.20833
2479.451	536.875
2481.863	543.875
2484.274	530.54167
2486.683	547.875
2489.091	556.875
2491.497	556.54167
2493.901	556.20833
2496.304	535.54167
2498.705	545.20833
2501.105	541.54167
2503.503	576.54167
2505.899	547.875
2508.294	557.20833
2510.687	548.54167
2513.079	543.54167
2515.469	542.20833
2517.858	538.20833
2520.245	566.20833
2522.63	546.54167
2525.014	555.20833
2527.396	543.20833
2529.776	547.20833
2532.156	559.20833
2534.533	535.20833
2536.909	548.20833
2539.283	534.20833
2541.656	547.875
2544.027	569.875
2546.397	557.54167
2548.765	555.875
2551.131	548.875
2553.496	557.54167
2555.86	561.54167
2558.221	551.54167
2560.582	554.875
2562.94	537.20833
2565.298	549.875
2567.653	581.875
2570.007	535.20833
2572.36	565.54167
2574.711	563.54167
2577.06	577.54167
2579.408	559.20833
2581.754	553.875
2584.099	563.20833
2586.442	562.875
2588.784	573.54167
2591.124	573.54167
2593.463	560.20833
2595.8	560.54167
2598.135	550.54167
2600.469	570.875
2602.802	571.54167
2605.133	586.54167
2607.462	563.20833
2609.79	550.875
2612.116	575.875
2614.441	569.20833
2616.764	568.875
2619.086	569.20833
2621.406	576.54167
2623.725	585.20833
2626.042	584.875
2628.358	578.20833
2630.672	573.54167
2632.985	586.875
2635.296	589.875
2637.606	586.54167
2639.914	569.54167
2642.22	587.54167
2644.525	588.875
2646.829	602.20833
2649.131	608.20833
2651.432	610.20833
2653.731	595.875
2656.028	605.20833
2658.324	603.54167
2660.619	600.54167
2662.912	617.20833
2665.204	597.54167
2667.494	613.20833
2669.782	602.54167
2672.07	601.875
2674.355	628.54167
2676.639	612.20833
2678.922	612.20833
2681.203	625.20833
2683.483	607.54167
2685.761	606.20833
2688.038	614.875
2690.313	640.20833
2692.587	617.54167
2694.859	623.20833
2697.13	615.54167
2699.399	623.20833
2701.667	636.54167
2703.933	644.875
2706.198	641.875
2708.461	654.54167
2710.723	654.54167
2712.984	651.20833
2715.243	661.875
2717.5	649.20833
2719.757	655.20833
2722.011	667.875
2724.264	672.54167
2726.516	678.875
2728.766	675.875
2731.015	674.54167
2733.262	676.20833
2735.508	680.20833
2737.753	675.20833
2739.996	658.875
2742.237	656.875
2744.477	670.20833
2746.716	673.20833
2748.953	673.875
2751.189	672.875
2753.423	665.875
2755.656	667.875
2757.887	650.20833
2760.117	660.20833
2762.346	656.54167
2764.573	652.54167
2766.798	656.20833
2769.022	661.875
2771.245	656.875
2773.467	650.54167
2775.686	665.54167
2777.905	676.54167
2780.122	682.20833
2782.337	685.54167
2784.552	683.54167
2786.764	692.20833
2788.976	705.54167
2791.186	705.875
2793.394	698.875
2795.601	716.875
2797.807	729.54167
2800.011	738.875
2802.214	740.20833
2804.415	746.54167
2806.615	739.54167
2808.814	771.875
2811.011	753.54167
2813.206	750.20833
2815.401	781.875
2817.594	775.875
2819.785	793.875
2821.975	785.20833
2824.164	797.875
2826.351	803.54167
2828.537	813.875
2830.722	824.54167
2832.905	807.875
2835.086	857.20833
2837.267	874.20833
2839.445	892.875
2841.623	895.54167
2843.799	921.875
2845.974	948.54167
2848.147	958.20833
2850.319	983.20833
2852.489	1002.875
2854.659	1013.875
2856.826	1033.54167
2858.993	1052.54167
2861.158	1031.54167
2863.321	1045.20833
2865.483	1052.54167
2867.644	1048.20833
2869.804	1038.875
2871.962	1032.20833
2874.118	1040.54167
2876.274	1026.20833
2878.428	1035.20833
2880.58	1023.20833
2882.731	1016.875
2884.881	1017.20833
2887.03	1011.54167
2889.177	997.875
2891.322	1035.20833
2893.467	1032.20833
2895.61	1021.875
2897.751	1050.54167
2899.892	1018.20833
2902.03	1054.20833
2904.168	1050.20833
2906.304	1048.875
2908.439	1065.875
2910.572	1048.20833
2912.704	1070.875
2914.835	1064.20833
2916.965	1069.875
2919.093	1081.875
2921.219	1047.875
2923.345	1066.20833
2925.469	1030.875
2927.591	1040.20833
2929.712	1008.54167
2931.832	1004.54167
2933.951	992.54167
2936.068	979.54167
2938.184	963.875
2940.299	951.875
2942.412	934.54167
2944.524	892.54167
2946.634	892.54167
2948.744	857.54167
2950.851	894.875
2952.958	853.875
2955.063	847.20833
2957.167	842.20833
2959.269	813.54167
2961.371	846.875
2963.471	808.20833
2965.569	811.875
2967.666	783.875
2969.762	787.54167
2971.857	773.54167
2973.95	756.20833
2976.042	763.54167
2978.133	748.875
2980.222	730.20833
2982.31	711.54167
2984.396	696.20833
2986.482	691.54167
2988.566	708.20833
2990.648	689.875
2992.73	694.875
2994.81	682.875
2996.889	687.875
2998.966	683.20833
3001.042	682.54167
3003.117	673.54167
3005.191	683.20833
3007.263	667.54167
3009.334	668.20833
3011.403	663.54167
3013.472	638.20833
3015.539	647.54167
3017.604	656.20833
3019.669	604.20833
3021.732	624.20833
3023.794	633.54167
3025.854	614.20833
3027.914	616.54167
3029.971	619.875
3032.028	613.20833
3034.083	616.20833
3036.137	602.20833
3038.19	584.875
3040.242	566.20833
3042.292	566.875
3044.341	546.20833
3046.388	572.54167
3048.435	551.875
3050.48	558.875
3052.524	552.20833
3054.566	527.54167
3056.607	546.875
3058.647	533.20833
3060.686	499.54167
3062.723	503.54167
3064.759	486.54167
3066.794	-2.125
3068.828	-1.45833
3070.86	-1.125
