-0.839	293.625
3.438	327.29167
7.711	96.625
11.981	44.625
16.247	38.625
20.509	37.625
24.768	38.95833
29.024	43.29167
33.276	40.29167
37.524	42.29167
41.769	35.625
46.01	32.29167
50.247	45.95833
54.481	51.29167
58.712	60.625
62.939	46.29167
67.162	56.95833
71.382	46.95833
75.599	40.95833
79.812	56.625
84.021	73.625
88.227	53.95833
92.429	53.95833
96.628	44.625
100.823	60.625
105.015	63.29167
109.204	64.29167
113.388	64.625
117.57	60.29167
121.748	72.625
125.922	63.29167
130.093	83.29167
134.261	80.95833
138.425	75.95833
142.585	110.29167
146.742	104.625
150.896	119.625
155.046	129.29167
159.193	210.95833
163.336	355.95833
167.476	618.95833
171.613	1136.95833
175.746	1924.625
179.875	2864.95833
184.002	3694.95833
188.124	4334.29167
192.244	4530.29167
196.36	4465.29167
200.472	4327.29167
204.581	4173.95833
208.687	4050.29167
212.79	3980.95833
216.889	3949.95833
220.984	3978.29167
225.077	3995.29167
229.165	3968.625
233.251	3974.29167
237.333	3934.29167
241.412	3929.625
245.487	3862.95833
249.559	3821.625
253.628	3765.625
257.694	3767.625
261.756	3701.625
265.814	3666.95833
269.87	3577.625
273.922	3523.625
277.97	3513.625
282.016	3573.29167
286.058	3574.625
290.097	3675.95833
294.132	3711.29167
298.164	3659.95833
302.193	3482.625
306.219	3241.95833
310.241	2956.625
314.26	2696.95833
318.276	2486.29167
322.288	2341.95833
326.297	2221.29167
330.303	2105.625
334.305	2045.29167
338.305	2011.29167
342.301	1964.95833
346.294	1945.29167
350.283	1905.29167
354.269	1911.625
358.252	1904.29167
362.232	1867.625
366.209	1868.625
370.182	1845.625
374.152	1841.29167
378.119	1834.29167
382.083	1810.625
386.043	1828.95833
390	1796.95833
393.954	1792.29167
397.905	1791.29167
401.852	1770.29167
405.797	1740.95833
409.738	1716.625
413.676	1719.95833
417.61	1722.95833
421.542	1701.625
425.47	1674.95833
429.396	1659.29167
433.318	1665.625
437.236	1652.625
441.152	1665.29167
445.065	1612.95833
448.974	1613.29167
452.88	1588.95833
456.783	1586.29167
460.683	1596.95833
464.58	1591.625
468.473	1599.95833
472.364	1604.95833
476.251	1596.625
480.135	1614.95833
484.016	1642.95833
487.894	1658.95833
491.769	1667.95833
495.641	1672.29167
499.509	1694.95833
503.375	1690.625
507.237	1685.625
511.096	1733.29167
514.952	1941.29167
518.805	2117.625
522.655	2160.29167
526.502	1869.29167
530.346	1691.625
534.187	1659.625
538.024	1633.95833
541.859	1609.95833
545.69	1630.29167
549.519	1613.95833
553.344	1601.625
557.166	1550.625
560.985	1552.95833
564.802	1542.625
568.615	1527.95833
572.425	1513.625
576.232	1524.625
580.036	1503.29167
583.836	1506.29167
587.634	1502.29167
591.429	1494.95833
595.221	1542.625
599.01	1537.625
602.796	1571.95833
606.578	1578.625
610.358	1566.95833
614.135	1559.29167
617.909	1570.95833
621.679	1563.625
625.447	1544.95833
629.212	1553.95833
632.973	1553.29167
636.732	1541.95833
640.488	1560.29167
644.241	1515.29167
647.991	1520.625
651.737	1540.29167
655.481	1485.95833
659.222	1499.29167
662.96	1523.625
666.695	1526.29167
670.427	1525.625
674.156	1533.95833
677.882	1539.29167
681.605	1537.625
685.325	1534.95833
689.043	1536.625
692.757	1520.95833
696.468	1520.95833
700.177	1520.625
703.882	1521.29167
707.585	1508.625
711.284	1521.625
714.981	1533.625
718.675	1532.625
722.366	1542.625
726.054	1524.29167
729.739	1525.29167
733.421	1525.95833
737.1	1518.95833
740.777	1529.625
744.45	1543.29167
748.121	1539.29167
751.789	1572.95833
755.453	1584.29167
759.115	1583.29167
762.774	1582.29167
766.431	1607.95833
770.084	1607.29167
773.734	1635.625
777.382	1669.29167
781.027	1673.625
784.669	1678.29167
788.308	1690.29167
791.944	1717.95833
795.577	1728.95833
799.208	1756.29167
802.835	1732.625
806.46	1767.95833
810.082	1766.29167
813.701	1747.29167
817.317	1757.625
820.931	1784.29167
824.542	1759.625
828.149	1766.95833
831.754	1762.29167
835.357	1750.625
838.956	1753.29167
842.553	1742.625
846.146	1728.29167
849.737	1723.625
853.326	1727.95833
856.911	1732.625
860.493	1770.95833
864.073	1784.625
867.65	1819.625
871.225	1834.625
874.796	1839.29167
878.365	1834.29167
881.931	1876.625
885.494	1899.29167
889.054	1880.625
892.612	1918.95833
896.166	1955.95833
899.719	1922.95833
903.268	1885.95833
906.814	1856.29167
910.358	1814.625
913.899	1759.29167
917.438	1798.29167
920.973	1761.625
924.506	1801.95833
928.036	1814.625
931.564	1802.29167
935.088	1859.95833
938.61	1855.625
942.129	1876.29167
945.646	1926.95833
949.16	1962.625
952.671	1979.95833
956.179	1984.625
959.685	1956.29167
963.188	1934.625
966.688	1894.625
970.185	1869.625
973.68	1828.95833
977.173	1828.95833
980.662	1814.95833
984.149	1832.95833
987.633	1800.625
991.114	1856.29167
994.593	1912.625
998.069	1937.625
1001.542	2001.29167
1005.013	1937.95833
1008.481	1836.29167
1011.947	1832.625
1015.409	1800.625
1018.869	1816.625
1022.327	1828.625
1025.782	1804.625
1029.234	1819.625
1032.683	1795.625
1036.13	1769.29167
1039.574	1682.95833
1043.016	1648.625
1046.455	1625.29167
1049.891	1604.95833
1053.325	1596.625
1056.756	1592.625
1060.184	1609.625
1063.61	1613.95833
1067.033	1626.95833
1070.454	1622.29167
1073.872	1646.95833
1077.287	1640.95833
1080.7	1647.29167
1084.11	1660.95833
1087.517	1635.29167
1090.922	1633.625
1094.325	1591.29167
1097.724	1591.625
1101.122	1607.29167
1104.516	1578.95833
1107.908	1585.29167
1111.298	1611.29167
1114.684	1638.625
1118.069	1665.625
1121.45	1674.29167
1124.83	1656.95833
1128.206	1690.625
1131.58	1705.625
1134.951	1740.625
1138.32	1784.29167
1141.687	1843.29167
1145.05	1885.625
1148.412	1891.625
1151.77	1891.625
1155.126	1887.29167
1158.48	1909.95833
1161.831	1907.29167
1165.18	1903.625
1168.525	1930.625
1171.869	1966.95833
1175.21	1967.625
1178.548	1987.625
1181.884	1993.29167
1185.217	2010.95833
1188.548	2057.95833
1191.877	2077.29167
1195.202	2134.29167
1198.526	2155.625
1201.846	2153.29167
1205.165	2174.95833
1208.48	2190.29167
1211.794	2148.95833
1215.104	2163.29167
1218.413	2176.625
1221.719	2171.95833
1225.022	2151.29167
1228.323	2131.95833
1231.621	2144.29167
1234.917	2123.29167
1238.21	2166.29167
1241.501	2155.625
1244.79	2154.29167
1248.076	2145.625
1251.359	2168.29167
1254.64	2218.29167
1257.919	2199.95833
1261.195	2256.625
1264.468	2278.95833
1267.74	2297.625
1271.008	2316.95833
1274.275	2315.95833
1277.538	2285.29167
1280.8	2280.95833
1284.059	2290.29167
1287.315	2316.625
1290.569	2320.625
1293.821	2325.29167
1297.07	2327.95833
1300.317	2337.625
1303.562	2347.95833
1306.803	2307.625
1310.043	2277.95833
1313.28	2272.625
1316.515	2271.625
1319.747	2254.625
1322.977	2214.625
1326.204	2209.95833
1329.429	2177.95833
1332.652	2202.95833
1335.872	2192.625
1339.09	2141.625
1342.306	2132.29167
1345.519	2105.29167
1348.729	2090.625
1351.938	2062.29167
1355.144	2026.625
1358.347	2014.29167
1361.548	2025.625
1364.747	2021.625
1367.944	1995.95833
1371.138	2027.625
1374.329	2024.625
1377.518	2038.29167
1380.705	2074.29167
1383.89	2071.625
1387.072	2013.29167
1390.252	1955.29167
1393.429	1909.625
1396.605	1874.625
1399.777	1826.95833
1402.948	1829.625
1406.116	1823.29167
1409.282	1831.625
1412.445	1846.95833
1415.606	1879.29167
1418.765	1878.625
1421.921	1905.29167
1425.075	1939.625
1428.227	1970.95833
1431.376	2059.95833
1434.524	2124.29167
1437.668	2165.95833
1440.811	2174.625
1443.951	2202.625
1447.089	2209.625
1450.224	2182.625
1453.357	2172.625
1456.488	2146.29167
1459.617	2110.625
1462.743	2088.625
1465.867	2016.29167
1468.989	1997.625
1472.108	1978.625
1475.225	1936.29167
1478.34	1895.29167
1481.453	1905.95833
1484.563	1902.29167
1487.671	1923.95833
1490.776	1938.29167
1493.88	1977.29167
1496.981	2017.29167
1500.08	2058.95833
1503.176	2082.29167
1506.271	2120.29167
1509.363	2154.625
1512.452	2159.625
1515.54	2220.95833
1518.625	2233.29167
1521.708	2318.29167
1524.789	2429.625
1527.867	2535.625
1530.944	2688.29167
1534.018	2807.95833
1537.089	2921.625
1540.159	2966.625
1543.226	2920.29167
1546.291	2840.95833
1549.354	2750.95833
1552.415	2670.95833
1555.473	2578.29167
1558.529	2527.95833
1561.583	2535.625
1564.634	2468.625
1567.684	2453.95833
1570.731	2416.29167
1573.776	2419.95833
1576.819	2427.625
1579.859	2464.29167
1582.898	2489.625
1585.934	2502.29167
1588.968	2504.29167
1591.999	2494.625
1595.029	2485.625
1598.056	2503.95833
1601.081	2524.95833
1604.104	2527.625
1607.125	2509.95833
1610.144	2456.29167
1613.16	2389.95833
1616.174	2341.95833
1619.186	2284.29167
1622.196	2230.625
1625.203	2168.625
1628.209	2135.29167
1631.212	2111.29167
1634.213	2074.625
1637.212	2056.29167
1640.209	2026.29167
1643.203	1964.95833
1646.196	1913.29167
1649.186	1862.625
1652.174	1802.625
1655.16	1760.95833
1658.144	1706.625
1661.125	1659.95833
1664.105	1572.95833
1667.082	1528.625
1670.057	1447.95833
1673.03	1343.29167
1676.001	1283.625
1678.97	1205.29167
1681.937	1157.29167
1684.901	1083.29167
1687.863	1047.625
1690.824	1021.29167
1693.782	1021.625
1696.738	981.29167
1699.692	952.95833
1702.643	932.95833
1705.593	930.29167
1708.54	904.625
1711.486	912.95833
1714.429	882.95833
1717.37	896.29167
1720.309	867.625
1723.246	897.625
1726.181	857.95833
1729.113	861.95833
1732.044	843.29167
1734.972	826.29167
1737.899	848.625
1740.823	824.95833
1743.745	838.29167
1746.665	792.29167
1749.583	797.29167
1752.499	782.625
1755.413	778.95833
1758.325	741.625
1761.235	759.95833
1764.142	733.625
1767.048	732.625
1769.951	731.625
1772.852	730.625
1775.752	722.29167
1778.649	721.95833
1781.544	723.625
1784.437	704.95833
1787.328	717.95833
1790.217	698.625
1793.104	679.29167
1795.989	687.29167
1798.872	683.625
1801.753	699.29167
1804.631	691.625
1807.508	702.95833
1810.383	688.625
1813.255	684.95833
1816.126	686.625
1818.994	678.625
1821.861	680.95833
1824.725	672.625
1827.587	684.95833
1830.448	670.625
1833.306	650.625
1836.162	670.625
1839.017	662.625
1841.869	652.95833
1844.719	650.95833
1847.567	635.625
1850.414	635.95833
1853.258	651.29167
1856.1	657.29167
1858.94	664.625
1861.778	658.29167
1864.614	631.95833
1867.448	643.95833
1870.28	638.625
1873.111	661.95833
1875.939	647.625
1878.765	659.625
1881.589	637.29167
1884.411	653.95833
1887.231	645.625
1890.049	652.625
1892.865	637.29167
1895.68	632.29167
1898.492	642.95833
1901.302	632.29167
1904.11	624.29167
1906.916	626.625
1909.721	630.625
1912.523	624.29167
1915.323	610.625
1918.122	626.29167
1920.918	631.625
1923.712	608.625
1926.505	626.95833
1929.295	594.625
1932.084	617.29167
1934.87	621.29167
1937.655	610.95833
1940.438	604.625
1943.218	618.95833
1945.997	621.29167
1948.774	622.625
1951.549	617.625
1954.322	600.95833
1957.093	616.625
1959.862	601.625
1962.629	601.625
1965.394	596.625
1968.157	580.29167
1970.918	602.625
1973.678	596.625
1976.435	602.625
1979.19	599.29167
1981.944	598.29167
1984.696	581.95833
1987.445	584.29167
1990.193	585.29167
1992.939	605.95833
1995.683	586.95833
1998.425	570.625
2001.165	603.29167
2003.903	586.95833
2006.639	578.95833
2009.374	580.625
2012.106	586.95833
2014.837	561.95833
2017.566	579.95833
2020.292	589.625
2023.017	580.625
2025.74	580.29167
2028.461	583.29167
2031.18	575.625
2033.898	568.29167
2036.613	576.95833
2039.327	586.29167
2042.038	569.625
2044.748	571.625
2047.456	580.625
2050.162	557.95833
2052.866	568.625
2055.568	568.95833
2058.268	573.29167
2060.967	579.95833
2063.663	561.625
2066.358	576.625
2069.051	569.625
2071.742	563.95833
2074.431	574.95833
2077.118	566.29167
2079.804	555.625
2082.487	570.95833
2085.169	584.95833
2087.849	598.29167
2090.527	572.625
2093.203	595.95833
2095.877	592.95833
2098.55	594.29167
2101.22	613.625
2103.889	617.29167
2106.556	622.29167
2109.221	653.95833
2111.884	676.29167
2114.546	736.95833
2117.205	776.95833
2119.863	869.29167
2122.519	898.29167
2125.173	978.625
2127.825	1020.29167
2130.475	1027.29167
2133.124	978.95833
2135.771	936.95833
2138.416	900.625
2141.059	839.29167
2143.7	805.625
2146.339	762.29167
2148.977	713.29167
2151.613	695.625
2154.247	670.95833
2156.879	654.95833
2159.51	628.625
2162.138	618.29167
2164.765	619.29167
2167.39	601.625
2170.013	622.95833
2172.634	615.29167
2175.254	599.625
2177.872	629.95833
2180.488	568.29167
2183.102	596.95833
2185.714	575.625
2188.325	559.95833
2190.934	576.29167
2193.541	575.29167
2196.146	559.625
2198.75	548.625
2201.351	562.95833
2203.951	540.625
2206.549	558.95833
2209.146	539.95833
2211.74	543.95833
2214.333	558.29167
2216.924	524.95833
2219.514	533.625
2222.101	521.29167
2224.687	542.95833
2227.271	529.29167
2229.853	532.625
2232.433	509.625
2235.012	534.625
2237.589	532.95833
2240.164	538.29167
2242.738	532.29167
2245.309	518.95833
2247.879	529.625
2250.448	543.29167
2253.014	516.95833
2255.579	500.29167
2258.142	504.95833
2260.703	498.625
2263.262	499.29167
2265.82	497.95833
2268.376	514.95833
2270.93	490.29167
2273.483	491.95833
2276.033	497.625
2278.583	498.95833
2281.13	488.625
2283.675	482.95833
2286.219	493.625
2288.761	497.625
2291.302	487.625
2293.841	500.95833
2296.377	485.625
2298.913	488.29167
2301.446	501.95833
2303.978	493.95833
2306.508	490.29167
2309.037	490.29167
2311.563	493.29167
2314.088	497.95833
2316.612	476.625
2319.133	492.29167
2321.653	481.29167
2324.171	482.625
2326.688	495.29167
2329.202	486.95833
2331.715	487.625
2334.227	488.29167
2336.736	478.625
2339.244	479.95833
2341.751	479.625
2344.255	495.95833
2346.758	476.95833
2349.259	464.29167
2351.759	474.625
2354.257	477.625
2356.753	477.29167
2359.247	480.95833
2361.74	482.29167
2364.231	484.625
2366.721	479.29167
2369.209	473.95833
2371.695	473.625
2374.179	469.95833
2376.662	472.29167
2379.143	487.29167
2381.622	482.625
2384.1	490.95833
2386.576	474.29167
2389.051	493.95833
2391.524	495.95833
2393.995	484.95833
2396.464	482.95833
2398.932	480.29167
2401.398	477.29167
2403.863	474.625
2406.325	466.625
2408.787	470.625
2411.246	482.95833
2413.704	479.95833
2416.16	475.95833
2418.615	478.625
2421.068	486.625
2423.519	484.29167
2425.969	477.29167
2428.417	487.29167
2430.863	500.29167
2433.308	489.29167
2435.751	489.95833
2438.193	489.95833
2440.633	492.625
2443.071	487.625
2445.508	477.29167
2447.943	481.29167
2450.376	478.625
2452.808	482.95833
2455.238	470.29167
2457.667	498.95833
2460.093	484.95833
2462.519	470.29167
2464.942	475.625
2467.365	493.29167
2469.785	489.95833
2472.204	488.95833
2474.621	480.29167
2477.037	505.29167
2479.451	478.625
2481.863	464.95833
2484.274	481.625
2486.683	485.29167
2489.091	494.95833
2491.497	489.625
2493.901	491.625
2496.304	479.625
2498.705	491.625
2501.105	491.95833
2503.503	507.29167
2505.899	469.95833
2508.294	505.29167
2510.687	483.625
2513.079	489.625
2515.469	486.95833
2517.858	495.625
2520.245	502.95833
2522.63	497.29167
2525.014	493.95833
2527.396	481.29167
2529.776	486.625
2532.156	492.95833
2534.533	477.625
2536.909	481.95833
2539.283	475.95833
2541.656	479.625
2544.027	506.29167
2546.397	488.95833
2548.765	493.625
2551.131	488.29167
2553.496	496.95833
2555.86	498.29167
2558.221	497.625
2560.582	489.625
2562.94	475.95833
2565.298	496.625
2567.653	507.29167
2570.007	477.625
2572.36	499.29167
2574.711	499.625
2577.06	512.29167
2579.408	502.29167
2581.754	502.95833
2584.099	500.625
2586.442	498.625
2588.784	502.625
2591.124	515.625
2593.463	503.29167
2595.8	507.625
2598.135	491.625
2600.469	504.625
2602.802	520.29167
2605.133	523.29167
2607.462	504.625
2609.79	499.95833
2612.116	508.625
2614.441	514.625
2616.764	520.95833
2619.086	511.95833
2621.406	511.29167
2623.725	524.95833
2626.042	515.95833
2628.358	510.95833
2630.672	515.29167
2632.985	529.625
2635.296	526.29167
2637.606	530.29167
2639.914	514.625
2642.22	526.625
2644.525	521.29167
2646.829	534.95833
2649.131	540.95833
2651.432	545.625
2653.731	533.95833
2656.028	545.29167
2658.324	539.625
2660.619	530.29167
2662.912	549.95833
2665.204	533.95833
2667.494	552.625
2669.782	536.29167
2672.07	545.625
2674.355	562.625
2676.639	549.29167
2678.922	536.625
2681.203	556.29167
2683.483	533.29167
2685.761	532.95833
2688.038	556.29167
2690.313	553.95833
2692.587	554.625
2694.859	546.95833
2697.13	561.95833
2699.399	559.29167
2701.667	581.625
2703.933	568.29167
2706.198	575.29167
2708.461	579.95833
2710.723	580.95833
2712.984	575.625
2715.243	594.29167
2717.5	594.625
2719.757	600.29167
2722.011	589.625
2724.264	591.625
2726.516	607.625
2728.766	599.625
2731.015	608.95833
2733.262	598.95833
2735.508	599.95833
2737.753	608.95833
2739.996	589.29167
2742.237	584.29167
2744.477	605.625
2746.716	601.625
2748.953	598.625
2751.189	612.625
2753.423	593.95833
2755.656	596.95833
2757.887	593.29167
2760.117	583.29167
2762.346	581.625
2764.573	583.29167
2766.798	587.29167
2769.022	591.625
2771.245	591.95833
2773.467	593.95833
2775.686	590.29167
2777.905	611.625
2780.122	619.29167
2782.337	606.625
2784.552	606.29167
2786.764	625.95833
2788.976	628.29167
2791.186	626.29167
2793.394	633.625
2795.601	638.95833
2797.807	651.625
2800.011	648.95833
2802.214	658.29167
2804.415	673.29167
2806.615	667.29167
2808.814	676.29167
2811.011	682.29167
2813.206	676.625
2815.401	687.29167
2817.594	701.95833
2819.785	707.625
2821.975	693.29167
2824.164	710.29167
2826.351	722.29167
2828.537	740.625
2830.722	745.29167
2832.905	731.29167
2835.086	759.625
2837.267	783.625
2839.445	805.95833
2841.623	805.625
2843.799	827.95833
2845.974	854.625
2848.147	868.625
2850.319	870.625
2852.489	906.29167
2854.659	906.625
2856.826	918.625
2858.993	934.29167
2861.158	917.625
2863.321	923.29167
2865.483	943.95833
2867.644	956.625
2869.804	933.625
2871.962	924.625
2874.118	926.95833
2876.274	930.625
2878.428	924.625
2880.58	920.625
2882.731	911.625
2884.881	912.625
2887.03	917.625
2889.177	909.625
2891.322	927.625
2893.467	923.95833
2895.61	931.95833
2897.751	933.29167
2899.892	918.625
2902.03	952.95833
2904.168	936.95833
2906.304	940.625
2908.439	962.625
2910.572	945.625
2912.704	969.625
2914.835	954.95833
2916.965	952.95833
2919.093	975.95833
2921.219	915.625
2923.345	952.625
2925.469	937.95833
2927.591	921.29167
2929.712	901.625
2931.832	902.625
2933.951	888.95833
2936.068	877.625
2938.184	846.95833
2940.299	840.29167
2942.412	836.625
2944.524	812.95833
2946.634	816.625
2948.744	756.95833
2950.851	796.29167
2952.958	761.29167
2955.063	760.95833
2957.167	764.29167
2959.269	727.625
2961.371	756.95833
2963.471	718.29167
2965.569	738.29167
2967.666	705.625
2969.762	701.95833
2971.857	699.625
2973.95	677.95833
2976.042	677.95833
2978.133	659.95833
2980.222	656.625
2982.31	637.29167
2984.396	622.625
2986.482	615.625
2988.566	618.625
2990.648	615.29167
2992.73	618.625
2994.81	596.95833
2996.889	613.625
2998.966	612.625
3001.042	611.95833
3003.117	607.95833
3005.191	614.625
3007.263	601.95833
3009.334	594.29167
3011.403	586.625
3013.472	580.625
3015.539	583.29167
3017.604	588.29167
3019.669	555.95833
3021.732	556.95833
3023.794	559.29167
3025.854	538.625
3027.914	548.95833
3029.971	559.29167
3032.028	542.29167
3034.083	547.95833
3036.137	548.29167
3038.19	510.95833
3040.242	514.29167
3042.292	509.625
3044.341	494.29167
3046.388	515.625
3048.435	487.625
3050.48	499.625
3052.524	500.625
3054.566	461.625
3056.607	491.29167
3058.647	465.95833
3060.686	447.625
3062.723	434.95833
3064.759	424.29167
3066.794	-1.04167
3068.828	0.29167
3070.86	-2.375
