-0.839	285.95833
3.438	300.95833
7.711	91.95833
11.981	45.95833
16.247	38.29167
20.509	37.625
24.768	37.625
29.024	39.95833
33.276	36.625
37.524	43.29167
41.769	36.95833
46.01	32.95833
50.247	44.625
54.481	54.29167
58.712	58.95833
62.939	43.29167
67.162	53.29167
71.382	47.625
75.599	40.625
79.812	56.95833
84.021	70.625
88.227	48.95833
92.429	49.95833
96.628	38.625
100.823	56.625
105.015	61.29167
109.204	60.95833
113.388	64.29167
117.57	55.625
121.748	66.625
125.922	56.625
130.093	76.625
134.261	76.29167
138.425	66.625
142.585	102.625
146.742	92.95833
150.896	107.625
155.046	117.29167
159.193	186.29167
163.336	302.95833
167.476	539.29167
171.613	974.29167
175.746	1637.95833
179.875	2414.95833
184.002	3131.95833
188.124	3639.29167
192.244	3769.95833
196.36	3715.95833
200.472	3583.625
204.581	3444.29167
208.687	3265.29167
212.79	3188.29167
216.889	3169.625
220.984	3118.29167
225.077	3091.29167
229.165	3060.95833
233.251	3014.29167
237.333	2974.625
241.412	2940.29167
245.487	2903.625
249.559	2865.95833
253.628	2838.29167
257.694	2816.29167
261.756	2836.95833
265.814	2792.95833
269.87	2734.29167
273.922	2713.29167
277.97	2752.625
282.016	2774.29167
286.058	2834.625
290.097	2897.625
294.132	2969.29167
298.164	2935.95833
302.193	2845.625
306.219	2658.29167
310.241	2439.625
314.26	2258.29167
318.276	2070.29167
322.288	1957.95833
326.297	1834.95833
330.303	1767.625
334.305	1711.95833
338.305	1663.29167
342.301	1633.625
346.294	1624.625
350.283	1590.95833
354.269	1568.29167
358.252	1570.29167
362.232	1561.95833
366.209	1544.29167
370.182	1517.95833
374.152	1507.29167
378.119	1488.625
382.083	1498.29167
386.043	1512.625
390	1467.29167
393.954	1451.625
397.905	1459.625
401.852	1456.625
405.797	1435.625
409.738	1427.95833
413.676	1444.29167
417.61	1430.29167
421.542	1422.625
425.47	1409.625
429.396	1411.95833
433.318	1395.95833
437.236	1392.625
441.152	1401.29167
445.065	1354.95833
448.974	1372.95833
452.88	1340.95833
456.783	1344.95833
460.683	1330.29167
464.58	1350.625
468.473	1342.29167
472.364	1359.625
476.251	1370.29167
480.135	1371.625
484.016	1395.29167
487.894	1428.29167
491.769	1423.95833
495.641	1440.29167
499.509	1447.29167
503.375	1482.95833
507.237	1512.95833
511.096	1649.625
514.952	2137.29167
518.805	2705.95833
522.655	2880.29167
526.502	2115.625
530.346	1584.29167
534.187	1467.625
538.024	1413.625
541.859	1392.625
545.69	1415.95833
549.519	1378.625
553.344	1366.29167
557.166	1348.29167
560.985	1336.95833
564.802	1325.95833
568.615	1310.95833
572.425	1290.625
576.232	1292.625
580.036	1289.29167
583.836	1306.625
587.634	1310.29167
591.429	1281.95833
595.221	1312.625
599.01	1311.29167
602.796	1333.29167
606.578	1333.95833
610.358	1349.625
614.135	1328.625
617.909	1339.95833
621.679	1319.29167
625.447	1316.29167
629.212	1336.29167
632.973	1316.29167
636.732	1301.625
640.488	1325.29167
644.241	1290.29167
647.991	1283.95833
651.737	1311.95833
655.481	1258.95833
659.222	1273.29167
662.96	1288.625
666.695	1288.625
670.427	1313.625
674.156	1307.625
677.882	1314.625
681.605	1320.95833
685.325	1282.29167
689.043	1303.95833
692.757	1283.95833
696.468	1299.29167
700.177	1293.625
703.882	1292.95833
707.585	1281.95833
711.284	1289.29167
714.981	1274.95833
718.675	1291.29167
722.366	1298.29167
726.054	1285.29167
729.739	1282.29167
733.421	1278.29167
737.1	1260.95833
740.777	1296.95833
744.45	1289.625
748.121	1298.625
751.789	1335.625
755.453	1324.29167
759.115	1337.95833
762.774	1336.29167
766.431	1343.29167
770.084	1343.625
773.734	1345.29167
777.382	1375.625
781.027	1377.29167
784.669	1388.29167
788.308	1386.29167
791.944	1425.95833
795.577	1412.625
799.208	1435.29167
802.835	1444.95833
806.46	1446.625
810.082	1456.625
813.701	1440.95833
817.317	1455.29167
820.931	1458.29167
824.542	1449.29167
828.149	1433.95833
831.754	1423.625
835.357	1431.95833
838.956	1448.625
842.553	1425.95833
846.146	1421.625
849.737	1407.29167
853.326	1419.29167
856.911	1415.625
860.493	1432.29167
864.073	1444.625
867.65	1469.29167
871.225	1486.29167
874.796	1483.29167
878.365	1494.625
881.931	1515.95833
885.494	1558.29167
889.054	1549.29167
892.612	1600.95833
896.166	1589.95833
899.719	1604.625
903.268	1542.95833
906.814	1510.95833
910.358	1482.29167
913.899	1462.95833
917.438	1452.625
920.973	1440.95833
924.506	1451.625
928.036	1503.625
931.564	1522.95833
935.088	1538.95833
938.61	1544.625
942.129	1572.29167
945.646	1588.95833
949.16	1621.625
952.671	1639.625
956.179	1652.95833
959.685	1612.95833
963.188	1608.625
966.688	1574.29167
970.185	1537.95833
973.68	1507.29167
977.173	1511.29167
980.662	1486.29167
984.149	1481.625
987.633	1462.95833
991.114	1476.95833
994.593	1507.29167
998.069	1521.95833
1001.542	1563.29167
1005.013	1515.29167
1008.481	1450.29167
1011.947	1449.29167
1015.409	1435.95833
1018.869	1441.95833
1022.327	1454.95833
1025.782	1441.29167
1029.234	1444.95833
1032.683	1433.625
1036.13	1387.95833
1039.574	1349.29167
1043.016	1321.29167
1046.455	1306.95833
1049.891	1282.625
1053.325	1284.625
1056.756	1289.95833
1060.184	1270.29167
1063.61	1290.95833
1067.033	1290.95833
1070.454	1296.95833
1073.872	1331.625
1077.287	1301.625
1080.7	1325.95833
1084.11	1318.625
1087.517	1303.95833
1090.922	1308.95833
1094.325	1278.29167
1097.724	1271.95833
1101.122	1297.29167
1104.516	1288.29167
1107.908	1290.625
1111.298	1310.625
1114.684	1316.29167
1118.069	1341.29167
1121.45	1350.95833
1124.83	1350.625
1128.206	1370.625
1131.58	1396.29167
1134.951	1426.625
1138.32	1461.625
1141.687	1491.29167
1145.05	1525.29167
1148.412	1518.625
1151.77	1508.29167
1155.126	1515.625
1158.48	1499.29167
1161.831	1533.29167
1165.18	1536.95833
1168.525	1549.625
1171.869	1565.625
1175.21	1570.625
1178.548	1586.95833
1181.884	1605.29167
1185.217	1615.625
1188.548	1663.95833
1191.877	1659.95833
1195.202	1722.29167
1198.526	1742.625
1201.846	1764.625
1205.165	1771.625
1208.48	1761.29167
1211.794	1785.29167
1215.104	1769.625
1218.413	1781.95833
1221.719	1777.95833
1225.022	1756.625
1228.323	1711.625
1231.621	1739.29167
1234.917	1716.29167
1238.21	1736.625
1241.501	1726.29167
1244.79	1725.625
1248.076	1714.95833
1251.359	1734.625
1254.64	1784.29167
1257.919	1764.29167
1261.195	1799.625
1264.468	1803.95833
1267.74	1836.95833
1271.008	1853.95833
1274.275	1852.29167
1277.538	1838.95833
1280.8	1846.29167
1284.059	1838.29167
1287.315	1869.29167
1290.569	1836.625
1293.821	1883.95833
1297.07	1881.625
1300.317	1902.95833
1303.562	1876.29167
1306.803	1884.625
1310.043	1874.625
1313.28	1849.29167
1316.515	1839.625
1319.747	1820.95833
1322.977	1829.625
1326.204	1803.95833
1329.429	1808.625
1332.652	1826.625
1335.872	1809.29167
1339.09	1779.29167
1342.306	1740.29167
1345.519	1721.95833
1348.729	1657.29167
1351.938	1667.95833
1355.144	1622.29167
1358.347	1616.625
1361.548	1639.95833
1364.747	1620.29167
1367.944	1580.29167
1371.138	1603.29167
1374.329	1622.95833
1377.518	1623.29167
1380.705	1631.625
1383.89	1632.625
1387.072	1584.95833
1390.252	1563.625
1393.429	1524.625
1396.605	1516.625
1399.777	1494.95833
1402.948	1487.95833
1406.116	1503.625
1409.282	1529.29167
1412.445	1541.95833
1415.606	1570.625
1418.765	1575.95833
1421.921	1593.29167
1425.075	1593.95833
1428.227	1619.95833
1431.376	1664.95833
1434.524	1709.625
1437.668	1741.95833
1440.811	1751.95833
1443.951	1785.29167
1447.089	1774.29167
1450.224	1763.625
1453.357	1744.95833
1456.488	1727.625
1459.617	1702.29167
1462.743	1700.95833
1465.867	1649.625
1468.989	1649.625
1472.108	1617.95833
1475.225	1586.29167
1478.34	1566.625
1481.453	1571.625
1484.563	1579.625
1487.671	1593.625
1490.776	1624.95833
1493.88	1628.95833
1496.981	1664.625
1500.08	1690.29167
1503.176	1703.625
1506.271	1719.29167
1509.363	1748.95833
1512.452	1761.95833
1515.54	1794.625
1518.625	1818.95833
1521.708	1864.625
1524.789	1896.625
1527.867	1983.29167
1530.944	2059.95833
1534.018	2140.95833
1537.089	2243.625
1540.159	2259.29167
1543.226	2239.29167
1546.291	2201.625
1549.354	2153.29167
1552.415	2125.29167
1555.473	2068.625
1558.529	2024.95833
1561.583	2018.29167
1564.634	1972.29167
1567.684	1959.29167
1570.731	1952.95833
1573.776	1945.29167
1576.819	1968.625
1579.859	1957.625
1582.898	1986.95833
1585.934	2006.625
1588.968	2026.95833
1591.999	2004.625
1595.029	2008.625
1598.056	2042.625
1601.081	2054.625
1604.104	2038.95833
1607.125	2023.95833
1610.144	1980.95833
1613.16	1934.625
1616.174	1899.95833
1619.186	1861.95833
1622.196	1807.95833
1625.203	1757.625
1628.209	1754.29167
1631.212	1732.625
1634.213	1714.95833
1637.212	1698.29167
1640.209	1659.95833
1643.203	1617.29167
1646.196	1552.95833
1649.186	1540.95833
1652.174	1508.29167
1655.16	1483.95833
1658.144	1477.625
1661.125	1430.29167
1664.105	1366.95833
1667.082	1343.625
1670.057	1294.625
1673.03	1235.29167
1676.001	1170.29167
1678.97	1133.29167
1681.937	1067.29167
1684.901	1032.625
1687.863	1026.95833
1690.824	979.29167
1693.782	989.29167
1696.738	947.29167
1699.692	932.29167
1702.643	934.625
1705.593	917.625
1708.54	914.625
1711.486	922.625
1714.429	906.95833
1717.37	913.95833
1720.309	886.625
1723.246	906.625
1726.181	881.95833
1729.113	892.625
1732.044	872.625
1734.972	892.29167
1737.899	889.95833
1740.823	887.95833
1743.745	896.625
1746.665	868.625
1749.583	859.29167
1752.499	856.29167
1755.413	856.625
1758.325	836.29167
1761.235	846.29167
1764.142	810.29167
1767.048	831.625
1769.951	824.95833
1772.852	831.95833
1775.752	835.29167
1778.649	833.625
1781.544	832.95833
1784.437	825.29167
1787.328	831.95833
1790.217	839.29167
1793.104	813.29167
1795.989	820.29167
1798.872	818.95833
1801.753	836.95833
1804.631	834.625
1807.508	855.625
1810.383	841.625
1813.255	853.625
1816.126	833.625
1818.994	848.29167
1821.861	845.95833
1824.725	836.95833
1827.587	845.95833
1830.448	843.29167
1833.306	822.95833
1836.162	845.95833
1839.017	825.29167
1841.869	839.625
1844.719	848.29167
1847.567	834.625
1850.414	828.625
1853.258	839.625
1856.1	856.95833
1858.94	867.625
1861.778	864.625
1864.614	845.625
1867.448	869.625
1870.28	869.29167
1873.111	891.95833
1875.939	869.625
1878.765	898.29167
1881.589	877.95833
1884.411	886.95833
1887.231	898.625
1890.049	875.29167
1892.865	890.29167
1895.68	882.29167
1898.492	893.95833
1901.302	882.29167
1904.11	876.29167
1906.916	886.95833
1909.721	876.29167
1912.523	897.625
1915.323	874.95833
1918.122	889.625
1920.918	901.29167
1923.712	896.95833
1926.505	898.625
1929.295	877.95833
1932.084	919.29167
1934.87	928.625
1937.655	907.625
1940.438	912.95833
1943.218	936.29167
1945.997	924.95833
1948.774	953.625
1951.549	944.625
1954.322	940.29167
1957.093	957.95833
1959.862	954.95833
1962.629	943.95833
1965.394	955.625
1968.157	929.625
1970.918	959.625
1973.678	965.95833
1976.435	963.29167
1979.19	957.29167
1981.944	960.625
1984.696	955.95833
1987.445	958.29167
1990.193	974.625
1992.939	990.95833
1995.683	986.29167
1998.425	965.95833
2001.165	1007.95833
2003.903	985.95833
2006.639	996.95833
2009.374	1001.29167
2012.106	1011.29167
2014.837	992.29167
2017.566	1012.625
2020.292	1014.29167
2023.017	1031.625
2025.74	1027.29167
2028.461	1035.625
2031.18	1042.95833
2033.898	1031.29167
2036.613	1043.95833
2039.327	1058.625
2042.038	1043.29167
2044.748	1055.29167
2047.456	1056.95833
2050.162	1051.625
2052.866	1060.625
2055.568	1077.625
2058.268	1065.95833
2060.967	1077.625
2063.663	1069.625
2066.358	1079.95833
2069.051	1095.29167
2071.742	1092.625
2074.431	1110.625
2077.118	1103.95833
2079.804	1113.95833
2082.487	1110.29167
2085.169	1129.625
2087.849	1145.29167
2090.527	1130.625
2093.203	1156.95833
2095.877	1165.29167
2098.55	1166.29167
2101.22	1184.95833
2103.889	1208.625
2106.556	1192.29167
2109.221	1223.29167
2111.884	1236.625
2114.546	1270.95833
2117.205	1311.29167
2119.863	1365.625
2122.519	1377.29167
2125.173	1407.625
2127.825	1457.625
2130.475	1461.29167
2133.124	1428.95833
2135.771	1403.29167
2138.416	1386.95833
2141.059	1352.95833
2143.7	1355.29167
2146.339	1324.29167
2148.977	1313.625
2151.613	1322.95833
2154.247	1306.95833
2156.879	1311.95833
2159.51	1300.625
2162.138	1296.625
2164.765	1310.29167
2167.39	1289.95833
2170.013	1322.95833
2172.634	1330.95833
2175.254	1319.95833
2177.872	1349.95833
2180.488	1321.625
2183.102	1339.625
2185.714	1331.95833
2188.325	1320.95833
2190.934	1336.29167
2193.541	1345.625
2196.146	1351.95833
2198.75	1338.29167
2201.351	1342.29167
2203.951	1324.625
2206.549	1364.625
2209.146	1367.95833
2211.74	1370.95833
2214.333	1381.29167
2216.924	1368.625
2219.514	1390.95833
2222.101	1392.29167
2224.687	1417.29167
2227.271	1399.95833
2229.853	1408.29167
2232.433	1408.29167
2235.012	1417.625
2237.589	1439.625
2240.164	1443.29167
2242.738	1446.95833
2245.309	1444.29167
2247.879	1465.29167
2250.448	1465.95833
2253.014	1458.625
2255.579	1457.625
2258.142	1466.625
2260.703	1454.29167
2263.262	1479.95833
2265.82	1477.95833
2268.376	1486.625
2270.93	1483.625
2273.483	1497.29167
2276.033	1512.29167
2278.583	1501.95833
2281.13	1514.95833
2283.675	1520.95833
2286.219	1533.625
2288.761	1554.625
2291.302	1555.95833
2293.841	1558.95833
2296.377	1538.29167
2298.913	1548.95833
2301.446	1581.29167
2303.978	1593.29167
2306.508	1601.95833
2309.037	1609.29167
2311.563	1617.95833
2314.088	1634.29167
2316.612	1614.29167
2319.133	1628.95833
2321.653	1645.29167
2324.171	1632.95833
2326.688	1653.625
2329.202	1653.625
2331.715	1671.625
2334.227	1669.95833
2336.736	1684.625
2339.244	1679.95833
2341.751	1673.625
2344.255	1724.95833
2346.758	1717.95833
2349.259	1713.29167
2351.759	1736.625
2354.257	1749.29167
2356.753	1733.95833
2359.247	1747.625
2361.74	1775.29167
2364.231	1772.95833
2366.721	1776.95833
2369.209	1780.625
2371.695	1805.625
2374.179	1820.625
2376.662	1825.95833
2379.143	1838.95833
2381.622	1850.29167
2384.1	1847.625
2386.576	1854.29167
2389.051	1858.95833
2391.524	1893.625
2393.995	1898.625
2396.464	1905.625
2398.932	1893.29167
2401.398	1903.625
2403.863	1893.29167
2406.325	1922.625
2408.787	1941.625
2411.246	1943.95833
2413.704	1962.625
2416.16	1951.625
2418.615	1979.29167
2421.068	2005.95833
2423.519	2008.29167
2425.969	1999.29167
2428.417	2033.29167
2430.863	2059.29167
2433.308	2040.29167
2435.751	2057.29167
2438.193	2056.95833
2440.633	2079.95833
2443.071	2075.95833
2445.508	2077.625
2447.943	2102.29167
2450.376	2099.95833
2452.808	2119.29167
2455.238	2127.29167
2457.667	2156.95833
2460.093	2159.625
2462.519	2150.625
2464.942	2171.95833
2467.365	2191.95833
2469.785	2184.29167
2472.204	2186.625
2474.621	2202.625
2477.037	2225.29167
2479.451	2202.95833
2481.863	2231.29167
2484.274	2253.95833
2486.683	2250.29167
2489.091	2265.29167
2491.497	2278.29167
2493.901	2292.625
2496.304	2310.29167
2498.705	2309.29167
2501.105	2322.29167
2503.503	2363.29167
2505.899	2327.29167
2508.294	2360.625
2510.687	2359.29167
2513.079	2371.625
2515.469	2353.29167
2517.858	2388.625
2520.245	2420.625
2522.63	2399.29167
2525.014	2412.95833
2527.396	2422.29167
2529.776	2432.625
2532.156	2441.95833
2534.533	2444.625
2536.909	2471.29167
2539.283	2463.29167
2541.656	2495.625
2544.027	2530.95833
2546.397	2532.95833
2548.765	2533.625
2551.131	2559.625
2553.496	2535.29167
2555.86	2561.29167
2558.221	2573.95833
2560.582	2594.95833
2562.94	2568.95833
2565.298	2592.95833
2567.653	2647.29167
2570.007	2614.95833
2572.36	2636.95833
2574.711	2649.29167
2577.06	2686.95833
2579.408	2678.95833
2581.754	2688.29167
2584.099	2722.95833
2586.442	2727.95833
2588.784	2740.625
2591.124	2745.95833
2593.463	2744.29167
2595.8	2763.625
2598.135	2760.29167
2600.469	2780.29167
2602.802	2804.29167
2605.133	2819.29167
2607.462	2817.29167
2609.79	2811.625
2612.116	2833.625
2614.441	2858.625
2616.764	2857.95833
2619.086	2867.95833
2621.406	2907.95833
2623.725	2945.625
2626.042	2932.625
2628.358	2928.29167
2630.672	2933.625
2632.985	2973.29167
2635.296	2956.625
2637.606	2985.625
2639.914	2984.95833
2642.22	3018.625
2644.525	3031.95833
2646.829	3056.95833
2649.131	3071.625
2651.432	3106.95833
2653.731	3108.95833
2656.028	3162.29167
2658.324	3137.29167
2660.619	3149.95833
2662.912	3195.95833
2665.204	3165.29167
2667.494	3189.95833
2669.782	3182.625
2672.07	3190.95833
2674.355	3205.625
2676.639	3212.29167
2678.922	3210.95833
2681.203	3229.95833
2683.483	3220.95833
2685.761	3217.29167
2688.038	3249.29167
2690.313	3290.625
2692.587	3283.625
2694.859	3294.29167
2697.13	3299.29167
2699.399	3295.95833
2701.667	3355.29167
2703.933	3350.625
2706.198	3365.95833
2708.461	3364.29167
2710.723	3384.95833
2712.984	3425.625
2715.243	3421.95833
2717.5	3434.95833
2719.757	3481.29167
2722.011	3504.625
2724.264	3491.95833
2726.516	3544.95833
2728.766	3551.95833
2731.015	3540.625
2733.262	3558.625
2735.508	3557.625
2737.753	3592.625
2739.996	3598.95833
2742.237	3571.95833
2744.477	3578.625
2746.716	3574.625
2748.953	3582.29167
2751.189	3592.29167
2753.423	3579.95833
2755.656	3582.29167
2757.887	3590.29167
2760.117	3617.95833
2762.346	3613.625
2764.573	3605.625
2766.798	3627.29167
2769.022	3622.29167
2771.245	3652.95833
2773.467	3669.95833
2775.686	3672.29167
2777.905	3701.29167
2780.122	3697.29167
2782.337	3720.625
2784.552	3757.625
2786.764	3782.625
2788.976	3768.95833
2791.186	3790.95833
2793.394	3821.29167
2795.601	3839.625
2797.807	3856.95833
2800.011	3870.625
2802.214	3907.29167
2804.415	3911.625
2806.615	3913.625
2808.814	3953.29167
2811.011	3928.625
2813.206	3899.625
2815.401	3920.625
2817.594	3910.625
2819.785	3943.625
2821.975	3927.95833
2824.164	3952.95833
2826.351	3966.29167
2828.537	3987.95833
2830.722	4015.625
2832.905	3992.625
2835.086	4019.95833
2837.267	4049.29167
2839.445	4060.625
2841.623	4053.29167
2843.799	4091.29167
2845.974	4131.95833
2848.147	4173.29167
2850.319	4172.29167
2852.489	4208.29167
2854.659	4222.95833
2856.826	4257.625
2858.993	4272.95833
2861.158	4292.95833
2863.321	4294.625
2865.483	4309.95833
2867.644	4282.625
2869.804	4277.29167
2871.962	4270.95833
2874.118	4297.95833
2876.274	4244.95833
2878.428	4255.29167
2880.58	4224.95833
2882.731	4214.625
2884.881	4215.95833
2887.03	4239.95833
2889.177	4243.29167
2891.322	4260.29167
2893.467	4259.95833
2895.61	4275.95833
2897.751	4294.95833
2899.892	4319.625
2902.03	4323.29167
2904.168	4367.95833
2906.304	4384.625
2908.439	4414.95833
2910.572	4425.625
2912.704	4446.29167
2914.835	4470.625
2916.965	4463.625
2919.093	4473.95833
2921.219	4400.29167
2923.345	4455.95833
2925.469	4436.625
2927.591	4429.95833
2929.712	4368.625
2931.832	4380.625
2933.951	4354.29167
2936.068	4326.95833
2938.184	4342.29167
2940.299	4293.625
2942.412	4295.95833
2944.524	4262.95833
2946.634	4283.29167
2948.744	4249.95833
2950.851	4328.29167
2952.958	4286.625
2955.063	4308.625
2957.167	4322.29167
2959.269	4348.29167
2961.371	4385.29167
2963.471	4343.625
2965.569	4359.625
2967.666	4378.29167
2969.762	4364.625
2971.857	4326.95833
2973.95	4318.95833
2976.042	4296.95833
2978.133	4233.95833
2980.222	4203.625
2982.31	4161.95833
2984.396	4155.95833
2986.482	4129.625
2988.566	4160.95833
2990.648	4137.29167
2992.73	4147.625
2994.81	4152.95833
2996.889	4150.29167
2998.966	4168.625
3001.042	4190.625
3003.117	4202.95833
3005.191	4219.95833
3007.263	4197.29167
3009.334	4160.625
3011.403	4149.625
3013.472	4075.29167
3015.539	4041.29167
3017.604	4009.625
3019.669	3973.625
3021.732	3998.625
3023.794	3993.625
3025.854	3965.95833
3027.914	3961.625
3029.971	3990.625
3032.028	4011.625
3034.083	3972.95833
3036.137	3913.29167
3038.19	3821.625
3040.242	3738.625
3042.292	3676.95833
3044.341	3631.95833
3046.388	3636.625
3048.435	3558.625
3050.48	3578.29167
3052.524	3545.625
3054.566	3553.625
3056.607	3536.29167
3058.647	3437.625
3060.686	3360.95833
3062.723	3276.625
3064.759	3140.95833
3066.794	-0.70833
3068.828	-0.70833
3070.86	-2.04167
