-0.839	293.20833
3.438	323.54167
7.711	93.20833
11.981	48.875
16.247	40.20833
20.509	39.54167
24.768	38.54167
29.024	39.875
33.276	39.54167
37.524	45.54167
41.769	35.875
46.01	31.875
50.247	46.20833
54.481	57.20833
58.712	57.875
62.939	45.54167
67.162	54.875
71.382	51.20833
75.599	42.875
79.812	62.20833
84.021	76.20833
88.227	52.54167
92.429	54.20833
96.628	40.875
100.823	56.875
105.015	68.54167
109.204	65.20833
113.388	60.20833
117.57	60.875
121.748	71.54167
125.922	61.20833
130.093	78.20833
134.261	87.54167
138.425	74.54167
142.585	109.20833
146.742	100.20833
150.896	116.875
155.046	132.20833
159.193	210.875
163.336	342.54167
167.476	623.875
171.613	1139.20833
175.746	1933.20833
179.875	2836.20833
184.002	3707.54167
188.124	4347.54167
192.244	4491.20833
196.36	4451.54167
200.472	4314.875
204.581	4178.875
208.687	4014.54167
212.79	3974.54167
216.889	3956.875
220.984	3942.54167
225.077	3977.875
229.165	3978.875
233.251	3942.54167
237.333	3930.875
241.412	3917.875
245.487	3866.875
249.559	3833.875
253.628	3746.875
257.694	3729.54167
261.756	3694.54167
265.814	3640.875
269.87	3570.875
273.922	3517.875
277.97	3515.20833
282.016	3536.875
286.058	3589.875
290.097	3667.54167
294.132	3688.875
298.164	3638.875
302.193	3506.54167
306.219	3235.54167
310.241	2948.54167
314.26	2711.875
318.276	2490.20833
322.288	2333.20833
326.297	2193.875
330.303	2092.54167
334.305	2057.54167
338.305	1996.875
342.301	1953.875
346.294	1948.20833
350.283	1929.54167
354.269	1906.54167
358.252	1903.20833
362.232	1856.875
366.209	1864.875
370.182	1823.54167
374.152	1829.54167
378.119	1848.54167
382.083	1822.875
386.043	1833.20833
390	1791.54167
393.954	1778.875
397.905	1758.20833
401.852	1761.54167
405.797	1749.54167
409.738	1717.20833
413.676	1742.54167
417.61	1709.20833
421.542	1703.54167
425.47	1674.54167
429.396	1661.20833
433.318	1659.20833
437.236	1634.875
441.152	1652.54167
445.065	1593.875
448.974	1603.875
452.88	1589.20833
456.783	1582.54167
460.683	1586.54167
464.58	1584.20833
468.473	1592.20833
472.364	1603.54167
476.251	1593.20833
480.135	1611.54167
484.016	1656.20833
487.894	1635.20833
491.769	1665.54167
495.641	1672.875
499.509	1672.875
503.375	1678.54167
507.237	1690.875
511.096	1730.54167
514.952	1908.20833
518.805	2101.875
522.655	2153.20833
526.502	1858.20833
530.346	1663.54167
534.187	1642.875
538.024	1616.20833
541.859	1592.875
545.69	1633.54167
549.519	1615.875
553.344	1600.875
557.166	1570.20833
560.985	1548.875
564.802	1548.875
568.615	1531.20833
572.425	1510.875
576.232	1500.54167
580.036	1485.20833
583.836	1502.20833
587.634	1494.875
591.429	1497.54167
595.221	1535.54167
599.01	1531.875
602.796	1547.20833
606.578	1563.875
610.358	1575.875
614.135	1559.20833
617.909	1550.54167
621.679	1545.54167
625.447	1532.875
629.212	1558.20833
632.973	1550.54167
636.732	1530.875
640.488	1548.875
644.241	1508.20833
647.991	1517.20833
651.737	1527.875
655.481	1497.875
659.222	1506.875
662.96	1514.875
666.695	1518.875
670.427	1514.875
674.156	1529.20833
677.882	1534.20833
681.605	1529.875
685.325	1505.20833
689.043	1525.54167
692.757	1516.875
696.468	1525.54167
700.177	1537.875
703.882	1521.20833
707.585	1499.875
711.284	1531.875
714.981	1518.20833
718.675	1525.875
722.366	1536.875
726.054	1521.20833
729.739	1507.20833
733.421	1535.54167
737.1	1514.875
740.777	1527.54167
744.45	1539.20833
748.121	1529.875
751.789	1588.875
755.453	1575.20833
759.115	1578.875
762.774	1584.875
766.431	1606.54167
770.084	1629.54167
773.734	1628.54167
777.382	1673.20833
781.027	1667.20833
784.669	1684.20833
788.308	1699.20833
791.944	1706.54167
795.577	1720.20833
799.208	1738.20833
802.835	1740.54167
806.46	1755.20833
810.082	1738.875
813.701	1745.54167
817.317	1768.54167
820.931	1780.20833
824.542	1795.20833
828.149	1752.20833
831.754	1750.54167
835.357	1743.875
838.956	1742.20833
842.553	1746.875
846.146	1727.875
849.737	1709.20833
853.326	1723.875
856.911	1723.875
860.493	1768.54167
864.073	1774.875
867.65	1795.875
871.225	1813.20833
874.796	1824.875
878.365	1851.20833
881.931	1871.54167
885.494	1882.875
889.054	1890.20833
892.612	1919.54167
896.166	1924.875
899.719	1918.875
903.268	1878.875
906.814	1854.54167
910.358	1830.54167
913.899	1786.875
917.438	1798.54167
920.973	1757.875
924.506	1783.54167
928.036	1807.54167
931.564	1822.54167
935.088	1862.20833
938.61	1863.54167
942.129	1874.20833
945.646	1912.875
949.16	1955.875
952.671	1965.875
956.179	1966.20833
959.685	1960.20833
963.188	1923.20833
966.688	1892.875
970.185	1831.875
973.68	1826.20833
977.173	1831.20833
980.662	1804.875
984.149	1820.20833
987.633	1804.54167
991.114	1838.875
994.593	1880.20833
998.069	1951.20833
1001.542	1993.875
1005.013	1940.54167
1008.481	1856.20833
1011.947	1803.875
1015.409	1782.54167
1018.869	1804.20833
1022.327	1822.20833
1025.782	1815.20833
1029.234	1817.875
1032.683	1819.20833
1036.13	1759.875
1039.574	1693.54167
1043.016	1649.54167
1046.455	1611.54167
1049.891	1592.54167
1053.325	1585.54167
1056.756	1604.875
1060.184	1627.54167
1063.61	1599.20833
1067.033	1623.20833
1070.454	1612.875
1073.872	1648.875
1077.287	1625.20833
1080.7	1658.20833
1084.11	1643.20833
1087.517	1633.54167
1090.922	1633.20833
1094.325	1601.54167
1097.724	1595.54167
1101.122	1595.54167
1104.516	1585.20833
1107.908	1592.20833
1111.298	1609.875
1114.684	1633.54167
1118.069	1655.20833
1121.45	1663.875
1124.83	1655.54167
1128.206	1665.54167
1131.58	1701.54167
1134.951	1758.54167
1138.32	1773.875
1141.687	1851.20833
1145.05	1876.20833
1148.412	1887.20833
1151.77	1875.54167
1155.126	1889.875
1158.48	1897.875
1161.831	1883.875
1165.18	1902.54167
1168.525	1929.875
1171.869	1944.54167
1175.21	1976.875
1178.548	1983.20833
1181.884	2003.54167
1185.217	2014.54167
1188.548	2051.20833
1191.877	2056.875
1195.202	2130.875
1198.526	2153.54167
1201.846	2171.875
1205.165	2179.20833
1208.48	2164.875
1211.794	2178.875
1215.104	2173.875
1218.413	2187.875
1221.719	2170.54167
1225.022	2168.54167
1228.323	2136.54167
1231.621	2120.54167
1234.917	2141.54167
1238.21	2165.875
1241.501	2153.20833
1244.79	2134.54167
1248.076	2157.875
1251.359	2177.54167
1254.64	2217.54167
1257.919	2222.20833
1261.195	2239.20833
1264.468	2264.875
1267.74	2306.20833
1271.008	2304.20833
1274.275	2309.54167
1277.538	2283.20833
1280.8	2298.20833
1284.059	2275.875
1287.315	2295.875
1290.569	2309.875
1293.821	2338.20833
1297.07	2329.54167
1300.317	2327.875
1303.562	2343.20833
1306.803	2320.875
1310.043	2280.20833
1313.28	2278.54167
1316.515	2259.20833
1319.747	2263.20833
1322.977	2212.54167
1326.204	2194.54167
1329.429	2195.20833
1332.652	2185.20833
1335.872	2184.20833
1339.09	2131.20833
1342.306	2128.20833
1345.519	2093.20833
1348.729	2089.20833
1351.938	2062.54167
1355.144	2026.54167
1358.347	2029.54167
1361.548	2021.54167
1364.747	2042.54167
1367.944	2002.54167
1371.138	2018.20833
1374.329	2023.20833
1377.518	2027.54167
1380.705	2066.20833
1383.89	2062.54167
1387.072	2023.875
1390.252	1944.20833
1393.429	1904.54167
1396.605	1870.54167
1399.777	1823.20833
1402.948	1808.20833
1406.116	1815.875
1409.282	1830.20833
1412.445	1848.54167
1415.606	1862.875
1418.765	1889.20833
1421.921	1913.875
1425.075	1929.54167
1428.227	1975.875
1431.376	2062.875
1434.524	2099.875
1437.668	2150.54167
1440.811	2178.875
1443.951	2183.875
1447.089	2183.875
1450.224	2181.54167
1453.357	2170.875
1456.488	2139.20833
1459.617	2102.20833
1462.743	2070.875
1465.867	2018.54167
1468.989	2011.20833
1472.108	1955.54167
1475.225	1923.54167
1478.34	1890.875
1481.453	1907.54167
1484.563	1896.20833
1487.671	1919.54167
1490.776	1945.20833
1493.88	1965.875
1496.981	2016.20833
1500.08	2034.20833
1503.176	2069.54167
1506.271	2106.875
1509.363	2137.875
1512.452	2176.20833
1515.54	2218.54167
1518.625	2246.875
1521.708	2300.54167
1524.789	2409.875
1527.867	2530.875
1530.944	2690.875
1534.018	2821.20833
1537.089	2908.54167
1540.159	2935.54167
1543.226	2913.54167
1546.291	2812.875
1549.354	2741.20833
1552.415	2659.20833
1555.473	2568.875
1558.529	2507.20833
1561.583	2499.875
1564.634	2451.20833
1567.684	2446.875
1570.731	2439.875
1573.776	2441.54167
1576.819	2481.20833
1579.859	2458.54167
1582.898	2474.20833
1585.934	2489.54167
1588.968	2524.875
1591.999	2505.54167
1595.029	2498.875
1598.056	2531.875
1601.081	2543.54167
1604.104	2500.54167
1607.125	2501.54167
1610.144	2426.54167
1613.16	2377.20833
1616.174	2338.875
1619.186	2293.54167
1622.196	2221.20833
1625.203	2166.875
1628.209	2136.20833
1631.212	2111.54167
1634.213	2077.54167
1637.212	2043.20833
1640.209	2018.54167
1643.203	1953.875
1646.196	1894.20833
1649.186	1850.20833
1652.174	1807.20833
1655.16	1757.20833
1658.144	1719.875
1661.125	1651.20833
1664.105	1569.875
1667.082	1520.20833
1670.057	1438.54167
1673.03	1352.875
1676.001	1279.54167
1678.97	1216.54167
1681.937	1147.875
1684.901	1085.875
1687.863	1066.54167
1690.824	1016.20833
1693.782	1003.20833
1696.738	973.875
1699.692	953.20833
1702.643	928.54167
1705.593	930.875
1708.54	908.54167
1711.486	911.875
1714.429	890.54167
1717.37	884.875
1720.309	873.20833
1723.246	890.54167
1726.181	839.875
1729.113	850.20833
1732.044	834.54167
1734.972	834.54167
1737.899	837.20833
1740.823	828.20833
1743.745	840.54167
1746.665	798.875
1749.583	792.875
1752.499	783.875
1755.413	773.54167
1758.325	741.20833
1761.235	759.875
1764.142	722.54167
1767.048	729.54167
1769.951	729.54167
1772.852	723.54167
1775.752	726.20833
1778.649	715.20833
1781.544	721.20833
1784.437	703.875
1787.328	711.20833
1790.217	701.20833
1793.104	678.54167
1795.989	679.875
1798.872	673.20833
1801.753	689.54167
1804.631	687.54167
1807.508	695.20833
1810.383	693.875
1813.255	672.20833
1816.126	686.20833
1818.994	680.20833
1821.861	666.20833
1824.725	672.875
1827.587	678.54167
1830.448	684.875
1833.306	647.875
1836.162	663.54167
1839.017	652.875
1841.869	662.54167
1844.719	657.20833
1847.567	642.20833
1850.414	636.54167
1853.258	639.20833
1856.1	646.54167
1858.94	659.54167
1861.778	647.875
1864.614	640.875
1867.448	650.20833
1870.28	638.20833
1873.111	658.875
1875.939	646.20833
1878.765	665.54167
1881.589	640.20833
1884.411	645.875
1887.231	650.875
1890.049	645.20833
1892.865	636.875
1895.68	628.54167
1898.492	634.875
1901.302	636.20833
1904.11	634.54167
1906.916	621.54167
1909.721	612.54167
1912.523	639.20833
1915.323	605.54167
1918.122	616.54167
1920.918	623.54167
1923.712	610.54167
1926.505	610.875
1929.295	603.20833
1932.084	614.54167
1934.87	620.875
1937.655	610.875
1940.438	602.54167
1943.218	607.875
1945.997	606.875
1948.774	620.54167
1951.549	614.875
1954.322	602.54167
1957.093	602.54167
1959.862	595.20833
1962.629	605.875
1965.394	608.54167
1968.157	593.875
1970.918	607.54167
1973.678	588.54167
1976.435	602.54167
1979.19	593.875
1981.944	586.54167
1984.696	586.54167
1987.445	578.20833
1990.193	585.20833
1992.939	604.875
1995.683	593.20833
1998.425	565.875
2001.165	607.54167
2003.903	580.20833
2006.639	589.54167
2009.374	591.54167
2012.106	583.20833
2014.837	568.54167
2017.566	581.20833
2020.292	588.54167
2023.017	576.20833
2025.74	569.875
2028.461	572.875
2031.18	578.875
2033.898	574.20833
2036.613	581.875
2039.327	588.54167
2042.038	569.54167
2044.748	577.875
2047.456	572.20833
2050.162	561.875
2052.866	563.54167
2055.568	566.875
2058.268	571.54167
2060.967	576.54167
2063.663	554.54167
2066.358	566.20833
2069.051	555.20833
2071.742	565.54167
2074.431	569.875
2077.118	567.875
2079.804	558.54167
2082.487	567.54167
2085.169	577.54167
2087.849	595.54167
2090.527	578.20833
2093.203	592.20833
2095.877	598.875
2098.55	581.875
2101.22	608.875
2103.889	621.20833
2106.556	616.54167
2109.221	662.875
2111.884	677.20833
2114.546	741.20833
2117.205	805.20833
2119.863	861.20833
2122.519	914.875
2125.173	967.875
2127.825	1034.20833
2130.475	1006.54167
2133.124	983.20833
2135.771	929.54167
2138.416	892.54167
2141.059	834.20833
2143.7	801.875
2146.339	750.20833
2148.977	709.54167
2151.613	690.20833
2154.247	679.20833
2156.879	660.20833
2159.51	633.20833
2162.138	613.20833
2164.765	622.54167
2167.39	605.875
2170.013	624.20833
2172.634	611.20833
2175.254	590.54167
2177.872	615.54167
2180.488	578.875
2183.102	587.875
2185.714	580.20833
2188.325	559.20833
2190.934	564.875
2193.541	567.875
2196.146	571.20833
2198.75	561.54167
2201.351	551.20833
2203.951	539.875
2206.549	558.54167
2209.146	543.875
2211.74	533.54167
2214.333	553.875
2216.924	520.54167
2219.514	527.875
2222.101	525.20833
2224.687	537.20833
2227.271	523.20833
2229.853	524.20833
2232.433	509.54167
2235.012	534.875
2237.589	534.20833
2240.164	527.20833
2242.738	515.54167
2245.309	521.54167
2247.879	522.20833
2250.448	530.20833
2253.014	512.20833
2255.579	494.54167
2258.142	500.54167
2260.703	501.20833
2263.262	500.54167
2265.82	502.54167
2268.376	514.20833
2270.93	488.20833
2273.483	492.875
2276.033	498.875
2278.583	493.20833
2281.13	497.54167
2283.675	479.20833
2286.219	499.875
2288.761	498.875
2291.302	498.875
2293.841	504.875
2296.377	480.875
2298.913	494.54167
2301.446	500.875
2303.978	492.54167
2306.508	487.54167
2309.037	498.54167
2311.563	493.54167
2314.088	494.20833
2316.612	471.54167
2319.133	486.875
2321.653	484.20833
2324.171	476.875
2326.688	488.20833
2329.202	485.875
2331.715	482.54167
2334.227	488.54167
2336.736	482.20833
2339.244	476.20833
2341.751	472.20833
2344.255	493.54167
2346.758	470.20833
2349.259	468.54167
2351.759	473.875
2354.257	473.20833
2356.753	467.20833
2359.247	472.54167
2361.74	482.20833
2364.231	471.875
2366.721	484.20833
2369.209	479.875
2371.695	476.54167
2374.179	470.54167
2376.662	483.54167
2379.143	486.875
2381.622	468.875
2384.1	485.20833
2386.576	472.20833
2389.051	494.20833
2391.524	495.20833
2393.995	483.54167
2396.464	479.20833
2398.932	471.875
2401.398	469.54167
2403.863	475.54167
2406.325	474.54167
2408.787	478.54167
2411.246	477.875
2413.704	469.20833
2416.16	472.54167
2418.615	477.875
2421.068	487.54167
2423.519	484.875
2425.969	474.20833
2428.417	484.20833
2430.863	509.875
2433.308	495.875
2435.751	486.875
2438.193	487.20833
2440.633	497.54167
2443.071	482.54167
2445.508	475.875
2447.943	481.20833
2450.376	474.875
2452.808	484.20833
2455.238	474.54167
2457.667	502.875
2460.093	488.20833
2462.519	474.875
2464.942	476.54167
2467.365	483.875
2469.785	487.875
2472.204	479.875
2474.621	476.875
2477.037	504.875
2479.451	465.875
2481.863	475.20833
2484.274	474.20833
2486.683	484.54167
2489.091	490.54167
2491.497	484.54167
2493.901	474.875
2496.304	493.54167
2498.705	493.875
2501.105	481.875
2503.503	515.20833
2505.899	471.54167
2508.294	510.20833
2510.687	480.20833
2513.079	470.875
2515.469	489.54167
2517.858	480.875
2520.245	502.875
2522.63	478.20833
2525.014	490.20833
2527.396	493.20833
2529.776	486.875
2532.156	495.20833
2534.533	486.20833
2536.909	482.20833
2539.283	479.20833
2541.656	485.875
2544.027	503.54167
2546.397	496.875
2548.765	484.20833
2551.131	484.875
2553.496	490.875
2555.86	495.875
2558.221	495.54167
2560.582	483.875
2562.94	482.20833
2565.298	489.54167
2567.653	519.20833
2570.007	492.54167
2572.36	494.875
2574.711	486.875
2577.06	517.54167
2579.408	505.20833
2581.754	492.20833
2584.099	504.20833
2586.442	494.54167
2588.784	505.20833
2591.124	512.54167
2593.463	505.54167
2595.8	502.54167
2598.135	490.54167
2600.469	503.54167
2602.802	515.54167
2605.133	511.20833
2607.462	498.54167
2609.79	501.20833
2612.116	518.20833
2614.441	510.54167
2616.764	508.875
2619.086	499.875
2621.406	505.54167
2623.725	529.875
2626.042	520.20833
2628.358	513.54167
2630.672	510.20833
2632.985	525.20833
2635.296	531.54167
2637.606	523.54167
2639.914	518.875
2642.22	525.20833
2644.525	527.20833
2646.829	532.875
2649.131	541.54167
2651.432	544.875
2653.731	535.54167
2656.028	533.875
2658.324	538.875
2660.619	529.20833
2662.912	546.54167
2665.204	534.54167
2667.494	548.875
2669.782	524.875
2672.07	550.54167
2674.355	547.875
2676.639	542.875
2678.922	537.875
2681.203	553.875
2683.483	534.20833
2685.761	536.875
2688.038	557.875
2690.313	564.54167
2692.587	564.875
2694.859	549.54167
2697.13	565.20833
2699.399	565.54167
2701.667	570.20833
2703.933	566.20833
2706.198	579.54167
2708.461	580.54167
2710.723	584.875
2712.984	570.875
2715.243	588.875
2717.5	582.875
2719.757	602.20833
2722.011	594.875
2724.264	606.875
2726.516	612.20833
2728.766	597.875
2731.015	601.20833
2733.262	591.54167
2735.508	601.875
2737.753	607.54167
2739.996	585.20833
2742.237	588.875
2744.477	598.20833
2746.716	602.875
2748.953	595.54167
2751.189	594.20833
2753.423	594.20833
2755.656	590.875
2757.887	578.875
2760.117	590.875
2762.346	583.20833
2764.573	589.875
2766.798	582.20833
2769.022	595.54167
2771.245	591.20833
2773.467	590.54167
2775.686	598.875
2777.905	607.54167
2780.122	624.54167
2782.337	621.20833
2784.552	613.54167
2786.764	622.875
2788.976	620.875
2791.186	627.875
2793.394	625.875
2795.601	648.54167
2797.807	656.20833
2800.011	651.875
2802.214	666.54167
2804.415	663.875
2806.615	665.20833
2808.814	686.54167
2811.011	685.20833
2813.206	679.20833
2815.401	690.54167
2817.594	709.54167
2819.785	708.20833
2821.975	698.54167
2824.164	701.20833
2826.351	714.54167
2828.537	739.875
2830.722	743.20833
2832.905	743.54167
2835.086	760.54167
2837.267	779.54167
2839.445	812.20833
2841.623	794.875
2843.799	819.54167
2845.974	841.875
2848.147	865.20833
2850.319	878.54167
2852.489	905.20833
2854.659	903.875
2856.826	924.54167
2858.993	940.54167
2861.158	930.875
2863.321	928.54167
2865.483	936.54167
2867.644	938.20833
2869.804	939.875
2871.962	939.20833
2874.118	926.20833
2876.274	934.54167
2878.428	925.54167
2880.58	919.875
2882.731	908.20833
2884.881	921.20833
2887.03	922.20833
2889.177	915.20833
2891.322	930.54167
2893.467	913.54167
2895.61	911.20833
2897.751	956.20833
2899.892	924.54167
2902.03	944.54167
2904.168	941.20833
2906.304	943.54167
2908.439	961.20833
2910.572	932.54167
2912.704	956.54167
2914.835	952.54167
2916.965	959.54167
2919.093	971.875
2921.219	938.54167
2923.345	943.875
2925.469	930.54167
2927.591	931.875
2929.712	903.20833
2931.832	897.20833
2933.951	886.875
2936.068	851.875
2938.184	860.875
2940.299	838.20833
2942.412	832.875
2944.524	807.20833
2946.634	812.20833
2948.744	769.20833
2950.851	796.54167
2952.958	758.20833
2955.063	766.20833
2957.167	757.20833
2959.269	731.54167
2961.371	756.54167
2963.471	711.875
2965.569	729.875
2967.666	706.20833
2969.762	703.54167
2971.857	691.875
2973.95	676.875
2976.042	681.20833
2978.133	666.875
2980.222	657.20833
2982.31	639.20833
2984.396	615.20833
2986.482	628.20833
2988.566	630.20833
2990.648	618.54167
2992.73	620.875
2994.81	617.54167
2996.889	613.875
2998.966	616.875
3001.042	618.54167
3003.117	604.20833
3005.191	606.20833
3007.263	602.54167
3009.334	591.54167
3011.403	597.875
3013.472	577.875
3015.539	579.20833
3017.604	591.20833
3019.669	553.875
3021.732	557.54167
3023.794	563.20833
3025.854	552.875
3027.914	542.20833
3029.971	557.875
3032.028	546.875
3034.083	547.54167
3036.137	548.54167
3038.19	528.54167
3040.242	511.54167
3042.292	505.20833
3044.341	495.20833
3046.388	511.20833
3048.435	482.20833
3050.48	504.20833
3052.524	488.875
3054.566	465.20833
3056.607	485.54167
3058.647	469.20833
3060.686	453.875
3062.723	441.875
3064.759	422.875
3066.794	1.20833
3068.828	-2.125
3070.86	-1.45833
