-0.839	446.04167
3.438	488.04167
7.711	133.375
11.981	56.375
16.247	41.04167
20.509	37.70833
24.768	44.70833
29.024	44.70833
33.276	43.04167
37.524	46.04167
41.769	38.375
46.01	33.04167
50.247	45.70833
54.481	54.04167
58.712	61.04167
62.939	45.04167
67.162	59.04167
71.382	51.04167
75.599	42.04167
79.812	59.375
84.021	74.70833
88.227	50.70833
92.429	53.04167
96.628	40.375
100.823	55.375
105.015	68.375
109.204	67.70833
113.388	67.375
117.57	60.70833
121.748	76.375
125.922	65.04167
130.093	84.70833
134.261	84.04167
138.425	79.04167
142.585	115.04167
146.742	108.70833
150.896	127.375
155.046	152.70833
159.193	244.375
163.336	414.375
167.476	748.375
171.613	1392.04167
175.746	2337.375
179.875	3480.04167
184.002	4488.375
188.124	5166.375
192.244	5295.04167
196.36	5140.375
200.472	4868.04167
204.581	4592.70833
208.687	4345.375
212.79	4157.04167
216.889	4032.375
220.984	3923.04167
225.077	3857.375
229.165	3743.04167
233.251	3678.70833
237.333	3605.70833
241.412	3521.375
245.487	3436.375
249.559	3367.04167
253.628	3340.04167
257.694	3274.375
261.756	3274.04167
265.814	3187.04167
269.87	3135.70833
273.922	3025.375
277.97	3027.04167
282.016	3015.04167
286.058	2999.70833
290.097	3096.04167
294.132	3150.375
298.164	3119.375
302.193	3021.04167
306.219	2820.70833
310.241	2566.04167
314.26	2344.70833
318.276	2177.375
322.288	2032.70833
326.297	1929.70833
330.303	1839.375
334.305	1819.70833
338.305	1735.70833
342.301	1707.70833
346.294	1679.04167
350.283	1659.375
354.269	1630.04167
358.252	1619.70833
362.232	1628.04167
366.209	1599.70833
370.182	1573.375
374.152	1554.375
378.119	1558.70833
382.083	1535.70833
386.043	1565.04167
390	1528.375
393.954	1526.70833
397.905	1504.70833
401.852	1502.70833
405.797	1497.70833
409.738	1465.70833
413.676	1484.04167
417.61	1463.70833
421.542	1439.04167
425.47	1429.375
429.396	1416.70833
433.318	1398.04167
437.236	1399.375
441.152	1418.04167
445.065	1360.70833
448.974	1368.70833
452.88	1341.70833
456.783	1336.375
460.683	1325.375
464.58	1336.70833
468.473	1341.375
472.364	1340.70833
476.251	1334.375
480.135	1355.04167
484.016	1378.04167
487.894	1384.375
491.769	1423.70833
495.641	1423.375
499.509	1441.375
503.375	1443.375
507.237	1486.04167
511.096	1563.70833
514.952	1874.375
518.805	2251.04167
522.655	2369.04167
526.502	1847.375
530.346	1488.04167
534.187	1412.70833
538.024	1406.375
541.859	1381.70833
545.69	1381.04167
549.519	1375.70833
553.344	1356.04167
557.166	1328.70833
560.985	1323.04167
564.802	1310.375
568.615	1292.70833
572.425	1261.375
576.232	1271.375
580.036	1262.70833
583.836	1280.04167
587.634	1268.70833
591.429	1257.04167
595.221	1287.04167
599.01	1304.70833
602.796	1321.375
606.578	1323.04167
610.358	1318.375
614.135	1305.04167
617.909	1298.04167
621.679	1302.70833
625.447	1284.04167
629.212	1290.70833
632.973	1300.375
636.732	1287.375
640.488	1291.04167
644.241	1262.375
647.991	1261.375
651.737	1286.70833
655.481	1235.375
659.222	1251.375
662.96	1246.04167
666.695	1271.04167
670.427	1280.04167
674.156	1277.375
677.882	1288.375
681.605	1286.70833
685.325	1249.04167
689.043	1271.70833
692.757	1238.04167
696.468	1247.70833
700.177	1264.04167
703.882	1244.04167
707.585	1240.70833
711.284	1238.04167
714.981	1245.70833
718.675	1267.04167
722.366	1256.70833
726.054	1234.04167
729.739	1243.70833
733.421	1249.375
737.1	1244.70833
740.777	1277.04167
744.45	1269.70833
748.121	1284.04167
751.789	1327.70833
755.453	1292.375
759.115	1310.375
762.774	1304.04167
766.431	1323.70833
770.084	1327.04167
773.734	1333.70833
777.382	1377.04167
781.027	1373.375
784.669	1367.70833
788.308	1382.04167
791.944	1401.375
795.577	1414.04167
799.208	1400.70833
802.835	1418.375
806.46	1440.375
810.082	1443.04167
813.701	1445.70833
817.317	1464.04167
820.931	1458.375
824.542	1455.04167
828.149	1431.375
831.754	1425.375
835.357	1434.04167
838.956	1439.70833
842.553	1423.04167
846.146	1412.04167
849.737	1415.70833
853.326	1417.04167
856.911	1435.04167
860.493	1454.04167
864.073	1455.70833
867.65	1475.04167
871.225	1511.70833
874.796	1505.04167
878.365	1511.375
881.931	1529.04167
885.494	1569.375
889.054	1602.04167
892.612	1663.70833
896.166	1677.04167
899.719	1669.04167
903.268	1615.375
906.814	1556.04167
910.358	1498.375
913.899	1477.04167
917.438	1460.375
920.973	1445.70833
924.506	1464.04167
928.036	1485.375
931.564	1521.70833
935.088	1525.70833
938.61	1540.375
942.129	1545.04167
945.646	1594.375
949.16	1616.70833
952.671	1645.04167
956.179	1660.70833
959.685	1621.375
963.188	1600.70833
966.688	1585.70833
970.185	1534.04167
973.68	1516.70833
977.173	1511.375
980.662	1504.04167
984.149	1509.375
987.633	1508.04167
991.114	1533.04167
994.593	1555.04167
998.069	1617.375
1001.542	1688.375
1005.013	1630.70833
1008.481	1527.04167
1011.947	1500.70833
1015.409	1483.04167
1018.869	1486.375
1022.327	1508.375
1025.782	1512.04167
1029.234	1515.375
1032.683	1504.04167
1036.13	1456.375
1039.574	1380.375
1043.016	1351.04167
1046.455	1309.04167
1049.891	1282.04167
1053.325	1310.04167
1056.756	1312.375
1060.184	1299.375
1063.61	1313.04167
1067.033	1308.04167
1070.454	1304.70833
1073.872	1334.04167
1077.287	1330.70833
1080.7	1330.375
1084.11	1328.375
1087.517	1337.70833
1090.922	1312.375
1094.325	1306.70833
1097.724	1300.04167
1101.122	1295.70833
1104.516	1288.375
1107.908	1288.375
1111.298	1323.375
1114.684	1337.70833
1118.069	1334.04167
1121.45	1368.04167
1124.83	1351.70833
1128.206	1380.375
1131.58	1401.04167
1134.951	1465.04167
1138.32	1486.70833
1141.687	1550.375
1145.05	1562.375
1148.412	1581.04167
1151.77	1566.375
1155.126	1568.70833
1158.48	1558.70833
1161.831	1562.70833
1165.18	1560.70833
1168.525	1604.375
1171.869	1596.70833
1175.21	1603.375
1178.548	1632.70833
1181.884	1651.04167
1185.217	1632.375
1188.548	1687.70833
1191.877	1696.375
1195.202	1756.375
1198.526	1774.70833
1201.846	1773.70833
1205.165	1789.375
1208.48	1773.04167
1211.794	1777.375
1215.104	1788.04167
1218.413	1793.70833
1221.719	1798.375
1225.022	1767.375
1228.323	1721.375
1231.621	1754.375
1234.917	1731.70833
1238.21	1753.375
1241.501	1723.70833
1244.79	1729.375
1248.076	1729.70833
1251.359	1761.70833
1254.64	1786.375
1257.919	1804.70833
1261.195	1820.04167
1264.468	1857.04167
1267.74	1899.375
1271.008	1915.70833
1274.275	1878.04167
1277.538	1860.04167
1280.8	1854.375
1284.059	1852.04167
1287.315	1888.70833
1290.569	1896.70833
1293.821	1908.70833
1297.07	1910.375
1300.317	1909.04167
1303.562	1931.375
1306.803	1913.70833
1310.043	1881.375
1313.28	1881.70833
1316.515	1876.04167
1319.747	1897.70833
1322.977	1870.70833
1326.204	1862.04167
1329.429	1870.375
1332.652	1869.70833
1335.872	1842.04167
1339.09	1787.70833
1342.306	1756.70833
1345.519	1761.70833
1348.729	1729.375
1351.938	1701.70833
1355.144	1669.375
1358.347	1657.04167
1361.548	1667.375
1364.747	1665.375
1367.944	1637.04167
1371.138	1668.375
1374.329	1698.04167
1377.518	1693.375
1380.705	1726.375
1383.89	1712.375
1387.072	1666.70833
1390.252	1615.04167
1393.429	1576.04167
1396.605	1537.375
1399.777	1517.375
1402.948	1518.04167
1406.116	1514.375
1409.282	1540.375
1412.445	1536.04167
1415.606	1573.70833
1418.765	1587.375
1421.921	1590.70833
1425.075	1597.375
1428.227	1614.375
1431.376	1696.70833
1434.524	1729.04167
1437.668	1775.70833
1440.811	1788.375
1443.951	1825.04167
1447.089	1856.04167
1450.224	1833.70833
1453.357	1805.375
1456.488	1763.70833
1459.617	1725.70833
1462.743	1695.70833
1465.867	1643.375
1468.989	1635.375
1472.108	1611.70833
1475.225	1572.04167
1478.34	1565.04167
1481.453	1570.70833
1484.563	1566.375
1487.671	1603.375
1490.776	1626.375
1493.88	1658.375
1496.981	1687.70833
1500.08	1724.70833
1503.176	1726.04167
1506.271	1763.70833
1509.363	1758.04167
1512.452	1786.375
1515.54	1810.70833
1518.625	1826.375
1521.708	1864.04167
1524.789	1921.70833
1527.867	2002.04167
1530.944	2102.70833
1534.018	2199.375
1537.089	2311.375
1540.159	2322.04167
1543.226	2352.375
1546.291	2321.375
1549.354	2253.375
1552.415	2213.70833
1555.473	2137.04167
1558.529	2108.04167
1561.583	2065.04167
1564.634	2048.375
1567.684	2035.04167
1570.731	2036.70833
1573.776	2051.375
1576.819	2058.70833
1579.859	2067.70833
1582.898	2114.70833
1585.934	2108.04167
1588.968	2131.04167
1591.999	2116.375
1595.029	2118.375
1598.056	2123.70833
1601.081	2158.04167
1604.104	2139.375
1607.125	2110.04167
1610.144	2055.04167
1613.16	2022.375
1616.174	1986.70833
1619.186	1923.70833
1622.196	1879.70833
1625.203	1845.70833
1628.209	1808.70833
1631.212	1815.375
1634.213	1789.375
1637.212	1792.04167
1640.209	1744.70833
1643.203	1720.375
1646.196	1657.70833
1649.186	1632.375
1652.174	1592.04167
1655.16	1560.04167
1658.144	1517.70833
1661.125	1471.375
1664.105	1421.04167
1667.082	1377.04167
1670.057	1295.70833
1673.03	1219.04167
1676.001	1152.04167
1678.97	1077.375
1681.937	1019.375
1684.901	960.375
1687.863	951.375
1690.824	895.70833
1693.782	903.04167
1696.738	851.70833
1699.692	851.70833
1702.643	816.04167
1705.593	810.04167
1708.54	809.375
1711.486	811.04167
1714.429	780.04167
1717.37	779.375
1720.309	776.04167
1723.246	772.70833
1726.181	752.70833
1729.113	772.04167
1732.044	738.04167
1734.972	748.04167
1737.899	758.04167
1740.823	750.04167
1743.745	765.375
1746.665	719.375
1749.583	711.70833
1752.499	707.70833
1755.413	698.70833
1758.325	684.375
1761.235	681.70833
1764.142	666.375
1767.048	663.70833
1769.951	662.04167
1772.852	665.375
1775.752	657.04167
1778.649	663.04167
1781.544	661.04167
1784.437	644.04167
1787.328	660.04167
1790.217	651.70833
1793.104	637.04167
1795.989	638.375
1798.872	621.04167
1801.753	647.70833
1804.631	645.04167
1807.508	649.375
1810.383	641.375
1813.255	650.375
1816.126	656.70833
1818.994	653.04167
1821.861	642.04167
1824.725	636.04167
1827.587	638.375
1830.448	638.70833
1833.306	619.70833
1836.162	635.70833
1839.017	625.375
1841.869	627.70833
1844.719	629.70833
1847.567	614.70833
1850.414	602.70833
1853.258	624.375
1856.1	634.375
1858.94	634.375
1861.778	624.04167
1864.614	619.375
1867.448	630.375
1870.28	621.70833
1873.111	635.04167
1875.939	628.70833
1878.765	647.70833
1881.589	622.375
1884.411	623.04167
1887.231	631.70833
1890.049	633.375
1892.865	628.70833
1895.68	616.04167
1898.492	626.375
1901.302	619.70833
1904.11	622.375
1906.916	616.70833
1909.721	626.375
1912.523	635.375
1915.323	608.04167
1918.122	620.04167
1920.918	630.70833
1923.712	616.375
1926.505	624.70833
1929.295	607.04167
1932.084	633.70833
1934.87	628.70833
1937.655	621.70833
1940.438	612.70833
1943.218	624.375
1945.997	625.70833
1948.774	641.375
1951.549	633.375
1954.322	629.70833
1957.093	636.70833
1959.862	629.70833
1962.629	623.04167
1965.394	626.04167
1968.157	620.70833
1970.918	625.375
1973.678	630.375
1976.435	631.04167
1979.19	620.70833
1981.944	621.375
1984.696	626.375
1987.445	620.375
1990.193	630.70833
1992.939	649.04167
1995.683	639.70833
1998.425	618.04167
2001.165	646.375
2003.903	629.70833
2006.639	631.70833
2009.374	635.375
2012.106	646.70833
2014.837	614.375
2017.566	648.375
2020.292	638.375
2023.017	643.375
2025.74	644.04167
2028.461	640.70833
2031.18	648.04167
2033.898	634.375
2036.613	656.04167
2039.327	659.70833
2042.038	639.04167
2044.748	647.375
2047.456	633.04167
2050.162	629.375
2052.866	645.375
2055.568	656.375
2058.268	645.70833
2060.967	659.04167
2063.663	643.375
2066.358	656.70833
2069.051	642.375
2071.742	669.04167
2074.431	658.04167
2077.118	659.04167
2079.804	644.70833
2082.487	658.70833
2085.169	668.70833
2087.849	684.04167
2090.527	659.04167
2093.203	673.70833
2095.877	673.375
2098.55	674.70833
2101.22	698.375
2103.889	696.70833
2106.556	691.04167
2109.221	711.70833
2111.884	730.04167
2114.546	777.04167
2117.205	802.04167
2119.863	857.375
2122.519	876.70833
2125.173	913.04167
2127.825	973.70833
2130.475	953.04167
2133.124	918.375
2135.771	894.375
2138.416	869.70833
2141.059	832.375
2143.7	823.375
2146.339	783.375
2148.977	758.375
2151.613	766.375
2154.247	752.375
2156.879	733.375
2159.51	727.70833
2162.138	716.375
2164.765	723.04167
2167.39	716.375
2170.013	734.04167
2172.634	733.04167
2175.254	725.70833
2177.872	756.04167
2180.488	714.70833
2183.102	735.04167
2185.714	722.70833
2188.325	704.70833
2190.934	728.375
2193.541	721.70833
2196.146	725.04167
2198.75	718.04167
2201.351	716.70833
2203.951	695.70833
2206.549	723.04167
2209.146	721.04167
2211.74	719.375
2214.333	729.70833
2216.924	715.04167
2219.514	732.04167
2222.101	710.375
2224.687	739.70833
2227.271	724.04167
2229.853	716.04167
2232.433	721.04167
2235.012	740.70833
2237.589	733.70833
2240.164	748.04167
2242.738	738.375
2245.309	733.70833
2247.879	739.375
2250.448	751.04167
2253.014	726.70833
2255.579	728.70833
2258.142	737.04167
2260.703	725.375
2263.262	744.70833
2265.82	738.375
2268.376	745.70833
2270.93	724.70833
2273.483	732.70833
2276.033	752.04167
2278.583	743.70833
2281.13	737.04167
2283.675	730.04167
2286.219	741.375
2288.761	751.70833
2291.302	762.70833
2293.841	760.04167
2296.377	743.375
2298.913	752.70833
2301.446	761.70833
2303.978	769.375
2306.508	753.04167
2309.037	770.70833
2311.563	772.70833
2314.088	788.375
2316.612	771.04167
2319.133	783.04167
2321.653	777.70833
2324.171	774.04167
2326.688	788.04167
2329.202	771.70833
2331.715	785.375
2334.227	797.04167
2336.736	775.04167
2339.244	779.70833
2341.751	769.375
2344.255	801.70833
2346.758	785.70833
2349.259	804.04167
2351.759	804.04167
2354.257	783.375
2356.753	791.375
2359.247	809.04167
2361.74	817.375
2364.231	817.70833
2366.721	835.04167
2369.209	817.375
2371.695	805.04167
2374.179	830.04167
2376.662	817.70833
2379.143	848.70833
2381.622	830.375
2384.1	830.04167
2386.576	840.375
2389.051	852.375
2391.524	865.375
2393.995	869.375
2396.464	858.70833
2398.932	853.70833
2401.398	863.375
2403.863	876.04167
2406.325	858.70833
2408.787	868.04167
2411.246	880.375
2413.704	863.04167
2416.16	877.375
2418.615	883.375
2421.068	893.70833
2423.519	886.70833
2425.969	888.04167
2428.417	908.70833
2430.863	928.375
2433.308	909.04167
2435.751	902.375
2438.193	907.70833
2440.633	927.04167
2443.071	928.70833
2445.508	913.70833
2447.943	909.70833
2450.376	925.70833
2452.808	930.375
2455.238	918.70833
2457.667	958.04167
2460.093	941.70833
2462.519	927.70833
2464.942	948.04167
2467.365	953.70833
2469.785	952.375
2472.204	968.04167
2474.621	951.04167
2477.037	980.375
2479.451	955.375
2481.863	959.04167
2484.274	960.70833
2486.683	978.70833
2489.091	972.375
2491.497	974.04167
2493.901	982.375
2496.304	979.04167
2498.705	998.375
2501.105	1002.04167
2503.503	1017.04167
2505.899	1004.04167
2508.294	1024.04167
2510.687	998.70833
2513.079	1012.375
2515.469	1007.04167
2517.858	1022.375
2520.245	1037.70833
2522.63	1024.04167
2525.014	1038.375
2527.396	1023.375
2529.776	1032.375
2532.156	1036.375
2534.533	1028.70833
2536.909	1035.70833
2539.283	1043.04167
2541.656	1039.375
2544.027	1065.70833
2546.397	1058.375
2548.765	1071.04167
2551.131	1061.04167
2553.496	1060.70833
2555.86	1058.70833
2558.221	1088.70833
2560.582	1083.375
2562.94	1084.70833
2565.298	1093.04167
2567.653	1115.70833
2570.007	1079.70833
2572.36	1115.70833
2574.711	1097.70833
2577.06	1135.375
2579.408	1116.375
2581.754	1129.04167
2584.099	1132.375
2586.442	1131.70833
2588.784	1141.04167
2591.124	1166.375
2593.463	1144.04167
2595.8	1146.375
2598.135	1147.70833
2600.469	1162.04167
2602.802	1169.04167
2605.133	1168.70833
2607.462	1142.04167
2609.79	1164.70833
2612.116	1163.375
2614.441	1186.70833
2616.764	1196.04167
2619.086	1191.70833
2621.406	1192.04167
2623.725	1210.04167
2626.042	1204.70833
2628.358	1206.70833
2630.672	1220.375
2632.985	1233.04167
2635.296	1228.04167
2637.606	1241.375
2639.914	1227.04167
2642.22	1230.04167
2644.525	1252.375
2646.829	1262.70833
2649.131	1268.70833
2651.432	1283.04167
2653.731	1272.375
2656.028	1294.375
2658.324	1287.70833
2660.619	1284.04167
2662.912	1310.04167
2665.204	1283.04167
2667.494	1313.375
2669.782	1310.04167
2672.07	1321.375
2674.355	1308.375
2676.639	1312.04167
2678.922	1307.70833
2681.203	1322.04167
2683.483	1314.04167
2685.761	1296.375
2688.038	1344.375
2690.313	1358.04167
2692.587	1340.04167
2694.859	1335.375
2697.13	1345.375
2699.399	1363.04167
2701.667	1378.375
2703.933	1368.04167
2706.198	1393.04167
2708.461	1398.375
2710.723	1394.375
2712.984	1401.04167
2715.243	1420.375
2717.5	1414.70833
2719.757	1431.375
2722.011	1428.04167
2724.264	1461.04167
2726.516	1452.375
2728.766	1465.375
2731.015	1467.04167
2733.262	1464.375
2735.508	1473.375
2737.753	1481.375
2739.996	1453.375
2742.237	1458.04167
2744.477	1474.04167
2746.716	1465.375
2748.953	1458.04167
2751.189	1477.04167
2753.423	1462.375
2755.656	1464.375
2757.887	1453.375
2760.117	1473.04167
2762.346	1470.375
2764.573	1454.375
2766.798	1468.04167
2769.022	1463.70833
2771.245	1469.70833
2773.467	1493.04167
2775.686	1488.70833
2777.905	1506.70833
2780.122	1514.70833
2782.337	1529.04167
2784.552	1501.70833
2786.764	1534.04167
2788.976	1536.04167
2791.186	1551.375
2793.394	1551.04167
2795.601	1577.70833
2797.807	1581.04167
2800.011	1583.70833
2802.214	1586.04167
2804.415	1594.70833
2806.615	1592.70833
2808.814	1600.04167
2811.011	1594.04167
2813.206	1590.70833
2815.401	1620.04167
2817.594	1627.375
2819.785	1629.375
2821.975	1605.375
2824.164	1628.375
2826.351	1648.70833
2828.537	1657.70833
2830.722	1672.70833
2832.905	1660.375
2835.086	1695.70833
2837.267	1734.04167
2839.445	1750.70833
2841.623	1742.375
2843.799	1778.375
2845.974	1796.375
2848.147	1813.04167
2850.319	1824.04167
2852.489	1856.70833
2854.659	1861.04167
2856.826	1888.04167
2858.993	1923.04167
2861.158	1901.70833
2863.321	1913.375
2865.483	1907.70833
2867.644	1934.70833
2869.804	1922.70833
2871.962	1889.375
2874.118	1909.70833
2876.274	1894.70833
2878.428	1899.04167
2880.58	1898.70833
2882.731	1882.04167
2884.881	1880.70833
2887.03	1888.70833
2889.177	1895.70833
2891.322	1895.375
2893.467	1882.375
2895.61	1887.70833
2897.751	1929.70833
2899.892	1904.375
2902.03	1938.70833
2904.168	1953.70833
2906.304	1971.04167
2908.439	1998.375
2910.572	1970.70833
2912.704	1975.70833
2914.835	1982.375
2916.965	1995.70833
2919.093	2012.70833
2921.219	1970.70833
2923.345	1990.375
2925.469	1993.70833
2927.591	1967.70833
2929.712	1946.375
2931.832	1931.70833
2933.951	1918.70833
2936.068	1904.70833
2938.184	1901.70833
2940.299	1866.375
2942.412	1873.375
2944.524	1859.70833
2946.634	1855.375
2948.744	1802.04167
2950.851	1845.375
2952.958	1830.70833
2955.063	1838.04167
2957.167	1848.04167
2959.269	1814.04167
2961.371	1863.04167
2963.471	1833.70833
2965.569	1828.375
2967.666	1826.70833
2969.762	1828.375
2971.857	1818.70833
2973.95	1790.04167
2976.042	1800.04167
2978.133	1762.70833
2980.222	1745.375
2982.31	1720.70833
2984.396	1702.04167
2986.482	1709.375
2988.566	1707.70833
2990.648	1693.70833
2992.73	1703.04167
2994.81	1698.70833
2996.889	1703.70833
2998.966	1712.04167
3001.042	1708.04167
3003.117	1705.70833
3005.191	1730.04167
3007.263	1705.70833
3009.334	1688.70833
3011.403	1670.70833
3013.472	1654.375
3015.539	1649.375
3017.604	1647.04167
3019.669	1599.375
3021.732	1607.70833
3023.794	1597.70833
3025.854	1589.375
3027.914	1613.375
3029.971	1617.375
3032.028	1593.70833
3034.083	1604.70833
3036.137	1577.04167
3038.19	1525.375
3040.242	1507.04167
3042.292	1484.04167
3044.341	1455.04167
3046.388	1470.375
3048.435	1434.375
3050.48	1453.04167
3052.524	1419.375
3054.566	1423.70833
3056.607	1425.70833
3058.647	1391.375
3060.686	1366.04167
3062.723	1308.375
3064.759	1267.04167
3066.794	1.375
3068.828	0.375
3070.86	-0.625
