-0.839	595.375
3.438	748.375
7.711	213.04167
11.981	66.375
16.247	46.375
20.509	51.04167
24.768	44.70833
29.024	57.375
33.276	42.70833
37.524	50.375
41.769	44.375
46.01	34.375
50.247	43.70833
54.481	57.70833
58.712	65.04167
62.939	51.04167
67.162	60.70833
71.382	56.375
75.599	47.375
79.812	60.375
84.021	82.70833
88.227	65.04167
92.429	60.04167
96.628	51.04167
100.823	70.70833
105.015	74.70833
109.204	69.375
113.388	76.375
117.57	77.375
121.748	89.70833
125.922	81.70833
130.093	106.375
134.261	100.04167
138.425	101.04167
142.585	139.70833
146.742	140.04167
150.896	170.70833
155.046	209.04167
159.193	327.04167
163.336	554.70833
167.476	1021.375
171.613	1867.04167
175.746	3142.70833
179.875	4660.375
184.002	6107.04167
188.124	7101.04167
192.244	7431.04167
196.36	7385.70833
200.472	7149.70833
204.581	7002.04167
208.687	6794.375
212.79	6701.70833
216.889	6686.04167
220.984	6700.375
225.077	6752.375
229.165	6720.04167
233.251	6739.70833
237.333	6718.70833
241.412	6660.04167
245.487	6605.04167
249.559	6523.375
253.628	6488.70833
257.694	6414.375
261.756	6377.70833
265.814	6253.70833
269.87	6061.04167
273.922	5875.70833
277.97	5741.04167
282.016	5652.04167
286.058	5635.375
290.097	5696.70833
294.132	5794.375
298.164	5756.375
302.193	5530.375
306.219	5152.04167
310.241	4755.70833
314.26	4395.70833
318.276	4119.70833
322.288	3915.04167
326.297	3738.04167
330.303	3588.70833
334.305	3510.04167
338.305	3434.70833
342.301	3407.04167
346.294	3366.70833
350.283	3352.375
354.269	3313.375
358.252	3265.70833
362.232	3261.04167
366.209	3266.04167
370.182	3226.375
374.152	3221.04167
378.119	3221.70833
382.083	3196.375
386.043	3229.04167
390	3178.04167
393.954	3196.70833
397.905	3173.70833
401.852	3152.375
405.797	3118.375
409.738	3102.04167
413.676	3098.04167
417.61	3089.04167
421.542	3057.375
425.47	3031.04167
429.396	2982.375
433.318	3019.70833
437.236	2990.70833
441.152	3001.04167
445.065	2960.70833
448.974	2966.04167
452.88	2899.70833
456.783	2898.375
460.683	2897.375
464.58	2898.70833
468.473	2887.70833
472.364	2916.04167
476.251	2882.04167
480.135	2922.375
484.016	2952.375
487.894	2951.04167
491.769	2976.70833
495.641	2954.375
499.509	2959.70833
503.375	2950.375
507.237	2953.375
511.096	2951.375
514.952	2951.70833
518.805	2979.375
522.655	3001.04167
526.502	2951.375
530.346	2962.70833
534.187	2975.04167
538.024	2978.375
541.859	3020.375
545.69	3051.04167
549.519	3004.70833
553.344	3007.375
557.166	2975.04167
560.985	2910.375
564.802	2851.70833
568.615	2824.375
572.425	2768.375
576.232	2767.70833
580.036	2767.70833
583.836	2782.04167
587.634	2773.375
591.429	2773.375
595.221	2864.04167
599.01	2875.70833
602.796	2945.04167
606.578	2920.04167
610.358	2911.375
614.135	2888.04167
617.909	2890.70833
621.679	2852.375
625.447	2823.70833
629.212	2844.04167
632.973	2854.70833
636.732	2840.70833
640.488	2851.04167
644.241	2829.70833
647.991	2795.375
651.737	2819.375
655.481	2767.04167
659.222	2784.04167
662.96	2811.375
666.695	2797.375
670.427	2831.375
674.156	2866.375
677.882	2816.04167
681.605	2835.04167
685.325	2784.375
689.043	2805.04167
692.757	2761.375
696.468	2800.375
700.177	2760.70833
703.882	2745.375
707.585	2727.375
711.284	2724.70833
714.981	2710.375
718.675	2732.04167
722.366	2753.70833
726.054	2692.04167
729.739	2724.70833
733.421	2726.375
737.1	2710.375
740.777	2747.375
744.45	2756.04167
748.121	2757.70833
751.789	2824.04167
755.453	2816.70833
759.115	2852.04167
762.774	2876.375
766.431	2869.70833
770.084	2920.70833
773.734	2970.04167
777.382	3002.70833
781.027	3035.04167
784.669	3040.70833
788.308	3048.375
791.944	3072.375
795.577	3037.70833
799.208	3094.04167
802.835	3092.04167
806.46	3114.04167
810.082	3109.375
813.701	3122.70833
817.317	3152.70833
820.931	3160.375
824.542	3141.375
828.149	3127.04167
831.754	3102.70833
835.357	3093.04167
838.956	3120.70833
842.553	3097.70833
846.146	3081.04167
849.737	3045.04167
853.326	3073.375
856.911	3085.375
860.493	3117.04167
864.073	3136.04167
867.65	3180.375
871.225	3203.04167
874.796	3217.375
878.365	3214.375
881.931	3244.375
885.494	3238.70833
889.054	3259.04167
892.612	3281.70833
896.166	3242.375
899.719	3237.375
903.268	3181.04167
906.814	3166.70833
910.358	3143.04167
913.899	3152.04167
917.438	3123.375
920.973	3123.375
924.506	3157.70833
928.036	3183.04167
931.564	3248.70833
935.088	3286.70833
938.61	3313.04167
942.129	3358.04167
945.646	3411.375
949.16	3466.375
952.671	3533.70833
956.179	3529.375
959.685	3475.70833
963.188	3443.375
966.688	3405.375
970.185	3296.04167
973.68	3231.04167
977.173	3147.70833
980.662	3087.04167
984.149	3096.70833
987.633	3087.375
991.114	3127.70833
994.593	3166.70833
998.069	3273.375
1001.542	3330.04167
1005.013	3335.375
1008.481	3172.375
1011.947	3133.70833
1015.409	3112.375
1018.869	3084.04167
1022.327	3087.04167
1025.782	3063.375
1029.234	3050.375
1032.683	2971.04167
1036.13	2924.375
1039.574	2805.04167
1043.016	2710.375
1046.455	2680.70833
1049.891	2675.04167
1053.325	2661.375
1056.756	2671.375
1060.184	2704.70833
1063.61	2717.375
1067.033	2722.70833
1070.454	2726.70833
1073.872	2739.70833
1077.287	2748.04167
1080.7	2757.70833
1084.11	2745.375
1087.517	2706.04167
1090.922	2676.375
1094.325	2657.375
1097.724	2636.375
1101.122	2642.70833
1104.516	2645.375
1107.908	2665.70833
1111.298	2698.375
1114.684	2721.70833
1118.069	2776.375
1121.45	2795.375
1124.83	2817.70833
1128.206	2859.04167
1131.58	2899.375
1134.951	2963.375
1138.32	3076.375
1141.687	3190.375
1145.05	3252.70833
1148.412	3299.70833
1151.77	3256.375
1155.126	3269.04167
1158.48	3277.375
1161.831	3299.04167
1165.18	3294.375
1168.525	3346.375
1171.869	3397.04167
1175.21	3420.04167
1178.548	3435.70833
1181.884	3481.375
1185.217	3524.375
1188.548	3608.04167
1191.877	3693.375
1195.202	3769.70833
1198.526	3838.70833
1201.846	3836.70833
1205.165	3843.375
1208.48	3796.70833
1211.794	3750.375
1215.104	3736.04167
1218.413	3732.375
1221.719	3733.70833
1225.022	3674.04167
1228.323	3622.70833
1231.621	3585.375
1234.917	3551.04167
1238.21	3585.375
1241.501	3549.375
1244.79	3519.375
1248.076	3523.04167
1251.359	3557.04167
1254.64	3620.375
1257.919	3635.04167
1261.195	3691.04167
1264.468	3769.70833
1267.74	3832.70833
1271.008	3839.04167
1274.275	3815.04167
1277.538	3775.70833
1280.8	3793.70833
1284.059	3817.04167
1287.315	3831.70833
1290.569	3845.70833
1293.821	3848.70833
1297.07	3860.375
1300.317	3902.375
1303.562	3894.70833
1306.803	3876.375
1310.043	3868.04167
1313.28	3809.375
1316.515	3797.04167
1319.747	3753.70833
1322.977	3673.70833
1326.204	3655.70833
1329.429	3568.70833
1332.652	3550.70833
1335.872	3537.375
1339.09	3476.04167
1342.306	3442.375
1345.519	3416.375
1348.729	3399.04167
1351.938	3376.04167
1355.144	3327.04167
1358.347	3288.04167
1361.548	3261.04167
1364.747	3261.375
1367.944	3237.04167
1371.138	3245.04167
1374.329	3253.04167
1377.518	3304.375
1380.705	3328.375
1383.89	3315.70833
1387.072	3234.04167
1390.252	3096.375
1393.429	2970.375
1396.605	2889.375
1399.777	2803.04167
1402.948	2781.04167
1406.116	2743.70833
1409.282	2735.70833
1412.445	2745.375
1415.606	2752.04167
1418.765	2822.70833
1421.921	2855.04167
1425.075	2928.375
1428.227	3015.375
1431.376	3106.375
1434.524	3241.375
1437.668	3317.04167
1440.811	3350.04167
1443.951	3374.70833
1447.089	3397.375
1450.224	3393.375
1453.357	3365.04167
1456.488	3364.04167
1459.617	3316.70833
1462.743	3292.04167
1465.867	3222.70833
1468.989	3183.04167
1472.108	3135.375
1475.225	3084.70833
1478.34	3048.70833
1481.453	3035.70833
1484.563	3053.375
1487.671	3121.04167
1490.776	3173.04167
1493.88	3234.70833
1496.981	3288.70833
1500.08	3349.375
1503.176	3405.375
1506.271	3434.04167
1509.363	3486.70833
1512.452	3522.70833
1515.54	3561.70833
1518.625	3610.04167
1521.708	3688.375
1524.789	3803.04167
1527.867	3938.375
1530.944	4080.04167
1534.018	4246.70833
1537.089	4365.04167
1540.159	4404.04167
1543.226	4422.375
1546.291	4337.04167
1549.354	4277.375
1552.415	4158.375
1555.473	4111.70833
1558.529	4039.375
1561.583	4017.70833
1564.634	4045.04167
1567.684	4042.70833
1570.731	4095.04167
1573.776	4140.70833
1576.819	4212.04167
1579.859	4228.70833
1582.898	4297.375
1585.934	4357.04167
1588.968	4379.70833
1591.999	4381.375
1595.029	4380.70833
1598.056	4393.375
1601.081	4385.04167
1604.104	4342.04167
1607.125	4317.04167
1610.144	4192.04167
1613.16	4099.70833
1616.174	4028.375
1619.186	3885.04167
1622.196	3790.04167
1625.203	3651.04167
1628.209	3575.70833
1631.212	3506.375
1634.213	3470.70833
1637.212	3408.04167
1640.209	3348.70833
1643.203	3264.04167
1646.196	3148.04167
1649.186	3014.70833
1652.174	2918.04167
1655.16	2777.375
1658.144	2697.70833
1661.125	2572.04167
1664.105	2445.70833
1667.082	2348.04167
1670.057	2242.70833
1673.03	2121.04167
1676.001	1999.70833
1678.97	1871.04167
1681.937	1758.70833
1684.901	1662.04167
1687.863	1609.70833
1690.824	1556.70833
1693.782	1519.375
1696.738	1438.70833
1699.692	1398.04167
1702.643	1376.375
1705.593	1351.70833
1708.54	1344.04167
1711.486	1346.70833
1714.429	1301.70833
1717.37	1292.04167
1720.309	1271.04167
1723.246	1269.70833
1726.181	1230.70833
1729.113	1243.375
1732.044	1241.375
1734.972	1212.04167
1737.899	1222.375
1740.823	1208.04167
1743.745	1179.375
1746.665	1155.04167
1749.583	1134.04167
1752.499	1124.375
1755.413	1116.375
1758.325	1084.375
1761.235	1076.70833
1764.142	1052.70833
1767.048	1047.04167
1769.951	1043.04167
1772.852	1042.375
1775.752	1035.70833
1778.649	1031.04167
1781.544	1037.04167
1784.437	996.04167
1787.328	1001.70833
1790.217	996.375
1793.104	969.375
1795.989	967.70833
1798.872	966.70833
1801.753	995.375
1804.631	977.04167
1807.508	983.375
1810.383	966.04167
1813.255	960.375
1816.126	960.70833
1818.994	957.375
1821.861	946.04167
1824.725	947.04167
1827.587	936.04167
1830.448	939.375
1833.306	910.375
1836.162	923.375
1839.017	924.375
1841.869	915.70833
1844.719	897.04167
1847.567	890.70833
1850.414	889.70833
1853.258	896.70833
1856.1	902.70833
1858.94	899.375
1861.778	880.375
1864.614	884.375
1867.448	884.04167
1870.28	860.04167
1873.111	900.70833
1875.939	881.04167
1878.765	903.70833
1881.589	879.375
1884.411	865.70833
1887.231	876.375
1890.049	872.04167
1892.865	863.70833
1895.68	865.04167
1898.492	869.04167
1901.302	856.04167
1904.11	852.70833
1906.916	831.70833
1909.721	835.70833
1912.523	840.70833
1915.323	818.375
1918.122	824.04167
1920.918	832.375
1923.712	824.70833
1926.505	804.70833
1929.295	805.70833
1932.084	817.04167
1934.87	808.375
1937.655	809.375
1940.438	815.04167
1943.218	806.04167
1945.997	811.04167
1948.774	819.375
1951.549	817.70833
1954.322	804.70833
1957.093	791.375
1959.862	794.375
1962.629	781.375
1965.394	786.04167
1968.157	762.375
1970.918	775.375
1973.678	772.04167
1976.435	785.70833
1979.19	776.375
1981.944	763.04167
1984.696	759.375
1987.445	748.375
1990.193	756.375
1992.939	781.04167
1995.683	757.375
1998.425	739.70833
2001.165	772.04167
2003.903	738.70833
2006.639	754.70833
2009.374	763.375
2012.106	746.04167
2014.837	733.04167
2017.566	743.70833
2020.292	744.70833
2023.017	751.04167
2025.74	729.04167
2028.461	730.70833
2031.18	732.70833
2033.898	710.04167
2036.613	723.375
2039.327	718.375
2042.038	697.04167
2044.748	711.04167
2047.456	729.375
2050.162	711.70833
2052.866	710.04167
2055.568	719.70833
2058.268	704.375
2060.967	705.70833
2063.663	692.70833
2066.358	695.70833
2069.051	691.70833
2071.742	695.70833
2074.431	710.04167
2077.118	685.04167
2079.804	676.04167
2082.487	695.70833
2085.169	693.04167
2087.849	705.70833
2090.527	690.70833
2093.203	689.70833
2095.877	701.375
2098.55	700.375
2101.22	712.04167
2103.889	704.375
2106.556	704.04167
2109.221	735.375
2111.884	738.375
2114.546	790.04167
2117.205	832.70833
2119.863	896.04167
2122.519	937.375
2125.173	1012.70833
2127.825	1063.375
2130.475	1067.04167
2133.124	1030.04167
2135.771	994.04167
2138.416	957.375
2141.059	892.375
2143.7	851.04167
2146.339	797.70833
2148.977	752.04167
2151.613	759.04167
2154.247	717.70833
2156.879	708.70833
2159.51	692.70833
2162.138	684.70833
2164.765	678.04167
2167.39	661.375
2170.013	674.375
2172.634	674.70833
2175.254	665.04167
2177.872	677.70833
2180.488	650.04167
2183.102	656.70833
2185.714	633.375
2188.325	611.70833
2190.934	618.70833
2193.541	644.70833
2196.146	627.375
2198.75	616.375
2201.351	611.70833
2203.951	607.375
2206.549	629.04167
2209.146	610.70833
2211.74	604.375
2214.333	602.375
2216.924	589.375
2219.514	595.04167
2222.101	590.04167
2224.687	594.70833
2227.271	579.70833
2229.853	581.375
2232.433	556.70833
2235.012	592.70833
2237.589	572.04167
2240.164	582.70833
2242.738	573.70833
2245.309	551.70833
2247.879	564.375
2250.448	560.375
2253.014	540.375
2255.579	522.04167
2258.142	551.04167
2260.703	530.04167
2263.262	534.70833
2265.82	520.375
2268.376	529.375
2270.93	524.375
2273.483	509.04167
2276.033	515.04167
2278.583	505.70833
2281.13	508.375
2283.675	502.04167
2286.219	500.70833
2288.761	508.70833
2291.302	511.375
2293.841	518.04167
2296.377	491.04167
2298.913	498.70833
2301.446	501.70833
2303.978	504.04167
2306.508	487.04167
2309.037	490.375
2311.563	497.70833
2314.088	492.375
2316.612	477.70833
2319.133	485.04167
2321.653	485.04167
2324.171	475.375
2326.688	478.04167
2329.202	471.70833
2331.715	478.04167
2334.227	478.04167
2336.736	467.70833
2339.244	471.375
2341.751	465.04167
2344.255	475.375
2346.758	460.70833
2349.259	460.04167
2351.759	461.04167
2354.257	454.70833
2356.753	451.04167
2359.247	460.70833
2361.74	467.70833
2364.231	453.375
2366.721	457.70833
2369.209	447.375
2371.695	450.04167
2374.179	445.70833
2376.662	428.04167
2379.143	455.04167
2381.622	442.70833
2384.1	446.70833
2386.576	445.70833
2389.051	447.04167
2391.524	458.70833
2393.995	448.70833
2396.464	437.375
2398.932	443.04167
2401.398	436.375
2403.863	432.375
2406.325	424.70833
2408.787	442.375
2411.246	427.375
2413.704	429.375
2416.16	427.04167
2418.615	434.70833
2421.068	431.375
2423.519	433.70833
2425.969	416.04167
2428.417	418.70833
2430.863	443.375
2433.308	428.375
2435.751	424.375
2438.193	420.04167
2440.633	421.375
2443.071	438.04167
2445.508	414.04167
2447.943	408.70833
2450.376	412.04167
2452.808	418.04167
2455.238	403.375
2457.667	438.04167
2460.093	408.04167
2462.519	400.375
2464.942	408.375
2467.365	416.375
2469.785	414.375
2472.204	410.04167
2474.621	398.70833
2477.037	426.70833
2479.451	383.375
2481.863	385.70833
2484.274	406.375
2486.683	386.04167
2489.091	404.375
2491.497	393.375
2493.901	400.375
2496.304	388.375
2498.705	409.04167
2501.105	384.04167
2503.503	408.70833
2505.899	380.70833
2508.294	409.04167
2510.687	388.375
2513.079	385.375
2515.469	376.375
2517.858	386.70833
2520.245	399.70833
2522.63	383.375
2525.014	373.04167
2527.396	367.04167
2529.776	380.04167
2532.156	382.04167
2534.533	361.375
2536.909	371.04167
2539.283	363.04167
2541.656	365.70833
2544.027	388.04167
2546.397	366.375
2548.765	368.375
2551.131	369.70833
2553.496	378.375
2555.86	374.375
2558.221	379.375
2560.582	365.70833
2562.94	365.04167
2565.298	370.04167
2567.653	374.04167
2570.007	354.375
2572.36	378.70833
2574.711	353.04167
2577.06	387.04167
2579.408	364.375
2581.754	364.04167
2584.099	368.70833
2586.442	359.04167
2588.784	367.375
2591.124	363.375
2593.463	364.70833
2595.8	366.04167
2598.135	343.70833
2600.469	347.375
2602.802	376.375
2605.133	367.375
2607.462	356.70833
2609.79	345.04167
2612.116	357.04167
2614.441	352.375
2616.764	356.04167
2619.086	353.70833
2621.406	342.04167
2623.725	368.375
2626.042	357.375
2628.358	345.04167
2630.672	343.375
2632.985	368.04167
2635.296	356.375
2637.606	355.375
2639.914	343.70833
2642.22	343.70833
2644.525	351.375
2646.829	355.04167
2649.131	367.70833
2651.432	364.70833
2653.731	354.04167
2656.028	364.04167
2658.324	366.04167
2660.619	348.04167
2662.912	361.375
2665.204	342.04167
2667.494	358.375
2669.782	355.375
2672.07	354.04167
2674.355	365.375
2676.639	354.375
2678.922	345.70833
2681.203	360.04167
2683.483	345.70833
2685.761	338.70833
2688.038	358.70833
2690.313	367.375
2692.587	358.375
2694.859	347.375
2697.13	362.375
2699.399	362.04167
2701.667	372.70833
2703.933	364.70833
2706.198	372.375
2708.461	363.70833
2710.723	376.04167
2712.984	372.70833
2715.243	377.375
2717.5	360.70833
2719.757	385.70833
2722.011	379.04167
2724.264	381.375
2726.516	403.04167
2728.766	371.70833
2731.015	382.04167
2733.262	383.375
2735.508	382.375
2737.753	387.70833
2739.996	368.375
2742.237	364.04167
2744.477	380.70833
2746.716	367.70833
2748.953	371.375
2751.189	377.375
2753.423	358.04167
2755.656	353.04167
2757.887	353.70833
2760.117	359.70833
2762.346	341.04167
2764.573	349.375
2766.798	351.70833
2769.022	346.04167
2771.245	351.70833
2773.467	362.04167
2775.686	365.04167
2777.905	360.375
2780.122	362.70833
2782.337	368.375
2784.552	361.375
2786.764	368.375
2788.976	365.04167
2791.186	375.375
2793.394	369.70833
2795.601	376.70833
2797.807	381.04167
2800.011	393.375
2802.214	385.04167
2804.415	385.70833
2806.615	399.375
2808.814	391.375
2811.011	404.375
2813.206	400.375
2815.401	417.70833
2817.594	421.70833
2819.785	422.70833
2821.975	424.375
2824.164	421.04167
2826.351	442.375
2828.537	456.375
2830.722	457.70833
2832.905	469.375
2835.086	498.375
2837.267	513.375
2839.445	523.70833
2841.623	545.04167
2843.799	574.70833
2845.974	606.375
2848.147	629.375
2850.319	653.70833
2852.489	677.375
2854.659	685.375
2856.826	704.375
2858.993	735.375
2861.158	709.70833
2863.321	714.04167
2865.483	730.70833
2867.644	722.375
2869.804	732.04167
2871.962	721.04167
2874.118	725.70833
2876.274	730.70833
2878.428	727.375
2880.58	720.70833
2882.731	714.375
2884.881	704.70833
2887.03	726.70833
2889.177	720.70833
2891.322	735.04167
2893.467	724.04167
2895.61	724.70833
2897.751	757.375
2899.892	755.70833
2902.03	761.375
2904.168	761.04167
2906.304	752.04167
2908.439	779.04167
2910.572	749.375
2912.704	778.70833
2914.835	789.375
2916.965	788.04167
2919.093	789.375
2921.219	766.375
2923.345	783.70833
2925.469	752.70833
2927.591	751.375
2929.712	740.375
2931.832	739.375
2933.951	714.375
2936.068	701.70833
2938.184	684.70833
2940.299	665.375
2942.412	636.70833
2944.524	610.70833
2946.634	602.70833
2948.744	558.375
2950.851	584.04167
2952.958	554.375
2955.063	538.04167
2957.167	526.04167
2959.269	496.375
2961.371	513.375
2963.471	482.375
2965.569	487.70833
2967.666	454.04167
2969.762	453.375
2971.857	441.70833
2973.95	422.04167
2976.042	420.375
2978.133	411.70833
2980.222	409.70833
2982.31	387.04167
2984.396	374.70833
2986.482	373.70833
2988.566	364.375
2990.648	359.70833
2992.73	358.70833
2994.81	338.375
2996.889	349.375
2998.966	343.04167
3001.042	344.70833
3003.117	342.70833
3005.191	342.70833
3007.263	338.375
3009.334	335.70833
3011.403	331.04167
3013.472	318.70833
3015.539	331.70833
3017.604	330.70833
3019.669	289.70833
3021.732	309.04167
3023.794	303.375
3025.854	294.70833
3027.914	291.70833
3029.971	307.04167
3032.028	283.04167
3034.083	291.375
3036.137	289.70833
3038.19	275.375
3040.242	271.375
3042.292	262.70833
3044.341	258.375
3046.388	281.375
3048.435	256.70833
3050.48	272.375
3052.524	268.04167
3054.566	253.04167
3056.607	262.375
3058.647	251.04167
3060.686	232.04167
3062.723	235.375
3064.759	223.70833
3066.794	0.375
3068.828	2.375
3070.86	3.70833
