-0.839	573.16667
3.438	687.16667
7.711	197.5
11.981	61.5
16.247	44.16667
20.509	52.83333
24.768	45.83333
29.024	54.16667
33.276	45.83333
37.524	49.16667
41.769	46.5
46.01	36.83333
50.247	48.83333
54.481	55.83333
58.712	60.5
62.939	45.83333
67.162	59.83333
71.382	58.83333
75.599	42.83333
79.812	59.83333
84.021	76.5
88.227	60.83333
92.429	55.5
96.628	51.16667
100.823	68.83333
105.015	71.5
109.204	68.5
113.388	74.5
117.57	75.83333
121.748	85.16667
125.922	77.83333
130.093	96.16667
134.261	97.83333
138.425	94.16667
142.585	134.83333
146.742	126.5
150.896	156.83333
155.046	195.16667
159.193	313.16667
163.336	522.16667
167.476	945.5
171.613	1747.83333
175.746	2915.83333
179.875	4351.83333
184.002	5625.83333
188.124	6576.16667
192.244	6887.16667
196.36	6787.5
200.472	6569.83333
204.581	6372.16667
208.687	6172.16667
212.79	6115.5
216.889	6070.83333
220.984	6090.16667
225.077	6096.5
229.165	6077.16667
233.251	6058.83333
237.333	6022.5
241.412	5930.16667
245.487	5869.16667
249.559	5817.5
253.628	5764.16667
257.694	5675.5
261.756	5603.16667
265.814	5475.5
269.87	5328.16667
273.922	5171.16667
277.97	5024.5
282.016	5023.16667
286.058	5053.16667
290.097	5141.83333
294.132	5186.83333
298.164	5103.16667
302.193	4858.16667
306.219	4468.16667
310.241	4107.83333
314.26	3798.83333
318.276	3523.16667
322.288	3358.83333
326.297	3190.16667
330.303	3077.83333
334.305	2994.83333
338.305	2968.5
342.301	2904.5
346.294	2882.5
350.283	2853.5
354.269	2830.5
358.252	2819.5
362.232	2792.16667
366.209	2766.16667
370.182	2747.83333
374.152	2733.16667
378.119	2759.83333
382.083	2725.83333
386.043	2750.83333
390	2714.83333
393.954	2703.5
397.905	2693.16667
401.852	2698.16667
405.797	2650.5
409.738	2626.16667
413.676	2635.83333
417.61	2635.5
421.542	2607.16667
425.47	2582.83333
429.396	2566.5
433.318	2566.5
437.236	2536.83333
441.152	2564.5
445.065	2499.5
448.974	2510.83333
452.88	2468.83333
456.783	2460.16667
460.683	2448.16667
464.58	2437.83333
468.473	2437.5
472.364	2469.16667
476.251	2462.83333
480.135	2468.16667
484.016	2520.5
487.894	2529.16667
491.769	2549.83333
495.641	2537.83333
499.509	2544.5
503.375	2547.16667
507.237	2536.83333
511.096	2511.83333
514.952	2550.83333
518.805	2589.83333
522.655	2596.16667
526.502	2540.5
530.346	2537.5
534.187	2533.5
538.024	2553.83333
541.859	2549.83333
545.69	2585.5
549.519	2558.5
553.344	2513.16667
557.166	2501.16667
560.985	2472.16667
564.802	2441.5
568.615	2381.83333
572.425	2341.5
576.232	2322.83333
580.036	2348.5
583.836	2340.5
587.634	2371.5
591.429	2361.83333
595.221	2428.83333
599.01	2423.83333
602.796	2485.16667
606.578	2457.16667
610.358	2467.5
614.135	2449.83333
617.909	2446.83333
621.679	2409.16667
625.447	2392.5
629.212	2388.5
632.973	2421.83333
636.732	2400.83333
640.488	2396.5
644.241	2377.5
647.991	2357.83333
651.737	2378.83333
655.481	2349.5
659.222	2339.83333
662.96	2345.16667
666.695	2374.83333
670.427	2363.83333
674.156	2387.5
677.882	2374.5
681.605	2377.83333
685.325	2343.16667
689.043	2344.16667
692.757	2326.16667
696.468	2322.83333
700.177	2306.16667
703.882	2304.83333
707.585	2309.83333
711.284	2302.16667
714.981	2304.5
718.675	2314.83333
722.366	2346.83333
726.054	2293.83333
729.739	2300.5
733.421	2308.5
737.1	2326.83333
740.777	2368.83333
744.45	2366.16667
748.121	2360.83333
751.789	2412.5
755.453	2410.5
759.115	2419.16667
762.774	2448.16667
766.431	2453.16667
770.084	2497.5
773.734	2487.16667
777.382	2523.83333
781.027	2553.16667
784.669	2584.16667
788.308	2584.16667
791.944	2607.83333
795.577	2618.16667
799.208	2657.16667
802.835	2658.16667
806.46	2687.83333
810.082	2688.5
813.701	2691.16667
817.317	2688.16667
820.931	2702.5
824.542	2708.83333
828.149	2672.5
831.754	2676.83333
835.357	2674.16667
838.956	2681.83333
842.553	2668.83333
846.146	2637.83333
849.737	2631.16667
853.326	2652.16667
856.911	2672.16667
860.493	2685.83333
864.073	2683.83333
867.65	2739.83333
871.225	2765.5
874.796	2767.16667
878.365	2776.5
881.931	2778.83333
885.494	2797.5
889.054	2811.83333
892.612	2795.83333
896.166	2782.83333
899.719	2759.83333
903.268	2724.5
906.814	2695.83333
910.358	2676.83333
913.899	2647.16667
917.438	2674.16667
920.973	2641.83333
924.506	2710.16667
928.036	2725.5
931.564	2773.16667
935.088	2813.16667
938.61	2825.83333
942.129	2875.5
945.646	2926.16667
949.16	2981.83333
952.671	2998.83333
956.179	3013.83333
959.685	2935.83333
963.188	2957.16667
966.688	2921.5
970.185	2826.5
973.68	2779.83333
977.173	2750.16667
980.662	2722.5
984.149	2738.5
987.633	2682.5
991.114	2766.83333
994.593	2814.83333
998.069	2904.83333
1001.542	2989.5
1005.013	2938.83333
1008.481	2776.16667
1011.947	2700.16667
1015.409	2690.83333
1018.869	2695.83333
1022.327	2683.5
1025.782	2682.83333
1029.234	2644.83333
1032.683	2619.83333
1036.13	2533.5
1039.574	2438.5
1043.016	2385.16667
1046.455	2351.16667
1049.891	2313.16667
1053.325	2338.5
1056.756	2341.16667
1060.184	2340.83333
1063.61	2384.16667
1067.033	2382.83333
1070.454	2384.16667
1073.872	2393.5
1077.287	2392.83333
1080.7	2374.5
1084.11	2390.16667
1087.517	2367.5
1090.922	2330.5
1094.325	2311.83333
1097.724	2289.16667
1101.122	2302.16667
1104.516	2290.5
1107.908	2303.5
1111.298	2325.83333
1114.684	2336.5
1118.069	2395.16667
1121.45	2409.83333
1124.83	2409.5
1128.206	2456.83333
1131.58	2493.83333
1134.951	2558.16667
1138.32	2621.5
1141.687	2696.16667
1145.05	2778.16667
1148.412	2791.83333
1151.77	2760.5
1155.126	2781.83333
1158.48	2757.16667
1161.831	2791.5
1165.18	2797.16667
1168.525	2834.5
1171.869	2853.83333
1175.21	2858.5
1178.548	2889.83333
1181.884	2936.16667
1185.217	2978.83333
1188.548	3015.16667
1191.877	3071.5
1195.202	3160.5
1198.526	3236.5
1201.846	3253.83333
1205.165	3237.5
1208.48	3201.5
1211.794	3213.16667
1215.104	3234.5
1218.413	3228.83333
1221.719	3228.5
1225.022	3196.83333
1228.323	3113.16667
1231.621	3113.5
1234.917	3108.5
1238.21	3101.16667
1241.501	3086.5
1244.79	3060.16667
1248.076	3060.16667
1251.359	3088.16667
1254.64	3190.5
1257.919	3191.83333
1261.195	3226.5
1264.468	3287.16667
1267.74	3346.16667
1271.008	3333.83333
1274.275	3319.5
1277.538	3300.16667
1280.8	3305.83333
1284.059	3304.83333
1287.315	3320.16667
1290.569	3345.5
1293.821	3389.83333
1297.07	3403.83333
1300.317	3384.83333
1303.562	3418.83333
1306.803	3365.16667
1310.043	3350.83333
1313.28	3291.16667
1316.515	3264.16667
1319.747	3247.83333
1322.977	3206.5
1326.204	3128.5
1329.429	3089.83333
1332.652	3075.83333
1335.872	3067.83333
1339.09	3024.16667
1342.306	3031.5
1345.519	2985.16667
1348.729	2967.5
1351.938	2976.16667
1355.144	2934.83333
1358.347	2885.83333
1361.548	2906.83333
1364.747	2900.5
1367.944	2856.16667
1371.138	2859.16667
1374.329	2867.16667
1377.518	2953.5
1380.705	2924.16667
1383.89	2897.83333
1387.072	2807.5
1390.252	2716.83333
1393.429	2604.83333
1396.605	2542.16667
1399.777	2465.83333
1402.948	2442.5
1406.116	2417.83333
1409.282	2425.5
1412.445	2434.5
1415.606	2434.16667
1418.765	2495.83333
1421.921	2534.5
1425.075	2589.16667
1428.227	2660.16667
1431.376	2803.5
1434.524	2898.5
1437.668	2964.16667
1440.811	3015.16667
1443.951	3054.83333
1447.089	3035.5
1450.224	3030.83333
1453.357	3005.5
1456.488	2993.5
1459.617	2914.83333
1462.743	2881.83333
1465.867	2808.5
1468.989	2764.5
1472.108	2713.16667
1475.225	2673.16667
1478.34	2633.5
1481.453	2626.16667
1484.563	2626.83333
1487.671	2648.5
1490.776	2702.83333
1493.88	2741.83333
1496.981	2798.5
1500.08	2854.83333
1503.176	2871.5
1506.271	2900.83333
1509.363	2932.16667
1512.452	2965.83333
1515.54	3026.16667
1518.625	3041.16667
1521.708	3138.5
1524.789	3239.5
1527.867	3343.83333
1530.944	3520.5
1534.018	3679.83333
1537.089	3827.5
1540.159	3879.16667
1543.226	3887.16667
1546.291	3833.16667
1549.354	3758.16667
1552.415	3664.5
1555.473	3555.16667
1558.529	3509.83333
1561.583	3486.83333
1564.634	3428.16667
1567.684	3448.83333
1570.731	3445.16667
1573.776	3479.83333
1576.819	3497.83333
1579.859	3540.16667
1582.898	3557.16667
1585.934	3618.83333
1588.968	3631.83333
1591.999	3616.5
1595.029	3628.5
1598.056	3668.83333
1601.081	3667.5
1604.104	3635.16667
1607.125	3628.16667
1610.144	3539.16667
1613.16	3462.5
1616.174	3384.83333
1619.186	3267.16667
1622.196	3180.5
1625.203	3100.83333
1628.209	3011.83333
1631.212	2999.16667
1634.213	2937.5
1637.212	2944.5
1640.209	2892.83333
1643.203	2822.16667
1646.196	2740.83333
1649.186	2647.83333
1652.174	2564.83333
1655.16	2480.83333
1658.144	2420.5
1661.125	2311.5
1664.105	2245.16667
1667.082	2104.83333
1670.057	2011.83333
1673.03	1895.5
1676.001	1752.5
1678.97	1645.83333
1681.937	1539.5
1684.901	1460.5
1687.863	1404.5
1690.824	1361.16667
1693.782	1327.83333
1696.738	1268.83333
1699.692	1248.16667
1702.643	1191.16667
1705.593	1190.83333
1708.54	1184.5
1711.486	1164.5
1714.429	1120.16667
1717.37	1139.5
1720.309	1101.5
1723.246	1111.5
1726.181	1076.5
1729.113	1084.83333
1732.044	1072.5
1734.972	1063.16667
1737.899	1076.83333
1740.823	1058.5
1743.745	1019.83333
1746.665	1003.16667
1749.583	998.5
1752.499	984.5
1755.413	976.16667
1758.325	938.16667
1761.235	944.16667
1764.142	927.16667
1767.048	908.83333
1769.951	909.83333
1772.852	895.5
1775.752	893.16667
1778.649	901.16667
1781.544	904.5
1784.437	873.16667
1787.328	899.16667
1790.217	871.83333
1793.104	854.5
1795.989	846.83333
1798.872	852.16667
1801.753	866.83333
1804.631	838.16667
1807.508	857.5
1810.383	840.83333
1813.255	847.16667
1816.126	848.16667
1818.994	837.5
1821.861	831.83333
1824.725	824.5
1827.587	827.83333
1830.448	814.83333
1833.306	799.5
1836.162	804.5
1839.017	800.16667
1841.869	795.5
1844.719	804.5
1847.567	780.5
1850.414	778.5
1853.258	781.16667
1856.1	799.16667
1858.94	791.83333
1861.778	767.83333
1864.614	775.5
1867.448	777.5
1870.28	766.5
1873.111	784.5
1875.939	774.16667
1878.765	782.16667
1881.589	771.83333
1884.411	764.16667
1887.231	763.16667
1890.049	756.83333
1892.865	771.16667
1895.68	746.16667
1898.492	757.16667
1901.302	751.83333
1904.11	749.5
1906.916	752.5
1909.721	728.16667
1912.523	742.5
1915.323	719.83333
1918.122	729.5
1920.918	728.16667
1923.712	715.16667
1926.505	727.5
1929.295	708.16667
1932.084	730.16667
1934.87	722.16667
1937.655	717.83333
1940.438	721.16667
1943.218	710.5
1945.997	715.83333
1948.774	731.83333
1951.549	728.16667
1954.322	710.16667
1957.093	702.83333
1959.862	703.83333
1962.629	699.5
1965.394	701.5
1968.157	681.5
1970.918	685.83333
1973.678	684.83333
1976.435	702.5
1979.19	684.83333
1981.944	684.16667
1984.696	664.5
1987.445	655.83333
1990.193	665.83333
1992.939	688.83333
1995.683	676.16667
1998.425	660.16667
2001.165	682.16667
2003.903	670.83333
2006.639	651.16667
2009.374	678.16667
2012.106	674.16667
2014.837	652.5
2017.566	658.16667
2020.292	657.16667
2023.017	660.83333
2025.74	650.5
2028.461	637.83333
2031.18	643.16667
2033.898	644.16667
2036.613	640.16667
2039.327	653.16667
2042.038	625.83333
2044.748	634.5
2047.456	631.16667
2050.162	620.5
2052.866	634.83333
2055.568	643.16667
2058.268	625.16667
2060.967	622.83333
2063.663	611.16667
2066.358	626.83333
2069.051	618.16667
2071.742	621.83333
2074.431	627.16667
2077.118	622.83333
2079.804	608.16667
2082.487	628.5
2085.169	633.5
2087.849	645.16667
2090.527	602.16667
2093.203	628.16667
2095.877	640.16667
2098.55	635.16667
2101.22	640.5
2103.889	651.83333
2106.556	640.83333
2109.221	667.16667
2111.884	690.5
2114.546	744.83333
2117.205	772.5
2119.863	854.5
2122.519	882.83333
2125.173	935.83333
2127.825	989.16667
2130.475	986.83333
2133.124	944.83333
2135.771	910.83333
2138.416	862.16667
2141.059	809.5
2143.7	771.83333
2146.339	734.83333
2148.977	681.83333
2151.613	679.83333
2154.247	666.83333
2156.879	653.16667
2159.51	629.83333
2162.138	608.16667
2164.765	610.83333
2167.39	595.83333
2170.013	611.16667
2172.634	604.5
2175.254	599.16667
2177.872	615.83333
2180.488	583.83333
2183.102	586.83333
2185.714	572.5
2188.325	554.83333
2190.934	564.16667
2193.541	573.83333
2196.146	558.83333
2198.75	545.83333
2201.351	537.16667
2203.951	534.83333
2206.549	556.16667
2209.146	537.5
2211.74	545.5
2214.333	545.16667
2216.924	526.16667
2219.514	531.16667
2222.101	525.16667
2224.687	539.83333
2227.271	528.83333
2229.853	522.16667
2232.433	510.83333
2235.012	530.16667
2237.589	522.16667
2240.164	531.16667
2242.738	519.5
2245.309	511.16667
2247.879	508.83333
2250.448	515.83333
2253.014	495.5
2255.579	486.16667
2258.142	504.16667
2260.703	473.5
2263.262	489.16667
2265.82	485.83333
2268.376	492.16667
2270.93	479.16667
2273.483	470.5
2276.033	474.83333
2278.583	474.83333
2281.13	469.5
2283.675	461.83333
2286.219	462.83333
2288.761	473.16667
2291.302	475.16667
2293.841	486.83333
2296.377	459.83333
2298.913	465.16667
2301.446	477.16667
2303.978	463.16667
2306.508	457.16667
2309.037	470.5
2311.563	459.16667
2314.088	473.16667
2316.612	440.16667
2319.133	455.16667
2321.653	456.16667
2324.171	450.16667
2326.688	462.5
2329.202	449.5
2331.715	449.16667
2334.227	444.5
2336.736	455.5
2339.244	440.5
2341.751	432.5
2344.255	461.5
2346.758	447.83333
2349.259	429.16667
2351.759	428.5
2354.257	436.5
2356.753	421.83333
2359.247	434.16667
2361.74	453.16667
2364.231	437.16667
2366.721	440.83333
2369.209	430.83333
2371.695	440.16667
2374.179	432.83333
2376.662	412.16667
2379.143	443.16667
2381.622	430.16667
2384.1	427.16667
2386.576	419.83333
2389.051	434.16667
2391.524	440.5
2393.995	432.83333
2396.464	423.16667
2398.932	428.83333
2401.398	428.83333
2403.863	421.16667
2406.325	418.83333
2408.787	429.5
2411.246	438.5
2413.704	420.16667
2416.16	414.16667
2418.615	406.83333
2421.068	435.16667
2423.519	430.16667
2425.969	412.16667
2428.417	424.16667
2430.863	441.83333
2433.308	422.83333
2435.751	422.16667
2438.193	414.83333
2440.633	418.5
2443.071	417.16667
2445.508	416.5
2447.943	414.5
2450.376	411.16667
2452.808	419.83333
2455.238	414.5
2457.667	449.5
2460.093	413.5
2462.519	412.83333
2464.942	404.5
2467.365	416.83333
2469.785	419.83333
2472.204	422.5
2474.621	416.83333
2477.037	427.16667
2479.451	397.5
2481.863	397.5
2484.274	404.83333
2486.683	404.83333
2489.091	413.5
2491.497	403.16667
2493.901	410.83333
2496.304	401.16667
2498.705	412.16667
2501.105	402.16667
2503.503	436.83333
2505.899	398.5
2508.294	411.5
2510.687	409.16667
2513.079	401.5
2515.469	402.83333
2517.858	401.83333
2520.245	408.16667
2522.63	397.83333
2525.014	392.16667
2527.396	391.16667
2529.776	387.83333
2532.156	413.16667
2534.533	398.5
2536.909	384.83333
2539.283	378.5
2541.656	386.83333
2544.027	418.83333
2546.397	391.16667
2548.765	392.16667
2551.131	392.5
2553.496	391.16667
2555.86	406.5
2558.221	403.83333
2560.582	389.83333
2562.94	387.16667
2565.298	402.16667
2567.653	412.83333
2570.007	396.5
2572.36	404.5
2574.711	385.83333
2577.06	407.5
2579.408	399.5
2581.754	395.16667
2584.099	401.5
2586.442	401.5
2588.784	408.16667
2591.124	404.83333
2593.463	399.16667
2595.8	401.16667
2598.135	383.16667
2600.469	390.16667
2602.802	403.83333
2605.133	404.16667
2607.462	391.5
2609.79	383.83333
2612.116	403.5
2614.441	408.83333
2616.764	387.83333
2619.086	399.16667
2621.406	389.83333
2623.725	408.16667
2626.042	407.16667
2628.358	393.83333
2630.672	393.5
2632.985	418.5
2635.296	400.83333
2637.606	404.16667
2639.914	388.83333
2642.22	389.5
2644.525	404.16667
2646.829	404.16667
2649.131	412.83333
2651.432	410.5
2653.731	406.5
2656.028	414.5
2658.324	418.83333
2660.619	411.16667
2662.912	411.5
2665.204	407.16667
2667.494	415.5
2669.782	411.16667
2672.07	420.16667
2674.355	420.83333
2676.639	417.16667
2678.922	406.5
2681.203	415.5
2683.483	401.5
2685.761	396.83333
2688.038	411.16667
2690.313	422.5
2692.587	415.16667
2694.859	411.16667
2697.13	421.5
2699.399	430.16667
2701.667	438.16667
2703.933	429.16667
2706.198	421.5
2708.461	438.83333
2710.723	442.16667
2712.984	438.5
2715.243	446.83333
2717.5	432.16667
2719.757	450.83333
2722.011	448.83333
2724.264	455.5
2726.516	459.5
2728.766	449.83333
2731.015	450.83333
2733.262	448.83333
2735.508	451.5
2737.753	455.83333
2739.996	440.16667
2742.237	438.83333
2744.477	453.16667
2746.716	454.16667
2748.953	440.5
2751.189	444.5
2753.423	438.16667
2755.656	427.83333
2757.887	428.16667
2760.117	429.83333
2762.346	430.16667
2764.573	430.83333
2766.798	433.16667
2769.022	428.83333
2771.245	439.5
2773.467	436.83333
2775.686	440.5
2777.905	436.5
2780.122	446.83333
2782.337	446.83333
2784.552	452.5
2786.764	458.16667
2788.976	458.83333
2791.186	455.5
2793.394	467.83333
2795.601	466.16667
2797.807	480.5
2800.011	483.83333
2802.214	474.16667
2804.415	485.5
2806.615	493.5
2808.814	491.83333
2811.011	506.83333
2813.206	498.83333
2815.401	512.16667
2817.594	517.5
2819.785	522.16667
2821.975	520.83333
2824.164	525.16667
2826.351	542.5
2828.537	550.83333
2830.722	553.16667
2832.905	560.83333
2835.086	583.5
2837.267	613.5
2839.445	613.5
2841.623	628.16667
2843.799	649.5
2845.974	682.83333
2848.147	694.16667
2850.319	723.83333
2852.489	742.83333
2854.659	757.5
2856.826	771.16667
2858.993	793.5
2861.158	768.5
2863.321	767.83333
2865.483	785.83333
2867.644	798.5
2869.804	781.83333
2871.962	773.83333
2874.118	788.16667
2876.274	775.83333
2878.428	778.83333
2880.58	775.16667
2882.731	763.16667
2884.881	768.16667
2887.03	781.83333
2889.177	781.16667
2891.322	792.16667
2893.467	787.16667
2895.61	781.5
2897.751	797.83333
2899.892	792.83333
2902.03	793.16667
2904.168	814.16667
2906.304	802.5
2908.439	822.16667
2910.572	806.83333
2912.704	818.16667
2914.835	814.5
2916.965	814.16667
2919.093	822.5
2921.219	811.83333
2923.345	828.5
2925.469	795.5
2927.591	806.16667
2929.712	761.83333
2931.832	784.83333
2933.951	748.5
2936.068	751.16667
2938.184	733.5
2940.299	719.83333
2942.412	697.83333
2944.524	663.83333
2946.634	677.5
2948.744	623.83333
2950.851	656.5
2952.958	613.83333
2955.063	617.16667
2957.167	610.83333
2959.269	581.16667
2961.371	606.5
2963.471	562.5
2965.569	577.5
2967.666	549.83333
2969.762	540.83333
2971.857	536.5
2973.95	525.5
2976.042	517.16667
2978.133	513.16667
2980.222	496.5
2982.31	484.5
2984.396	463.83333
2986.482	470.16667
2988.566	468.5
2990.648	456.16667
2992.73	461.16667
2994.81	450.16667
2996.889	451.5
2998.966	455.83333
3001.042	459.5
3003.117	454.83333
3005.191	448.5
3007.263	448.16667
3009.334	435.5
3011.403	437.5
3013.472	429.5
3015.539	427.16667
3017.604	433.5
3019.669	397.83333
3021.732	410.5
3023.794	411.83333
3025.854	405.16667
3027.914	404.16667
3029.971	417.5
3032.028	403.16667
3034.083	402.5
3036.137	398.5
3038.19	392.16667
3040.242	375.5
3042.292	367.83333
3044.341	373.16667
3046.388	373.5
3048.435	358.83333
3050.48	378.83333
3052.524	363.83333
3054.566	349.16667
3056.607	368.83333
3058.647	348.5
3060.686	337.16667
3062.723	331.16667
3064.759	314.83333
3066.794	0.5
3068.828	1.5
3070.86	2.83333
