-0.839	604.625
3.438	737.625
7.711	217.625
11.981	68.95833
16.247	46.95833
20.509	50.625
24.768	44.95833
29.024	52.95833
33.276	43.29167
37.524	50.625
41.769	48.625
46.01	36.29167
50.247	49.29167
54.481	59.625
58.712	62.95833
62.939	47.625
67.162	60.95833
71.382	53.29167
75.599	48.29167
79.812	66.625
84.021	79.29167
88.227	60.29167
92.429	61.95833
96.628	54.625
100.823	68.95833
105.015	76.29167
109.204	68.95833
113.388	74.625
117.57	72.95833
121.748	84.625
125.922	76.625
130.093	94.95833
134.261	96.95833
138.425	97.29167
142.585	135.625
146.742	128.95833
150.896	161.29167
155.046	195.625
159.193	303.625
163.336	516.625
167.476	947.625
171.613	1731.625
175.746	2900.625
179.875	4263.625
184.002	5570.95833
188.124	6484.29167
192.244	6816.95833
196.36	6733.625
200.472	6498.29167
204.581	6302.29167
208.687	6127.625
212.79	6114.29167
216.889	6059.95833
220.984	6060.625
225.077	6078.29167
229.165	6076.625
233.251	6049.29167
237.333	5989.29167
241.412	5934.29167
245.487	5857.29167
249.559	5811.29167
253.628	5748.95833
257.694	5707.625
261.756	5623.625
265.814	5547.625
269.87	5397.95833
273.922	5224.95833
277.97	5141.29167
282.016	5077.625
286.058	5118.95833
290.097	5187.625
294.132	5273.29167
298.164	5204.95833
302.193	4999.29167
306.219	4656.95833
310.241	4336.625
314.26	3991.95833
318.276	3762.95833
322.288	3630.625
326.297	3475.29167
330.303	3404.29167
334.305	3278.29167
338.305	3290.29167
342.301	3218.29167
346.294	3216.625
350.283	3190.95833
354.269	3157.625
358.252	3127.29167
362.232	3131.29167
366.209	3105.95833
370.182	3088.625
374.152	3075.625
378.119	3085.29167
382.083	3086.625
386.043	3118.29167
390	3069.625
393.954	3103.29167
397.905	3057.625
401.852	3071.625
405.797	3033.29167
409.738	3033.95833
413.676	3060.29167
417.61	3035.29167
421.542	3016.29167
425.47	3004.29167
429.396	2973.95833
433.318	2946.29167
437.236	2930.29167
441.152	2961.95833
445.065	2927.625
448.974	2947.95833
452.88	2874.29167
456.783	2887.625
460.683	2882.95833
464.58	2897.95833
468.473	2865.95833
472.364	2903.625
476.251	2907.29167
480.135	2936.625
484.016	2977.95833
487.894	2973.95833
491.769	2979.625
495.641	2998.625
499.509	3017.625
503.375	3012.625
507.237	3000.29167
511.096	3039.29167
514.952	3193.95833
518.805	3368.95833
522.655	3435.625
526.502	3217.95833
530.346	3019.29167
534.187	2991.95833
538.024	3006.29167
541.859	2984.625
545.69	3006.625
549.519	2996.95833
553.344	2966.95833
557.166	2924.29167
560.985	2886.95833
564.802	2845.625
568.615	2820.95833
572.425	2765.625
576.232	2757.29167
580.036	2752.95833
583.836	2751.625
587.634	2767.29167
591.429	2784.625
595.221	2842.625
599.01	2884.29167
602.796	2869.625
606.578	2894.625
610.358	2923.625
614.135	2880.95833
617.909	2876.29167
621.679	2842.29167
625.447	2826.95833
629.212	2823.625
632.973	2835.625
636.732	2818.29167
640.488	2818.95833
644.241	2775.95833
647.991	2766.95833
651.737	2799.95833
655.481	2775.95833
659.222	2758.29167
662.96	2755.29167
666.695	2775.95833
670.427	2803.29167
674.156	2834.625
677.882	2808.625
681.605	2796.29167
685.325	2779.29167
689.043	2776.29167
692.757	2754.95833
696.468	2737.95833
700.177	2744.95833
703.882	2726.29167
707.585	2693.625
711.284	2703.625
714.981	2709.95833
718.675	2708.625
722.366	2718.29167
726.054	2686.29167
729.739	2696.95833
733.421	2705.29167
737.1	2688.29167
740.777	2740.95833
744.45	2728.29167
748.121	2733.95833
751.789	2790.29167
755.453	2787.29167
759.115	2802.29167
762.774	2811.29167
766.431	2805.95833
770.084	2830.625
773.734	2855.625
777.382	2889.625
781.027	2885.95833
784.669	2922.95833
788.308	2912.625
791.944	2944.625
795.577	2962.95833
799.208	2960.95833
802.835	2979.29167
806.46	2969.95833
810.082	2999.625
813.701	3017.95833
817.317	3037.625
820.931	3040.29167
824.542	3048.625
828.149	3017.29167
831.754	2975.625
835.357	2949.29167
838.956	2978.95833
842.553	2954.95833
846.146	2940.625
849.737	2930.29167
853.326	2897.95833
856.911	2878.95833
860.493	2942.95833
864.073	2978.625
867.65	2983.95833
871.225	3021.95833
874.796	3024.29167
878.365	3020.29167
881.931	3046.29167
885.494	3055.625
889.054	3026.95833
892.612	3046.625
896.166	3007.95833
899.719	2974.625
903.268	2959.95833
906.814	2944.95833
910.358	2927.95833
913.899	2886.95833
917.438	2881.29167
920.973	2892.625
924.506	2926.95833
928.036	2974.95833
931.564	3003.29167
935.088	3046.29167
938.61	3061.95833
942.129	3104.95833
945.646	3142.95833
949.16	3204.95833
952.671	3252.29167
956.179	3196.29167
959.685	3198.95833
963.188	3184.95833
966.688	3142.625
970.185	3060.29167
973.68	2998.29167
977.173	2957.29167
980.662	2925.29167
984.149	2916.625
987.633	2904.29167
991.114	2967.95833
994.593	3003.95833
998.069	3070.29167
1001.542	3182.29167
1005.013	3117.29167
1008.481	2970.95833
1011.947	2898.29167
1015.409	2884.29167
1018.869	2886.95833
1022.327	2873.625
1025.782	2880.625
1029.234	2859.625
1032.683	2807.29167
1036.13	2716.625
1039.574	2641.29167
1043.016	2568.29167
1046.455	2519.29167
1049.891	2502.625
1053.325	2514.625
1056.756	2514.95833
1060.184	2561.625
1063.61	2538.625
1067.033	2561.625
1070.454	2546.625
1073.872	2595.625
1077.287	2580.95833
1080.7	2580.29167
1084.11	2571.29167
1087.517	2536.95833
1090.922	2518.29167
1094.325	2500.95833
1097.724	2468.625
1101.122	2456.625
1104.516	2477.95833
1107.908	2464.95833
1111.298	2490.625
1114.684	2511.95833
1118.069	2539.29167
1121.45	2570.29167
1124.83	2588.95833
1128.206	2610.625
1131.58	2663.95833
1134.951	2696.95833
1138.32	2765.29167
1141.687	2871.29167
1145.05	2925.95833
1148.412	2909.95833
1151.77	2892.29167
1155.126	2884.29167
1158.48	2882.95833
1161.831	2888.29167
1165.18	2879.625
1168.525	2933.95833
1171.869	2955.625
1175.21	2979.625
1178.548	3000.95833
1181.884	3067.29167
1185.217	3053.29167
1188.548	3100.29167
1191.877	3172.95833
1195.202	3246.625
1198.526	3321.29167
1201.846	3332.625
1205.165	3342.625
1208.48	3360.29167
1211.794	3341.95833
1215.104	3324.625
1218.413	3333.625
1221.719	3330.29167
1225.022	3286.95833
1228.323	3243.95833
1231.621	3204.29167
1234.917	3194.625
1238.21	3213.625
1241.501	3196.29167
1244.79	3194.29167
1248.076	3197.29167
1251.359	3211.95833
1254.64	3285.29167
1257.919	3322.95833
1261.195	3352.29167
1264.468	3408.625
1267.74	3434.625
1271.008	3453.29167
1274.275	3430.95833
1277.538	3418.625
1280.8	3391.95833
1284.059	3385.625
1287.315	3437.29167
1290.569	3438.95833
1293.821	3421.625
1297.07	3457.625
1300.317	3444.95833
1303.562	3444.625
1306.803	3426.95833
1310.043	3416.29167
1313.28	3367.29167
1316.515	3363.29167
1319.747	3325.95833
1322.977	3287.95833
1326.204	3280.95833
1329.429	3232.95833
1332.652	3208.625
1335.872	3195.95833
1339.09	3184.95833
1342.306	3184.29167
1345.519	3127.95833
1348.729	3096.29167
1351.938	3100.29167
1355.144	3054.29167
1358.347	3018.625
1361.548	3000.95833
1364.747	2990.29167
1367.944	2962.29167
1371.138	2984.625
1374.329	2998.29167
1377.518	3015.625
1380.705	3024.95833
1383.89	2972.95833
1387.072	2924.95833
1390.252	2825.95833
1393.429	2714.29167
1396.605	2637.625
1399.777	2562.625
1402.948	2536.29167
1406.116	2518.95833
1409.282	2512.95833
1412.445	2525.29167
1415.606	2550.95833
1418.765	2576.95833
1421.921	2620.625
1425.075	2663.29167
1428.227	2746.29167
1431.376	2866.29167
1434.524	2938.95833
1437.668	3057.625
1440.811	3060.29167
1443.951	3080.95833
1447.089	3117.625
1450.224	3079.625
1453.357	3066.29167
1456.488	3039.625
1459.617	3033.29167
1462.743	2958.29167
1465.867	2885.95833
1468.989	2848.29167
1472.108	2791.95833
1475.225	2738.625
1478.34	2717.95833
1481.453	2703.29167
1484.563	2725.95833
1487.671	2742.95833
1490.776	2783.29167
1493.88	2826.29167
1496.981	2852.29167
1500.08	2903.29167
1503.176	2934.29167
1506.271	2948.95833
1509.363	3031.29167
1512.452	3016.29167
1515.54	3081.95833
1518.625	3107.95833
1521.708	3158.95833
1524.789	3257.95833
1527.867	3395.29167
1530.944	3538.95833
1534.018	3671.29167
1537.089	3849.95833
1540.159	3923.625
1543.226	3902.625
1546.291	3822.625
1549.354	3739.625
1552.415	3675.95833
1555.473	3567.29167
1558.529	3492.95833
1561.583	3451.29167
1564.634	3409.95833
1567.684	3430.625
1570.731	3432.29167
1573.776	3467.95833
1576.819	3494.29167
1579.859	3514.625
1582.898	3548.625
1585.934	3581.95833
1588.968	3614.29167
1591.999	3613.29167
1595.029	3603.625
1598.056	3610.95833
1601.081	3655.625
1604.104	3639.625
1607.125	3596.95833
1610.144	3533.625
1613.16	3474.625
1616.174	3391.625
1619.186	3363.625
1622.196	3268.29167
1625.203	3220.29167
1628.209	3166.625
1631.212	3129.625
1634.213	3146.29167
1637.212	3149.29167
1640.209	3093.29167
1643.203	2997.29167
1646.196	2925.625
1649.186	2803.95833
1652.174	2721.95833
1655.16	2626.29167
1658.144	2524.625
1661.125	2435.29167
1664.105	2334.29167
1667.082	2239.625
1670.057	2136.95833
1673.03	2017.625
1676.001	1887.95833
1678.97	1760.625
1681.937	1642.95833
1684.901	1581.95833
1687.863	1535.95833
1690.824	1480.29167
1693.782	1453.625
1696.738	1380.95833
1699.692	1364.29167
1702.643	1326.95833
1705.593	1304.29167
1708.54	1285.95833
1711.486	1291.95833
1714.429	1249.95833
1717.37	1256.29167
1720.309	1233.625
1723.246	1243.95833
1726.181	1207.29167
1729.113	1221.625
1732.044	1195.95833
1734.972	1195.29167
1737.899	1189.95833
1740.823	1182.95833
1743.745	1159.625
1746.665	1141.625
1749.583	1116.29167
1752.499	1102.625
1755.413	1103.95833
1758.325	1078.95833
1761.235	1064.95833
1764.142	1062.625
1767.048	1032.625
1769.951	1040.625
1772.852	1042.29167
1775.752	1028.29167
1778.649	1031.29167
1781.544	1028.95833
1784.437	1011.29167
1787.328	1019.625
1790.217	1004.625
1793.104	981.625
1795.989	979.29167
1798.872	979.625
1801.753	989.29167
1804.631	979.625
1807.508	999.625
1810.383	972.625
1813.255	974.29167
1816.126	966.95833
1818.994	966.95833
1821.861	963.625
1824.725	959.29167
1827.587	950.95833
1830.448	942.625
1833.306	934.625
1836.162	929.95833
1839.017	935.29167
1841.869	922.29167
1844.719	926.625
1847.567	913.95833
1850.414	905.625
1853.258	925.625
1856.1	929.29167
1858.94	919.95833
1861.778	914.625
1864.614	893.29167
1867.448	907.95833
1870.28	893.625
1873.111	928.625
1875.939	899.625
1878.765	918.95833
1881.589	901.29167
1884.411	916.625
1887.231	913.625
1890.049	905.29167
1892.865	892.29167
1895.68	880.95833
1898.492	901.29167
1901.302	884.625
1904.11	885.625
1906.916	877.29167
1909.721	857.625
1912.523	870.625
1915.323	856.625
1918.122	842.95833
1920.918	859.29167
1923.712	854.625
1926.505	854.625
1929.295	845.95833
1932.084	849.625
1934.87	845.625
1937.655	854.29167
1940.438	849.29167
1943.218	851.29167
1945.997	849.95833
1948.774	862.29167
1951.549	854.95833
1954.322	841.625
1957.093	842.29167
1959.862	831.29167
1962.629	832.29167
1965.394	836.95833
1968.157	817.29167
1970.918	827.95833
1973.678	809.29167
1976.435	829.29167
1979.19	815.29167
1981.944	808.29167
1984.696	815.29167
1987.445	804.95833
1990.193	805.625
1992.939	822.29167
1995.683	796.95833
1998.425	782.625
2001.165	823.95833
2003.903	801.625
2006.639	796.29167
2009.374	813.625
2012.106	811.29167
2014.837	776.29167
2017.566	786.625
2020.292	791.95833
2023.017	786.95833
2025.74	782.29167
2028.461	772.29167
2031.18	785.29167
2033.898	787.625
2036.613	782.95833
2039.327	783.95833
2042.038	771.625
2044.748	767.29167
2047.456	775.625
2050.162	758.29167
2052.866	773.625
2055.568	787.625
2058.268	762.29167
2060.967	771.625
2063.663	761.625
2066.358	756.625
2069.051	769.29167
2071.742	762.625
2074.431	764.29167
2077.118	760.625
2079.804	753.625
2082.487	754.29167
2085.169	761.625
2087.849	780.625
2090.527	751.95833
2093.203	767.29167
2095.877	766.625
2098.55	769.29167
2101.22	782.95833
2103.889	791.29167
2106.556	785.95833
2109.221	804.95833
2111.884	815.29167
2114.546	872.29167
2117.205	903.95833
2119.863	975.625
2122.519	1023.29167
2125.173	1081.95833
2127.825	1121.29167
2130.475	1126.625
2133.124	1084.625
2135.771	1052.29167
2138.416	1024.95833
2141.059	965.95833
2143.7	923.29167
2146.339	888.625
2148.977	838.625
2151.613	831.29167
2154.247	813.95833
2156.879	791.29167
2159.51	772.29167
2162.138	757.95833
2164.765	756.95833
2167.39	738.95833
2170.013	762.95833
2172.634	758.29167
2175.254	742.625
2177.872	762.29167
2180.488	724.625
2183.102	743.95833
2185.714	730.95833
2188.325	701.625
2190.934	710.625
2193.541	726.29167
2196.146	701.625
2198.75	702.95833
2201.351	693.625
2203.951	689.625
2206.549	711.625
2209.146	684.95833
2211.74	694.95833
2214.333	701.29167
2216.924	675.29167
2219.514	695.29167
2222.101	681.625
2224.687	692.625
2227.271	678.95833
2229.853	678.29167
2232.433	667.29167
2235.012	687.29167
2237.589	688.95833
2240.164	695.29167
2242.738	688.95833
2245.309	673.29167
2247.879	670.625
2250.448	682.95833
2253.014	651.95833
2255.579	656.95833
2258.142	663.29167
2260.703	649.95833
2263.262	650.95833
2265.82	649.95833
2268.376	652.29167
2270.93	636.625
2273.483	637.95833
2276.033	644.95833
2278.583	647.95833
2281.13	646.95833
2283.675	629.95833
2286.219	638.625
2288.761	640.95833
2291.302	647.625
2293.841	656.95833
2296.377	631.625
2298.913	634.29167
2301.446	640.95833
2303.978	639.625
2306.508	635.95833
2309.037	640.29167
2311.563	639.95833
2314.088	646.29167
2316.612	625.95833
2319.133	627.95833
2321.653	635.625
2324.171	627.95833
2326.688	642.625
2329.202	623.625
2331.715	633.29167
2334.227	630.625
2336.736	634.29167
2339.244	623.625
2341.751	601.95833
2344.255	629.625
2346.758	616.625
2349.259	614.29167
2351.759	624.625
2354.257	629.625
2356.753	615.95833
2359.247	629.29167
2361.74	627.29167
2364.231	631.29167
2366.721	630.95833
2369.209	624.95833
2371.695	626.625
2374.179	618.95833
2376.662	606.625
2379.143	640.95833
2381.622	619.95833
2384.1	630.95833
2386.576	625.625
2389.051	637.29167
2391.524	636.625
2393.995	633.29167
2396.464	620.29167
2398.932	618.95833
2401.398	628.625
2403.863	633.625
2406.325	616.29167
2408.787	622.625
2411.246	626.95833
2413.704	627.29167
2416.16	616.95833
2418.615	625.95833
2421.068	637.29167
2423.519	633.95833
2425.969	625.625
2428.417	634.625
2430.863	648.95833
2433.308	643.625
2435.751	631.95833
2438.193	637.29167
2440.633	637.95833
2443.071	630.625
2445.508	624.29167
2447.943	632.625
2450.376	634.625
2452.808	630.95833
2455.238	617.625
2457.667	673.95833
2460.093	639.29167
2462.519	626.625
2464.942	634.95833
2467.365	639.29167
2469.785	644.625
2472.204	638.29167
2474.621	630.29167
2477.037	644.95833
2479.451	632.29167
2481.863	635.95833
2484.274	629.29167
2486.683	641.625
2489.091	762.625
2491.497	652.29167
2493.901	648.95833
2496.304	645.29167
2498.705	646.625
2501.105	647.95833
2503.503	667.95833
2505.899	640.625
2508.294	658.29167
2510.687	638.625
2513.079	642.625
2515.469	648.95833
2517.858	643.29167
2520.245	666.29167
2522.63	643.95833
2525.014	653.625
2527.396	635.95833
2529.776	633.29167
2532.156	656.95833
2534.533	641.95833
2536.909	642.625
2539.283	629.29167
2541.656	653.625
2544.027	661.29167
2546.397	649.29167
2548.765	657.625
2551.131	650.625
2553.496	653.29167
2555.86	651.95833
2558.221	654.95833
2560.582	654.95833
2562.94	650.95833
2565.298	641.29167
2567.653	667.625
2570.007	651.29167
2572.36	665.29167
2574.711	663.29167
2577.06	673.29167
2579.408	675.95833
2581.754	663.625
2584.099	676.95833
2586.442	672.95833
2588.784	687.625
2591.124	668.95833
2593.463	678.625
2595.8	675.29167
2598.135	669.29167
2600.469	682.625
2602.802	685.29167
2605.133	688.29167
2607.462	676.95833
2609.79	667.95833
2612.116	698.29167
2614.441	678.29167
2616.764	679.29167
2619.086	681.95833
2621.406	676.625
2623.725	687.29167
2626.042	699.625
2628.358	691.625
2630.672	688.95833
2632.985	711.29167
2635.296	695.95833
2637.606	701.29167
2639.914	693.29167
2642.22	704.625
2644.525	702.95833
2646.829	710.95833
2649.131	724.29167
2651.432	721.29167
2653.731	714.95833
2656.028	729.29167
2658.324	729.95833
2660.619	720.625
2662.912	738.625
2665.204	717.95833
2667.494	736.95833
2669.782	725.95833
2672.07	740.625
2674.355	735.95833
2676.639	736.29167
2678.922	721.95833
2681.203	729.95833
2683.483	716.625
2685.761	726.625
2688.038	749.29167
2690.313	756.29167
2692.587	735.625
2694.859	729.95833
2697.13	742.95833
2699.399	759.95833
2701.667	761.625
2703.933	751.29167
2706.198	768.95833
2708.461	777.625
2710.723	782.95833
2712.984	772.625
2715.243	778.625
2717.5	770.29167
2719.757	795.29167
2722.011	783.625
2724.264	799.29167
2726.516	812.625
2728.766	799.625
2731.015	806.95833
2733.262	807.95833
2735.508	809.625
2737.753	799.625
2739.996	781.625
2742.237	794.625
2744.477	790.625
2746.716	800.95833
2748.953	797.625
2751.189	796.95833
2753.423	783.29167
2755.656	785.625
2757.887	767.625
2760.117	777.95833
2762.346	784.29167
2764.573	767.29167
2766.798	783.29167
2769.022	785.29167
2771.245	787.95833
2773.467	787.95833
2775.686	812.625
2777.905	803.95833
2780.122	813.95833
2782.337	815.95833
2784.552	815.95833
2786.764	806.95833
2788.976	823.95833
2791.186	822.625
2793.394	829.29167
2795.601	844.29167
2797.807	850.625
2800.011	860.95833
2802.214	855.625
2804.415	854.95833
2806.615	864.29167
2808.814	864.625
2811.011	878.29167
2813.206	861.95833
2815.401	877.95833
2817.594	885.95833
2819.785	893.625
2821.975	890.29167
2824.164	893.95833
2826.351	918.625
2828.537	922.29167
2830.722	926.625
2832.905	937.29167
2835.086	967.625
2837.267	985.625
2839.445	1002.29167
2841.623	1015.95833
2843.799	1028.29167
2845.974	1057.95833
2848.147	1079.29167
2850.319	1114.625
2852.489	1139.625
2854.659	1141.625
2856.826	1160.95833
2858.993	1167.95833
2861.158	1174.29167
2863.321	1175.29167
2865.483	1182.29167
2867.644	1189.625
2869.804	1180.95833
2871.962	1172.95833
2874.118	1174.95833
2876.274	1161.625
2878.428	1170.29167
2880.58	1155.625
2882.731	1158.29167
2884.881	1172.29167
2887.03	1174.95833
2889.177	1171.95833
2891.322	1184.625
2893.467	1187.95833
2895.61	1180.625
2897.751	1193.29167
2899.892	1194.625
2902.03	1208.95833
2904.168	1210.29167
2906.304	1213.29167
2908.439	1246.625
2910.572	1215.29167
2912.704	1235.29167
2914.835	1250.29167
2916.965	1235.625
2919.093	1263.29167
2921.219	1216.625
2923.345	1255.95833
2925.469	1211.625
2927.591	1216.95833
2929.712	1195.29167
2931.832	1192.29167
2933.951	1168.29167
2936.068	1155.625
2938.184	1138.625
2940.299	1114.95833
2942.412	1104.95833
2944.524	1070.29167
2946.634	1079.625
2948.744	1023.625
2950.851	1062.95833
2952.958	1029.29167
2955.063	1036.625
2957.167	1030.95833
2959.269	990.625
2961.371	1024.625
2963.471	986.95833
2965.569	992.625
2967.666	951.625
2969.762	963.625
2971.857	957.29167
2973.95	939.95833
2976.042	951.95833
2978.133	925.625
2980.222	901.95833
2982.31	891.29167
2984.396	873.95833
2986.482	880.95833
2988.566	862.95833
2990.648	867.29167
2992.73	870.29167
2994.81	862.625
2996.889	875.29167
2998.966	856.625
3001.042	852.95833
3003.117	864.95833
3005.191	868.29167
3007.263	861.625
3009.334	845.625
3011.403	858.625
3013.472	823.29167
3015.539	817.29167
3017.604	828.95833
3019.669	792.29167
3021.732	793.29167
3023.794	791.625
3025.854	800.625
3027.914	793.625
3029.971	803.95833
3032.028	800.29167
3034.083	796.625
3036.137	781.625
3038.19	753.29167
3040.242	745.625
3042.292	732.29167
3044.341	728.625
3046.388	727.29167
3048.435	713.29167
3050.48	729.95833
3052.524	714.625
3054.566	704.95833
3056.607	701.625
3058.647	694.29167
3060.686	677.29167
3062.723	648.95833
3064.759	621.29167
3066.794	-2.04167
3068.828	3.29167
3070.86	2.95833
