-0.839	420.95833
3.438	498.625
7.711	152.95833
11.981	61.29167
16.247	46.95833
20.509	52.625
24.768	48.95833
29.024	53.95833
33.276	47.625
37.524	53.625
41.769	47.95833
46.01	34.95833
50.247	49.95833
54.481	58.95833
58.712	63.625
62.939	49.29167
67.162	64.625
71.382	56.95833
75.599	50.95833
79.812	64.95833
84.021	82.95833
88.227	65.95833
92.429	63.29167
96.628	55.29167
100.823	70.95833
105.015	78.625
109.204	71.29167
113.388	79.95833
117.57	80.625
121.748	88.95833
125.922	83.95833
130.093	101.29167
134.261	101.625
138.425	102.625
142.585	142.625
146.742	133.625
150.896	160.95833
155.046	197.95833
159.193	299.95833
163.336	492.95833
167.476	919.29167
171.613	1700.29167
175.746	2873.95833
179.875	4316.29167
184.002	5702.625
188.124	6721.95833
192.244	7160.95833
196.36	7201.29167
200.472	7058.625
204.581	6954.29167
208.687	6890.95833
212.79	6895.95833
216.889	6977.95833
220.984	7065.29167
225.077	7125.95833
229.165	7218.625
233.251	7295.95833
237.333	7267.95833
241.412	7280.29167
245.487	7152.29167
249.559	7116.29167
253.628	7108.29167
257.694	7035.625
261.756	7044.95833
265.814	6882.625
269.87	6717.625
273.922	6486.95833
277.97	6373.95833
282.016	6324.29167
286.058	6387.29167
290.097	6521.29167
294.132	6669.625
298.164	6576.625
302.193	6262.29167
306.219	5774.625
310.241	5318.95833
314.26	4900.29167
318.276	4557.625
322.288	4323.95833
326.297	4132.625
330.303	4012.95833
334.305	3900.95833
338.305	3847.29167
342.301	3796.625
346.294	3747.95833
350.283	3773.29167
354.269	3723.625
358.252	3706.95833
362.232	3720.625
366.209	3684.29167
370.182	3651.95833
374.152	3643.625
378.119	3651.29167
382.083	3653.625
386.043	3651.95833
390	3610.625
393.954	3632.29167
397.905	3610.29167
401.852	3622.625
405.797	3561.29167
409.738	3562.625
413.676	3600.95833
417.61	3596.29167
421.542	3555.625
425.47	3535.625
429.396	3483.29167
433.318	3487.625
437.236	3462.625
441.152	3506.29167
445.065	3441.625
448.974	3441.95833
452.88	3422.29167
456.783	3395.625
460.683	3390.29167
464.58	3372.29167
468.473	3367.29167
472.364	3419.95833
476.251	3418.29167
480.135	3473.95833
484.016	3505.95833
487.894	3542.95833
491.769	3550.29167
495.641	3551.625
499.509	3532.29167
503.375	3541.29167
507.237	3538.29167
511.096	3538.29167
514.952	3551.625
518.805	3584.625
522.655	3591.95833
526.502	3544.95833
530.346	3495.95833
534.187	3490.95833
538.024	3532.95833
541.859	3515.625
545.69	3576.95833
549.519	3539.625
553.344	3501.625
557.166	3458.29167
560.985	3424.95833
564.802	3356.625
568.615	3298.29167
572.425	3257.625
576.232	3255.95833
580.036	3261.29167
583.836	3256.95833
587.634	3269.29167
591.429	3297.625
595.221	3353.29167
599.01	3370.29167
602.796	3410.625
606.578	3422.29167
610.358	3430.29167
614.135	3405.29167
617.909	3409.95833
621.679	3351.95833
625.447	3353.95833
629.212	3334.625
632.973	3324.625
636.732	3336.625
640.488	3325.625
644.241	3313.625
647.991	3293.625
651.737	3283.95833
655.481	3261.95833
659.222	3303.95833
662.96	3264.95833
666.695	3295.95833
670.427	3300.95833
674.156	3335.95833
677.882	3305.29167
681.605	3280.95833
685.325	3253.625
689.043	3269.625
692.757	3212.95833
696.468	3228.625
700.177	3220.29167
703.882	3200.29167
707.585	3200.29167
711.284	3184.625
714.981	3192.95833
718.675	3167.29167
722.366	3203.625
726.054	3185.95833
729.739	3162.29167
733.421	3172.29167
737.1	3183.29167
740.777	3231.29167
744.45	3227.29167
748.121	3243.29167
751.789	3314.625
755.453	3319.29167
759.115	3320.625
762.774	3334.95833
766.431	3373.95833
770.084	3366.625
773.734	3402.95833
777.382	3416.29167
781.027	3481.95833
784.669	3478.29167
788.308	3510.625
791.944	3518.29167
795.577	3531.95833
799.208	3553.95833
802.835	3612.29167
806.46	3619.29167
810.082	3625.625
813.701	3672.29167
817.317	3666.29167
820.931	3680.95833
824.542	3705.95833
828.149	3615.95833
831.754	3588.29167
835.357	3595.29167
838.956	3617.29167
842.553	3581.29167
846.146	3568.95833
849.737	3526.29167
853.326	3531.29167
856.911	3525.95833
860.493	3569.625
864.073	3578.95833
867.65	3622.95833
871.225	3659.625
874.796	3663.29167
878.365	3692.95833
881.931	3708.95833
885.494	3704.29167
889.054	3736.29167
892.612	3723.95833
896.166	3684.29167
899.719	3646.625
903.268	3570.95833
906.814	3570.625
910.358	3548.95833
913.899	3534.625
917.438	3537.95833
920.973	3524.625
924.506	3575.625
928.036	3606.95833
931.564	3673.95833
935.088	3716.95833
938.61	3720.29167
942.129	3755.95833
945.646	3842.625
949.16	3890.95833
952.671	3949.625
956.179	3960.625
959.685	3910.29167
963.188	3928.625
966.688	3843.625
970.185	3766.95833
973.68	3691.625
977.173	3635.29167
980.662	3590.95833
984.149	3596.95833
987.633	3596.95833
991.114	3634.625
994.593	3700.95833
998.069	3786.625
1001.542	3902.29167
1005.013	3833.29167
1008.481	3627.95833
1011.947	3557.95833
1015.409	3545.625
1018.869	3541.625
1022.327	3531.29167
1025.782	3488.95833
1029.234	3483.29167
1032.683	3453.625
1036.13	3341.625
1039.574	3216.625
1043.016	3143.95833
1046.455	3073.95833
1049.891	3040.95833
1053.325	3047.95833
1056.756	3085.95833
1060.184	3092.95833
1063.61	3106.29167
1067.033	3120.29167
1070.454	3119.625
1073.872	3149.95833
1077.287	3173.95833
1080.7	3130.625
1084.11	3139.95833
1087.517	3105.29167
1090.922	3058.95833
1094.325	3037.625
1097.724	3015.95833
1101.122	3003.95833
1104.516	2996.29167
1107.908	3013.29167
1111.298	3046.29167
1114.684	3084.29167
1118.069	3131.29167
1121.45	3155.625
1124.83	3164.29167
1128.206	3195.29167
1131.58	3221.29167
1134.951	3302.29167
1138.32	3403.625
1141.687	3489.625
1145.05	3584.29167
1148.412	3569.29167
1151.77	3560.29167
1155.126	3578.29167
1158.48	3532.95833
1161.831	3561.625
1165.18	3563.95833
1168.525	3648.95833
1171.869	3693.625
1175.21	3667.95833
1178.548	3710.625
1181.884	3726.29167
1185.217	3788.625
1188.548	3854.625
1191.877	3892.625
1195.202	4046.29167
1198.526	4155.29167
1201.846	4165.625
1205.165	4145.95833
1208.48	4136.95833
1211.794	4088.625
1215.104	4093.29167
1218.413	4107.95833
1221.719	4104.95833
1225.022	4079.95833
1228.323	4010.625
1231.621	3985.95833
1234.917	3898.625
1238.21	3941.29167
1241.501	3924.625
1244.79	3920.95833
1248.076	3885.95833
1251.359	3935.95833
1254.64	4042.95833
1257.919	4057.29167
1261.195	4121.29167
1264.468	4189.625
1267.74	4226.29167
1271.008	4252.29167
1274.275	4231.95833
1277.538	4211.29167
1280.8	4198.625
1284.059	4205.29167
1287.315	4244.625
1290.569	4241.29167
1293.821	4267.29167
1297.07	4312.95833
1300.317	4281.95833
1303.562	4290.29167
1306.803	4292.29167
1310.043	4239.29167
1313.28	4190.625
1316.515	4147.95833
1319.747	4128.95833
1322.977	4061.29167
1326.204	4029.29167
1329.429	3959.29167
1332.652	3946.625
1335.872	3940.95833
1339.09	3878.95833
1342.306	3872.625
1345.519	3839.29167
1348.729	3793.29167
1351.938	3806.95833
1355.144	3734.29167
1358.347	3690.625
1361.548	3686.95833
1364.747	3695.95833
1367.944	3644.625
1371.138	3633.95833
1374.329	3645.95833
1377.518	3642.29167
1380.705	3714.625
1383.89	3658.95833
1387.072	3563.29167
1390.252	3420.95833
1393.429	3286.95833
1396.605	3177.625
1399.777	3100.625
1402.948	3084.29167
1406.116	3061.95833
1409.282	3037.29167
1412.445	3045.625
1415.606	3087.29167
1418.765	3120.95833
1421.921	3184.95833
1425.075	3252.29167
1428.227	3368.95833
1431.376	3512.95833
1434.524	3629.29167
1437.668	3722.29167
1440.811	3776.625
1443.951	3785.29167
1447.089	3791.625
1450.224	3775.95833
1453.357	3772.625
1456.488	3752.29167
1459.617	3677.29167
1462.743	3628.625
1465.867	3519.29167
1468.989	3494.95833
1472.108	3423.625
1475.225	3360.625
1478.34	3299.95833
1481.453	3289.95833
1484.563	3294.95833
1487.671	3317.29167
1490.776	3386.29167
1493.88	3436.95833
1496.981	3490.29167
1500.08	3547.95833
1503.176	3606.625
1506.271	3628.95833
1509.363	3674.625
1512.452	3683.625
1515.54	3752.625
1518.625	3773.625
1521.708	3879.29167
1524.789	4023.625
1527.867	4169.625
1530.944	4355.29167
1534.018	4555.625
1537.089	4747.95833
1540.159	4844.625
1543.226	4816.95833
1546.291	4718.95833
1549.354	4649.625
1552.415	4504.29167
1555.473	4417.29167
1558.529	4349.625
1561.583	4257.95833
1564.634	4225.29167
1567.684	4198.625
1570.731	4228.625
1573.776	4287.29167
1576.819	4323.95833
1579.859	4357.95833
1582.898	4418.29167
1585.934	4451.95833
1588.968	4464.625
1591.999	4441.625
1595.029	4474.29167
1598.056	4497.95833
1601.081	4497.29167
1604.104	4472.95833
1607.125	4462.29167
1610.144	4370.29167
1613.16	4239.95833
1616.174	4173.29167
1619.186	4095.625
1622.196	3968.29167
1625.203	3876.95833
1628.209	3799.29167
1631.212	3782.95833
1634.213	3779.625
1637.212	3785.95833
1640.209	3723.95833
1643.203	3622.29167
1646.196	3489.95833
1649.186	3351.625
1652.174	3253.625
1655.16	3133.29167
1658.144	3084.95833
1661.125	2918.95833
1664.105	2787.95833
1667.082	2663.95833
1670.057	2535.95833
1673.03	2385.95833
1676.001	2232.625
1678.97	2081.29167
1681.937	1956.95833
1684.901	1845.95833
1687.863	1785.95833
1690.824	1706.625
1693.782	1660.625
1696.738	1607.95833
1699.692	1587.625
1702.643	1530.29167
1705.593	1518.625
1708.54	1509.29167
1711.486	1479.625
1714.429	1437.29167
1717.37	1437.95833
1720.309	1397.625
1723.246	1423.95833
1726.181	1366.95833
1729.113	1373.625
1732.044	1379.625
1734.972	1365.95833
1737.899	1363.95833
1740.823	1356.95833
1743.745	1322.95833
1746.665	1307.625
1749.583	1283.29167
1752.499	1268.625
1755.413	1255.29167
1758.325	1230.95833
1761.235	1212.625
1764.142	1197.95833
1767.048	1180.625
1769.951	1193.625
1772.852	1176.625
1775.752	1164.625
1778.649	1169.95833
1781.544	1165.625
1784.437	1133.95833
1787.328	1152.29167
1790.217	1126.625
1793.104	1105.625
1795.989	1107.95833
1798.872	1104.625
1801.753	1113.95833
1804.631	1119.29167
1807.508	1110.29167
1810.383	1110.625
1813.255	1105.29167
1816.126	1084.95833
1818.994	1089.625
1821.861	1076.29167
1824.725	1077.625
1827.587	1068.29167
1830.448	1057.95833
1833.306	1042.625
1836.162	1063.95833
1839.017	1032.95833
1841.869	1036.95833
1844.719	1028.95833
1847.567	1020.29167
1850.414	1019.95833
1853.258	1008.95833
1856.1	1038.625
1858.94	1018.29167
1861.778	1005.95833
1864.614	1011.625
1867.448	1008.625
1870.28	1003.625
1873.111	1016.95833
1875.939	1011.625
1878.765	1020.95833
1881.589	994.625
1884.411	995.95833
1887.231	984.625
1890.049	993.625
1892.865	996.29167
1895.68	977.29167
1898.492	977.95833
1901.302	979.29167
1904.11	969.625
1906.916	959.29167
1909.721	931.29167
1912.523	962.625
1915.323	927.29167
1918.122	946.95833
1920.918	936.625
1923.712	944.29167
1926.505	928.625
1929.295	921.625
1932.084	933.95833
1934.87	942.625
1937.655	927.625
1940.438	917.95833
1943.218	912.625
1945.997	933.625
1948.774	934.95833
1951.549	932.625
1954.322	923.95833
1957.093	912.625
1959.862	908.29167
1962.629	889.95833
1965.394	890.29167
1968.157	889.95833
1970.918	908.95833
1973.678	873.29167
1976.435	897.29167
1979.19	888.95833
1981.944	863.29167
1984.696	865.29167
1987.445	862.29167
1990.193	868.29167
1992.939	879.95833
1995.683	865.29167
1998.425	850.95833
2001.165	877.625
2003.903	835.625
2006.639	850.625
2009.374	856.95833
2012.106	853.95833
2014.837	835.95833
2017.566	842.29167
2020.292	861.625
2023.017	852.95833
2025.74	839.95833
2028.461	842.29167
2031.18	837.29167
2033.898	826.29167
2036.613	821.625
2039.327	832.625
2042.038	806.95833
2044.748	811.625
2047.456	816.625
2050.162	807.29167
2052.866	809.29167
2055.568	819.29167
2058.268	808.625
2060.967	808.29167
2063.663	798.29167
2066.358	792.95833
2069.051	796.625
2071.742	799.625
2074.431	796.95833
2077.118	797.29167
2079.804	778.95833
2082.487	786.625
2085.169	800.95833
2087.849	821.625
2090.527	790.95833
2093.203	791.95833
2095.877	800.29167
2098.55	811.625
2101.22	815.625
2103.889	821.95833
2106.556	823.95833
2109.221	834.29167
2111.884	869.625
2114.546	911.29167
2117.205	947.625
2119.863	1026.95833
2122.519	1060.625
2125.173	1128.29167
2127.825	1187.95833
2130.475	1200.625
2133.124	1146.625
2135.771	1110.95833
2138.416	1070.29167
2141.059	1005.29167
2143.7	968.29167
2146.339	910.29167
2148.977	851.95833
2151.613	851.29167
2154.247	823.29167
2156.879	809.29167
2159.51	792.29167
2162.138	776.625
2164.765	780.95833
2167.39	748.625
2170.013	766.29167
2172.634	754.95833
2175.254	754.29167
2177.872	772.625
2180.488	731.625
2183.102	739.625
2185.714	733.95833
2188.325	704.625
2190.934	707.625
2193.541	729.95833
2196.146	709.95833
2198.75	703.29167
2201.351	697.95833
2203.951	689.29167
2206.549	706.95833
2209.146	685.29167
2211.74	678.95833
2214.333	688.95833
2216.924	662.625
2219.514	664.29167
2222.101	650.95833
2224.687	684.625
2227.271	663.625
2229.853	650.625
2232.433	656.95833
2235.012	665.625
2237.589	670.625
2240.164	667.95833
2242.738	653.29167
2245.309	642.625
2247.879	656.625
2250.448	654.625
2253.014	642.625
2255.579	619.29167
2258.142	631.95833
2260.703	615.29167
2263.262	628.625
2265.82	611.625
2268.376	622.95833
2270.93	605.625
2273.483	603.29167
2276.033	612.95833
2278.583	597.95833
2281.13	596.625
2283.675	594.625
2286.219	589.625
2288.761	593.95833
2291.302	600.95833
2293.841	595.95833
2296.377	572.625
2298.913	590.29167
2301.446	604.95833
2303.978	591.625
2306.508	575.95833
2309.037	585.625
2311.563	585.625
2314.088	583.625
2316.612	561.625
2319.133	570.95833
2321.653	571.625
2324.171	569.29167
2326.688	587.95833
2329.202	557.29167
2331.715	566.95833
2334.227	565.625
2336.736	560.29167
2339.244	557.29167
2341.751	550.625
2344.255	570.29167
2346.758	565.95833
2349.259	533.625
2351.759	560.625
2354.257	552.29167
2356.753	543.625
2359.247	546.95833
2361.74	554.95833
2364.231	542.625
2366.721	566.625
2369.209	540.625
2371.695	551.625
2374.179	545.95833
2376.662	528.29167
2379.143	553.95833
2381.622	543.95833
2384.1	545.95833
2386.576	537.95833
2389.051	544.29167
2391.524	555.625
2393.995	541.625
2396.464	542.625
2398.932	533.29167
2401.398	531.625
2403.863	529.29167
2406.325	516.625
2408.787	536.95833
2411.246	528.29167
2413.704	533.95833
2416.16	526.625
2418.615	529.625
2421.068	538.95833
2423.519	539.29167
2425.969	518.29167
2428.417	533.95833
2430.863	546.625
2433.308	534.625
2435.751	524.95833
2438.193	522.95833
2440.633	524.95833
2443.071	533.625
2445.508	505.29167
2447.943	516.29167
2450.376	512.95833
2452.808	517.625
2455.238	504.95833
2457.667	550.625
2460.093	514.29167
2462.519	508.95833
2464.942	518.95833
2467.365	512.625
2469.785	523.95833
2472.204	514.625
2474.621	499.625
2477.037	525.95833
2479.451	504.625
2481.863	493.29167
2484.274	502.29167
2486.683	508.29167
2489.091	512.625
2491.497	501.29167
2493.901	514.625
2496.304	496.95833
2498.705	512.95833
2501.105	501.625
2503.503	527.625
2505.899	487.29167
2508.294	517.95833
2510.687	503.29167
2513.079	488.625
2515.469	496.625
2517.858	497.625
2520.245	500.625
2522.63	494.625
2525.014	489.29167
2527.396	495.29167
2529.776	479.95833
2532.156	493.95833
2534.533	493.95833
2536.909	473.29167
2539.283	472.625
2541.656	479.95833
2544.027	502.95833
2546.397	489.95833
2548.765	493.95833
2551.131	487.625
2553.496	475.95833
2555.86	488.625
2558.221	491.95833
2560.582	485.29167
2562.94	478.29167
2565.298	484.29167
2567.653	490.95833
2570.007	470.95833
2572.36	496.29167
2574.711	480.625
2577.06	500.625
2579.408	498.625
2581.754	485.29167
2584.099	494.95833
2586.442	490.29167
2588.784	484.95833
2591.124	490.95833
2593.463	492.625
2595.8	491.95833
2598.135	481.625
2600.469	477.95833
2602.802	494.95833
2605.133	490.95833
2607.462	473.29167
2609.79	459.625
2612.116	491.625
2614.441	492.625
2616.764	492.95833
2619.086	484.95833
2621.406	474.29167
2623.725	499.625
2626.042	496.95833
2628.358	489.29167
2630.672	477.95833
2632.985	498.625
2635.296	499.95833
2637.606	492.29167
2639.914	481.95833
2642.22	491.625
2644.525	484.95833
2646.829	484.95833
2649.131	493.95833
2651.432	503.625
2653.731	493.29167
2656.028	512.95833
2658.324	514.95833
2660.619	492.95833
2662.912	512.95833
2665.204	492.625
2667.494	503.95833
2669.782	498.95833
2672.07	505.625
2674.355	508.625
2676.639	502.625
2678.922	500.29167
2681.203	498.29167
2683.483	490.95833
2685.761	491.625
2688.038	506.29167
2690.313	523.95833
2692.587	506.625
2694.859	499.95833
2697.13	503.29167
2699.399	517.29167
2701.667	523.29167
2703.933	515.29167
2706.198	512.95833
2708.461	535.95833
2710.723	533.29167
2712.984	530.95833
2715.243	537.95833
2717.5	520.625
2719.757	553.625
2722.011	526.29167
2724.264	538.625
2726.516	549.29167
2728.766	545.95833
2731.015	546.625
2733.262	544.625
2735.508	541.625
2737.753	547.29167
2739.996	542.95833
2742.237	532.625
2744.477	537.95833
2746.716	545.95833
2748.953	529.625
2751.189	537.625
2753.423	530.95833
2755.656	514.95833
2757.887	510.625
2760.117	520.625
2762.346	504.625
2764.573	517.625
2766.798	524.95833
2769.022	524.29167
2771.245	533.95833
2773.467	521.95833
2775.686	533.29167
2777.905	536.625
2780.122	537.29167
2782.337	538.29167
2784.552	534.95833
2786.764	535.625
2788.976	547.29167
2791.186	545.29167
2793.394	556.95833
2795.601	550.625
2797.807	572.29167
2800.011	579.29167
2802.214	583.625
2804.415	576.29167
2806.615	578.29167
2808.814	584.29167
2811.011	593.95833
2813.206	590.95833
2815.401	616.95833
2817.594	620.95833
2819.785	616.95833
2821.975	623.625
2824.164	628.625
2826.351	632.29167
2828.537	654.29167
2830.722	660.29167
2832.905	668.29167
2835.086	693.625
2837.267	718.95833
2839.445	731.625
2841.623	761.95833
2843.799	783.95833
2845.974	823.29167
2848.147	856.95833
2850.319	868.29167
2852.489	909.625
2854.659	911.95833
2856.826	944.625
2858.993	943.95833
2861.158	933.29167
2863.321	940.625
2865.483	959.29167
2867.644	964.29167
2869.804	955.95833
2871.962	946.95833
2874.118	969.95833
2876.274	962.95833
2878.428	945.29167
2880.58	951.95833
2882.731	942.625
2884.881	933.29167
2887.03	946.625
2889.177	950.95833
2891.322	968.625
2893.467	945.95833
2895.61	955.625
2897.751	971.29167
2899.892	970.95833
2902.03	989.95833
2904.168	987.625
2906.304	988.29167
2908.439	1017.95833
2910.572	991.625
2912.704	1008.29167
2914.835	1021.625
2916.965	981.95833
2919.093	1014.625
2921.219	1000.625
2923.345	1005.625
2925.469	981.625
2927.591	975.95833
2929.712	946.95833
2931.832	941.95833
2933.951	937.625
2936.068	894.29167
2938.184	882.29167
2940.299	873.29167
2942.412	845.625
2944.524	811.95833
2946.634	801.29167
2948.744	757.95833
2950.851	777.95833
2952.958	738.625
2955.063	736.29167
2957.167	735.625
2959.269	697.29167
2961.371	719.625
2963.471	688.625
2965.569	685.625
2967.666	655.95833
2969.762	649.95833
2971.857	641.95833
2973.95	619.95833
2976.042	614.625
2978.133	606.625
2980.222	583.29167
2982.31	576.29167
2984.396	550.625
2986.482	562.625
2988.566	556.625
2990.648	553.95833
2992.73	543.29167
2994.81	534.29167
2996.889	540.95833
2998.966	526.29167
3001.042	533.95833
3003.117	524.29167
3005.191	529.625
3007.263	523.625
3009.334	516.29167
3011.403	515.29167
3013.472	493.29167
3015.539	501.95833
3017.604	497.625
3019.669	463.29167
3021.732	465.95833
3023.794	478.29167
3025.854	468.29167
3027.914	469.95833
3029.971	474.625
3032.028	473.29167
3034.083	475.95833
3036.137	461.625
3038.19	448.95833
3040.242	432.29167
3042.292	421.95833
3044.341	429.625
3046.388	439.625
3048.435	421.29167
3050.48	434.625
3052.524	428.29167
3054.566	411.625
3056.607	416.29167
3058.647	399.29167
3060.686	397.29167
3062.723	385.95833
3064.759	358.625
3066.794	-1.70833
3068.828	3.29167
3070.86	2.625
