-0.839	601.5
3.438	738.5
7.711	215.16667
11.981	63.83333
16.247	49.16667
20.509	53.83333
24.768	45.5
29.024	55.83333
33.276	44.83333
37.524	54.16667
41.769	49.83333
46.01	38.16667
50.247	49.16667
54.481	60.5
58.712	64.83333
62.939	48.5
67.162	63.83333
71.382	59.83333
75.599	49.5
79.812	62.16667
84.021	83.83333
88.227	62.16667
92.429	59.16667
96.628	56.5
100.823	74.16667
105.015	73.16667
109.204	68.83333
113.388	75.83333
117.57	75.83333
121.748	90.83333
125.922	79.83333
130.093	101.5
134.261	99.16667
138.425	102.83333
142.585	144.83333
146.742	136.5
150.896	165.16667
155.046	207.16667
159.193	325.5
163.336	558.83333
167.476	1018.16667
171.613	1873.16667
175.746	3146.83333
179.875	4663.16667
184.002	6091.5
188.124	7060.16667
192.244	7427.16667
196.36	7363.83333
200.472	7120.16667
204.581	6940.83333
208.687	6756.5
212.79	6646.83333
216.889	6656.16667
220.984	6643.16667
225.077	6659.83333
229.165	6647.16667
233.251	6658.83333
237.333	6601.16667
241.412	6586.5
245.487	6517.5
249.559	6441.83333
253.628	6389.5
257.694	6342.16667
261.756	6281.16667
265.814	6179.5
269.87	5995.5
273.922	5766.5
277.97	5654.5
282.016	5557.5
286.058	5593.83333
290.097	5624.83333
294.132	5726.5
298.164	5664.5
302.193	5425.5
306.219	5053.83333
310.241	4658.16667
314.26	4318.16667
318.276	4028.5
322.288	3804.16667
326.297	3633.16667
330.303	3514.83333
334.305	3441.5
338.305	3342.83333
342.301	3282.5
346.294	3262.5
350.283	3241.5
354.269	3206.83333
358.252	3192.5
362.232	3178.16667
366.209	3137.5
370.182	3110.5
374.152	3113.83333
378.119	3101.5
382.083	3090.83333
386.043	3097.16667
390	3074.5
393.954	3074.83333
397.905	3058.5
401.852	3026.16667
405.797	3006.16667
409.738	2995.16667
413.676	2971.5
417.61	2962.16667
421.542	2929.83333
425.47	2890.5
429.396	2865.83333
433.318	2853.83333
437.236	2871.83333
441.152	2899.5
445.065	2835.5
448.974	2828.16667
452.88	2775.5
456.783	2759.16667
460.683	2762.16667
464.58	2767.16667
468.473	2776.16667
472.364	2755.16667
476.251	2774.83333
480.135	2799.16667
484.016	2813.83333
487.894	2827.5
491.769	2825.5
495.641	2808.16667
499.509	2837.16667
503.375	2813.83333
507.237	2823.5
511.096	2796.16667
514.952	2830.5
518.805	2834.5
522.655	2852.83333
526.502	2840.83333
530.346	2825.83333
534.187	2870.83333
538.024	2847.5
541.859	2895.16667
545.69	2917.16667
549.519	2891.83333
553.344	2883.83333
557.166	2823.5
560.985	2789.5
564.802	2748.5
568.615	2697.16667
572.425	2649.83333
576.232	2648.83333
580.036	2643.16667
583.836	2631.5
587.634	2642.5
591.429	2643.5
595.221	2722.16667
599.01	2742.5
602.796	2773.83333
606.578	2789.83333
610.358	2764.83333
614.135	2764.16667
617.909	2747.16667
621.679	2718.83333
625.447	2699.83333
629.212	2720.16667
632.973	2740.16667
636.732	2717.16667
640.488	2714.5
644.241	2688.16667
647.991	2696.16667
651.737	2701.5
655.481	2656.83333
659.222	2667.16667
662.96	2660.5
666.695	2675.16667
670.427	2718.83333
674.156	2695.83333
677.882	2685.5
681.605	2687.16667
685.325	2660.83333
689.043	2648.5
692.757	2638.5
696.468	2634.16667
700.177	2627.83333
703.882	2609.5
707.585	2583.83333
711.284	2574.83333
714.981	2582.16667
718.675	2571.16667
722.366	2619.83333
726.054	2590.16667
729.739	2597.83333
733.421	2586.83333
737.1	2594.16667
740.777	2613.16667
744.45	2627.83333
748.121	2660.5
751.789	2678.16667
755.453	2677.83333
759.115	2713.5
762.774	2743.16667
766.431	2752.16667
770.084	2783.83333
773.734	2811.5
777.382	2882.16667
781.027	2889.5
784.669	2911.16667
788.308	2904.5
791.944	2914.16667
795.577	2928.5
799.208	2927.83333
802.835	2977.16667
806.46	2996.83333
810.082	2992.5
813.701	2980.16667
817.317	3020.5
820.931	3014.83333
824.542	3008.83333
828.149	2968.83333
831.754	2983.16667
835.357	2975.83333
838.956	3001.16667
842.553	2988.5
846.146	2975.16667
849.737	2951.83333
853.326	2955.16667
856.911	2972.16667
860.493	3014.5
864.073	3043.16667
867.65	3052.5
871.225	3111.83333
874.796	3092.16667
878.365	3136.16667
881.931	3134.5
885.494	3156.5
889.054	3164.5
892.612	3172.16667
896.166	3133.16667
899.719	3123.83333
903.268	3102.16667
906.814	3060.5
910.358	3043.83333
913.899	3033.16667
917.438	3052.83333
920.973	3018.5
924.506	3072.16667
928.036	3103.5
931.564	3120.5
935.088	3189.16667
938.61	3213.16667
942.129	3228.16667
945.646	3288.16667
949.16	3368.16667
952.671	3420.5
956.179	3411.16667
959.685	3357.5
963.188	3326.5
966.688	3281.16667
970.185	3191.5
973.68	3122.83333
977.173	3063.5
980.662	2994.16667
984.149	2986.5
987.633	2985.5
991.114	3020.5
994.593	3062.83333
998.069	3159.83333
1001.542	3245.16667
1005.013	3203.5
1008.481	3049.5
1011.947	3038.16667
1015.409	3004.5
1018.869	2993.83333
1022.327	2977.16667
1025.782	2954.5
1029.234	2930.83333
1032.683	2901.16667
1036.13	2805.16667
1039.574	2715.83333
1043.016	2632.16667
1046.455	2585.16667
1049.891	2591.5
1053.325	2594.5
1056.756	2581.16667
1060.184	2619.83333
1063.61	2610.83333
1067.033	2632.16667
1070.454	2630.83333
1073.872	2670.83333
1077.287	2635.16667
1080.7	2639.16667
1084.11	2636.16667
1087.517	2614.83333
1090.922	2555.83333
1094.325	2595.16667
1097.724	2561.5
1101.122	2555.83333
1104.516	2575.83333
1107.908	2579.16667
1111.298	2597.5
1114.684	2628.16667
1118.069	2684.5
1121.45	2726.16667
1124.83	2727.83333
1128.206	2749.83333
1131.58	2796.16667
1134.951	2888.5
1138.32	2979.16667
1141.687	3094.16667
1145.05	3155.5
1148.412	3182.5
1151.77	3184.16667
1155.126	3182.5
1158.48	3199.16667
1161.831	3236.16667
1165.18	3249.16667
1168.525	3314.16667
1171.869	3333.5
1175.21	3361.83333
1178.548	3388.5
1181.884	3418.5
1185.217	3458.16667
1188.548	3528.5
1191.877	3568.16667
1195.202	3675.5
1198.526	3736.16667
1201.846	3754.5
1205.165	3723.16667
1208.48	3694.83333
1211.794	3640.16667
1215.104	3661.16667
1218.413	3647.5
1221.719	3629.5
1225.022	3566.83333
1228.323	3529.83333
1231.621	3508.83333
1234.917	3448.83333
1238.21	3489.5
1241.501	3458.83333
1244.79	3464.5
1248.076	3424.16667
1251.359	3467.83333
1254.64	3544.83333
1257.919	3563.83333
1261.195	3632.16667
1264.468	3693.16667
1267.74	3731.5
1271.008	3750.83333
1274.275	3761.5
1277.538	3713.83333
1280.8	3721.5
1284.059	3716.16667
1287.315	3742.16667
1290.569	3760.5
1293.821	3771.5
1297.07	3805.5
1300.317	3837.5
1303.562	3807.83333
1306.803	3786.16667
1310.043	3765.83333
1313.28	3723.16667
1316.515	3702.5
1319.747	3680.5
1322.977	3618.5
1326.204	3559.5
1329.429	3479.5
1332.652	3466.83333
1335.872	3441.5
1339.09	3352.16667
1342.306	3337.83333
1345.519	3313.5
1348.729	3264.5
1351.938	3298.83333
1355.144	3214.83333
1358.347	3207.16667
1361.548	3191.16667
1364.747	3174.16667
1367.944	3131.5
1371.138	3190.16667
1374.329	3179.83333
1377.518	3214.16667
1380.705	3227.83333
1383.89	3211.5
1387.072	3114.5
1390.252	2991.16667
1393.429	2910.83333
1396.605	2815.16667
1399.777	2743.5
1402.948	2696.5
1406.116	2665.5
1409.282	2674.83333
1412.445	2674.83333
1415.606	2692.83333
1418.765	2731.83333
1421.921	2771.5
1425.075	2858.16667
1428.227	2914.83333
1431.376	3051.83333
1434.524	3159.16667
1437.668	3239.83333
1440.811	3297.83333
1443.951	3334.5
1447.089	3329.5
1450.224	3316.5
1453.357	3300.5
1456.488	3314.83333
1459.617	3257.16667
1462.743	3223.5
1465.867	3163.16667
1468.989	3108.16667
1472.108	3071.5
1475.225	3013.5
1478.34	2993.83333
1481.453	2983.83333
1484.563	3013.16667
1487.671	3071.16667
1490.776	3134.83333
1493.88	3185.83333
1496.981	3240.83333
1500.08	3303.83333
1503.176	3363.16667
1506.271	3394.5
1509.363	3416.83333
1512.452	3477.5
1515.54	3528.16667
1518.625	3585.83333
1521.708	3652.16667
1524.789	3722.5
1527.867	3886.83333
1530.944	4022.16667
1534.018	4204.16667
1537.089	4338.16667
1540.159	4393.5
1543.226	4362.83333
1546.291	4307.5
1549.354	4242.16667
1552.415	4161.16667
1555.473	4064.16667
1558.529	4006.5
1561.583	4017.5
1564.634	4008.5
1567.684	4019.16667
1570.731	4050.16667
1573.776	4129.83333
1576.819	4146.5
1579.859	4202.83333
1582.898	4250.83333
1585.934	4308.83333
1588.968	4341.83333
1591.999	4324.5
1595.029	4338.16667
1598.056	4347.16667
1601.081	4364.5
1604.104	4302.5
1607.125	4261.5
1610.144	4145.16667
1613.16	4046.5
1616.174	3945.16667
1619.186	3839.16667
1622.196	3718.5
1625.203	3583.83333
1628.209	3529.5
1631.212	3435.16667
1634.213	3375.5
1637.212	3322.5
1640.209	3251.5
1643.203	3135.5
1646.196	3037.83333
1649.186	2908.5
1652.174	2825.5
1655.16	2695.16667
1658.144	2608.16667
1661.125	2485.83333
1664.105	2383.16667
1667.082	2280.5
1670.057	2159.16667
1673.03	2051.83333
1676.001	1898.83333
1678.97	1818.5
1681.937	1705.16667
1684.901	1624.83333
1687.863	1563.16667
1690.824	1496.83333
1693.782	1464.16667
1696.738	1409.16667
1699.692	1372.5
1702.643	1331.83333
1705.593	1318.5
1708.54	1308.5
1711.486	1285.16667
1714.429	1245.16667
1717.37	1233.83333
1720.309	1207.83333
1723.246	1219.16667
1726.181	1197.83333
1729.113	1192.83333
1732.044	1173.16667
1734.972	1151.5
1737.899	1156.5
1740.823	1154.16667
1743.745	1113.5
1746.665	1100.83333
1749.583	1097.5
1752.499	1077.5
1755.413	1060.83333
1758.325	1035.16667
1761.235	1028.16667
1764.142	1013.83333
1767.048	997.16667
1769.951	997.16667
1772.852	1003.5
1775.752	982.5
1778.649	980.16667
1781.544	977.5
1784.437	952.5
1787.328	970.16667
1790.217	943.16667
1793.104	925.5
1795.989	931.5
1798.872	966.16667
1801.753	949.16667
1804.631	938.83333
1807.508	938.5
1810.383	913.83333
1813.255	918.5
1816.126	924.5
1818.994	907.16667
1821.861	901.16667
1824.725	902.16667
1827.587	895.83333
1830.448	885.5
1833.306	877.16667
1836.162	867.5
1839.017	863.16667
1841.869	860.16667
1844.719	863.5
1847.567	843.83333
1850.414	843.5
1853.258	842.16667
1856.1	860.5
1858.94	846.5
1861.778	843.83333
1864.614	837.83333
1867.448	832.16667
1870.28	821.83333
1873.111	850.16667
1875.939	837.5
1878.765	849.83333
1881.589	836.5
1884.411	826.5
1887.231	828.5
1890.049	824.5
1892.865	820.16667
1895.68	806.16667
1898.492	823.16667
1901.302	808.83333
1904.11	796.16667
1906.916	791.5
1909.721	785.83333
1912.523	803.83333
1915.323	791.5
1918.122	782.5
1920.918	794.83333
1923.712	785.5
1926.505	779.5
1929.295	766.83333
1932.084	787.5
1934.87	782.16667
1937.655	773.5
1940.438	769.5
1943.218	777.5
1945.997	774.5
1948.774	778.16667
1951.549	762.16667
1954.322	772.5
1957.093	756.16667
1959.862	758.5
1962.629	743.16667
1965.394	742.5
1968.157	739.83333
1970.918	736.5
1973.678	723.5
1976.435	746.5
1979.19	740.16667
1981.944	726.16667
1984.696	725.83333
1987.445	718.5
1990.193	727.16667
1992.939	733.5
1995.683	721.5
1998.425	696.16667
2001.165	734.16667
2003.903	705.5
2006.639	708.83333
2009.374	713.16667
2012.106	698.16667
2014.837	700.5
2017.566	702.16667
2020.292	715.83333
2023.017	702.83333
2025.74	693.83333
2028.461	687.5
2031.18	686.83333
2033.898	677.16667
2036.613	686.16667
2039.327	689.16667
2042.038	678.5
2044.748	684.16667
2047.456	688.83333
2050.162	677.16667
2052.866	672.83333
2055.568	682.16667
2058.268	665.83333
2060.967	676.5
2063.663	656.16667
2066.358	665.83333
2069.051	664.83333
2071.742	666.16667
2074.431	668.5
2077.118	662.16667
2079.804	637.5
2082.487	669.16667
2085.169	651.5
2087.849	680.16667
2090.527	654.5
2093.203	660.16667
2095.877	669.83333
2098.55	668.5
2101.22	674.16667
2103.889	694.83333
2106.556	679.5
2109.221	704.83333
2111.884	704.16667
2114.546	755.83333
2117.205	804.16667
2119.863	868.16667
2122.519	918.16667
2125.173	981.83333
2127.825	1033.16667
2130.475	1033.16667
2133.124	1011.16667
2135.771	973.16667
2138.416	926.16667
2141.059	859.16667
2143.7	822.16667
2146.339	770.5
2148.977	729.83333
2151.613	717.83333
2154.247	699.83333
2156.879	684.16667
2159.51	670.5
2162.138	646.83333
2164.765	646.16667
2167.39	630.16667
2170.013	644.83333
2172.634	630.83333
2175.254	632.16667
2177.872	655.16667
2180.488	626.83333
2183.102	634.16667
2185.714	618.83333
2188.325	597.83333
2190.934	617.16667
2193.541	612.5
2196.146	609.16667
2198.75	586.16667
2201.351	599.83333
2203.951	573.5
2206.549	597.83333
2209.146	575.5
2211.74	589.83333
2214.333	581.5
2216.924	563.83333
2219.514	570.83333
2222.101	559.83333
2224.687	573.83333
2227.271	555.83333
2229.853	542.5
2232.433	537.16667
2235.012	562.5
2237.589	550.5
2240.164	564.16667
2242.738	539.5
2245.309	532.5
2247.879	547.5
2250.448	541.5
2253.014	523.16667
2255.579	506.16667
2258.142	519.16667
2260.703	504.16667
2263.262	520.16667
2265.82	506.5
2268.376	509.16667
2270.93	487.5
2273.483	497.16667
2276.033	508.83333
2278.583	491.83333
2281.13	487.5
2283.675	481.16667
2286.219	487.83333
2288.761	478.5
2291.302	484.16667
2293.841	484.83333
2296.377	475.16667
2298.913	473.5
2301.446	480.83333
2303.978	472.5
2306.508	466.16667
2309.037	469.83333
2311.563	467.83333
2314.088	480.16667
2316.612	455.16667
2319.133	469.83333
2321.653	465.16667
2324.171	452.83333
2326.688	465.83333
2329.202	455.16667
2331.715	452.83333
2334.227	459.5
2336.736	455.16667
2339.244	442.16667
2341.751	442.83333
2344.255	469.16667
2346.758	446.16667
2349.259	429.5
2351.759	439.5
2354.257	435.5
2356.753	427.83333
2359.247	437.16667
2361.74	440.5
2364.231	447.16667
2366.721	435.83333
2369.209	429.16667
2371.695	432.83333
2374.179	430.83333
2376.662	424.16667
2379.143	436.83333
2381.622	426.16667
2384.1	425.16667
2386.576	416.83333
2389.051	439.83333
2391.524	439.83333
2393.995	428.5
2396.464	422.5
2398.932	416.83333
2401.398	419.16667
2403.863	423.5
2406.325	407.16667
2408.787	414.83333
2411.246	412.16667
2413.704	410.16667
2416.16	401.83333
2418.615	409.16667
2421.068	416.83333
2423.519	422.83333
2425.969	409.16667
2428.417	415.83333
2430.863	422.16667
2433.308	400.16667
2435.751	408.16667
2438.193	398.83333
2440.633	402.83333
2443.071	404.83333
2445.508	401.83333
2447.943	401.5
2450.376	398.83333
2452.808	392.16667
2455.238	391.83333
2457.667	432.83333
2460.093	395.83333
2462.519	384.83333
2464.942	389.83333
2467.365	392.5
2469.785	399.5
2472.204	384.83333
2474.621	383.83333
2477.037	406.16667
2479.451	377.5
2481.863	371.5
2484.274	382.83333
2486.683	378.5
2489.091	385.83333
2491.497	385.83333
2493.901	388.16667
2496.304	381.16667
2498.705	387.5
2501.105	376.83333
2503.503	397.83333
2505.899	367.83333
2508.294	389.5
2510.687	379.16667
2513.079	385.5
2515.469	366.83333
2517.858	375.83333
2520.245	388.16667
2522.63	373.16667
2525.014	358.5
2527.396	360.16667
2529.776	358.83333
2532.156	381.16667
2534.533	356.5
2536.909	365.83333
2539.283	350.16667
2541.656	363.16667
2544.027	377.16667
2546.397	357.5
2548.765	349.83333
2551.131	362.83333
2553.496	359.5
2555.86	367.5
2558.221	363.5
2560.582	351.16667
2562.94	340.83333
2565.298	358.83333
2567.653	366.83333
2570.007	340.16667
2572.36	365.5
2574.711	346.5
2577.06	358.83333
2579.408	356.83333
2581.754	350.16667
2584.099	347.16667
2586.442	347.5
2588.784	359.5
2591.124	353.83333
2593.463	345.5
2595.8	349.16667
2598.135	335.16667
2600.469	351.16667
2602.802	359.5
2605.133	357.83333
2607.462	337.16667
2609.79	329.16667
2612.116	353.5
2614.441	347.83333
2616.764	343.16667
2619.086	346.16667
2621.406	331.5
2623.725	359.83333
2626.042	343.83333
2628.358	337.16667
2630.672	338.16667
2632.985	355.16667
2635.296	346.16667
2637.606	345.16667
2639.914	330.16667
2642.22	333.5
2644.525	343.16667
2646.829	351.83333
2649.131	354.83333
2651.432	355.5
2653.731	345.5
2656.028	362.5
2658.324	348.16667
2660.619	340.83333
2662.912	356.16667
2665.204	337.16667
2667.494	348.5
2669.782	336.5
2672.07	347.5
2674.355	350.5
2676.639	341.5
2678.922	345.5
2681.203	350.83333
2683.483	339.16667
2685.761	340.83333
2688.038	346.16667
2690.313	367.5
2692.587	347.16667
2694.859	343.16667
2697.13	351.16667
2699.399	350.83333
2701.667	360.16667
2703.933	349.16667
2706.198	367.5
2708.461	364.83333
2710.723	371.5
2712.984	373.5
2715.243	365.83333
2717.5	355.16667
2719.757	368.16667
2722.011	364.83333
2724.264	380.16667
2726.516	384.5
2728.766	360.83333
2731.015	375.16667
2733.262	373.16667
2735.508	373.83333
2737.753	370.83333
2739.996	362.83333
2742.237	358.16667
2744.477	369.83333
2746.716	370.83333
2748.953	363.16667
2751.189	356.83333
2753.423	351.5
2755.656	340.83333
2757.887	339.83333
2760.117	338.83333
2762.346	334.5
2764.573	330.83333
2766.798	337.16667
2769.022	340.16667
2771.245	350.83333
2773.467	344.5
2775.686	355.5
2777.905	353.5
2780.122	356.83333
2782.337	356.16667
2784.552	356.5
2786.764	359.16667
2788.976	362.83333
2791.186	361.5
2793.394	367.16667
2795.601	367.83333
2797.807	385.16667
2800.011	384.83333
2802.214	380.5
2804.415	389.5
2806.615	386.16667
2808.814	386.83333
2811.011	393.83333
2813.206	402.5
2815.401	413.5
2817.594	408.5
2819.785	428.83333
2821.975	412.16667
2824.164	420.83333
2826.351	436.83333
2828.537	452.16667
2830.722	459.5
2832.905	470.83333
2835.086	495.16667
2837.267	517.16667
2839.445	526.5
2841.623	540.5
2843.799	567.16667
2845.974	602.83333
2848.147	617.83333
2850.319	649.16667
2852.489	671.83333
2854.659	688.83333
2856.826	693.16667
2858.993	720.16667
2861.158	692.83333
2863.321	702.5
2865.483	732.16667
2867.644	719.83333
2869.804	717.83333
2871.962	718.83333
2874.118	719.5
2876.274	711.5
2878.428	724.83333
2880.58	710.83333
2882.731	692.5
2884.881	709.5
2887.03	723.83333
2889.177	724.83333
2891.322	722.16667
2893.467	726.83333
2895.61	730.16667
2897.751	749.83333
2899.892	743.5
2902.03	752.5
2904.168	760.5
2906.304	752.16667
2908.439	760.5
2910.572	770.83333
2912.704	772.83333
2914.835	778.83333
2916.965	777.16667
2919.093	778.83333
2921.219	762.16667
2923.345	782.5
2925.469	744.16667
2927.591	745.5
2929.712	730.83333
2931.832	719.16667
2933.951	706.83333
2936.068	700.5
2938.184	679.16667
2940.299	656.5
2942.412	648.83333
2944.524	609.5
2946.634	599.83333
2948.744	561.5
2950.851	577.5
2952.958	540.83333
2955.063	542.5
2957.167	531.83333
2959.269	495.16667
2961.371	525.5
2963.471	474.83333
2965.569	479.5
2967.666	453.5
2969.762	444.5
2971.857	442.5
2973.95	418.5
2976.042	419.16667
2978.133	406.5
2980.222	401.5
2982.31	376.5
2984.396	364.5
2986.482	373.16667
2988.566	363.83333
2990.648	355.5
2992.73	351.16667
2994.81	340.5
2996.889	350.83333
2998.966	338.83333
3001.042	343.83333
3003.117	334.83333
3005.191	335.5
3007.263	334.5
3009.334	323.5
3011.403	331.16667
3013.472	306.83333
3015.539	321.83333
3017.604	319.16667
3019.669	287.16667
3021.732	297.5
3023.794	306.16667
3025.854	294.5
3027.914	286.5
3029.971	298.5
3032.028	290.5
3034.083	286.16667
3036.137	286.83333
3038.19	273.16667
3040.242	266.16667
3042.292	260.83333
3044.341	261.5
3046.388	277.5
3048.435	248.16667
3050.48	272.83333
3052.524	259.16667
3054.566	245.5
3056.607	266.5
3058.647	248.83333
3060.686	240.83333
3062.723	232.16667
3064.759	223.5
3066.794	0.83333
3068.828	1.83333
3070.86	1.5
