-0.839	575.875
3.438	703.875
7.711	199.54167
11.981	61.875
16.247	46.875
20.509	52.875
24.768	43.20833
29.024	51.20833
33.276	45.20833
37.524	47.875
41.769	48.20833
46.01	30.20833
50.247	49.20833
54.481	57.54167
58.712	61.875
62.939	45.54167
67.162	61.54167
71.382	55.875
75.599	46.54167
79.812	61.54167
84.021	79.54167
88.227	58.20833
92.429	63.54167
96.628	53.54167
100.823	69.54167
105.015	74.54167
109.204	67.54167
113.388	72.20833
117.57	75.54167
121.748	83.875
125.922	77.54167
130.093	94.54167
134.261	98.54167
138.425	95.875
142.585	136.20833
146.742	129.20833
150.896	153.875
155.046	201.20833
159.193	307.875
163.336	522.20833
167.476	965.20833
171.613	1739.875
175.746	2921.20833
179.875	4331.54167
184.002	5644.20833
188.124	6567.54167
192.244	6924.54167
196.36	6818.875
200.472	6562.875
204.581	6390.20833
208.687	6196.54167
212.79	6110.875
216.889	6102.20833
220.984	6090.20833
225.077	6103.54167
229.165	6103.54167
233.251	6072.54167
237.333	6054.54167
241.412	5974.54167
245.487	5910.875
249.559	5820.54167
253.628	5778.54167
257.694	5722.20833
261.756	5644.54167
265.814	5520.20833
269.87	5332.20833
273.922	5161.875
277.97	5078.54167
282.016	5029.54167
286.058	5042.20833
290.097	5138.20833
294.132	5229.875
298.164	5135.20833
302.193	4852.875
306.219	4510.54167
310.241	4118.54167
314.26	3819.20833
318.276	3576.20833
322.288	3340.875
326.297	3220.875
330.303	3124.54167
334.305	3034.875
338.305	2976.875
342.301	2914.54167
346.294	2908.875
350.283	2877.54167
354.269	2839.20833
358.252	2819.54167
362.232	2804.54167
366.209	2792.875
370.182	2765.54167
374.152	2743.54167
378.119	2753.54167
382.083	2728.54167
386.043	2776.20833
390	2718.20833
393.954	2703.875
397.905	2699.54167
401.852	2709.20833
405.797	2675.54167
409.738	2656.875
413.676	2645.875
417.61	2644.875
421.542	2636.54167
425.47	2596.54167
429.396	2585.54167
433.318	2571.20833
437.236	2549.54167
441.152	2596.20833
445.065	2521.54167
448.974	2539.20833
452.88	2493.20833
456.783	2489.875
460.683	2466.20833
464.58	2461.875
468.473	2455.20833
472.364	2496.54167
476.251	2473.54167
480.135	2520.20833
484.016	2557.54167
487.894	2532.20833
491.769	2576.54167
495.641	2551.54167
499.509	2568.54167
503.375	2552.875
507.237	2551.20833
511.096	2552.54167
514.952	2564.54167
518.805	2584.20833
522.655	2609.54167
526.502	2578.20833
530.346	2537.875
534.187	2543.54167
538.024	2582.20833
541.859	2549.875
545.69	2577.54167
549.519	2576.20833
553.344	2569.875
557.166	2518.20833
560.985	2470.20833
564.802	2437.875
568.615	2398.20833
572.425	2366.875
576.232	2348.54167
580.036	2355.875
583.836	2362.875
587.634	2381.875
591.429	2368.20833
595.221	2435.875
599.01	2457.20833
602.796	2493.20833
606.578	2493.54167
610.358	2509.875
614.135	2471.20833
617.909	2464.875
621.679	2431.20833
625.447	2430.875
629.212	2422.20833
632.973	2417.54167
636.732	2403.54167
640.488	2410.875
644.241	2394.20833
647.991	2374.54167
651.737	2400.875
655.481	2381.54167
659.222	2358.875
662.96	2352.20833
666.695	2386.54167
670.427	2381.54167
674.156	2398.875
677.882	2382.20833
681.605	2379.875
685.325	2356.875
689.043	2371.20833
692.757	2346.54167
696.468	2342.20833
700.177	2359.54167
703.882	2325.54167
707.585	2309.20833
711.284	2321.875
714.981	2335.20833
718.675	2328.20833
722.366	2346.20833
726.054	2318.875
729.739	2324.20833
733.421	2329.875
737.1	2349.54167
740.777	2350.54167
744.45	2372.20833
748.121	2404.54167
751.789	2441.54167
755.453	2425.875
759.115	2441.20833
762.774	2470.54167
766.431	2469.54167
770.084	2491.875
773.734	2501.875
777.382	2544.875
781.027	2593.875
784.669	2594.54167
788.308	2574.20833
791.944	2624.54167
795.577	2634.875
799.208	2662.20833
802.835	2670.875
806.46	2695.875
810.082	2694.20833
813.701	2712.20833
817.317	2741.20833
820.931	2736.54167
824.542	2729.20833
828.149	2698.54167
831.754	2673.20833
835.357	2688.20833
838.956	2685.20833
842.553	2671.54167
846.146	2672.875
849.737	2635.20833
853.326	2660.875
856.911	2662.54167
860.493	2693.20833
864.073	2709.20833
867.65	2737.20833
871.225	2766.54167
874.796	2781.20833
878.365	2771.54167
881.931	2802.54167
885.494	2806.20833
889.054	2808.54167
892.612	2821.875
896.166	2796.875
899.719	2775.54167
903.268	2718.54167
906.814	2698.54167
910.358	2674.20833
913.899	2682.54167
917.438	2683.875
920.973	2662.20833
924.506	2730.875
928.036	2738.20833
931.564	2790.54167
935.088	2810.20833
938.61	2840.875
942.129	2870.20833
945.646	2944.54167
949.16	2987.54167
952.671	3040.875
956.179	3012.20833
959.685	2976.20833
963.188	2951.20833
966.688	2916.54167
970.185	2848.20833
973.68	2816.20833
977.173	2745.875
980.662	2711.875
984.149	2742.54167
987.633	2713.54167
991.114	2780.875
994.593	2846.20833
998.069	2908.20833
1001.542	2991.54167
1005.013	2956.20833
1008.481	2795.20833
1011.947	2712.54167
1015.409	2675.20833
1018.869	2721.20833
1022.327	2717.54167
1025.782	2678.875
1029.234	2670.875
1032.683	2635.20833
1036.13	2544.875
1039.574	2435.20833
1043.016	2406.20833
1046.455	2340.875
1049.891	2312.875
1053.325	2351.20833
1056.756	2361.20833
1060.184	2351.20833
1063.61	2374.54167
1067.033	2374.20833
1070.454	2384.875
1073.872	2433.875
1077.287	2404.54167
1080.7	2404.875
1084.11	2405.875
1087.517	2368.20833
1090.922	2330.875
1094.325	2318.54167
1097.724	2298.54167
1101.122	2301.54167
1104.516	2290.20833
1107.908	2298.875
1111.298	2336.20833
1114.684	2351.20833
1118.069	2382.875
1121.45	2455.875
1124.83	2435.54167
1128.206	2445.20833
1131.58	2486.20833
1134.951	2549.20833
1138.32	2639.20833
1141.687	2737.54167
1145.05	2781.20833
1148.412	2781.875
1151.77	2789.54167
1155.126	2781.54167
1158.48	2752.875
1161.831	2787.20833
1165.18	2810.54167
1168.525	2838.875
1171.869	2864.875
1175.21	2887.54167
1178.548	2883.20833
1181.884	2918.875
1185.217	2953.20833
1188.548	3004.54167
1191.877	3068.875
1195.202	3160.54167
1198.526	3215.20833
1201.846	3260.54167
1205.165	3234.875
1208.48	3237.875
1211.794	3217.875
1215.104	3233.875
1218.413	3234.20833
1221.719	3234.20833
1225.022	3203.20833
1228.323	3138.54167
1231.621	3121.54167
1234.917	3068.875
1238.21	3101.54167
1241.501	3082.54167
1244.79	3076.54167
1248.076	3081.20833
1251.359	3107.54167
1254.64	3187.54167
1257.919	3200.20833
1261.195	3226.20833
1264.468	3290.54167
1267.74	3340.54167
1271.008	3355.20833
1274.275	3320.20833
1277.538	3323.54167
1280.8	3297.875
1284.059	3313.20833
1287.315	3335.20833
1290.569	3371.20833
1293.821	3379.20833
1297.07	3423.54167
1300.317	3415.54167
1303.562	3388.875
1306.803	3383.20833
1310.043	3350.875
1313.28	3306.20833
1316.515	3266.20833
1319.747	3255.54167
1322.977	3220.54167
1326.204	3196.54167
1329.429	3119.20833
1332.652	3120.54167
1335.872	3048.875
1339.09	3026.54167
1342.306	3028.875
1345.519	2994.20833
1348.729	2986.875
1351.938	2990.20833
1355.144	2932.875
1358.347	2895.20833
1361.548	2883.20833
1364.747	2891.54167
1367.944	2873.20833
1371.138	2871.20833
1374.329	2925.20833
1377.518	2933.875
1380.705	2918.20833
1383.89	2890.54167
1387.072	2802.54167
1390.252	2713.54167
1393.429	2615.20833
1396.605	2550.54167
1399.777	2460.20833
1402.948	2452.20833
1406.116	2427.875
1409.282	2422.875
1412.445	2425.875
1415.606	2458.875
1418.765	2480.875
1421.921	2549.20833
1425.075	2592.20833
1428.227	2671.875
1431.376	2777.54167
1434.524	2882.20833
1437.668	2964.20833
1440.811	3014.20833
1443.951	3026.54167
1447.089	3022.20833
1450.224	3024.54167
1453.357	3004.54167
1456.488	2987.54167
1459.617	2911.20833
1462.743	2888.54167
1465.867	2797.20833
1468.989	2756.20833
1472.108	2705.54167
1475.225	2686.54167
1478.34	2633.20833
1481.453	2632.875
1484.563	2625.54167
1487.671	2661.20833
1490.776	2692.875
1493.88	2752.20833
1496.981	2816.20833
1500.08	2846.875
1503.176	2875.875
1506.271	2919.20833
1509.363	2961.54167
1512.452	2962.875
1515.54	3016.20833
1518.625	3047.54167
1521.708	3142.54167
1524.789	3216.875
1527.867	3306.875
1530.944	3524.20833
1534.018	3683.54167
1537.089	3828.20833
1540.159	3893.20833
1543.226	3911.875
1546.291	3826.20833
1549.354	3748.20833
1552.415	3666.875
1555.473	3561.20833
1558.529	3503.875
1561.583	3473.20833
1564.634	3451.875
1567.684	3432.54167
1570.731	3428.20833
1573.776	3460.875
1576.819	3530.20833
1579.859	3544.20833
1582.898	3567.875
1585.934	3620.20833
1588.968	3623.54167
1591.999	3632.54167
1595.029	3620.875
1598.056	3655.54167
1601.081	3686.54167
1604.104	3632.54167
1607.125	3622.54167
1610.144	3535.875
1613.16	3480.54167
1616.174	3380.20833
1619.186	3302.20833
1622.196	3204.875
1625.203	3102.20833
1628.209	3040.20833
1631.212	2994.54167
1634.213	2982.54167
1637.212	2952.20833
1640.209	2928.875
1643.203	2837.20833
1646.196	2760.54167
1649.186	2669.875
1652.174	2598.875
1655.16	2502.54167
1658.144	2436.54167
1661.125	2318.875
1664.105	2245.875
1667.082	2120.875
1670.057	2015.54167
1673.03	1869.875
1676.001	1774.20833
1678.97	1652.20833
1681.937	1558.54167
1684.901	1463.20833
1687.863	1423.54167
1690.824	1355.875
1693.782	1332.875
1696.738	1269.54167
1699.692	1246.20833
1702.643	1205.54167
1705.593	1194.20833
1708.54	1189.20833
1711.486	1186.20833
1714.429	1139.875
1717.37	1136.875
1720.309	1120.875
1723.246	1122.20833
1726.181	1093.875
1729.113	1101.20833
1732.044	1075.875
1734.972	1071.20833
1737.899	1059.20833
1740.823	1076.875
1743.745	1020.875
1746.665	1010.20833
1749.583	1010.20833
1752.499	986.20833
1755.413	972.54167
1758.325	954.54167
1761.235	951.20833
1764.142	937.54167
1767.048	924.54167
1769.951	909.54167
1772.852	918.54167
1775.752	912.875
1778.649	906.54167
1781.544	913.54167
1784.437	886.875
1787.328	895.54167
1790.217	885.20833
1793.104	854.875
1795.989	847.20833
1798.872	856.875
1801.753	861.20833
1804.631	865.875
1807.508	880.54167
1810.383	860.875
1813.255	850.20833
1816.126	852.20833
1818.994	836.54167
1821.861	832.20833
1824.725	834.54167
1827.587	828.20833
1830.448	836.875
1833.306	804.875
1836.162	812.20833
1839.017	801.20833
1841.869	800.875
1844.719	807.20833
1847.567	789.54167
1850.414	780.54167
1853.258	788.54167
1856.1	810.20833
1858.94	803.20833
1861.778	786.20833
1864.614	784.20833
1867.448	781.54167
1870.28	782.54167
1873.111	795.54167
1875.939	782.875
1878.765	791.20833
1881.589	783.54167
1884.411	772.20833
1887.231	784.875
1890.049	782.875
1892.865	779.875
1895.68	765.54167
1898.492	779.54167
1901.302	764.20833
1904.11	761.54167
1906.916	755.54167
1909.721	739.875
1912.523	751.54167
1915.323	729.875
1918.122	728.875
1920.918	750.20833
1923.712	732.20833
1926.505	723.20833
1929.295	707.875
1932.084	741.54167
1934.87	734.54167
1937.655	724.20833
1940.438	715.875
1943.218	727.20833
1945.997	722.54167
1948.774	724.875
1951.549	725.20833
1954.322	709.875
1957.093	712.54167
1959.862	701.20833
1962.629	697.54167
1965.394	692.20833
1968.157	687.20833
1970.918	700.875
1973.678	687.20833
1976.435	708.875
1979.19	686.54167
1981.944	682.20833
1984.696	685.20833
1987.445	666.20833
1990.193	686.875
1992.939	695.20833
1995.683	675.20833
1998.425	656.20833
2001.165	692.20833
2003.903	660.54167
2006.639	663.875
2009.374	671.54167
2012.106	675.20833
2014.837	651.20833
2017.566	667.54167
2020.292	667.20833
2023.017	662.54167
2025.74	659.875
2028.461	646.875
2031.18	652.875
2033.898	648.54167
2036.613	652.54167
2039.327	647.20833
2042.038	629.20833
2044.748	634.875
2047.456	647.54167
2050.162	630.54167
2052.866	641.875
2055.568	650.54167
2058.268	640.54167
2060.967	640.875
2063.663	624.54167
2066.358	618.875
2069.051	621.20833
2071.742	624.20833
2074.431	630.875
2077.118	636.20833
2079.804	616.54167
2082.487	617.54167
2085.169	622.20833
2087.849	643.54167
2090.527	622.875
2093.203	621.20833
2095.877	644.20833
2098.55	644.54167
2101.22	646.875
2103.889	661.54167
2106.556	656.20833
2109.221	676.20833
2111.884	684.54167
2114.546	742.54167
2117.205	783.54167
2119.863	845.875
2122.519	887.20833
2125.173	950.20833
2127.825	1000.875
2130.475	988.54167
2133.124	958.875
2135.771	905.20833
2138.416	871.875
2141.059	805.875
2143.7	781.20833
2146.339	736.875
2148.977	695.875
2151.613	699.20833
2154.247	659.54167
2156.879	649.875
2159.51	635.875
2162.138	620.20833
2164.765	616.875
2167.39	603.54167
2170.013	622.875
2172.634	610.875
2175.254	594.54167
2177.872	625.875
2180.488	580.20833
2183.102	589.20833
2185.714	587.20833
2188.325	556.20833
2190.934	574.875
2193.541	574.54167
2196.146	558.54167
2198.75	555.20833
2201.351	555.20833
2203.951	540.54167
2206.549	569.875
2209.146	551.20833
2211.74	542.20833
2214.333	549.875
2216.924	519.875
2219.514	534.54167
2222.101	527.20833
2224.687	550.20833
2227.271	537.54167
2229.853	521.20833
2232.433	506.54167
2235.012	539.20833
2237.589	525.54167
2240.164	528.875
2242.738	512.875
2245.309	512.20833
2247.879	524.20833
2250.448	530.54167
2253.014	500.20833
2255.579	497.20833
2258.142	496.875
2260.703	486.20833
2263.262	500.54167
2265.82	489.54167
2268.376	493.875
2270.93	479.20833
2273.483	475.54167
2276.033	484.875
2278.583	485.20833
2281.13	481.875
2283.675	469.20833
2286.219	469.875
2288.761	479.20833
2291.302	475.20833
2293.841	487.875
2296.377	462.20833
2298.913	458.875
2301.446	479.54167
2303.978	473.54167
2306.508	467.20833
2309.037	469.20833
2311.563	474.875
2314.088	468.875
2316.612	455.20833
2319.133	458.875
2321.653	456.875
2324.171	448.54167
2326.688	466.875
2329.202	441.54167
2331.715	456.875
2334.227	452.54167
2336.736	456.54167
2339.244	443.20833
2341.751	426.20833
2344.255	448.875
2346.758	447.54167
2349.259	432.20833
2351.759	450.20833
2354.257	440.54167
2356.753	441.54167
2359.247	435.20833
2361.74	441.875
2364.231	445.20833
2366.721	443.54167
2369.209	433.54167
2371.695	444.875
2374.179	434.20833
2376.662	429.20833
2379.143	439.54167
2381.622	428.54167
2384.1	440.54167
2386.576	430.20833
2389.051	444.875
2391.524	438.20833
2393.995	442.20833
2396.464	425.875
2398.932	425.875
2401.398	422.20833
2403.863	422.20833
2406.325	420.875
2408.787	423.20833
2411.246	424.875
2413.704	419.54167
2416.16	424.54167
2418.615	423.875
2421.068	426.20833
2423.519	431.20833
2425.969	416.875
2428.417	424.20833
2430.863	439.54167
2433.308	427.54167
2435.751	423.875
2438.193	420.875
2440.633	428.20833
2443.071	425.20833
2445.508	409.54167
2447.943	414.54167
2450.376	414.20833
2452.808	417.875
2455.238	414.20833
2457.667	447.54167
2460.093	414.875
2462.519	410.54167
2464.942	409.54167
2467.365	421.20833
2469.785	421.54167
2472.204	423.875
2474.621	414.20833
2477.037	423.875
2479.451	400.20833
2481.863	409.875
2484.274	403.875
2486.683	409.875
2489.091	422.20833
2491.497	413.20833
2493.901	420.20833
2496.304	411.20833
2498.705	413.875
2501.105	414.54167
2503.503	435.54167
2505.899	389.20833
2508.294	420.20833
2510.687	404.875
2513.079	408.20833
2515.469	393.54167
2517.858	403.20833
2520.245	413.20833
2522.63	403.54167
2525.014	391.875
2527.396	387.54167
2529.776	394.54167
2532.156	407.20833
2534.533	401.20833
2536.909	384.875
2539.283	384.54167
2541.656	396.20833
2544.027	417.54167
2546.397	396.54167
2548.765	395.20833
2551.131	396.54167
2553.496	398.20833
2555.86	406.20833
2558.221	398.54167
2560.582	394.875
2562.94	392.54167
2565.298	401.20833
2567.653	409.20833
2570.007	383.54167
2572.36	410.20833
2574.711	395.875
2577.06	411.54167
2579.408	408.20833
2581.754	398.875
2584.099	400.875
2586.442	398.20833
2588.784	408.20833
2591.124	396.875
2593.463	399.54167
2595.8	407.875
2598.135	381.20833
2600.469	393.875
2602.802	403.54167
2605.133	411.875
2607.462	390.875
2609.79	390.875
2612.116	407.875
2614.441	404.20833
2616.764	396.20833
2619.086	399.20833
2621.406	379.54167
2623.725	409.20833
2626.042	396.875
2628.358	397.20833
2630.672	401.20833
2632.985	414.875
2635.296	403.875
2637.606	402.20833
2639.914	386.54167
2642.22	399.54167
2644.525	395.875
2646.829	402.875
2649.131	417.54167
2651.432	417.875
2653.731	410.54167
2656.028	414.54167
2658.324	422.875
2660.619	405.20833
2662.912	421.875
2665.204	399.875
2667.494	423.54167
2669.782	407.875
2672.07	417.875
2674.355	423.875
2676.639	418.20833
2678.922	407.875
2681.203	412.20833
2683.483	401.875
2685.761	406.20833
2688.038	427.54167
2690.313	436.54167
2692.587	422.20833
2694.859	412.54167
2697.13	424.54167
2699.399	431.875
2701.667	435.875
2703.933	431.54167
2706.198	433.875
2708.461	443.875
2710.723	441.20833
2712.984	439.20833
2715.243	447.875
2717.5	428.54167
2719.757	450.54167
2722.011	443.20833
2724.264	451.875
2726.516	468.54167
2728.766	449.54167
2731.015	450.54167
2733.262	455.54167
2735.508	457.875
2737.753	455.54167
2739.996	435.54167
2742.237	437.875
2744.477	452.54167
2746.716	459.20833
2748.953	445.20833
2751.189	454.54167
2753.423	435.20833
2755.656	426.20833
2757.887	431.20833
2760.117	429.20833
2762.346	424.875
2764.573	415.54167
2766.798	431.875
2769.022	431.20833
2771.245	440.875
2773.467	450.54167
2775.686	435.875
2777.905	443.54167
2780.122	452.20833
2782.337	452.875
2784.552	451.875
2786.764	452.54167
2788.976	466.875
2791.186	454.875
2793.394	469.20833
2795.601	466.54167
2797.807	485.54167
2800.011	480.875
2802.214	487.54167
2804.415	483.875
2806.615	482.54167
2808.814	488.20833
2811.011	495.875
2813.206	499.20833
2815.401	508.54167
2817.594	527.20833
2819.785	520.875
2821.975	519.54167
2824.164	531.20833
2826.351	533.875
2828.537	554.54167
2830.722	562.875
2832.905	552.875
2835.086	584.54167
2837.267	610.20833
2839.445	623.54167
2841.623	629.54167
2843.799	651.54167
2845.974	680.54167
2848.147	701.54167
2850.319	712.875
2852.489	756.54167
2854.659	763.875
2856.826	765.875
2858.993	798.20833
2861.158	774.875
2863.321	775.20833
2865.483	774.875
2867.644	796.54167
2869.804	778.54167
2871.962	783.20833
2874.118	778.20833
2876.274	777.54167
2878.428	766.20833
2880.58	773.54167
2882.731	773.875
2884.881	768.20833
2887.03	785.20833
2889.177	783.20833
2891.322	773.20833
2893.467	784.20833
2895.61	773.20833
2897.751	809.875
2899.892	796.20833
2902.03	807.54167
2904.168	793.54167
2906.304	805.875
2908.439	831.20833
2910.572	816.20833
2912.704	819.875
2914.835	829.54167
2916.965	825.875
2919.093	837.54167
2921.219	797.54167
2923.345	824.875
2925.469	800.875
2927.591	803.875
2929.712	779.20833
2931.832	769.875
2933.951	756.875
2936.068	750.54167
2938.184	736.54167
2940.299	712.20833
2942.412	698.54167
2944.524	666.54167
2946.634	672.875
2948.744	625.54167
2950.851	655.20833
2952.958	612.54167
2955.063	612.875
2957.167	603.54167
2959.269	573.20833
2961.371	591.875
2963.471	572.875
2965.569	576.54167
2967.666	551.875
2969.762	535.20833
2971.857	538.20833
2973.95	520.54167
2976.042	516.54167
2978.133	508.20833
2980.222	496.54167
2982.31	488.54167
2984.396	467.20833
2986.482	471.54167
2988.566	464.875
2990.648	464.20833
2992.73	454.54167
2994.81	442.20833
2996.889	452.875
2998.966	454.20833
3001.042	463.20833
3003.117	455.875
3005.191	446.20833
3007.263	445.875
3009.334	432.54167
3011.403	444.875
3013.472	427.875
3015.539	439.54167
3017.604	433.875
3019.669	406.54167
3021.732	411.875
3023.794	416.20833
3025.854	402.875
3027.914	406.20833
3029.971	415.20833
3032.028	400.20833
3034.083	397.875
3036.137	407.875
3038.19	386.20833
3040.242	378.875
3042.292	374.54167
3044.341	372.20833
3046.388	383.875
3048.435	360.20833
3050.48	372.875
3052.524	366.875
3054.566	355.875
3056.607	361.54167
3058.647	356.54167
3060.686	333.20833
3062.723	325.875
3064.759	316.54167
3066.794	-0.45833
3068.828	2.54167
3070.86	4.20833
