-0.839	612.5
3.438	738.83333
7.711	207.83333
11.981	69.16667
16.247	47.16667
20.509	51.5
24.768	48.5
29.024	55.5
33.276	45.16667
37.524	57.5
41.769	47.83333
46.01	35.83333
50.247	50.16667
54.481	59.16667
58.712	61.83333
62.939	46.83333
67.162	65.16667
71.382	58.83333
75.599	46.16667
79.812	64.83333
84.021	79.83333
88.227	61.16667
92.429	61.16667
96.628	55.83333
100.823	70.16667
105.015	83.5
109.204	75.16667
113.388	81.83333
117.57	76.83333
121.748	91.5
125.922	83.16667
130.093	104.16667
134.261	102.16667
138.425	100.5
142.585	142.83333
146.742	136.16667
150.896	166.16667
155.046	204.83333
159.193	326.83333
163.336	560.5
167.476	1019.16667
171.613	1907.5
175.746	3134.16667
179.875	4686.83333
184.002	6147.16667
188.124	7148.83333
192.244	7523.16667
196.36	7432.83333
200.472	7237.16667
204.581	7027.5
208.687	6875.16667
212.79	6791.16667
216.889	6800.5
220.984	6806.83333
225.077	6821.16667
229.165	6826.5
233.251	6855.16667
237.333	6876.16667
241.412	6762.5
245.487	6720.83333
249.559	6607.16667
253.628	6551.83333
257.694	6508.16667
261.756	6484.16667
265.814	6361.5
269.87	6151.83333
273.922	5950.5
277.97	5843.16667
282.016	5720.83333
286.058	5762.83333
290.097	5828.5
294.132	5884.16667
298.164	5829.83333
302.193	5651.16667
306.219	5274.5
310.241	4884.16667
314.26	4493.16667
318.276	4175.5
322.288	4012.83333
326.297	3819.5
330.303	3693.83333
334.305	3585.16667
338.305	3536.16667
342.301	3495.5
346.294	3458.5
350.283	3445.16667
354.269	3415.5
358.252	3390.83333
362.232	3372.16667
366.209	3348.5
370.182	3311.5
374.152	3293.16667
378.119	3303.5
382.083	3299.5
386.043	3296.16667
390	3242.83333
393.954	3288.83333
397.905	3262.83333
401.852	3245.16667
405.797	3214.5
409.738	3170.83333
413.676	3177.5
417.61	3180.16667
421.542	3157.5
425.47	3124.5
429.396	3111.83333
433.318	3092.83333
437.236	3075.83333
441.152	3102.5
445.065	3027.83333
448.974	3050.16667
452.88	3018.5
456.783	2975.16667
460.683	2983.5
464.58	2986.16667
468.473	2966.5
472.364	3000.83333
476.251	2970.16667
480.135	3011.16667
484.016	3029.5
487.894	3045.5
491.769	3056.5
495.641	3081.5
499.509	3063.5
503.375	3071.83333
507.237	3040.5
511.096	3058.5
514.952	3065.5
518.805	3055.5
522.655	3103.83333
526.502	3069.5
530.346	3078.5
534.187	3065.5
538.024	3083.16667
541.859	3101.16667
545.69	3141.83333
549.519	3108.5
553.344	3090.5
557.166	3052.83333
560.985	3022.83333
564.802	2951.5
568.615	2916.5
572.425	2876.16667
576.232	2870.5
580.036	2871.83333
583.836	2872.16667
587.634	2889.16667
591.429	2887.83333
595.221	2944.83333
599.01	2965.83333
602.796	3015.83333
606.578	3010.16667
610.358	3007.16667
614.135	2987.16667
617.909	2959.83333
621.679	2968.5
625.447	2921.5
629.212	2934.83333
632.973	2927.83333
636.732	2941.83333
640.488	2917.83333
644.241	2917.5
647.991	2902.5
651.737	2916.83333
655.481	2887.16667
659.222	2890.16667
662.96	2889.5
666.695	2907.83333
670.427	2934.5
674.156	2945.83333
677.882	2916.83333
681.605	2924.16667
685.325	2895.83333
689.043	2890.83333
692.757	2845.83333
696.468	2858.5
700.177	2870.5
703.882	2833.16667
707.585	2816.5
711.284	2825.83333
714.981	2808.16667
718.675	2818.5
722.366	2831.16667
726.054	2788.16667
729.739	2816.16667
733.421	2835.5
737.1	2787.16667
740.777	2844.5
744.45	2855.83333
748.121	2889.83333
751.789	2917.16667
755.453	2902.16667
759.115	2951.16667
762.774	2965.83333
766.431	2966.83333
770.084	3029.5
773.734	3031.83333
777.382	3076.5
781.027	3109.16667
784.669	3126.83333
788.308	3147.16667
791.944	3151.83333
795.577	3157.5
799.208	3178.83333
802.835	3195.83333
806.46	3173.5
810.082	3225.5
813.701	3207.83333
817.317	3246.83333
820.931	3252.16667
824.542	3223.5
828.149	3192.83333
831.754	3185.5
835.357	3198.16667
838.956	3185.16667
842.553	3188.5
846.146	3157.5
849.737	3114.16667
853.326	3169.5
856.911	3156.5
860.493	3202.16667
864.073	3207.16667
867.65	3253.5
871.225	3288.5
874.796	3299.83333
878.365	3308.16667
881.931	3323.5
885.494	3347.83333
889.054	3360.5
892.612	3357.5
896.166	3350.5
899.719	3313.83333
903.268	3262.5
906.814	3284.5
910.358	3215.5
913.899	3197.5
917.438	3219.83333
920.973	3191.16667
924.506	3216.16667
928.036	3275.5
931.564	3316.5
935.088	3361.16667
938.61	3378.16667
942.129	3434.16667
945.646	3503.5
949.16	3541.5
952.671	3583.83333
956.179	3595.5
959.685	3545.83333
963.188	3524.5
966.688	3475.16667
970.185	3383.5
973.68	3301.5
977.173	3237.5
980.662	3179.16667
984.149	3168.16667
987.633	3159.5
991.114	3209.16667
994.593	3269.16667
998.069	3335.5
1001.542	3424.83333
1005.013	3388.16667
1008.481	3251.5
1011.947	3202.5
1015.409	3195.83333
1018.869	3172.83333
1022.327	3166.83333
1025.782	3116.83333
1029.234	3107.83333
1032.683	3078.5
1036.13	2973.83333
1039.574	2881.83333
1043.016	2783.16667
1046.455	2730.83333
1049.891	2729.83333
1053.325	2761.83333
1056.756	2761.83333
1060.184	2776.16667
1063.61	2776.83333
1067.033	2769.83333
1070.454	2793.5
1073.872	2814.5
1077.287	2810.83333
1080.7	2829.83333
1084.11	2781.83333
1087.517	2766.83333
1090.922	2751.16667
1094.325	2742.16667
1097.724	2701.5
1101.122	2726.83333
1104.516	2693.5
1107.908	2714.83333
1111.298	2757.16667
1114.684	2796.5
1118.069	2841.5
1121.45	2877.5
1124.83	2871.5
1128.206	2893.83333
1131.58	2938.5
1134.951	3016.5
1138.32	3124.5
1141.687	3247.5
1145.05	3341.5
1148.412	3340.16667
1151.77	3352.16667
1155.126	3337.83333
1158.48	3317.16667
1161.831	3355.16667
1165.18	3343.5
1168.525	3425.5
1171.869	3473.83333
1175.21	3470.5
1178.548	3487.16667
1181.884	3542.5
1185.217	3588.83333
1188.548	3663.5
1191.877	3741.5
1195.202	3820.83333
1198.526	3897.83333
1201.846	3904.5
1205.165	3886.83333
1208.48	3865.16667
1211.794	3802.16667
1215.104	3807.16667
1218.413	3788.83333
1221.719	3815.16667
1225.022	3741.16667
1228.323	3683.83333
1231.621	3622.5
1234.917	3618.83333
1238.21	3626.16667
1241.501	3578.16667
1244.79	3570.83333
1248.076	3606.83333
1251.359	3624.5
1254.64	3701.83333
1257.919	3704.83333
1261.195	3772.83333
1264.468	3828.16667
1267.74	3894.5
1271.008	3914.5
1274.275	3907.16667
1277.538	3873.16667
1280.8	3865.5
1284.059	3854.5
1287.315	3873.5
1290.569	3900.16667
1293.821	3925.16667
1297.07	3948.83333
1300.317	3962.5
1303.562	3950.83333
1306.803	3927.16667
1310.043	3925.5
1313.28	3886.83333
1316.515	3850.16667
1319.747	3805.16667
1322.977	3750.5
1326.204	3707.83333
1329.429	3649.83333
1332.652	3629.16667
1335.872	3583.83333
1339.09	3534.5
1342.306	3529.83333
1345.519	3495.16667
1348.729	3450.5
1351.938	3431.83333
1355.144	3389.16667
1358.347	3366.16667
1361.548	3334.16667
1364.747	3330.16667
1367.944	3292.83333
1371.138	3325.5
1374.329	3330.16667
1377.518	3356.5
1380.705	3391.83333
1383.89	3353.16667
1387.072	3273.16667
1390.252	3146.5
1393.429	3042.83333
1396.605	2923.83333
1399.777	2857.5
1402.948	2838.16667
1406.116	2814.83333
1409.282	2797.83333
1412.445	2765.16667
1415.606	2816.83333
1418.765	2853.16667
1421.921	2900.16667
1425.075	2983.83333
1428.227	3068.83333
1431.376	3175.83333
1434.524	3284.5
1437.668	3388.83333
1440.811	3419.16667
1443.951	3453.83333
1447.089	3438.83333
1450.224	3460.16667
1453.357	3436.83333
1456.488	3418.16667
1459.617	3392.5
1462.743	3342.16667
1465.867	3309.16667
1468.989	3214.16667
1472.108	3185.5
1475.225	3136.5
1478.34	3112.83333
1481.453	3087.16667
1484.563	3116.5
1487.671	3165.16667
1490.776	3209.5
1493.88	3267.16667
1496.981	3338.16667
1500.08	3399.16667
1503.176	3444.16667
1506.271	3522.16667
1509.363	3523.83333
1512.452	3566.16667
1515.54	3616.5
1518.625	3651.5
1521.708	3749.5
1524.789	3817.5
1527.867	3980.16667
1530.944	4129.5
1534.018	4308.5
1537.089	4421.16667
1540.159	4476.83333
1543.226	4464.83333
1546.291	4403.16667
1549.354	4290.83333
1552.415	4214.83333
1555.473	4142.16667
1558.529	4121.5
1561.583	4064.83333
1564.634	4094.5
1567.684	4086.16667
1570.731	4134.16667
1573.776	4189.5
1576.819	4226.83333
1579.859	4276.83333
1582.898	4346.16667
1585.934	4377.16667
1588.968	4421.5
1591.999	4419.16667
1595.029	4436.16667
1598.056	4440.83333
1601.081	4452.83333
1604.104	4400.5
1607.125	4377.5
1610.144	4271.83333
1613.16	4164.16667
1616.174	4050.5
1619.186	3966.83333
1622.196	3828.5
1625.203	3724.83333
1628.209	3632.5
1631.212	3555.16667
1634.213	3507.83333
1637.212	3486.16667
1640.209	3430.83333
1643.203	3311.83333
1646.196	3190.83333
1649.186	3060.16667
1652.174	2969.5
1655.16	2849.5
1658.144	2749.5
1661.125	2620.83333
1664.105	2510.5
1667.082	2392.5
1670.057	2274.5
1673.03	2161.83333
1676.001	2048.83333
1678.97	1914.5
1681.937	1811.5
1684.901	1705.83333
1687.863	1646.5
1690.824	1568.16667
1693.782	1557.5
1696.738	1460.16667
1699.692	1451.5
1702.643	1392.16667
1705.593	1391.16667
1708.54	1367.16667
1711.486	1371.83333
1714.429	1337.5
1717.37	1318.83333
1720.309	1291.83333
1723.246	1302.5
1726.181	1272.5
1729.113	1266.5
1732.044	1252.16667
1734.972	1241.83333
1737.899	1241.16667
1740.823	1235.83333
1743.745	1205.83333
1746.665	1192.83333
1749.583	1166.83333
1752.499	1152.5
1755.413	1139.5
1758.325	1114.16667
1761.235	1108.83333
1764.142	1092.5
1767.048	1080.83333
1769.951	1073.5
1772.852	1068.16667
1775.752	1057.5
1778.649	1037.83333
1781.544	1062.83333
1784.437	1025.5
1787.328	1042.16667
1790.217	1035.5
1793.104	1004.16667
1795.989	1004.83333
1798.872	1001.83333
1801.753	1015.5
1804.631	995.83333
1807.508	996.83333
1810.383	1017.5
1813.255	985.16667
1816.126	1004.16667
1818.994	979.5
1821.861	970.16667
1824.725	971.83333
1827.587	970.16667
1830.448	955.16667
1833.306	934.16667
1836.162	944.16667
1839.017	942.83333
1841.869	933.16667
1844.719	933.5
1847.567	921.83333
1850.414	911.16667
1853.258	911.5
1856.1	930.16667
1858.94	924.83333
1861.778	901.83333
1864.614	891.5
1867.448	907.16667
1870.28	876.5
1873.111	920.83333
1875.939	899.83333
1878.765	916.5
1881.589	905.5
1884.411	902.83333
1887.231	894.83333
1890.049	896.83333
1892.865	898.5
1895.68	887.16667
1898.492	886.83333
1901.302	882.5
1904.11	881.5
1906.916	852.83333
1909.721	854.16667
1912.523	858.5
1915.323	849.5
1918.122	852.16667
1920.918	859.16667
1923.712	844.5
1926.505	838.83333
1929.295	818.5
1932.084	855.83333
1934.87	828.83333
1937.655	836.16667
1940.438	836.5
1943.218	831.5
1945.997	823.83333
1948.774	834.83333
1951.549	838.5
1954.322	829.16667
1957.093	815.5
1959.862	816.16667
1962.629	809.16667
1965.394	791.5
1968.157	801.5
1970.918	801.16667
1973.678	796.5
1976.435	801.83333
1979.19	786.5
1981.944	780.83333
1984.696	784.83333
1987.445	756.16667
1990.193	776.83333
1992.939	788.5
1995.683	768.16667
1998.425	752.83333
2001.165	788.16667
2003.903	758.16667
2006.639	762.83333
2009.374	767.16667
2012.106	765.16667
2014.837	750.83333
2017.566	762.5
2020.292	765.16667
2023.017	757.16667
2025.74	757.16667
2028.461	747.16667
2031.18	750.5
2033.898	731.16667
2036.613	742.5
2039.327	749.83333
2042.038	728.83333
2044.748	724.83333
2047.456	740.83333
2050.162	717.83333
2052.866	730.5
2055.568	741.16667
2058.268	720.16667
2060.967	730.16667
2063.663	715.83333
2066.358	707.5
2069.051	715.83333
2071.742	719.83333
2074.431	727.16667
2077.118	718.16667
2079.804	702.16667
2082.487	713.5
2085.169	699.83333
2087.849	721.5
2090.527	708.5
2093.203	719.16667
2095.877	723.5
2098.55	719.16667
2101.22	723.16667
2103.889	724.83333
2106.556	725.83333
2109.221	750.5
2111.884	757.83333
2114.546	810.83333
2117.205	835.5
2119.863	911.5
2122.519	954.83333
2125.173	1029.5
2127.825	1090.83333
2130.475	1073.5
2133.124	1055.5
2135.771	1009.5
2138.416	975.83333
2141.059	897.83333
2143.7	874.5
2146.339	808.83333
2148.977	761.16667
2151.613	768.16667
2154.247	747.5
2156.879	727.5
2159.51	707.83333
2162.138	703.83333
2164.765	697.16667
2167.39	667.16667
2170.013	700.83333
2172.634	687.5
2175.254	666.5
2177.872	704.83333
2180.488	654.83333
2183.102	662.16667
2185.714	662.16667
2188.325	639.83333
2190.934	649.16667
2193.541	647.83333
2196.146	633.16667
2198.75	626.16667
2201.351	637.5
2203.951	619.5
2206.549	632.83333
2209.146	620.5
2211.74	613.83333
2214.333	615.5
2216.924	602.16667
2219.514	607.83333
2222.101	594.16667
2224.687	615.16667
2227.271	598.16667
2229.853	577.16667
2232.433	575.16667
2235.012	597.83333
2237.589	583.5
2240.164	600.83333
2242.738	570.16667
2245.309	567.5
2247.879	578.16667
2250.448	578.83333
2253.014	568.16667
2255.579	544.83333
2258.142	547.5
2260.703	539.16667
2263.262	543.16667
2265.82	537.16667
2268.376	546.5
2270.93	522.5
2273.483	527.16667
2276.033	532.83333
2278.583	527.16667
2281.13	521.16667
2283.675	511.83333
2286.219	516.16667
2288.761	522.16667
2291.302	522.5
2293.841	526.5
2296.377	505.16667
2298.913	509.83333
2301.446	510.16667
2303.978	499.16667
2306.508	503.83333
2309.037	509.5
2311.563	503.16667
2314.088	496.16667
2316.612	476.16667
2319.133	492.83333
2321.653	493.83333
2324.171	490.83333
2326.688	508.16667
2329.202	484.83333
2331.715	487.5
2334.227	482.83333
2336.736	484.83333
2339.244	484.83333
2341.751	470.83333
2344.255	479.83333
2346.758	480.16667
2349.259	462.83333
2351.759	481.83333
2354.257	467.83333
2356.753	455.83333
2359.247	461.16667
2361.74	477.16667
2364.231	460.16667
2366.721	471.16667
2369.209	454.16667
2371.695	466.5
2374.179	455.5
2376.662	445.16667
2379.143	462.5
2381.622	453.16667
2384.1	465.83333
2386.576	457.5
2389.051	465.83333
2391.524	471.83333
2393.995	459.16667
2396.464	443.83333
2398.932	442.16667
2401.398	443.5
2403.863	454.16667
2406.325	435.83333
2408.787	448.83333
2411.246	444.16667
2413.704	443.16667
2416.16	426.5
2418.615	437.5
2421.068	444.16667
2423.519	437.83333
2425.969	429.5
2428.417	439.16667
2430.863	457.16667
2433.308	439.83333
2435.751	424.83333
2438.193	424.5
2440.633	427.16667
2443.071	427.83333
2445.508	418.83333
2447.943	412.16667
2450.376	420.5
2452.808	426.5
2455.238	414.83333
2457.667	452.5
2460.093	423.5
2462.519	413.16667
2464.942	416.83333
2467.365	422.5
2469.785	415.5
2472.204	420.83333
2474.621	401.5
2477.037	428.83333
2479.451	399.83333
2481.863	407.16667
2484.274	403.5
2486.683	405.83333
2489.091	406.83333
2491.497	409.16667
2493.901	406.83333
2496.304	404.83333
2498.705	405.16667
2501.105	394.83333
2503.503	421.16667
2505.899	382.83333
2508.294	419.16667
2510.687	393.5
2513.079	393.5
2515.469	387.5
2517.858	392.83333
2520.245	402.16667
2522.63	387.16667
2525.014	382.16667
2527.396	388.5
2529.776	375.83333
2532.156	400.83333
2534.533	379.83333
2536.909	374.5
2539.283	359.83333
2541.656	378.5
2544.027	393.16667
2546.397	381.5
2548.765	372.83333
2551.131	373.5
2553.496	368.83333
2555.86	382.16667
2558.221	382.83333
2560.582	381.16667
2562.94	363.5
2565.298	379.16667
2567.653	386.5
2570.007	367.83333
2572.36	376.83333
2574.711	363.5
2577.06	379.16667
2579.408	376.5
2581.754	373.83333
2584.099	370.16667
2586.442	375.5
2588.784	366.83333
2591.124	368.16667
2593.463	369.16667
2595.8	371.83333
2598.135	358.83333
2600.469	355.83333
2602.802	369.83333
2605.133	375.83333
2607.462	359.16667
2609.79	351.83333
2612.116	368.16667
2614.441	370.83333
2616.764	354.16667
2619.086	364.16667
2621.406	349.83333
2623.725	374.5
2626.042	370.5
2628.358	357.83333
2630.672	350.5
2632.985	372.83333
2635.296	362.5
2637.606	358.16667
2639.914	353.83333
2642.22	366.16667
2644.525	355.16667
2646.829	364.16667
2649.131	376.83333
2651.432	369.83333
2653.731	356.16667
2656.028	376.83333
2658.324	374.5
2660.619	352.16667
2662.912	367.83333
2665.204	353.5
2667.494	365.83333
2669.782	350.5
2672.07	366.16667
2674.355	370.16667
2676.639	365.83333
2678.922	359.83333
2681.203	358.83333
2683.483	345.5
2685.761	356.83333
2688.038	369.5
2690.313	383.5
2692.587	370.83333
2694.859	352.5
2697.13	372.83333
2699.399	368.16667
2701.667	378.83333
2703.933	370.83333
2706.198	367.83333
2708.461	383.16667
2710.723	383.83333
2712.984	379.5
2715.243	375.83333
2717.5	373.83333
2719.757	386.16667
2722.011	374.5
2724.264	396.5
2726.516	393.5
2728.766	380.83333
2731.015	394.83333
2733.262	390.5
2735.508	386.5
2737.753	384.16667
2739.996	365.5
2742.237	368.16667
2744.477	382.5
2746.716	385.16667
2748.953	371.5
2751.189	375.83333
2753.423	365.83333
2755.656	355.5
2757.887	354.16667
2760.117	358.16667
2762.346	358.83333
2764.573	350.16667
2766.798	358.83333
2769.022	351.5
2771.245	363.16667
2773.467	359.5
2775.686	359.16667
2777.905	364.83333
2780.122	367.5
2782.337	373.83333
2784.552	361.16667
2786.764	369.83333
2788.976	372.83333
2791.186	375.16667
2793.394	379.5
2795.601	384.16667
2797.807	393.83333
2800.011	398.5
2802.214	401.16667
2804.415	403.83333
2806.615	390.5
2808.814	406.16667
2811.011	403.5
2813.206	403.83333
2815.401	428.5
2817.594	421.5
2819.785	433.83333
2821.975	434.5
2824.164	436.16667
2826.351	445.83333
2828.537	458.83333
2830.722	469.16667
2832.905	474.16667
2835.086	498.83333
2837.267	517.5
2839.445	539.16667
2841.623	547.83333
2843.799	576.5
2845.974	604.5
2848.147	640.16667
2850.319	651.16667
2852.489	684.83333
2854.659	702.5
2856.826	710.16667
2858.993	735.16667
2861.158	713.5
2863.321	719.5
2865.483	735.83333
2867.644	739.16667
2869.804	730.83333
2871.962	734.16667
2874.118	727.5
2876.274	728.5
2878.428	721.83333
2880.58	733.16667
2882.731	714.16667
2884.881	718.5
2887.03	724.5
2889.177	732.5
2891.322	737.16667
2893.467	739.16667
2895.61	741.83333
2897.751	755.83333
2899.892	752.16667
2902.03	767.5
2904.168	763.16667
2906.304	766.5
2908.439	787.83333
2910.572	775.5
2912.704	787.5
2914.835	777.83333
2916.965	781.5
2919.093	803.16667
2921.219	767.5
2923.345	795.83333
2925.469	757.83333
2927.591	769.83333
2929.712	725.83333
2931.832	737.5
2933.951	730.16667
2936.068	709.16667
2938.184	689.5
2940.299	666.16667
2942.412	659.16667
2944.524	617.83333
2946.634	606.5
2948.744	570.5
2950.851	586.5
2952.958	546.5
2955.063	558.5
2957.167	528.83333
2959.269	504.16667
2961.371	529.83333
2963.471	481.16667
2965.569	490.5
2967.666	467.16667
2969.762	464.5
2971.857	447.16667
2973.95	421.5
2976.042	422.5
2978.133	420.83333
2980.222	400.5
2982.31	385.5
2984.396	378.16667
2986.482	379.83333
2988.566	369.83333
2990.648	362.16667
2992.73	361.83333
2994.81	343.83333
2996.889	350.5
2998.966	356.16667
3001.042	354.83333
3003.117	355.83333
3005.191	348.5
3007.263	341.16667
3009.334	337.16667
3011.403	338.5
3013.472	320.83333
3015.539	332.16667
3017.604	338.16667
3019.669	297.16667
3021.732	310.83333
3023.794	313.16667
3025.854	300.83333
3027.914	292.83333
3029.971	310.16667
3032.028	300.16667
3034.083	297.5
3036.137	296.16667
3038.19	279.16667
3040.242	279.83333
3042.292	265.16667
3044.341	269.83333
3046.388	286.83333
3048.435	259.83333
3050.48	281.16667
3052.524	266.16667
3054.566	258.16667
3056.607	265.5
3058.647	256.83333
3060.686	238.83333
3062.723	239.16667
3064.759	225.83333
3066.794	-0.83333
3068.828	1.83333
3070.86	2.83333
