-0.839	618.04167
3.438	756.04167
7.711	218.70833
11.981	69.375
16.247	47.04167
20.509	54.375
24.768	48.375
29.024	56.375
33.276	46.375
37.524	51.70833
41.769	48.04167
46.01	35.375
50.247	46.375
54.481	64.70833
58.712	63.375
62.939	47.70833
67.162	65.04167
71.382	60.70833
75.599	50.375
79.812	62.70833
84.021	83.375
88.227	61.04167
92.429	63.04167
96.628	52.04167
100.823	76.70833
105.015	77.70833
109.204	67.375
113.388	79.375
117.57	80.04167
121.748	85.04167
125.922	84.375
130.093	102.70833
134.261	98.375
138.425	102.70833
142.585	149.04167
146.742	131.04167
150.896	172.375
155.046	210.04167
159.193	324.04167
163.336	566.375
167.476	1021.70833
171.613	1883.70833
175.746	3149.375
179.875	4678.70833
184.002	6095.375
188.124	7067.375
192.244	7413.70833
196.36	7334.04167
200.472	7133.70833
204.581	6916.375
208.687	6780.70833
212.79	6666.70833
216.889	6632.375
220.984	6625.04167
225.077	6669.70833
229.165	6677.04167
233.251	6703.375
237.333	6638.70833
241.412	6585.04167
245.487	6538.04167
249.559	6466.375
253.628	6410.04167
257.694	6353.04167
261.756	6297.04167
265.814	6148.04167
269.87	5974.70833
273.922	5797.375
277.97	5673.70833
282.016	5578.70833
286.058	5555.04167
290.097	5644.70833
294.132	5705.375
298.164	5663.375
302.193	5422.70833
306.219	5062.375
310.241	4674.70833
314.26	4311.375
318.276	4040.375
322.288	3833.04167
326.297	3630.375
330.303	3541.375
334.305	3434.375
338.305	3368.70833
342.301	3325.375
346.294	3281.375
350.283	3265.70833
354.269	3255.04167
358.252	3198.70833
362.232	3156.375
366.209	3184.375
370.182	3122.375
374.152	3121.04167
378.119	3133.04167
382.083	3097.04167
386.043	3131.04167
390	3096.70833
393.954	3077.375
397.905	3082.375
401.852	3061.375
405.797	3032.375
409.738	3013.04167
413.676	2999.70833
417.61	2983.04167
421.542	2965.04167
425.47	2931.70833
429.396	2913.04167
433.318	2901.04167
437.236	2890.375
441.152	2930.375
445.065	2861.70833
448.974	2846.04167
452.88	2787.375
456.783	2792.04167
460.683	2797.70833
464.58	2776.04167
468.473	2787.70833
472.364	2771.04167
476.251	2774.04167
480.135	2808.375
484.016	2809.70833
487.894	2851.70833
491.769	2852.04167
495.641	2865.04167
499.509	2866.375
503.375	2861.04167
507.237	2845.04167
511.096	2836.04167
514.952	2847.375
518.805	2861.70833
522.655	2890.04167
526.502	2871.70833
530.346	2875.04167
534.187	2901.375
538.024	2892.375
541.859	2899.04167
545.69	2929.70833
549.519	2922.375
553.344	2912.70833
557.166	2873.70833
560.985	2818.375
564.802	2759.375
568.615	2728.375
572.425	2682.375
576.232	2658.375
580.036	2629.70833
583.836	2658.375
587.634	2666.04167
591.429	2680.70833
595.221	2757.375
599.01	2778.70833
602.796	2804.375
606.578	2818.375
610.358	2812.375
614.135	2783.70833
617.909	2779.375
621.679	2741.04167
625.447	2725.04167
629.212	2736.70833
632.973	2752.04167
636.732	2743.04167
640.488	2736.70833
644.241	2701.04167
647.991	2718.375
651.737	2716.375
655.481	2680.375
659.222	2685.70833
662.96	2676.375
666.695	2716.70833
670.427	2733.70833
674.156	2736.04167
677.882	2726.04167
681.605	2702.375
685.325	2688.04167
689.043	2697.375
692.757	2656.375
696.468	2663.70833
700.177	2666.70833
703.882	2654.375
707.585	2637.375
711.284	2623.04167
714.981	2653.04167
718.675	2615.375
722.366	2634.375
726.054	2612.70833
729.739	2613.70833
733.421	2615.04167
737.1	2620.375
740.777	2649.70833
744.45	2650.70833
748.121	2672.375
751.789	2737.375
755.453	2721.375
759.115	2733.70833
762.774	2780.375
766.431	2778.04167
770.084	2821.70833
773.734	2846.375
777.382	2889.04167
781.027	2927.70833
784.669	2953.04167
788.308	2940.04167
791.944	2965.375
795.577	2953.04167
799.208	2984.375
802.835	2975.70833
806.46	3011.70833
810.082	3021.70833
813.701	3010.70833
817.317	3056.70833
820.931	3049.70833
824.542	3044.375
828.149	3013.70833
831.754	2993.70833
835.357	2983.04167
838.956	2997.375
842.553	2988.70833
846.146	2999.375
849.737	2966.04167
853.326	2965.375
856.911	3016.04167
860.493	3045.70833
864.073	3049.70833
867.65	3063.70833
871.225	3129.375
874.796	3125.375
878.365	3148.04167
881.931	3147.375
885.494	3187.375
889.054	3196.375
892.612	3226.70833
896.166	3163.04167
899.719	3147.70833
903.268	3109.375
906.814	3086.375
910.358	3060.375
913.899	3057.375
917.438	3062.70833
920.973	3031.375
924.506	3047.375
928.036	3104.04167
931.564	3160.04167
935.088	3204.04167
938.61	3206.70833
942.129	3256.70833
945.646	3316.04167
949.16	3380.04167
952.671	3441.375
956.179	3429.375
959.685	3387.375
963.188	3336.04167
966.688	3343.04167
970.185	3212.70833
973.68	3139.70833
977.173	3070.04167
980.662	3041.04167
984.149	2997.70833
987.633	3013.375
991.114	3058.375
994.593	3109.04167
998.069	3182.70833
1001.542	3272.70833
1005.013	3226.04167
1008.481	3092.375
1011.947	3039.375
1015.409	3050.70833
1018.869	3040.70833
1022.327	3017.04167
1025.782	2977.70833
1029.234	2970.375
1032.683	2918.04167
1036.13	2823.70833
1039.574	2733.70833
1043.016	2659.70833
1046.455	2586.375
1049.891	2596.04167
1053.325	2621.04167
1056.756	2599.70833
1060.184	2629.70833
1063.61	2628.70833
1067.033	2666.04167
1070.454	2658.375
1073.872	2670.375
1077.287	2658.04167
1080.7	2680.375
1084.11	2650.04167
1087.517	2633.375
1090.922	2604.375
1094.325	2601.04167
1097.724	2573.70833
1101.122	2596.375
1104.516	2586.375
1107.908	2597.04167
1111.298	2637.70833
1114.684	2664.375
1118.069	2727.70833
1121.45	2749.04167
1124.83	2722.70833
1128.206	2785.375
1131.58	2830.04167
1134.951	2907.375
1138.32	3006.375
1141.687	3132.375
1145.05	3223.375
1148.412	3242.04167
1151.77	3223.04167
1155.126	3217.04167
1158.48	3212.04167
1161.831	3242.04167
1165.18	3253.04167
1168.525	3341.70833
1171.869	3316.375
1175.21	3349.70833
1178.548	3397.04167
1181.884	3443.04167
1185.217	3472.375
1188.548	3570.70833
1191.877	3606.70833
1195.202	3710.375
1198.526	3780.375
1201.846	3781.375
1205.165	3750.04167
1208.48	3754.70833
1211.794	3677.375
1215.104	3672.04167
1218.413	3652.70833
1221.719	3653.70833
1225.022	3596.70833
1228.323	3552.375
1231.621	3501.04167
1234.917	3485.04167
1238.21	3499.70833
1241.501	3492.04167
1244.79	3447.04167
1248.076	3473.70833
1251.359	3475.375
1254.64	3557.375
1257.919	3597.375
1261.195	3646.375
1264.468	3705.375
1267.74	3779.375
1271.008	3774.70833
1274.275	3755.70833
1277.538	3728.375
1280.8	3722.375
1284.059	3714.04167
1287.315	3772.70833
1290.569	3782.04167
1293.821	3801.375
1297.07	3792.70833
1300.317	3830.70833
1303.562	3824.375
1306.803	3816.04167
1310.043	3758.04167
1313.28	3758.70833
1316.515	3695.04167
1319.747	3689.375
1322.977	3605.70833
1326.204	3574.375
1329.429	3511.375
1332.652	3477.70833
1335.872	3443.70833
1339.09	3416.04167
1342.306	3384.04167
1345.519	3351.04167
1348.729	3306.375
1351.938	3292.04167
1355.144	3246.70833
1358.347	3212.70833
1361.548	3203.375
1364.747	3199.04167
1367.944	3167.04167
1371.138	3184.70833
1374.329	3192.375
1377.518	3263.70833
1380.705	3273.04167
1383.89	3247.375
1387.072	3153.04167
1390.252	3019.04167
1393.429	2907.375
1396.605	2837.70833
1399.777	2761.04167
1402.948	2724.04167
1406.116	2701.70833
1409.282	2704.04167
1412.445	2695.375
1415.606	2697.70833
1418.765	2746.70833
1421.921	2800.70833
1425.075	2851.375
1428.227	2939.04167
1431.376	3060.04167
1434.524	3171.70833
1437.668	3243.70833
1440.811	3305.70833
1443.951	3329.04167
1447.089	3350.04167
1450.224	3301.04167
1453.357	3318.375
1456.488	3314.375
1459.617	3259.375
1462.743	3240.04167
1465.867	3190.375
1468.989	3136.70833
1472.108	3109.70833
1475.225	3031.375
1478.34	3010.04167
1481.453	3016.375
1484.563	3038.375
1487.671	3072.04167
1490.776	3121.04167
1493.88	3187.04167
1496.981	3266.375
1500.08	3299.70833
1503.176	3376.04167
1506.271	3423.04167
1509.363	3461.04167
1512.452	3476.04167
1515.54	3541.70833
1518.625	3557.375
1521.708	3655.375
1524.789	3740.375
1527.867	3889.375
1530.944	4042.70833
1534.018	4185.70833
1537.089	4333.04167
1540.159	4364.70833
1543.226	4368.04167
1546.291	4303.70833
1549.354	4248.375
1552.415	4164.04167
1555.473	4060.375
1558.529	4044.04167
1561.583	3999.70833
1564.634	4021.375
1567.684	4001.04167
1570.731	4067.70833
1573.776	4142.70833
1576.819	4149.70833
1579.859	4205.70833
1582.898	4291.375
1585.934	4307.375
1588.968	4319.04167
1591.999	4329.375
1595.029	4305.04167
1598.056	4339.04167
1601.081	4345.70833
1604.104	4324.04167
1607.125	4283.04167
1610.144	4186.04167
1613.16	4098.375
1616.174	3957.04167
1619.186	3857.70833
1622.196	3747.70833
1625.203	3630.70833
1628.209	3533.375
1631.212	3465.04167
1634.213	3395.375
1637.212	3362.04167
1640.209	3263.70833
1643.203	3189.375
1646.196	3089.70833
1649.186	2933.70833
1652.174	2845.375
1655.16	2712.04167
1658.144	2626.375
1661.125	2511.375
1664.105	2403.70833
1667.082	2287.70833
1670.057	2181.375
1673.03	2060.04167
1676.001	1946.04167
1678.97	1836.04167
1681.937	1722.04167
1684.901	1631.375
1687.863	1556.70833
1690.824	1510.375
1693.782	1485.375
1696.738	1390.375
1699.692	1373.70833
1702.643	1350.04167
1705.593	1324.375
1708.54	1302.04167
1711.486	1298.70833
1714.429	1262.70833
1717.37	1262.70833
1720.309	1223.375
1723.246	1239.375
1726.181	1226.70833
1729.113	1216.04167
1732.044	1188.04167
1734.972	1180.70833
1737.899	1171.70833
1740.823	1177.70833
1743.745	1134.70833
1746.665	1122.04167
1749.583	1109.375
1752.499	1083.04167
1755.413	1088.375
1758.325	1049.70833
1761.235	1040.375
1764.142	1022.04167
1767.048	1010.375
1769.951	1017.70833
1772.852	1002.70833
1775.752	995.70833
1778.649	1003.70833
1781.544	993.70833
1784.437	966.04167
1787.328	976.70833
1790.217	968.70833
1793.104	944.70833
1795.989	943.375
1798.872	933.04167
1801.753	944.04167
1804.631	934.70833
1807.508	948.04167
1810.383	940.04167
1813.255	925.04167
1816.126	912.70833
1818.994	918.70833
1821.861	906.375
1824.725	905.375
1827.587	912.375
1830.448	899.375
1833.306	874.04167
1836.162	888.04167
1839.017	883.70833
1841.869	873.70833
1844.719	865.70833
1847.567	859.375
1850.414	855.04167
1853.258	851.70833
1856.1	877.04167
1858.94	873.70833
1861.778	862.70833
1864.614	851.375
1867.448	842.70833
1870.28	836.04167
1873.111	868.70833
1875.939	851.70833
1878.765	847.70833
1881.589	843.375
1884.411	836.375
1887.231	853.70833
1890.049	831.04167
1892.865	842.70833
1895.68	825.04167
1898.492	839.70833
1901.302	833.04167
1904.11	819.375
1906.916	805.375
1909.721	796.70833
1912.523	813.04167
1915.323	790.375
1918.122	794.04167
1920.918	804.375
1923.712	795.375
1926.505	784.70833
1929.295	785.04167
1932.084	791.70833
1934.87	785.375
1937.655	778.04167
1940.438	786.04167
1943.218	778.375
1945.997	777.70833
1948.774	799.04167
1951.549	790.70833
1954.322	772.375
1957.093	767.375
1959.862	759.70833
1962.629	761.70833
1965.394	758.04167
1968.157	743.04167
1970.918	754.70833
1973.678	743.375
1976.435	749.375
1979.19	735.70833
1981.944	730.04167
1984.696	740.375
1987.445	732.70833
1990.193	732.04167
1992.939	751.04167
1995.683	723.04167
1998.425	706.375
2001.165	741.375
2003.903	706.04167
2006.639	722.375
2009.374	733.375
2012.106	720.375
2014.837	706.04167
2017.566	720.04167
2020.292	716.04167
2023.017	718.70833
2025.74	710.04167
2028.461	702.04167
2031.18	710.70833
2033.898	690.70833
2036.613	684.70833
2039.327	684.70833
2042.038	681.70833
2044.748	686.04167
2047.456	705.375
2050.162	680.04167
2052.866	675.375
2055.568	694.70833
2058.268	678.375
2060.967	682.04167
2063.663	665.70833
2066.358	676.375
2069.051	665.04167
2071.742	666.70833
2074.431	674.04167
2077.118	664.375
2079.804	650.70833
2082.487	661.375
2085.169	677.375
2087.849	688.70833
2090.527	670.375
2093.203	668.375
2095.877	688.04167
2098.55	680.04167
2101.22	687.70833
2103.889	692.70833
2106.556	673.04167
2109.221	714.04167
2111.884	730.04167
2114.546	764.375
2117.205	815.70833
2119.863	881.04167
2122.519	913.04167
2125.173	989.04167
2127.825	1045.70833
2130.475	1034.04167
2133.124	1019.70833
2135.771	973.375
2138.416	939.70833
2141.059	867.70833
2143.7	827.04167
2146.339	781.70833
2148.977	725.04167
2151.613	745.04167
2154.247	707.375
2156.879	689.04167
2159.51	671.70833
2162.138	658.375
2164.765	668.04167
2167.39	640.04167
2170.013	659.375
2172.634	657.70833
2175.254	650.04167
2177.872	674.70833
2180.488	625.04167
2183.102	625.70833
2185.714	629.70833
2188.325	604.04167
2190.934	620.70833
2193.541	613.04167
2196.146	613.04167
2198.75	591.375
2201.351	597.04167
2203.951	580.70833
2206.549	604.375
2209.146	589.375
2211.74	585.70833
2214.333	595.04167
2216.924	556.04167
2219.514	572.04167
2222.101	555.375
2224.687	577.375
2227.271	563.70833
2229.853	558.04167
2232.433	550.375
2235.012	566.04167
2237.589	560.70833
2240.164	568.70833
2242.738	556.04167
2245.309	539.04167
2247.879	549.70833
2250.448	538.375
2253.014	523.375
2255.579	515.04167
2258.142	515.04167
2260.703	513.04167
2263.262	518.70833
2265.82	504.70833
2268.376	514.375
2270.93	494.375
2273.483	504.375
2276.033	505.04167
2278.583	498.04167
2281.13	479.04167
2283.675	480.04167
2286.219	485.70833
2288.761	486.375
2291.302	502.04167
2293.841	496.04167
2296.377	474.375
2298.913	475.375
2301.446	501.04167
2303.978	489.375
2306.508	475.70833
2309.037	476.04167
2311.563	473.375
2314.088	477.375
2316.612	461.04167
2319.133	465.375
2321.653	467.70833
2324.171	456.375
2326.688	477.70833
2329.202	458.04167
2331.715	464.04167
2334.227	464.70833
2336.736	464.04167
2339.244	455.375
2341.751	445.70833
2344.255	462.04167
2346.758	454.70833
2349.259	443.04167
2351.759	451.375
2354.257	441.04167
2356.753	437.04167
2359.247	439.375
2361.74	457.04167
2364.231	444.04167
2366.721	446.375
2369.209	436.70833
2371.695	442.70833
2374.179	437.375
2376.662	423.375
2379.143	444.70833
2381.622	423.375
2384.1	437.70833
2386.576	427.70833
2389.051	440.70833
2391.524	440.375
2393.995	440.04167
2396.464	423.70833
2398.932	419.375
2401.398	421.04167
2403.863	421.70833
2406.325	411.70833
2408.787	429.70833
2411.246	420.375
2413.704	415.375
2416.16	414.70833
2418.615	410.70833
2421.068	426.04167
2423.519	416.375
2425.969	410.04167
2428.417	415.04167
2430.863	425.375
2433.308	414.70833
2435.751	409.70833
2438.193	405.70833
2440.633	409.04167
2443.071	413.375
2445.508	408.70833
2447.943	407.04167
2450.376	406.04167
2452.808	397.70833
2455.238	398.70833
2457.667	428.70833
2460.093	395.70833
2462.519	391.70833
2464.942	386.375
2467.365	403.04167
2469.785	402.375
2472.204	399.04167
2474.621	386.04167
2477.037	405.70833
2479.451	374.70833
2481.863	382.04167
2484.274	383.04167
2486.683	385.70833
2489.091	406.375
2491.497	377.70833
2493.901	396.70833
2496.304	380.04167
2498.705	396.70833
2501.105	378.375
2503.503	409.375
2505.899	377.70833
2508.294	392.375
2510.687	380.375
2513.079	372.375
2515.469	364.04167
2517.858	376.375
2520.245	393.04167
2522.63	370.70833
2525.014	368.70833
2527.396	366.375
2529.776	355.70833
2532.156	381.04167
2534.533	364.70833
2536.909	366.70833
2539.283	347.70833
2541.656	357.375
2544.027	380.70833
2546.397	363.375
2548.765	361.375
2551.131	368.04167
2553.496	366.70833
2555.86	370.04167
2558.221	366.375
2560.582	358.375
2562.94	357.04167
2565.298	357.375
2567.653	378.375
2570.007	347.375
2572.36	360.70833
2574.711	343.70833
2577.06	370.70833
2579.408	355.375
2581.754	357.70833
2584.099	359.375
2586.442	343.04167
2588.784	357.04167
2591.124	357.04167
2593.463	340.375
2595.8	355.375
2598.135	343.375
2600.469	344.04167
2602.802	361.04167
2605.133	361.375
2607.462	338.70833
2609.79	338.70833
2612.116	352.375
2614.441	351.70833
2616.764	350.70833
2619.086	341.375
2621.406	333.70833
2623.725	360.375
2626.042	353.375
2628.358	334.375
2630.672	338.375
2632.985	359.70833
2635.296	348.375
2637.606	347.70833
2639.914	338.375
2642.22	342.375
2644.525	344.375
2646.829	344.04167
2649.131	362.04167
2651.432	360.04167
2653.731	338.375
2656.028	360.375
2658.324	358.70833
2660.619	350.70833
2662.912	358.04167
2665.204	335.375
2667.494	353.375
2669.782	337.375
2672.07	352.375
2674.355	350.04167
2676.639	349.70833
2678.922	341.04167
2681.203	348.70833
2683.483	335.04167
2685.761	333.375
2688.038	348.70833
2690.313	360.375
2692.587	351.70833
2694.859	347.70833
2697.13	353.375
2699.399	357.70833
2701.667	367.04167
2703.933	361.70833
2706.198	367.04167
2708.461	366.70833
2710.723	373.70833
2712.984	363.70833
2715.243	373.375
2717.5	358.70833
2719.757	373.04167
2722.011	365.375
2724.264	382.04167
2726.516	386.70833
2728.766	370.04167
2731.015	375.04167
2733.262	378.04167
2735.508	378.04167
2737.753	368.70833
2739.996	370.04167
2742.237	359.04167
2744.477	368.375
2746.716	371.375
2748.953	366.375
2751.189	363.375
2753.423	354.375
2755.656	345.70833
2757.887	349.70833
2760.117	351.70833
2762.346	344.375
2764.573	331.04167
2766.798	342.375
2769.022	343.375
2771.245	357.04167
2773.467	349.04167
2775.686	354.04167
2777.905	355.70833
2780.122	360.70833
2782.337	367.375
2784.552	351.70833
2786.764	358.04167
2788.976	360.375
2791.186	360.04167
2793.394	362.04167
2795.601	373.375
2797.807	383.04167
2800.011	387.04167
2802.214	391.04167
2804.415	381.70833
2806.615	395.70833
2808.814	394.04167
2811.011	398.04167
2813.206	398.375
2815.401	415.375
2817.594	421.04167
2819.785	424.375
2821.975	413.375
2824.164	425.04167
2826.351	445.375
2828.537	456.04167
2830.722	454.70833
2832.905	463.375
2835.086	489.375
2837.267	522.375
2839.445	528.375
2841.623	541.70833
2843.799	571.04167
2845.974	586.04167
2848.147	621.70833
2850.319	644.04167
2852.489	673.70833
2854.659	692.04167
2856.826	697.70833
2858.993	729.375
2861.158	711.04167
2863.321	702.04167
2865.483	715.04167
2867.644	726.375
2869.804	725.04167
2871.962	722.70833
2874.118	714.375
2876.274	716.04167
2878.428	714.375
2880.58	713.04167
2882.731	705.04167
2884.881	709.04167
2887.03	722.375
2889.177	727.375
2891.322	733.70833
2893.467	729.04167
2895.61	732.04167
2897.751	765.70833
2899.892	746.70833
2902.03	754.70833
2904.168	749.375
2906.304	747.375
2908.439	776.70833
2910.572	765.70833
2912.704	772.04167
2914.835	784.04167
2916.965	778.375
2919.093	786.375
2921.219	762.04167
2923.345	782.04167
2925.469	754.04167
2927.591	758.70833
2929.712	733.375
2931.832	717.70833
2933.951	719.70833
2936.068	699.70833
2938.184	675.70833
2940.299	656.70833
2942.412	636.70833
2944.524	618.70833
2946.634	601.70833
2948.744	558.375
2950.851	572.70833
2952.958	545.04167
2955.063	533.375
2957.167	519.04167
2959.269	495.04167
2961.371	527.70833
2963.471	472.375
2965.569	494.375
2967.666	455.70833
2969.762	450.04167
2971.857	439.375
2973.95	418.04167
2976.042	419.04167
2978.133	405.375
2980.222	405.70833
2982.31	380.04167
2984.396	358.70833
2986.482	363.70833
2988.566	360.70833
2990.648	361.04167
2992.73	359.70833
2994.81	354.70833
2996.889	349.70833
2998.966	337.70833
3001.042	345.375
3003.117	337.375
3005.191	333.04167
3007.263	338.70833
3009.334	320.70833
3011.403	319.375
3013.472	318.70833
3015.539	321.375
3017.604	326.70833
3019.669	296.70833
3021.732	304.375
3023.794	298.375
3025.854	290.70833
3027.914	288.04167
3029.971	300.375
3032.028	290.70833
3034.083	289.375
3036.137	291.04167
3038.19	275.04167
3040.242	274.04167
3042.292	261.375
3044.341	261.04167
3046.388	276.375
3048.435	251.375
3050.48	270.70833
3052.524	256.70833
3054.566	247.375
3056.607	258.04167
3058.647	244.70833
3060.686	240.04167
3062.723	229.04167
3064.759	216.375
3066.794	0.04167
3068.828	2.375
3070.86	2.70833
