-0.839	435.125
3.438	498.45833
7.711	150.79167
11.981	60.79167
16.247	44.45833
20.509	52.45833
24.768	49.79167
29.024	53.45833
33.276	48.45833
37.524	53.45833
41.769	49.79167
46.01	35.45833
50.247	50.45833
54.481	61.125
58.712	62.125
62.939	52.79167
67.162	67.79167
71.382	61.125
75.599	49.45833
79.812	67.79167
84.021	79.79167
88.227	64.45833
92.429	62.79167
96.628	56.125
100.823	77.125
105.015	75.79167
109.204	68.125
113.388	76.79167
117.57	78.79167
121.748	91.79167
125.922	86.79167
130.093	103.45833
134.261	98.125
138.425	100.45833
142.585	143.79167
146.742	135.125
150.896	165.79167
155.046	199.79167
159.193	295.45833
163.336	499.45833
167.476	915.125
171.613	1669.125
175.746	2843.125
179.875	4244.45833
184.002	5607.79167
188.124	6565.125
192.244	6971.79167
196.36	7011.125
200.472	6944.125
204.581	6781.45833
208.687	6723.79167
212.79	6712.125
216.889	6762.45833
220.984	6835.79167
225.077	6915.79167
229.165	7012.79167
233.251	7043.45833
237.333	7043.45833
241.412	6979.125
245.487	6989.125
249.559	6904.79167
253.628	6910.79167
257.694	6864.45833
261.756	6846.45833
265.814	6670.125
269.87	6498.45833
273.922	6276.125
277.97	6190.125
282.016	6127.45833
286.058	6167.45833
290.097	6348.45833
294.132	6427.125
298.164	6343.125
302.193	6027.125
306.219	5558.79167
310.241	5088.79167
314.26	4669.125
318.276	4336.125
322.288	4111.79167
326.297	3919.125
330.303	3789.45833
334.305	3703.79167
338.305	3659.79167
342.301	3580.79167
346.294	3531.45833
350.283	3538.45833
354.269	3495.45833
358.252	3485.45833
362.232	3465.79167
366.209	3439.79167
370.182	3410.79167
374.152	3388.125
378.119	3382.125
382.083	3395.125
386.043	3387.125
390	3367.125
393.954	3338.125
397.905	3342.79167
401.852	3346.45833
405.797	3310.79167
409.738	3297.125
413.676	3297.125
417.61	3298.125
421.542	3259.79167
425.47	3241.45833
429.396	3228.45833
433.318	3217.125
437.236	3213.125
441.152	3219.125
445.065	3158.45833
448.974	3159.125
452.88	3124.125
456.783	3107.79167
460.683	3115.125
464.58	3122.45833
468.473	3117.45833
472.364	3142.45833
476.251	3144.79167
480.135	3196.45833
484.016	3242.79167
487.894	3227.79167
491.769	3243.79167
495.641	3240.45833
499.509	3252.79167
503.375	3233.125
507.237	3221.125
511.096	3226.45833
514.952	3250.125
518.805	3296.79167
522.655	3311.125
526.502	3225.79167
530.346	3217.79167
534.187	3245.79167
538.024	3258.79167
541.859	3250.79167
545.69	3294.79167
549.519	3288.125
553.344	3242.79167
557.166	3189.125
560.985	3159.45833
564.802	3096.45833
568.615	3047.79167
572.425	2989.125
576.232	2978.125
580.036	2967.45833
583.836	2964.79167
587.634	3015.45833
591.429	3039.125
595.221	3088.79167
599.01	3108.45833
602.796	3125.45833
606.578	3128.79167
610.358	3141.79167
614.135	3137.79167
617.909	3132.45833
621.679	3071.125
625.447	3057.125
629.212	3046.45833
632.973	3067.79167
636.732	3059.125
640.488	3073.125
644.241	3034.45833
647.991	3011.45833
651.737	3063.125
655.481	2979.125
659.222	2984.45833
662.96	2998.79167
666.695	2996.125
670.427	3027.79167
674.156	3062.45833
677.882	3041.125
681.605	3011.79167
685.325	3005.45833
689.043	2976.45833
692.757	2959.125
696.468	2973.125
700.177	2985.79167
703.882	2953.125
707.585	2933.125
711.284	2938.45833
714.981	2947.79167
718.675	2940.45833
722.366	2956.45833
726.054	2940.125
729.739	2918.45833
733.421	2951.45833
737.1	2917.125
740.777	2958.45833
744.45	2985.79167
748.121	3003.79167
751.789	3079.125
755.453	3058.79167
759.115	3067.125
762.774	3082.79167
766.431	3077.125
770.084	3114.45833
773.734	3148.79167
777.382	3226.79167
781.027	3238.125
784.669	3255.45833
788.308	3280.125
791.944	3314.45833
795.577	3330.45833
799.208	3341.79167
802.835	3356.125
806.46	3347.45833
810.082	3361.79167
813.701	3370.79167
817.317	3437.45833
820.931	3418.125
824.542	3424.45833
828.149	3396.79167
831.754	3392.125
835.357	3392.79167
838.956	3378.125
842.553	3381.79167
846.146	3369.45833
849.737	3311.45833
853.326	3358.125
856.911	3344.125
860.493	3393.125
864.073	3402.79167
867.65	3423.45833
871.225	3499.45833
874.796	3486.45833
878.365	3535.45833
881.931	3530.45833
885.494	3523.45833
889.054	3543.125
892.612	3569.45833
896.166	3515.45833
899.719	3485.45833
903.268	3440.125
906.814	3421.45833
910.358	3372.79167
913.899	3339.79167
917.438	3347.79167
920.973	3343.125
924.506	3385.45833
928.036	3440.79167
931.564	3501.79167
935.088	3501.45833
938.61	3534.45833
942.129	3593.45833
945.646	3678.125
949.16	3748.79167
952.671	3796.125
956.179	3775.45833
959.685	3729.125
963.188	3699.79167
966.688	3624.125
970.185	3556.79167
973.68	3486.125
977.173	3422.79167
980.662	3392.79167
984.149	3401.125
987.633	3391.79167
991.114	3441.79167
994.593	3531.45833
998.069	3640.45833
1001.542	3724.79167
1005.013	3658.79167
1008.481	3468.125
1011.947	3380.125
1015.409	3385.79167
1018.869	3387.79167
1022.327	3382.79167
1025.782	3351.79167
1029.234	3329.79167
1032.683	3267.125
1036.13	3167.79167
1039.574	3064.79167
1043.016	2968.79167
1046.455	2906.125
1049.891	2878.125
1053.325	2909.125
1056.756	2905.125
1060.184	2949.125
1063.61	2935.45833
1067.033	2960.79167
1070.454	2970.125
1073.872	3017.125
1077.287	2985.125
1080.7	2996.125
1084.11	2965.125
1087.517	2953.45833
1090.922	2902.125
1094.325	2910.125
1097.724	2878.79167
1101.122	2878.45833
1104.516	2880.79167
1107.908	2879.79167
1111.298	2899.45833
1114.684	2943.125
1118.069	3017.45833
1121.45	3039.79167
1124.83	3030.125
1128.206	3056.125
1131.58	3101.125
1134.951	3189.45833
1138.32	3273.45833
1141.687	3381.125
1145.05	3465.79167
1148.412	3490.79167
1151.77	3450.125
1155.126	3437.45833
1158.48	3460.79167
1161.831	3466.125
1165.18	3471.125
1168.525	3540.45833
1171.869	3584.125
1175.21	3606.45833
1178.548	3623.79167
1181.884	3670.45833
1185.217	3675.125
1188.548	3750.125
1191.877	3818.79167
1195.202	3915.125
1198.526	3998.79167
1201.846	4010.125
1205.165	4024.79167
1208.48	4003.125
1211.794	3983.45833
1215.104	3979.45833
1218.413	3975.79167
1221.719	3966.79167
1225.022	3932.125
1228.323	3878.45833
1231.621	3830.79167
1234.917	3822.125
1238.21	3812.79167
1241.501	3817.45833
1244.79	3798.79167
1248.076	3809.125
1251.359	3833.45833
1254.64	3923.45833
1257.919	3958.79167
1261.195	4038.125
1264.468	4093.79167
1267.74	4140.79167
1271.008	4153.125
1274.275	4098.45833
1277.538	4076.79167
1280.8	4090.45833
1284.059	4066.45833
1287.315	4115.45833
1290.569	4139.125
1293.821	4181.125
1297.07	4195.79167
1300.317	4198.125
1303.562	4194.79167
1306.803	4136.79167
1310.043	4106.45833
1313.28	4082.125
1316.515	4037.45833
1319.747	4011.79167
1322.977	3947.125
1326.204	3914.79167
1329.429	3859.125
1332.652	3803.45833
1335.872	3767.45833
1339.09	3734.79167
1342.306	3712.125
1345.519	3680.125
1348.729	3648.125
1351.938	3639.125
1355.144	3584.125
1358.347	3536.79167
1361.548	3503.45833
1364.747	3519.45833
1367.944	3476.125
1371.138	3491.125
1374.329	3503.79167
1377.518	3544.125
1380.705	3575.79167
1383.89	3503.79167
1387.072	3432.125
1390.252	3290.45833
1393.429	3149.79167
1396.605	3060.79167
1399.777	2991.45833
1402.948	2962.125
1406.116	2957.45833
1409.282	2937.125
1412.445	2931.125
1415.606	3000.79167
1418.765	3001.45833
1421.921	3066.125
1425.075	3156.45833
1428.227	3257.79167
1431.376	3402.79167
1434.524	3533.125
1437.668	3622.79167
1440.811	3671.45833
1443.951	3705.125
1447.089	3669.45833
1450.224	3669.79167
1453.357	3672.45833
1456.488	3627.45833
1459.617	3562.45833
1462.743	3523.45833
1465.867	3429.79167
1468.989	3363.79167
1472.108	3332.125
1475.225	3246.45833
1478.34	3215.45833
1481.453	3188.45833
1484.563	3232.45833
1487.671	3283.45833
1490.776	3342.45833
1493.88	3369.125
1496.981	3428.45833
1500.08	3485.45833
1503.176	3496.79167
1506.271	3534.125
1509.363	3583.125
1512.452	3639.79167
1515.54	3652.45833
1518.625	3720.45833
1521.708	3834.79167
1524.789	3926.125
1527.867	4083.45833
1530.944	4314.125
1534.018	4505.45833
1537.089	4719.79167
1540.159	4770.79167
1543.226	4749.45833
1546.291	4678.125
1549.354	4582.125
1552.415	4459.125
1555.473	4372.125
1558.529	4273.45833
1561.583	4225.45833
1564.634	4197.45833
1567.684	4217.79167
1570.731	4193.79167
1573.776	4230.45833
1576.819	4284.45833
1579.859	4310.79167
1582.898	4315.125
1585.934	4417.79167
1588.968	4401.45833
1591.999	4371.45833
1595.029	4410.125
1598.056	4425.79167
1601.081	4467.125
1604.104	4451.45833
1607.125	4432.79167
1610.144	4330.79167
1613.16	4241.79167
1616.174	4113.125
1619.186	3993.79167
1622.196	3867.79167
1625.203	3803.79167
1628.209	3712.79167
1631.212	3653.125
1634.213	3625.79167
1637.212	3598.125
1640.209	3520.79167
1643.203	3424.79167
1646.196	3342.45833
1649.186	3212.125
1652.174	3097.125
1655.16	3010.45833
1658.144	2914.45833
1661.125	2783.79167
1664.105	2682.79167
1667.082	2541.79167
1670.057	2412.125
1673.03	2279.45833
1676.001	2133.45833
1678.97	2005.79167
1681.937	1864.125
1684.901	1767.79167
1687.863	1715.125
1690.824	1626.125
1693.782	1593.79167
1696.738	1519.79167
1699.692	1496.45833
1702.643	1463.79167
1705.593	1450.125
1708.54	1426.45833
1711.486	1396.45833
1714.429	1376.45833
1717.37	1373.45833
1720.309	1332.125
1723.246	1343.79167
1726.181	1298.125
1729.113	1313.45833
1732.044	1279.125
1734.972	1282.45833
1737.899	1282.45833
1740.823	1271.45833
1743.745	1239.125
1746.665	1222.45833
1749.583	1208.45833
1752.499	1181.45833
1755.413	1188.45833
1758.325	1146.45833
1761.235	1134.125
1764.142	1126.45833
1767.048	1110.125
1769.951	1111.125
1772.852	1097.45833
1775.752	1086.45833
1778.649	1102.79167
1781.544	1084.79167
1784.437	1060.79167
1787.328	1073.79167
1790.217	1050.125
1793.104	1041.125
1795.989	1024.79167
1798.872	1016.79167
1801.753	1044.79167
1804.631	1027.79167
1807.508	1038.79167
1810.383	1026.45833
1813.255	1028.45833
1816.126	1011.45833
1818.994	1013.79167
1821.861	995.79167
1824.725	999.125
1827.587	1009.45833
1830.448	1002.45833
1833.306	972.45833
1836.162	979.125
1839.017	976.125
1841.869	961.125
1844.719	959.125
1847.567	935.125
1850.414	938.79167
1853.258	938.125
1856.1	955.125
1858.94	959.79167
1861.778	942.45833
1864.614	932.45833
1867.448	944.79167
1870.28	914.79167
1873.111	952.125
1875.939	934.125
1878.765	953.125
1881.589	920.45833
1884.411	927.45833
1887.231	929.79167
1890.049	930.79167
1892.865	923.79167
1895.68	907.125
1898.492	917.125
1901.302	908.45833
1904.11	911.125
1906.916	888.79167
1909.721	882.45833
1912.523	887.45833
1915.323	867.45833
1918.122	872.79167
1920.918	889.79167
1923.712	874.125
1926.505	874.45833
1929.295	865.125
1932.084	868.45833
1934.87	875.79167
1937.655	871.79167
1940.438	853.79167
1943.218	854.79167
1945.997	870.79167
1948.774	873.45833
1951.549	878.125
1954.322	857.79167
1957.093	843.79167
1959.862	845.125
1962.629	835.45833
1965.394	841.125
1968.157	821.79167
1970.918	839.45833
1973.678	804.45833
1976.435	833.45833
1979.19	818.45833
1981.944	817.125
1984.696	820.79167
1987.445	810.45833
1990.193	807.45833
1992.939	826.79167
1995.683	804.79167
1998.425	797.45833
2001.165	824.79167
2003.903	804.45833
2006.639	791.79167
2009.374	809.79167
2012.106	790.125
2014.837	785.79167
2017.566	790.79167
2020.292	791.79167
2023.017	788.125
2025.74	790.45833
2028.461	779.45833
2031.18	778.125
2033.898	783.45833
2036.613	780.79167
2039.327	772.125
2042.038	755.45833
2044.748	763.125
2047.456	767.45833
2050.162	759.79167
2052.866	760.45833
2055.568	773.125
2058.268	762.79167
2060.967	766.45833
2063.663	751.125
2066.358	748.125
2069.051	751.45833
2071.742	750.45833
2074.431	758.79167
2077.118	747.125
2079.804	741.45833
2082.487	737.45833
2085.169	752.79167
2087.849	763.45833
2090.527	734.79167
2093.203	754.79167
2095.877	764.125
2098.55	745.79167
2101.22	762.45833
2103.889	767.45833
2106.556	770.125
2109.221	804.125
2111.884	808.125
2114.546	861.45833
2117.205	930.125
2119.863	989.45833
2122.519	1040.125
2125.173	1105.45833
2127.825	1156.45833
2130.475	1144.45833
2133.124	1120.79167
2135.771	1064.45833
2138.416	1038.45833
2141.059	955.45833
2143.7	931.125
2146.339	862.79167
2148.977	822.79167
2151.613	815.45833
2154.247	791.79167
2156.879	783.79167
2159.51	748.79167
2162.138	738.125
2164.765	738.125
2167.39	713.79167
2170.013	727.125
2172.634	723.79167
2175.254	711.79167
2177.872	746.125
2180.488	692.125
2183.102	699.45833
2185.714	694.45833
2188.325	663.125
2190.934	680.125
2193.541	685.79167
2196.146	676.79167
2198.75	659.45833
2201.351	658.125
2203.951	645.79167
2206.549	659.79167
2209.146	651.45833
2211.74	653.125
2214.333	650.79167
2216.924	627.79167
2219.514	644.45833
2222.101	626.79167
2224.687	650.45833
2227.271	632.125
2229.853	618.79167
2232.433	611.125
2235.012	633.79167
2237.589	636.45833
2240.164	647.79167
2242.738	616.125
2245.309	615.45833
2247.879	631.79167
2250.448	616.125
2253.014	606.79167
2255.579	586.79167
2258.142	591.79167
2260.703	580.79167
2263.262	587.125
2265.82	584.125
2268.376	583.79167
2270.93	573.125
2273.483	571.79167
2276.033	584.125
2278.583	576.79167
2281.13	565.79167
2283.675	556.125
2286.219	570.79167
2288.761	565.45833
2291.302	565.79167
2293.841	578.125
2296.377	554.125
2298.913	562.45833
2301.446	572.79167
2303.978	563.79167
2306.508	544.45833
2309.037	549.79167
2311.563	548.45833
2314.088	554.79167
2316.612	531.45833
2319.133	550.45833
2321.653	542.79167
2324.171	539.79167
2326.688	555.79167
2329.202	529.79167
2331.715	537.125
2334.227	534.125
2336.736	533.79167
2339.244	529.45833
2341.751	512.125
2344.255	538.45833
2346.758	526.125
2349.259	520.125
2351.759	530.79167
2354.257	524.45833
2356.753	519.125
2359.247	527.79167
2361.74	532.45833
2364.231	527.125
2366.721	525.125
2369.209	517.45833
2371.695	517.79167
2374.179	513.45833
2376.662	510.125
2379.143	535.79167
2381.622	507.45833
2384.1	521.45833
2386.576	507.45833
2389.051	526.125
2391.524	529.45833
2393.995	529.45833
2396.464	512.125
2398.932	507.79167
2401.398	501.79167
2403.863	502.125
2406.325	503.79167
2408.787	514.45833
2411.246	515.79167
2413.704	507.125
2416.16	506.45833
2418.615	506.125
2421.068	512.45833
2423.519	500.79167
2425.969	498.79167
2428.417	508.125
2430.863	515.79167
2433.308	515.45833
2435.751	506.125
2438.193	501.79167
2440.633	493.45833
2443.071	508.79167
2445.508	493.125
2447.943	485.79167
2450.376	492.45833
2452.808	484.125
2455.238	491.125
2457.667	521.45833
2460.093	490.125
2462.519	481.79167
2464.942	493.45833
2467.365	495.125
2469.785	499.79167
2472.204	489.125
2474.621	489.45833
2477.037	506.79167
2479.451	480.45833
2481.863	479.79167
2484.274	482.79167
2486.683	482.45833
2489.091	493.125
2491.497	481.125
2493.901	497.125
2496.304	481.125
2498.705	492.45833
2501.105	481.45833
2503.503	505.125
2505.899	471.79167
2508.294	496.125
2510.687	490.125
2513.079	478.79167
2515.469	470.79167
2517.858	483.45833
2520.245	486.79167
2522.63	472.45833
2525.014	458.125
2527.396	471.45833
2529.776	466.79167
2532.156	486.125
2534.533	466.79167
2536.909	469.125
2539.283	456.79167
2541.656	459.125
2544.027	485.45833
2546.397	467.79167
2548.765	461.45833
2551.131	471.79167
2553.496	476.45833
2555.86	481.125
2558.221	470.125
2560.582	468.79167
2562.94	462.125
2565.298	470.79167
2567.653	485.79167
2570.007	454.45833
2572.36	481.125
2574.711	467.125
2577.06	490.45833
2579.408	475.125
2581.754	468.125
2584.099	479.125
2586.442	470.45833
2588.784	475.125
2591.124	475.79167
2593.463	477.125
2595.8	470.45833
2598.135	459.45833
2600.469	462.125
2602.802	479.79167
2605.133	480.45833
2607.462	461.45833
2609.79	450.79167
2612.116	478.79167
2614.441	463.79167
2616.764	463.79167
2619.086	480.45833
2621.406	457.45833
2623.725	485.125
2626.042	478.79167
2628.358	470.79167
2630.672	459.79167
2632.985	483.125
2635.296	477.79167
2637.606	474.125
2639.914	464.79167
2642.22	474.125
2644.525	478.125
2646.829	486.125
2649.131	486.79167
2651.432	491.45833
2653.731	481.125
2656.028	488.125
2658.324	498.79167
2660.619	473.79167
2662.912	493.125
2665.204	476.45833
2667.494	499.45833
2669.782	480.45833
2672.07	486.45833
2674.355	497.45833
2676.639	482.79167
2678.922	480.45833
2681.203	474.79167
2683.483	480.79167
2685.761	486.125
2688.038	488.125
2690.313	503.79167
2692.587	486.125
2694.859	491.125
2697.13	496.79167
2699.399	503.125
2701.667	515.125
2703.933	506.125
2706.198	507.79167
2708.461	515.125
2710.723	518.45833
2712.984	521.45833
2715.243	530.79167
2717.5	520.79167
2719.757	536.45833
2722.011	519.125
2724.264	529.79167
2726.516	544.79167
2728.766	528.45833
2731.015	547.125
2733.262	538.45833
2735.508	534.79167
2737.753	540.45833
2739.996	525.125
2742.237	529.45833
2744.477	531.45833
2746.716	526.79167
2748.953	522.45833
2751.189	520.125
2753.423	515.79167
2755.656	505.125
2757.887	504.45833
2760.117	502.125
2762.346	494.125
2764.573	498.79167
2766.798	510.125
2769.022	506.125
2771.245	509.125
2773.467	521.45833
2775.686	511.125
2777.905	522.125
2780.122	535.79167
2782.337	528.45833
2784.552	519.45833
2786.764	524.79167
2788.976	538.125
2791.186	534.79167
2793.394	544.79167
2795.601	548.79167
2797.807	562.79167
2800.011	569.79167
2802.214	567.79167
2804.415	573.45833
2806.615	573.79167
2808.814	570.125
2811.011	582.125
2813.206	586.79167
2815.401	600.125
2817.594	618.125
2819.785	604.125
2821.975	611.79167
2824.164	609.125
2826.351	630.125
2828.537	646.79167
2830.722	654.79167
2832.905	671.79167
2835.086	683.125
2837.267	709.125
2839.445	731.79167
2841.623	750.79167
2843.799	790.79167
2845.974	819.79167
2848.147	845.125
2850.319	867.45833
2852.489	900.45833
2854.659	902.79167
2856.826	921.125
2858.993	960.79167
2861.158	929.79167
2863.321	933.45833
2865.483	965.45833
2867.644	951.79167
2869.804	943.79167
2871.962	950.79167
2874.118	943.79167
2876.274	934.79167
2878.428	946.45833
2880.58	939.45833
2882.731	926.45833
2884.881	933.45833
2887.03	948.45833
2889.177	939.45833
2891.322	963.79167
2893.467	945.79167
2895.61	948.125
2897.751	970.45833
2899.892	957.79167
2902.03	972.45833
2904.168	972.79167
2906.304	978.79167
2908.439	1005.79167
2910.572	970.125
2912.704	993.125
2914.835	991.45833
2916.965	988.79167
2919.093	1001.79167
2921.219	973.79167
2923.345	1010.45833
2925.469	975.45833
2927.591	970.45833
2929.712	938.45833
2931.832	938.79167
2933.951	912.79167
2936.068	901.79167
2938.184	889.45833
2940.299	863.125
2942.412	850.125
2944.524	806.125
2946.634	782.45833
2948.744	753.125
2950.851	781.79167
2952.958	725.79167
2955.063	725.45833
2957.167	729.45833
2959.269	696.125
2961.371	715.79167
2963.471	662.125
2965.569	677.125
2967.666	644.125
2969.762	635.79167
2971.857	624.45833
2973.95	606.45833
2976.042	617.79167
2978.133	594.45833
2980.222	579.125
2982.31	568.125
2984.396	539.45833
2986.482	547.79167
2988.566	534.45833
2990.648	540.45833
2992.73	540.79167
2994.81	526.125
2996.889	525.125
2998.966	517.45833
3001.042	525.79167
3003.117	524.79167
3005.191	527.45833
3007.263	511.45833
3009.334	508.125
3011.403	507.79167
3013.472	488.125
3015.539	494.125
3017.604	496.79167
3019.669	463.79167
3021.732	478.125
3023.794	472.79167
3025.854	456.125
3027.914	461.125
3029.971	468.125
3032.028	464.45833
3034.083	458.125
3036.137	466.45833
3038.19	446.125
3040.242	427.45833
3042.292	425.125
3044.341	418.125
3046.388	429.125
3048.435	405.125
3050.48	426.79167
3052.524	418.45833
3054.566	401.79167
3056.607	412.125
3058.647	397.79167
3060.686	384.45833
3062.723	378.45833
3064.759	360.45833
3066.794	-1.54167
3068.828	3.125
3070.86	2.79167
