-0.839	577.70833
3.438	687.375
7.711	202.04167
11.981	63.70833
16.247	46.375
20.509	51.70833
24.768	47.375
29.024	57.04167
33.276	42.70833
37.524	51.70833
41.769	48.375
46.01	33.70833
50.247	45.04167
54.481	58.04167
58.712	62.04167
62.939	49.70833
67.162	62.375
71.382	55.375
75.599	46.04167
79.812	61.70833
84.021	82.04167
88.227	56.375
92.429	58.70833
96.628	53.04167
100.823	73.04167
105.015	78.375
109.204	65.375
113.388	76.375
117.57	75.70833
121.748	87.70833
125.922	75.70833
130.093	96.04167
134.261	103.04167
138.425	93.70833
142.585	139.70833
146.742	130.375
150.896	163.375
155.046	197.04167
159.193	298.375
163.336	521.70833
167.476	947.375
171.613	1765.70833
175.746	2957.375
179.875	4362.70833
184.002	5616.70833
188.124	6644.04167
192.244	6917.04167
196.36	6807.70833
200.472	6587.375
204.581	6392.04167
208.687	6249.375
212.79	6145.04167
216.889	6141.70833
220.984	6142.70833
225.077	6157.375
229.165	6124.04167
233.251	6107.375
237.333	6074.04167
241.412	5989.375
245.487	5906.04167
249.559	5836.70833
253.628	5820.70833
257.694	5733.04167
261.756	5678.04167
265.814	5546.04167
269.87	5352.375
273.922	5161.04167
277.97	5076.70833
282.016	5057.375
286.058	5081.04167
290.097	5210.375
294.132	5255.375
298.164	5189.375
302.193	4865.70833
306.219	4525.375
310.241	4174.70833
314.26	3821.04167
318.276	3570.70833
322.288	3402.375
326.297	3249.04167
330.303	3139.04167
334.305	3048.04167
338.305	3013.04167
342.301	2954.375
346.294	2939.375
350.283	2876.70833
354.269	2866.70833
358.252	2839.04167
362.232	2825.375
366.209	2803.04167
370.182	2758.70833
374.152	2769.04167
378.119	2775.375
382.083	2783.70833
386.043	2778.70833
390	2735.70833
393.954	2740.04167
397.905	2742.375
401.852	2721.04167
405.797	2689.375
409.738	2676.375
413.676	2661.375
417.61	2653.70833
421.542	2654.375
425.47	2625.70833
429.396	2625.04167
433.318	2601.70833
437.236	2598.70833
441.152	2609.04167
445.065	2551.04167
448.974	2552.70833
452.88	2524.04167
456.783	2517.375
460.683	2492.04167
464.58	2503.70833
468.473	2492.70833
472.364	2511.70833
476.251	2504.70833
480.135	2525.375
484.016	2559.375
487.894	2568.70833
491.769	2594.70833
495.641	2592.375
499.509	2594.70833
503.375	2592.04167
507.237	2573.04167
511.096	2569.70833
514.952	2589.04167
518.805	2620.70833
522.655	2616.04167
526.502	2582.04167
530.346	2577.04167
534.187	2568.375
538.024	2597.04167
541.859	2599.04167
545.69	2631.375
549.519	2617.04167
553.344	2591.04167
557.166	2552.04167
560.985	2528.04167
564.802	2463.70833
568.615	2431.70833
572.425	2385.04167
576.232	2408.70833
580.036	2381.04167
583.836	2395.70833
587.634	2420.70833
591.429	2384.04167
595.221	2454.70833
599.01	2481.70833
602.796	2502.375
606.578	2501.04167
610.358	2506.04167
614.135	2477.04167
617.909	2483.70833
621.679	2466.70833
625.447	2443.04167
629.212	2445.04167
632.973	2433.04167
636.732	2430.04167
640.488	2450.04167
644.241	2425.04167
647.991	2404.375
651.737	2415.375
655.481	2386.70833
659.222	2398.70833
662.96	2399.375
666.695	2397.70833
670.427	2433.04167
674.156	2429.04167
677.882	2413.375
681.605	2404.375
685.325	2392.04167
689.043	2399.375
692.757	2377.70833
696.468	2368.375
700.177	2363.70833
703.882	2360.04167
707.585	2352.375
711.284	2341.70833
714.981	2332.04167
718.675	2380.04167
722.366	2386.04167
726.054	2338.70833
729.739	2338.375
733.421	2370.04167
737.1	2357.375
740.777	2382.375
744.45	2420.04167
748.121	2414.70833
751.789	2480.04167
755.453	2451.04167
759.115	2463.04167
762.774	2475.70833
766.431	2497.375
770.084	2517.375
773.734	2534.04167
777.382	2573.70833
781.027	2605.04167
784.669	2612.375
788.308	2631.70833
791.944	2647.375
795.577	2657.375
799.208	2676.04167
802.835	2703.375
806.46	2732.375
810.082	2720.70833
813.701	2746.04167
817.317	2755.375
820.931	2774.04167
824.542	2775.04167
828.149	2741.70833
831.754	2737.375
835.357	2731.70833
838.956	2717.04167
842.553	2728.375
846.146	2663.70833
849.737	2658.375
853.326	2680.04167
856.911	2683.70833
860.493	2713.70833
864.073	2727.04167
867.65	2771.375
871.225	2780.375
874.796	2783.04167
878.365	2815.04167
881.931	2827.70833
885.494	2834.04167
889.054	2814.375
892.612	2842.375
896.166	2820.70833
899.719	2794.375
903.268	2746.04167
906.814	2767.04167
910.358	2720.04167
913.899	2701.375
917.438	2713.04167
920.973	2689.375
924.506	2771.70833
928.036	2799.04167
931.564	2797.04167
935.088	2844.70833
938.61	2859.375
942.129	2916.04167
945.646	2976.04167
949.16	3035.70833
952.671	3042.70833
956.179	3041.375
959.685	2991.375
963.188	2993.04167
966.688	2949.70833
970.185	2868.375
973.68	2843.70833
977.173	2779.04167
980.662	2778.375
984.149	2746.70833
987.633	2747.70833
991.114	2803.375
994.593	2857.375
998.069	2933.04167
1001.542	3028.375
1005.013	2980.375
1008.481	2816.375
1011.947	2731.375
1015.409	2714.70833
1018.869	2724.375
1022.327	2719.375
1025.782	2715.04167
1029.234	2703.04167
1032.683	2648.04167
1036.13	2579.04167
1039.574	2478.375
1043.016	2411.375
1046.455	2385.375
1049.891	2351.375
1053.325	2355.375
1056.756	2378.70833
1060.184	2390.04167
1063.61	2399.70833
1067.033	2399.70833
1070.454	2433.04167
1073.872	2409.70833
1077.287	2417.375
1080.7	2435.375
1084.11	2429.04167
1087.517	2426.375
1090.922	2367.70833
1094.325	2359.375
1097.724	2321.04167
1101.122	2322.70833
1104.516	2321.375
1107.908	2314.375
1111.298	2344.04167
1114.684	2387.04167
1118.069	2423.375
1121.45	2464.04167
1124.83	2434.70833
1128.206	2468.04167
1131.58	2493.70833
1134.951	2571.04167
1138.32	2650.04167
1141.687	2750.375
1145.05	2795.375
1148.412	2800.375
1151.77	2819.375
1155.126	2774.04167
1158.48	2785.70833
1161.831	2788.375
1165.18	2810.04167
1168.525	2861.04167
1171.869	2878.70833
1175.21	2904.70833
1178.548	2924.70833
1181.884	2945.375
1185.217	2964.70833
1188.548	3027.70833
1191.877	3104.70833
1195.202	3176.70833
1198.526	3269.375
1201.846	3292.04167
1205.165	3267.04167
1208.48	3234.04167
1211.794	3242.70833
1215.104	3253.70833
1218.413	3263.70833
1221.719	3218.04167
1225.022	3219.70833
1228.323	3162.70833
1231.621	3140.70833
1234.917	3109.375
1238.21	3129.70833
1241.501	3118.70833
1244.79	3105.375
1248.076	3109.04167
1251.359	3125.375
1254.64	3216.70833
1257.919	3215.375
1261.195	3259.04167
1264.468	3334.04167
1267.74	3372.70833
1271.008	3355.70833
1274.275	3343.375
1277.538	3333.70833
1280.8	3311.70833
1284.059	3321.04167
1287.315	3351.375
1290.569	3380.04167
1293.821	3416.04167
1297.07	3429.04167
1300.317	3437.375
1303.562	3412.04167
1306.803	3380.04167
1310.043	3365.04167
1313.28	3342.375
1316.515	3299.04167
1319.747	3259.70833
1322.977	3223.70833
1326.204	3184.04167
1329.429	3144.70833
1332.652	3117.375
1335.872	3090.70833
1339.09	3051.375
1342.306	3050.70833
1345.519	3051.70833
1348.729	3029.04167
1351.938	3015.70833
1355.144	2950.375
1358.347	2926.375
1361.548	2912.70833
1364.747	2938.375
1367.944	2907.04167
1371.138	2922.375
1374.329	2918.04167
1377.518	2949.04167
1380.705	2987.70833
1383.89	2935.375
1387.072	2824.04167
1390.252	2750.375
1393.429	2641.70833
1396.605	2581.04167
1399.777	2478.04167
1402.948	2484.04167
1406.116	2444.70833
1409.282	2421.04167
1412.445	2442.70833
1415.606	2453.375
1418.765	2493.70833
1421.921	2552.375
1425.075	2607.375
1428.227	2686.04167
1431.376	2793.70833
1434.524	2916.04167
1437.668	3002.375
1440.811	3033.04167
1443.951	3054.375
1447.089	3055.70833
1450.224	3046.70833
1453.357	3033.70833
1456.488	3002.70833
1459.617	2961.375
1462.743	2900.70833
1465.867	2832.375
1468.989	2817.70833
1472.108	2721.375
1475.225	2696.70833
1478.34	2652.375
1481.453	2643.70833
1484.563	2639.70833
1487.671	2701.70833
1490.776	2742.70833
1493.88	2769.70833
1496.981	2825.70833
1500.08	2847.04167
1503.176	2877.375
1506.271	2934.04167
1509.363	2957.04167
1512.452	3005.375
1515.54	3036.04167
1518.625	3074.04167
1521.708	3173.04167
1524.789	3256.375
1527.867	3363.375
1530.944	3534.375
1534.018	3695.70833
1537.089	3873.375
1540.159	3910.375
1543.226	3937.375
1546.291	3852.70833
1549.354	3779.70833
1552.415	3664.375
1555.473	3584.04167
1558.529	3513.04167
1561.583	3463.375
1564.634	3450.375
1567.684	3456.375
1570.731	3468.70833
1573.776	3490.04167
1576.819	3521.70833
1579.859	3551.375
1582.898	3594.70833
1585.934	3639.04167
1588.968	3633.04167
1591.999	3609.375
1595.029	3640.375
1598.056	3643.70833
1601.081	3668.375
1604.104	3646.70833
1607.125	3616.375
1610.144	3546.375
1613.16	3457.04167
1616.174	3388.375
1619.186	3302.375
1622.196	3200.04167
1625.203	3112.375
1628.209	3049.375
1631.212	2984.70833
1634.213	2990.04167
1637.212	2985.04167
1640.209	2926.70833
1643.203	2862.04167
1646.196	2797.70833
1649.186	2683.04167
1652.174	2604.375
1655.16	2498.04167
1658.144	2466.70833
1661.125	2347.375
1664.105	2270.375
1667.082	2138.04167
1670.057	2046.70833
1673.03	1908.04167
1676.001	1793.70833
1678.97	1676.04167
1681.937	1555.375
1684.901	1486.375
1687.863	1433.70833
1690.824	1362.375
1693.782	1357.70833
1696.738	1296.04167
1699.692	1262.375
1702.643	1218.70833
1705.593	1231.70833
1708.54	1187.04167
1711.486	1188.04167
1714.429	1151.375
1717.37	1152.70833
1720.309	1135.70833
1723.246	1125.04167
1726.181	1103.375
1729.113	1108.04167
1732.044	1076.375
1734.972	1086.375
1737.899	1078.375
1740.823	1082.375
1743.745	1053.04167
1746.665	1024.04167
1749.583	1003.70833
1752.499	1001.70833
1755.413	987.04167
1758.325	977.04167
1761.235	962.375
1764.142	958.04167
1767.048	922.04167
1769.951	927.04167
1772.852	927.375
1775.752	928.375
1778.649	920.70833
1781.544	911.04167
1784.437	899.375
1787.328	911.375
1790.217	892.04167
1793.104	869.04167
1795.989	873.04167
1798.872	872.375
1801.753	869.70833
1804.631	873.70833
1807.508	882.70833
1810.383	861.375
1813.255	873.70833
1816.126	858.04167
1818.994	849.375
1821.861	842.04167
1824.725	857.375
1827.587	845.04167
1830.448	830.375
1833.306	816.375
1836.162	823.04167
1839.017	829.70833
1841.869	831.375
1844.719	808.375
1847.567	807.04167
1850.414	799.70833
1853.258	797.375
1856.1	815.375
1858.94	819.04167
1861.778	802.375
1864.614	791.04167
1867.448	790.04167
1870.28	793.375
1873.111	808.70833
1875.939	801.04167
1878.765	809.375
1881.589	778.375
1884.411	787.375
1887.231	786.04167
1890.049	777.70833
1892.865	781.04167
1895.68	770.70833
1898.492	774.70833
1901.302	767.70833
1904.11	772.04167
1906.916	762.70833
1909.721	751.375
1912.523	764.04167
1915.323	743.70833
1918.122	740.375
1920.918	759.375
1923.712	739.375
1926.505	738.04167
1929.295	726.70833
1932.084	752.375
1934.87	739.375
1937.655	746.375
1940.438	730.04167
1943.218	737.04167
1945.997	741.70833
1948.774	737.04167
1951.549	741.70833
1954.322	716.04167
1957.093	711.70833
1959.862	710.375
1962.629	711.375
1965.394	714.04167
1968.157	702.375
1970.918	711.375
1973.678	696.375
1976.435	715.375
1979.19	690.04167
1981.944	690.375
1984.696	691.375
1987.445	673.375
1990.193	686.04167
1992.939	692.70833
1995.683	682.70833
1998.425	671.375
2001.165	706.375
2003.903	673.375
2006.639	674.70833
2009.374	672.04167
2012.106	682.375
2014.837	659.04167
2017.566	678.70833
2020.292	670.375
2023.017	679.04167
2025.74	669.375
2028.461	663.375
2031.18	658.04167
2033.898	656.70833
2036.613	650.70833
2039.327	665.04167
2042.038	651.70833
2044.748	645.375
2047.456	659.04167
2050.162	633.70833
2052.866	649.375
2055.568	645.70833
2058.268	638.375
2060.967	643.04167
2063.663	637.70833
2066.358	633.375
2069.051	621.04167
2071.742	630.04167
2074.431	630.04167
2077.118	629.375
2079.804	625.375
2082.487	624.04167
2085.169	645.04167
2087.849	647.375
2090.527	624.04167
2093.203	635.04167
2095.877	645.375
2098.55	638.70833
2101.22	650.375
2103.889	662.04167
2106.556	659.375
2109.221	690.04167
2111.884	693.04167
2114.546	753.70833
2117.205	794.04167
2119.863	842.70833
2122.519	891.04167
2125.173	955.70833
2127.825	1009.375
2130.475	1000.375
2133.124	956.375
2135.771	931.375
2138.416	881.04167
2141.059	828.70833
2143.7	792.70833
2146.339	736.375
2148.977	697.70833
2151.613	697.375
2154.247	683.375
2156.879	667.70833
2159.51	641.375
2162.138	636.04167
2164.765	625.70833
2167.39	611.04167
2170.013	629.375
2172.634	622.375
2175.254	606.375
2177.872	626.375
2180.488	593.04167
2183.102	599.70833
2185.714	582.04167
2188.325	566.70833
2190.934	574.375
2193.541	581.70833
2196.146	582.04167
2198.75	552.375
2201.351	558.375
2203.951	550.70833
2206.549	567.04167
2209.146	554.375
2211.74	552.70833
2214.333	556.70833
2216.924	530.04167
2219.514	541.375
2222.101	525.70833
2224.687	551.04167
2227.271	536.375
2229.853	533.04167
2232.433	522.04167
2235.012	550.375
2237.589	532.04167
2240.164	540.04167
2242.738	513.04167
2245.309	509.70833
2247.879	522.70833
2250.448	529.375
2253.014	508.375
2255.579	505.375
2258.142	503.04167
2260.703	493.375
2263.262	505.375
2265.82	492.375
2268.376	494.04167
2270.93	490.04167
2273.483	482.70833
2276.033	497.04167
2278.583	484.04167
2281.13	475.04167
2283.675	473.70833
2286.219	473.375
2288.761	474.04167
2291.302	489.70833
2293.841	491.375
2296.377	464.70833
2298.913	481.375
2301.446	492.375
2303.978	474.375
2306.508	469.04167
2309.037	472.04167
2311.563	468.375
2314.088	483.70833
2316.612	447.04167
2319.133	466.70833
2321.653	466.70833
2324.171	450.70833
2326.688	475.04167
2329.202	455.70833
2331.715	460.70833
2334.227	452.04167
2336.736	458.375
2339.244	451.375
2341.751	442.04167
2344.255	455.375
2346.758	451.04167
2349.259	440.375
2351.759	452.375
2354.257	447.04167
2356.753	434.04167
2359.247	441.70833
2361.74	450.375
2364.231	445.375
2366.721	444.70833
2369.209	441.70833
2371.695	443.375
2374.179	433.04167
2376.662	430.375
2379.143	447.375
2381.622	431.70833
2384.1	448.04167
2386.576	442.70833
2389.051	459.70833
2391.524	459.04167
2393.995	438.375
2396.464	433.70833
2398.932	437.04167
2401.398	424.70833
2403.863	431.70833
2406.325	431.04167
2408.787	430.04167
2411.246	430.375
2413.704	435.04167
2416.16	419.70833
2418.615	423.375
2421.068	443.375
2423.519	433.375
2425.969	421.70833
2428.417	424.04167
2430.863	445.375
2433.308	435.70833
2435.751	422.70833
2438.193	425.70833
2440.633	428.04167
2443.071	429.04167
2445.508	423.04167
2447.943	415.375
2450.376	410.70833
2452.808	412.375
2455.238	416.70833
2457.667	448.70833
2460.093	423.04167
2462.519	406.375
2464.942	418.04167
2467.365	418.70833
2469.785	429.375
2472.204	412.375
2474.621	409.70833
2477.037	434.70833
2479.451	413.70833
2481.863	404.375
2484.274	416.04167
2486.683	416.04167
2489.091	416.70833
2491.497	411.70833
2493.901	412.04167
2496.304	404.375
2498.705	418.70833
2501.105	414.375
2503.503	434.04167
2505.899	391.04167
2508.294	421.375
2510.687	413.375
2513.079	414.04167
2515.469	398.04167
2517.858	412.375
2520.245	418.04167
2522.63	410.375
2525.014	395.04167
2527.396	399.04167
2529.776	400.04167
2532.156	416.375
2534.533	399.70833
2536.909	397.70833
2539.283	382.04167
2541.656	387.375
2544.027	421.04167
2546.397	395.375
2548.765	387.375
2551.131	402.04167
2553.496	405.375
2555.86	406.70833
2558.221	399.04167
2560.582	397.70833
2562.94	386.70833
2565.298	400.04167
2567.653	417.375
2570.007	393.04167
2572.36	406.04167
2574.711	401.04167
2577.06	418.375
2579.408	402.70833
2581.754	404.375
2584.099	405.04167
2586.442	399.70833
2588.784	395.375
2591.124	402.375
2593.463	407.375
2595.8	403.70833
2598.135	388.04167
2600.469	396.04167
2602.802	414.375
2605.133	411.04167
2607.462	395.04167
2609.79	392.04167
2612.116	408.04167
2614.441	408.375
2616.764	405.04167
2619.086	403.70833
2621.406	390.04167
2623.725	419.70833
2626.042	405.70833
2628.358	396.375
2630.672	398.375
2632.985	418.70833
2635.296	403.04167
2637.606	404.375
2639.914	400.375
2642.22	402.375
2644.525	406.375
2646.829	407.04167
2649.131	417.04167
2651.432	421.375
2653.731	410.04167
2656.028	422.375
2658.324	423.04167
2660.619	402.375
2662.912	428.04167
2665.204	397.375
2667.494	422.70833
2669.782	403.375
2672.07	421.70833
2674.355	419.375
2676.639	412.375
2678.922	402.375
2681.203	422.375
2683.483	407.70833
2685.761	402.70833
2688.038	413.375
2690.313	441.375
2692.587	420.375
2694.859	414.375
2697.13	425.375
2699.399	432.375
2701.667	433.375
2703.933	432.04167
2706.198	444.375
2708.461	443.70833
2710.723	449.70833
2712.984	438.04167
2715.243	439.04167
2717.5	437.375
2719.757	448.375
2722.011	448.375
2724.264	459.04167
2726.516	464.375
2728.766	446.375
2731.015	450.04167
2733.262	450.04167
2735.508	442.04167
2737.753	461.04167
2739.996	439.375
2742.237	434.04167
2744.477	453.375
2746.716	444.375
2748.953	437.70833
2751.189	449.375
2753.423	432.70833
2755.656	440.375
2757.887	436.70833
2760.117	433.70833
2762.346	431.04167
2764.573	423.375
2766.798	437.375
2769.022	432.375
2771.245	436.04167
2773.467	439.70833
2775.686	447.375
2777.905	441.375
2780.122	449.04167
2782.337	450.70833
2784.552	449.375
2786.764	453.70833
2788.976	452.70833
2791.186	459.70833
2793.394	469.70833
2795.601	466.04167
2797.807	483.375
2800.011	487.04167
2802.214	494.375
2804.415	475.04167
2806.615	490.04167
2808.814	499.375
2811.011	500.375
2813.206	500.70833
2815.401	516.70833
2817.594	519.70833
2819.785	524.375
2821.975	516.04167
2824.164	524.04167
2826.351	544.04167
2828.537	550.04167
2830.722	566.04167
2832.905	566.04167
2835.086	589.375
2837.267	614.04167
2839.445	623.04167
2841.623	634.375
2843.799	646.70833
2845.974	685.70833
2848.147	702.70833
2850.319	732.70833
2852.489	755.375
2854.659	761.375
2856.826	764.04167
2858.993	796.70833
2861.158	784.04167
2863.321	785.04167
2865.483	786.04167
2867.644	787.70833
2869.804	773.04167
2871.962	784.375
2874.118	779.375
2876.274	785.375
2878.428	771.04167
2880.58	766.04167
2882.731	769.375
2884.881	772.04167
2887.03	783.04167
2889.177	769.04167
2891.322	791.04167
2893.467	786.70833
2895.61	769.375
2897.751	810.70833
2899.892	783.04167
2902.03	799.04167
2904.168	812.375
2906.304	809.04167
2908.439	835.375
2910.572	805.70833
2912.704	822.375
2914.835	825.04167
2916.965	815.04167
2919.093	829.70833
2921.219	810.04167
2923.345	827.70833
2925.469	798.04167
2927.591	811.375
2929.712	776.70833
2931.832	775.70833
2933.951	751.375
2936.068	745.375
2938.184	721.70833
2940.299	702.70833
2942.412	701.04167
2944.524	678.04167
2946.634	666.04167
2948.744	623.70833
2950.851	653.04167
2952.958	615.70833
2955.063	616.04167
2957.167	602.70833
2959.269	569.70833
2961.371	598.70833
2963.471	574.375
2965.569	568.70833
2967.666	553.04167
2969.762	549.375
2971.857	535.04167
2973.95	515.70833
2976.042	525.375
2978.133	514.375
2980.222	495.70833
2982.31	492.70833
2984.396	456.70833
2986.482	463.04167
2988.566	470.70833
2990.648	455.70833
2992.73	455.70833
2994.81	445.375
2996.889	458.375
2998.966	448.70833
3001.042	463.70833
3003.117	444.375
3005.191	447.375
3007.263	453.04167
3009.334	431.70833
3011.403	451.70833
3013.472	433.04167
3015.539	435.375
3017.604	439.70833
3019.669	403.70833
3021.732	408.70833
3023.794	417.375
3025.854	408.70833
3027.914	403.04167
3029.971	413.375
3032.028	406.70833
3034.083	401.70833
3036.137	399.70833
3038.19	382.70833
3040.242	369.04167
3042.292	373.04167
3044.341	369.70833
3046.388	378.375
3048.435	357.375
3050.48	370.375
3052.524	371.375
3054.566	351.04167
3056.607	365.375
3058.647	353.375
3060.686	340.04167
3062.723	323.70833
3064.759	313.70833
3066.794	-0.95833
3068.828	2.04167
3070.86	3.375
