-0.839	606.83333
3.438	727.5
7.711	217.83333
11.981	66.5
16.247	49.5
20.509	54.83333
24.768	49.16667
29.024	55.83333
33.276	49.5
37.524	52.83333
41.769	46.5
46.01	34.16667
50.247	48.16667
54.481	62.5
58.712	63.16667
62.939	50.83333
67.162	65.16667
71.382	59.83333
75.599	47.5
79.812	62.16667
84.021	85.16667
88.227	58.83333
92.429	63.5
96.628	54.83333
100.823	72.5
105.015	80.83333
109.204	72.5
113.388	79.5
117.57	80.16667
121.748	91.16667
125.922	80.16667
130.093	103.83333
134.261	103.16667
138.425	100.5
142.585	140.16667
146.742	132.16667
150.896	167.16667
155.046	209.16667
159.193	316.16667
163.336	537.5
167.476	985.5
171.613	1806.83333
175.746	3034.5
179.875	4486.5
184.002	5875.5
188.124	6864.5
192.244	7206.5
196.36	7140.83333
200.472	6947.5
204.581	6749.83333
208.687	6595.16667
212.79	6563.16667
216.889	6506.16667
220.984	6584.83333
225.077	6557.5
229.165	6516.16667
233.251	6540.83333
237.333	6495.16667
241.412	6397.16667
245.487	6347.16667
249.559	6266.5
253.628	6235.16667
257.694	6226.16667
261.756	6150.5
265.814	6060.83333
269.87	5887.83333
273.922	5735.16667
277.97	5652.5
282.016	5554.5
286.058	5622.83333
290.097	5703.83333
294.132	5772.5
298.164	5733.83333
302.193	5510.83333
306.219	5192.5
310.241	4833.16667
314.26	4501.16667
318.276	4275.83333
322.288	4098.83333
326.297	3956.83333
330.303	3869.83333
334.305	3798.5
338.305	3763.16667
342.301	3726.16667
346.294	3705.5
350.283	3697.16667
354.269	3686.5
358.252	3665.5
362.232	3662.5
366.209	3636.5
370.182	3605.16667
374.152	3609.83333
378.119	3632.16667
382.083	3582.83333
386.043	3617.83333
390	3606.16667
393.954	3609.83333
397.905	3607.5
401.852	3603.83333
405.797	3570.16667
409.738	3568.83333
413.676	3587.16667
417.61	3589.5
421.542	3573.16667
425.47	3551.83333
429.396	3538.16667
433.318	3507.83333
437.236	3487.16667
441.152	3532.5
445.065	3460.83333
448.974	3470.5
452.88	3432.5
456.783	3446.83333
460.683	3436.5
464.58	3432.83333
468.473	3472.83333
472.364	3479.83333
476.251	3491.5
480.135	3518.5
484.016	3559.16667
487.894	3582.16667
491.769	3576.16667
495.641	3574.83333
499.509	3586.16667
503.375	3594.83333
507.237	3597.16667
511.096	3604.5
514.952	3747.16667
518.805	3951.83333
522.655	4016.16667
526.502	3740.16667
530.346	3570.5
534.187	3557.5
538.024	3533.83333
541.859	3538.83333
545.69	3581.5
549.519	3547.16667
553.344	3531.5
557.166	3469.83333
560.985	3436.83333
564.802	3422.16667
568.615	3357.83333
572.425	3296.83333
576.232	3307.16667
580.036	3305.16667
583.836	3318.5
587.634	3335.5
591.429	3349.5
595.221	3406.5
599.01	3411.83333
602.796	3443.16667
606.578	3473.5
610.358	3465.5
614.135	3430.5
617.909	3404.83333
621.679	3392.83333
625.447	3387.16667
629.212	3394.16667
632.973	3399.83333
636.732	3393.5
640.488	3336.16667
644.241	3341.83333
647.991	3365.83333
651.737	3342.83333
655.481	3323.16667
659.222	3357.83333
662.96	3308.16667
666.695	3365.83333
670.427	3358.83333
674.156	3384.83333
677.882	3341.83333
681.605	3334.5
685.325	3323.83333
689.043	3329.83333
692.757	3325.83333
696.468	3315.5
700.177	3283.5
703.882	3251.83333
707.585	3241.83333
711.284	3243.16667
714.981	3250.5
718.675	3223.16667
722.366	3256.83333
726.054	3229.5
729.739	3201.83333
733.421	3232.5
737.1	3225.83333
740.777	3249.5
744.45	3252.16667
748.121	3242.5
751.789	3303.5
755.453	3324.5
759.115	3325.5
762.774	3319.83333
766.431	3328.5
770.084	3351.83333
773.734	3376.5
777.382	3383.5
781.027	3404.5
784.669	3427.5
788.308	3441.16667
791.944	3440.5
795.577	3449.5
799.208	3480.16667
802.835	3517.16667
806.46	3508.83333
810.082	3509.83333
813.701	3522.5
817.317	3565.83333
820.931	3555.83333
824.542	3558.83333
828.149	3496.83333
831.754	3444.16667
835.357	3447.5
838.956	3451.83333
842.553	3438.16667
846.146	3423.83333
849.737	3367.83333
853.326	3379.83333
856.911	3369.5
860.493	3385.83333
864.073	3412.5
867.65	3418.16667
871.225	3454.5
874.796	3446.16667
878.365	3478.16667
881.931	3473.83333
885.494	3522.83333
889.054	3517.83333
892.612	3524.16667
896.166	3480.5
899.719	3428.5
903.268	3409.5
906.814	3393.5
910.358	3373.5
913.899	3323.83333
917.438	3327.5
920.973	3298.83333
924.506	3347.16667
928.036	3403.83333
931.564	3473.5
935.088	3497.83333
938.61	3522.83333
942.129	3528.16667
945.646	3578.16667
949.16	3618.5
952.671	3679.16667
956.179	3662.5
959.685	3630.5
963.188	3646.83333
966.688	3612.83333
970.185	3511.16667
973.68	3446.16667
977.173	3416.83333
980.662	3373.83333
984.149	3386.16667
987.633	3358.83333
991.114	3396.16667
994.593	3451.5
998.069	3501.5
1001.542	3598.5
1005.013	3534.5
1008.481	3377.16667
1011.947	3329.83333
1015.409	3285.5
1018.869	3291.83333
1022.327	3295.83333
1025.782	3290.5
1029.234	3262.16667
1032.683	3219.16667
1036.13	3098.5
1039.574	3018.83333
1043.016	2953.16667
1046.455	2889.83333
1049.891	2884.83333
1053.325	2911.83333
1056.756	2889.83333
1060.184	2919.5
1063.61	2904.16667
1067.033	2943.83333
1070.454	2938.5
1073.872	2948.5
1077.287	2955.83333
1080.7	2958.16667
1084.11	2953.16667
1087.517	2927.16667
1090.922	2877.5
1094.325	2843.83333
1097.724	2815.5
1101.122	2816.83333
1104.516	2820.16667
1107.908	2802.5
1111.298	2856.16667
1114.684	2882.83333
1118.069	2900.83333
1121.45	2921.5
1124.83	2913.16667
1128.206	2948.83333
1131.58	2978.16667
1134.951	3025.83333
1138.32	3117.16667
1141.687	3187.5
1145.05	3246.16667
1148.412	3251.16667
1151.77	3245.83333
1155.126	3240.5
1158.48	3209.83333
1161.831	3212.16667
1165.18	3217.5
1168.525	3251.16667
1171.869	3292.5
1175.21	3292.83333
1178.548	3344.5
1181.884	3336.5
1185.217	3380.16667
1188.548	3463.16667
1191.877	3516.83333
1195.202	3568.83333
1198.526	3649.83333
1201.846	3683.16667
1205.165	3686.5
1208.48	3661.16667
1211.794	3667.5
1215.104	3664.16667
1218.413	3692.83333
1221.719	3674.83333
1225.022	3636.5
1228.323	3556.83333
1231.621	3546.5
1234.917	3515.16667
1238.21	3532.16667
1241.501	3508.5
1244.79	3540.5
1248.076	3470.83333
1251.359	3536.5
1254.64	3600.16667
1257.919	3616.5
1261.195	3658.83333
1264.468	3734.5
1267.74	3780.16667
1271.008	3771.16667
1274.275	3774.5
1277.538	3723.83333
1280.8	3757.5
1284.059	3733.5
1287.315	3756.5
1290.569	3749.16667
1293.821	3757.16667
1297.07	3764.16667
1300.317	3750.5
1303.562	3733.5
1306.803	3718.83333
1310.043	3717.83333
1313.28	3665.16667
1316.515	3660.5
1319.747	3644.83333
1322.977	3626.5
1326.204	3570.83333
1329.429	3554.83333
1332.652	3530.83333
1335.872	3539.5
1339.09	3500.16667
1342.306	3489.5
1345.519	3477.16667
1348.729	3447.83333
1351.938	3451.16667
1355.144	3380.16667
1358.347	3334.5
1361.548	3350.5
1364.747	3314.83333
1367.944	3302.83333
1371.138	3280.83333
1374.329	3285.16667
1377.518	3315.5
1380.705	3334.16667
1383.89	3309.83333
1387.072	3221.83333
1390.252	3091.83333
1393.429	3016.83333
1396.605	2922.83333
1399.777	2855.5
1402.948	2827.16667
1406.116	2786.83333
1409.282	2817.16667
1412.445	2791.5
1415.606	2833.83333
1418.765	2850.83333
1421.921	2891.5
1425.075	2940.16667
1428.227	3022.5
1431.376	3125.16667
1434.524	3221.5
1437.668	3306.16667
1440.811	3359.5
1443.951	3382.83333
1447.089	3369.16667
1450.224	3380.5
1453.357	3346.16667
1456.488	3348.16667
1459.617	3279.5
1462.743	3227.5
1465.867	3151.83333
1468.989	3101.16667
1472.108	3092.5
1475.225	3036.5
1478.34	2988.5
1481.453	2970.5
1484.563	2984.83333
1487.671	3012.83333
1490.776	3008.5
1493.88	3060.16667
1496.981	3088.16667
1500.08	3151.16667
1503.176	3191.16667
1506.271	3207.5
1509.363	3258.83333
1512.452	3284.16667
1515.54	3310.16667
1518.625	3352.5
1521.708	3442.16667
1524.789	3544.5
1527.867	3617.83333
1530.944	3805.5
1534.018	3943.5
1537.089	4116.16667
1540.159	4153.16667
1543.226	4146.5
1546.291	4070.83333
1549.354	3989.16667
1552.415	3901.5
1555.473	3806.5
1558.529	3734.83333
1561.583	3701.16667
1564.634	3681.16667
1567.684	3675.5
1570.731	3651.5
1573.776	3682.83333
1576.819	3758.5
1579.859	3763.16667
1582.898	3778.5
1585.934	3811.83333
1588.968	3824.83333
1591.999	3811.83333
1595.029	3820.5
1598.056	3867.5
1601.081	3873.83333
1604.104	3850.16667
1607.125	3829.16667
1610.144	3756.83333
1613.16	3685.5
1616.174	3649.83333
1619.186	3580.16667
1622.196	3514.83333
1625.203	3441.16667
1628.209	3413.83333
1631.212	3417.83333
1634.213	3418.5
1637.212	3450.5
1640.209	3377.16667
1643.203	3319.16667
1646.196	3211.16667
1649.186	3071.16667
1652.174	2977.16667
1655.16	2877.5
1658.144	2805.83333
1661.125	2682.16667
1664.105	2586.16667
1667.082	2463.16667
1670.057	2358.83333
1673.03	2202.83333
1676.001	2083.5
1678.97	1964.16667
1681.937	1862.83333
1684.901	1769.83333
1687.863	1734.83333
1690.824	1647.16667
1693.782	1622.83333
1696.738	1572.5
1699.692	1553.16667
1702.643	1503.83333
1705.593	1489.16667
1708.54	1473.16667
1711.486	1473.5
1714.429	1428.16667
1717.37	1424.83333
1720.309	1397.83333
1723.246	1411.83333
1726.181	1384.83333
1729.113	1390.5
1732.044	1386.83333
1734.972	1341.83333
1737.899	1373.5
1740.823	1367.5
1743.745	1328.83333
1746.665	1308.5
1749.583	1312.5
1752.499	1289.5
1755.413	1276.16667
1758.325	1249.16667
1761.235	1240.83333
1764.142	1213.83333
1767.048	1210.16667
1769.951	1208.16667
1772.852	1210.83333
1775.752	1202.16667
1778.649	1199.83333
1781.544	1210.83333
1784.437	1156.16667
1787.328	1178.5
1790.217	1185.83333
1793.104	1141.16667
1795.989	1154.5
1798.872	1128.5
1801.753	1168.16667
1804.631	1156.5
1807.508	1161.83333
1810.383	1141.16667
1813.255	1145.5
1816.126	1130.5
1818.994	1136.83333
1821.861	1114.5
1824.725	1113.16667
1827.587	1111.83333
1830.448	1101.5
1833.306	1080.83333
1836.162	1077.16667
1839.017	1084.16667
1841.869	1065.83333
1844.719	1074.16667
1847.567	1065.5
1850.414	1064.83333
1853.258	1074.83333
1856.1	1082.16667
1858.94	1065.16667
1861.778	1056.5
1864.614	1051.83333
1867.448	1058.5
1870.28	1047.16667
1873.111	1064.16667
1875.939	1047.16667
1878.765	1072.5
1881.589	1047.16667
1884.411	1050.83333
1887.231	1049.16667
1890.049	1034.5
1892.865	1038.83333
1895.68	1021.83333
1898.492	1047.16667
1901.302	1022.16667
1904.11	1018.83333
1906.916	1007.83333
1909.721	1003.5
1912.523	1021.16667
1915.323	988.16667
1918.122	991.16667
1920.918	1006.16667
1923.712	977.5
1926.505	988.5
1929.295	993.83333
1932.084	993.83333
1934.87	978.5
1937.655	982.5
1940.438	975.5
1943.218	986.16667
1945.997	987.83333
1948.774	984.83333
1951.549	979.5
1954.322	972.83333
1957.093	967.83333
1959.862	972.5
1962.629	960.16667
1965.394	957.83333
1968.157	945.83333
1970.918	948.5
1973.678	933.16667
1976.435	951.83333
1979.19	936.16667
1981.944	931.83333
1984.696	927.5
1987.445	908.83333
1990.193	922.5
1992.939	938.5
1995.683	916.16667
1998.425	905.83333
2001.165	951.16667
2003.903	901.16667
2006.639	913.16667
2009.374	926.5
2012.106	907.5
2014.837	895.16667
2017.566	905.16667
2020.292	909.83333
2023.017	901.83333
2025.74	907.83333
2028.461	894.83333
2031.18	908.16667
2033.898	886.16667
2036.613	902.83333
2039.327	892.5
2042.038	877.16667
2044.748	885.16667
2047.456	883.16667
2050.162	859.5
2052.866	871.16667
2055.568	882.5
2058.268	873.83333
2060.967	875.16667
2063.663	865.83333
2066.358	864.5
2069.051	859.83333
2071.742	868.83333
2074.431	863.5
2077.118	855.5
2079.804	841.83333
2082.487	870.16667
2085.169	876.83333
2087.849	897.5
2090.527	852.83333
2093.203	864.16667
2095.877	864.5
2098.55	860.16667
2101.22	876.83333
2103.889	882.83333
2106.556	897.16667
2109.221	911.16667
2111.884	913.83333
2114.546	960.5
2117.205	1009.83333
2119.863	1059.5
2122.519	1117.83333
2125.173	1169.83333
2127.825	1202.5
2130.475	1217.16667
2133.124	1194.5
2135.771	1138.5
2138.416	1106.83333
2141.059	1049.16667
2143.7	1018.83333
2146.339	978.5
2148.977	923.83333
2151.613	912.83333
2154.247	891.5
2156.879	872.5
2159.51	849.83333
2162.138	850.83333
2164.765	844.5
2167.39	836.83333
2170.013	866.16667
2172.634	846.5
2175.254	818.83333
2177.872	850.16667
2180.488	811.83333
2183.102	821.16667
2185.714	805.83333
2188.325	776.83333
2190.934	801.16667
2193.541	800.16667
2196.146	791.16667
2198.75	781.16667
2201.351	781.83333
2203.951	768.83333
2206.549	784.16667
2209.146	771.5
2211.74	777.5
2214.333	774.16667
2216.924	742.83333
2219.514	763.5
2222.101	752.83333
2224.687	776.83333
2227.271	753.83333
2229.853	744.5
2232.433	747.83333
2235.012	757.5
2237.589	757.5
2240.164	774.83333
2242.738	742.5
2245.309	739.5
2247.879	747.16667
2250.448	754.5
2253.014	739.16667
2255.579	718.16667
2258.142	728.16667
2260.703	715.83333
2263.262	732.5
2265.82	710.83333
2268.376	724.5
2270.93	705.83333
2273.483	714.83333
2276.033	710.5
2278.583	706.16667
2281.13	697.5
2283.675	696.5
2286.219	698.5
2288.761	707.83333
2291.302	700.83333
2293.841	706.5
2296.377	703.83333
2298.913	703.83333
2301.446	715.83333
2303.978	696.5
2306.508	700.83333
2309.037	700.5
2311.563	691.5
2314.088	706.5
2316.612	683.83333
2319.133	696.83333
2321.653	681.5
2324.171	673.5
2326.688	706.83333
2329.202	688.16667
2331.715	687.83333
2334.227	692.16667
2336.736	682.83333
2339.244	683.16667
2341.751	674.83333
2344.255	690.16667
2346.758	681.16667
2349.259	672.16667
2351.759	680.5
2354.257	673.16667
2356.753	666.16667
2359.247	675.16667
2361.74	679.5
2364.231	675.83333
2366.721	679.83333
2369.209	656.83333
2371.695	679.16667
2374.179	681.5
2376.662	665.16667
2379.143	674.5
2381.622	669.5
2384.1	688.5
2386.576	669.16667
2389.051	687.83333
2391.524	686.5
2393.995	681.83333
2396.464	674.16667
2398.932	676.16667
2401.398	666.5
2403.863	677.83333
2406.325	682.5
2408.787	682.5
2411.246	680.5
2413.704	668.83333
2416.16	671.16667
2418.615	678.5
2421.068	685.83333
2423.519	687.5
2425.969	678.83333
2428.417	674.16667
2430.863	706.5
2433.308	670.5
2435.751	674.83333
2438.193	682.16667
2440.633	676.83333
2443.071	676.5
2445.508	680.83333
2447.943	672.83333
2450.376	657.5
2452.808	666.5
2455.238	662.5
2457.667	716.5
2460.093	673.83333
2462.519	663.16667
2464.942	686.83333
2467.365	681.83333
2469.785	679.83333
2472.204	674.5
2474.621	669.5
2477.037	700.5
2479.451	657.83333
2481.863	677.83333
2484.274	677.83333
2486.683	672.16667
2489.091	680.83333
2491.497	679.16667
2493.901	685.5
2496.304	670.5
2498.705	690.83333
2501.105	667.83333
2503.503	695.83333
2505.899	657.83333
2508.294	694.5
2510.687	678.5
2513.079	686.5
2515.469	664.16667
2517.858	683.16667
2520.245	694.5
2522.63	675.5
2525.014	676.83333
2527.396	680.83333
2529.776	674.16667
2532.156	684.16667
2534.533	677.83333
2536.909	670.83333
2539.283	665.5
2541.656	669.5
2544.027	697.16667
2546.397	683.16667
2548.765	682.16667
2551.131	678.16667
2553.496	684.5
2555.86	677.83333
2558.221	701.83333
2560.582	682.5
2562.94	675.5
2565.298	681.5
2567.653	701.5
2570.007	675.16667
2572.36	701.16667
2574.711	678.83333
2577.06	710.16667
2579.408	711.83333
2581.754	689.5
2584.099	698.16667
2586.442	690.5
2588.784	714.5
2591.124	694.16667
2593.463	701.5
2595.8	704.16667
2598.135	695.5
2600.469	694.16667
2602.802	711.5
2605.133	717.5
2607.462	693.16667
2609.79	685.5
2612.116	715.83333
2614.441	710.16667
2616.764	713.83333
2619.086	706.83333
2621.406	688.16667
2623.725	714.16667
2626.042	723.5
2628.358	706.83333
2630.672	703.16667
2632.985	721.16667
2635.296	728.16667
2637.606	711.83333
2639.914	717.5
2642.22	709.83333
2644.525	738.5
2646.829	734.83333
2649.131	733.83333
2651.432	739.16667
2653.731	738.83333
2656.028	750.16667
2658.324	759.5
2660.619	729.83333
2662.912	758.83333
2665.204	735.83333
2667.494	747.5
2669.782	734.5
2672.07	747.83333
2674.355	756.16667
2676.639	746.5
2678.922	742.5
2681.203	755.16667
2683.483	753.83333
2685.761	758.5
2688.038	756.5
2690.313	768.5
2692.587	756.83333
2694.859	748.16667
2697.13	764.5
2699.399	769.83333
2701.667	776.83333
2703.933	767.83333
2706.198	772.5
2708.461	789.5
2710.723	802.16667
2712.984	786.5
2715.243	796.16667
2717.5	776.5
2719.757	797.5
2722.011	791.5
2724.264	816.16667
2726.516	814.5
2728.766	792.16667
2731.015	824.16667
2733.262	813.5
2735.508	814.16667
2737.753	813.5
2739.996	809.5
2742.237	806.5
2744.477	818.5
2746.716	818.5
2748.953	804.16667
2751.189	805.16667
2753.423	806.83333
2755.656	786.5
2757.887	777.16667
2760.117	789.5
2762.346	792.83333
2764.573	788.83333
2766.798	796.5
2769.022	787.83333
2771.245	805.16667
2773.467	801.83333
2775.686	828.5
2777.905	800.16667
2780.122	814.16667
2782.337	825.16667
2784.552	815.83333
2786.764	821.83333
2788.976	820.83333
2791.186	834.16667
2793.394	837.16667
2795.601	847.83333
2797.807	872.83333
2800.011	861.5
2802.214	862.83333
2804.415	873.83333
2806.615	852.5
2808.814	868.83333
2811.011	891.5
2813.206	882.83333
2815.401	895.5
2817.594	888.5
2819.785	903.5
2821.975	899.5
2824.164	898.16667
2826.351	917.5
2828.537	924.83333
2830.722	930.5
2832.905	941.83333
2835.086	956.5
2837.267	1002.16667
2839.445	1002.16667
2841.623	1024.5
2843.799	1030.5
2845.974	1069.83333
2848.147	1087.5
2850.319	1114.16667
2852.489	1140.83333
2854.659	1160.83333
2856.826	1169.16667
2858.993	1193.83333
2861.158	1157.83333
2863.321	1171.83333
2865.483	1200.16667
2867.644	1185.83333
2869.804	1181.16667
2871.962	1158.16667
2874.118	1175.83333
2876.274	1172.83333
2878.428	1169.16667
2880.58	1166.16667
2882.731	1161.83333
2884.881	1169.16667
2887.03	1175.5
2889.177	1174.16667
2891.322	1202.16667
2893.467	1185.16667
2895.61	1187.83333
2897.751	1201.83333
2899.892	1196.83333
2902.03	1209.83333
2904.168	1221.83333
2906.304	1221.16667
2908.439	1232.5
2910.572	1226.83333
2912.704	1234.16667
2914.835	1245.5
2916.965	1238.83333
2919.093	1262.83333
2921.219	1224.83333
2923.345	1249.16667
2925.469	1223.5
2927.591	1214.83333
2929.712	1193.16667
2931.832	1184.5
2933.951	1166.83333
2936.068	1161.5
2938.184	1146.5
2940.299	1122.16667
2942.412	1097.83333
2944.524	1062.5
2946.634	1077.83333
2948.744	1030.16667
2950.851	1056.83333
2952.958	1041.83333
2955.063	1033.83333
2957.167	1021.83333
2959.269	1001.83333
2961.371	1042.5
2963.471	990.5
2965.569	998.16667
2967.666	981.83333
2969.762	972.16667
2971.857	959.83333
2973.95	942.5
2976.042	937.83333
2978.133	920.83333
2980.222	903.5
2982.31	884.5
2984.396	865.5
2986.482	877.16667
2988.566	866.5
2990.648	861.83333
2992.73	861.83333
2994.81	847.16667
2996.889	856.83333
2998.966	876.16667
3001.042	872.5
3003.117	854.16667
3005.191	851.16667
3007.263	859.16667
3009.334	843.16667
3011.403	837.83333
3013.472	817.16667
3015.539	819.83333
3017.604	825.83333
3019.669	790.5
3021.732	790.83333
3023.794	801.5
3025.854	798.5
3027.914	780.83333
3029.971	807.16667
3032.028	787.83333
3034.083	789.5
3036.137	767.16667
3038.19	758.83333
3040.242	746.83333
3042.292	719.5
3044.341	726.5
3046.388	737.5
3048.435	697.16667
3050.48	727.5
3052.524	711.5
3054.566	702.5
3056.607	703.83333
3058.647	682.5
3060.686	667.83333
3062.723	641.83333
3064.759	614.5
3066.794	0.83333
3068.828	2.16667
3070.86	3.83333
