-0.839	417.875
3.438	493.54167
7.711	147.54167
11.981	60.54167
16.247	44.875
20.509	47.54167
24.768	47.54167
29.024	57.54167
33.276	48.20833
37.524	54.54167
41.769	47.875
46.01	36.54167
50.247	51.875
54.481	59.20833
58.712	62.875
62.939	47.54167
67.162	65.20833
71.382	53.54167
75.599	50.20833
79.812	60.54167
84.021	82.20833
88.227	58.875
92.429	61.875
96.628	60.875
100.823	73.54167
105.015	78.875
109.204	68.20833
113.388	77.875
117.57	75.54167
121.748	89.20833
125.922	81.54167
130.093	98.875
134.261	99.20833
138.425	105.875
142.585	142.54167
146.742	133.54167
150.896	158.875
155.046	201.20833
159.193	298.875
163.336	504.20833
167.476	912.20833
171.613	1677.875
175.746	2833.54167
179.875	4258.54167
184.002	5624.20833
188.124	6615.20833
192.244	7053.875
196.36	7116.54167
200.472	6998.875
204.581	6847.20833
208.687	6766.54167
212.79	6791.20833
216.889	6872.54167
220.984	6928.54167
225.077	7008.54167
229.165	7083.54167
233.251	7139.20833
237.333	7168.54167
241.412	7095.54167
245.487	7078.20833
249.559	7020.875
253.628	6996.875
257.694	6971.875
261.756	6907.54167
265.814	6747.20833
269.87	6548.54167
273.922	6368.875
277.97	6226.875
282.016	6203.875
286.058	6234.875
290.097	6415.54167
294.132	6478.875
298.164	6422.54167
302.193	6101.54167
306.219	5632.20833
310.241	5179.875
314.26	4768.54167
318.276	4391.20833
322.288	4177.875
326.297	3969.20833
330.303	3885.875
334.305	3766.54167
338.305	3698.875
342.301	3663.54167
346.294	3621.875
350.283	3594.875
354.269	3577.875
358.252	3570.875
362.232	3539.875
366.209	3524.20833
370.182	3493.54167
374.152	3474.54167
378.119	3479.20833
382.083	3493.54167
386.043	3496.20833
390	3456.54167
393.954	3467.54167
397.905	3439.875
401.852	3435.875
405.797	3404.875
409.738	3391.54167
413.676	3383.20833
417.61	3412.875
421.542	3348.54167
425.47	3332.54167
429.396	3305.20833
433.318	3297.54167
437.236	3300.875
441.152	3320.20833
445.065	3248.54167
448.974	3276.875
452.88	3240.20833
456.783	3214.875
460.683	3201.54167
464.58	3229.875
468.473	3231.875
472.364	3237.20833
476.251	3221.20833
480.135	3266.20833
484.016	3333.875
487.894	3352.54167
491.769	3353.54167
495.641	3337.20833
499.509	3365.875
503.375	3364.875
507.237	3321.875
511.096	3308.54167
514.952	3363.20833
518.805	3369.20833
522.655	3426.875
526.502	3359.20833
530.346	3309.20833
534.187	3327.875
538.024	3332.54167
541.859	3338.54167
545.69	3372.20833
549.519	3349.20833
553.344	3335.54167
557.166	3288.20833
560.985	3227.20833
564.802	3186.875
568.615	3136.20833
572.425	3087.20833
576.232	3089.54167
580.036	3078.54167
583.836	3090.875
587.634	3110.54167
591.429	3134.54167
595.221	3179.20833
599.01	3214.54167
602.796	3247.875
606.578	3246.54167
610.358	3248.54167
614.135	3203.20833
617.909	3187.875
621.679	3165.875
625.447	3162.875
629.212	3147.54167
632.973	3178.20833
636.732	3145.54167
640.488	3156.20833
644.241	3113.875
647.991	3112.875
651.737	3119.20833
655.481	3092.20833
659.222	3127.20833
662.96	3089.20833
666.695	3133.875
670.427	3137.54167
674.156	3155.20833
677.882	3146.54167
681.605	3135.875
685.325	3082.54167
689.043	3079.20833
692.757	3059.20833
696.468	3058.20833
700.177	3054.20833
703.882	3045.54167
707.585	3044.875
711.284	3026.20833
714.981	3016.54167
718.675	3033.875
722.366	3039.875
726.054	3003.875
729.739	3046.54167
733.421	3023.20833
737.1	3046.875
740.777	3056.875
744.45	3041.20833
748.121	3092.54167
751.789	3149.54167
755.453	3163.20833
759.115	3159.20833
762.774	3173.20833
766.431	3188.875
770.084	3224.20833
773.734	3236.20833
777.382	3301.875
781.027	3318.20833
784.669	3341.875
788.308	3375.54167
791.944	3352.20833
795.577	3384.20833
799.208	3430.54167
802.835	3428.20833
806.46	3468.20833
810.082	3463.54167
813.701	3473.875
817.317	3513.54167
820.931	3501.875
824.542	3487.20833
828.149	3483.20833
831.754	3435.875
835.357	3449.875
838.956	3425.20833
842.553	3421.875
846.146	3419.875
849.737	3385.54167
853.326	3408.20833
856.911	3386.20833
860.493	3447.875
864.073	3459.54167
867.65	3520.54167
871.225	3523.875
874.796	3537.20833
878.365	3564.54167
881.931	3584.54167
885.494	3603.875
889.054	3605.875
892.612	3581.54167
896.166	3564.54167
899.719	3559.875
903.268	3478.20833
906.814	3447.875
910.358	3420.20833
913.899	3405.20833
917.438	3409.20833
920.973	3417.20833
924.506	3436.54167
928.036	3486.875
931.564	3555.54167
935.088	3578.20833
938.61	3574.20833
942.129	3653.54167
945.646	3732.875
949.16	3780.54167
952.671	3845.20833
956.179	3862.875
959.685	3771.20833
963.188	3789.20833
966.688	3725.875
970.185	3617.20833
973.68	3563.54167
977.173	3506.875
980.662	3479.875
984.149	3444.20833
987.633	3450.875
991.114	3506.875
994.593	3580.875
998.069	3662.54167
1001.542	3786.54167
1005.013	3713.20833
1008.481	3484.54167
1011.947	3458.20833
1015.409	3412.20833
1018.869	3413.20833
1022.327	3423.20833
1025.782	3397.875
1029.234	3363.875
1032.683	3333.54167
1036.13	3236.875
1039.574	3115.20833
1043.016	3017.20833
1046.455	2973.20833
1049.891	2956.54167
1053.325	2970.20833
1056.756	2973.20833
1060.184	2986.54167
1063.61	3030.20833
1067.033	3011.20833
1070.454	3033.54167
1073.872	3075.20833
1077.287	3026.54167
1080.7	3050.875
1084.11	3012.20833
1087.517	3010.875
1090.922	2961.54167
1094.325	2948.20833
1097.724	2899.875
1101.122	2910.54167
1104.516	2900.20833
1107.908	2914.54167
1111.298	2969.875
1114.684	2977.54167
1118.069	3019.20833
1121.45	3054.875
1124.83	3093.54167
1128.206	3107.20833
1131.58	3127.875
1134.951	3227.54167
1138.32	3319.20833
1141.687	3435.20833
1145.05	3514.54167
1148.412	3485.20833
1151.77	3488.54167
1155.126	3473.875
1158.48	3478.20833
1161.831	3478.54167
1165.18	3492.54167
1168.525	3541.54167
1171.869	3545.20833
1175.21	3616.875
1178.548	3609.54167
1181.884	3668.20833
1185.217	3703.54167
1188.548	3778.875
1191.877	3847.20833
1195.202	3958.54167
1198.526	4045.875
1201.846	4045.20833
1205.165	4057.20833
1208.48	4048.54167
1211.794	4007.20833
1215.104	4008.54167
1218.413	3986.20833
1221.719	4050.20833
1225.022	3969.54167
1228.323	3893.54167
1231.621	3869.20833
1234.917	3842.20833
1238.21	3867.875
1241.501	3831.875
1244.79	3842.875
1248.076	3840.20833
1251.359	3859.20833
1254.64	3983.875
1257.919	3965.875
1261.195	4073.875
1264.468	4127.20833
1267.74	4174.54167
1271.008	4166.54167
1274.275	4142.20833
1277.538	4115.54167
1280.8	4114.20833
1284.059	4116.54167
1287.315	4156.875
1290.569	4157.54167
1293.821	4206.54167
1297.07	4219.20833
1300.317	4225.54167
1303.562	4210.54167
1306.803	4186.54167
1310.043	4156.54167
1313.28	4081.20833
1316.515	4062.875
1319.747	4049.54167
1322.977	3995.875
1326.204	3964.875
1329.429	3885.54167
1332.652	3849.20833
1335.872	3817.875
1339.09	3785.54167
1342.306	3793.20833
1345.519	3754.54167
1348.729	3703.875
1351.938	3698.20833
1355.144	3644.20833
1358.347	3590.54167
1361.548	3573.54167
1364.747	3536.875
1367.944	3512.875
1371.138	3544.54167
1374.329	3547.875
1377.518	3596.875
1380.705	3596.54167
1383.89	3542.54167
1387.072	3439.875
1390.252	3306.875
1393.429	3210.20833
1396.605	3102.875
1399.777	3004.875
1402.948	3016.875
1406.116	2973.54167
1409.282	2973.54167
1412.445	2965.54167
1415.606	3021.20833
1418.765	3061.875
1421.921	3105.875
1425.075	3172.875
1428.227	3277.875
1431.376	3442.875
1434.524	3563.54167
1437.668	3645.20833
1440.811	3705.875
1443.951	3719.54167
1447.089	3737.54167
1450.224	3711.875
1453.357	3725.20833
1456.488	3675.20833
1459.617	3643.875
1462.743	3545.54167
1465.867	3442.875
1468.989	3395.875
1472.108	3324.875
1475.225	3278.20833
1478.34	3238.54167
1481.453	3239.875
1484.563	3219.20833
1487.671	3282.875
1490.776	3308.20833
1493.88	3379.875
1496.981	3421.20833
1500.08	3483.20833
1503.176	3520.54167
1506.271	3575.54167
1509.363	3600.875
1512.452	3627.875
1515.54	3685.54167
1518.625	3733.54167
1521.708	3822.875
1524.789	3964.875
1527.867	4106.20833
1530.944	4300.875
1534.018	4509.875
1537.089	4693.20833
1540.159	4764.20833
1543.226	4780.54167
1546.291	4709.54167
1549.354	4606.875
1552.415	4466.54167
1555.473	4385.20833
1558.529	4290.20833
1561.583	4240.20833
1564.634	4183.20833
1567.684	4177.875
1570.731	4190.875
1573.776	4233.875
1576.819	4270.875
1579.859	4319.54167
1582.898	4385.54167
1585.934	4429.54167
1588.968	4407.875
1591.999	4424.20833
1595.029	4426.875
1598.056	4471.54167
1601.081	4485.875
1604.104	4461.54167
1607.125	4422.20833
1610.144	4320.20833
1613.16	4228.875
1616.174	4122.20833
1619.186	4046.875
1622.196	3933.20833
1625.203	3816.875
1628.209	3754.20833
1631.212	3703.20833
1634.213	3673.20833
1637.212	3657.54167
1640.209	3605.54167
1643.203	3529.875
1646.196	3417.875
1649.186	3272.54167
1652.174	3149.20833
1655.16	3073.20833
1658.144	2968.54167
1661.125	2854.20833
1664.105	2709.875
1667.082	2616.875
1670.057	2464.875
1673.03	2318.875
1676.001	2144.54167
1678.97	2028.54167
1681.937	1908.875
1684.901	1805.875
1687.863	1737.54167
1690.824	1645.20833
1693.782	1614.875
1696.738	1547.20833
1699.692	1525.20833
1702.643	1474.54167
1705.593	1451.54167
1708.54	1438.54167
1711.486	1434.54167
1714.429	1403.20833
1717.37	1395.54167
1720.309	1357.875
1723.246	1376.875
1726.181	1351.20833
1729.113	1342.875
1732.044	1324.54167
1734.972	1305.20833
1737.899	1317.875
1740.823	1295.54167
1743.745	1269.20833
1746.665	1265.20833
1749.583	1227.875
1752.499	1223.54167
1755.413	1205.20833
1758.325	1176.54167
1761.235	1162.20833
1764.142	1156.54167
1767.048	1122.875
1769.951	1137.54167
1772.852	1124.875
1775.752	1128.875
1778.649	1106.20833
1781.544	1107.54167
1784.437	1087.54167
1787.328	1093.875
1790.217	1072.20833
1793.104	1053.54167
1795.989	1053.54167
1798.872	1055.54167
1801.753	1081.875
1804.631	1067.20833
1807.508	1079.875
1810.383	1059.20833
1813.255	1046.20833
1816.126	1055.54167
1818.994	1041.875
1821.861	1021.54167
1824.725	1035.54167
1827.587	1024.54167
1830.448	1029.54167
1833.306	989.20833
1836.162	1003.875
1839.017	991.54167
1841.869	996.875
1844.719	984.20833
1847.567	970.875
1850.414	962.875
1853.258	969.875
1856.1	975.875
1858.94	994.875
1861.778	986.54167
1864.614	953.54167
1867.448	968.875
1870.28	960.54167
1873.111	995.875
1875.939	954.54167
1878.765	972.20833
1881.589	941.54167
1884.411	957.875
1887.231	956.875
1890.049	944.54167
1892.865	950.20833
1895.68	927.54167
1898.492	940.54167
1901.302	933.20833
1904.11	921.20833
1906.916	910.875
1909.721	904.20833
1912.523	918.54167
1915.323	900.875
1918.122	892.20833
1920.918	905.875
1923.712	886.875
1926.505	886.54167
1929.295	872.20833
1932.084	906.875
1934.87	893.20833
1937.655	889.20833
1940.438	873.54167
1943.218	893.54167
1945.997	878.54167
1948.774	901.20833
1951.549	892.54167
1954.322	874.875
1957.093	872.54167
1959.862	851.20833
1962.629	868.54167
1965.394	862.54167
1968.157	848.54167
1970.918	862.20833
1973.678	837.54167
1976.435	867.54167
1979.19	842.20833
1981.944	844.20833
1984.696	838.54167
1987.445	815.875
1990.193	826.54167
1992.939	836.875
1995.683	833.54167
1998.425	807.875
2001.165	840.54167
2003.903	818.20833
2006.639	819.20833
2009.374	832.54167
2012.106	818.875
2014.837	803.875
2017.566	818.20833
2020.292	807.54167
2023.017	821.54167
2025.74	807.54167
2028.461	801.20833
2031.18	801.875
2033.898	797.875
2036.613	806.875
2039.327	793.54167
2042.038	780.54167
2044.748	785.54167
2047.456	791.875
2050.162	770.20833
2052.866	780.875
2055.568	783.54167
2058.268	781.875
2060.967	773.20833
2063.663	771.20833
2066.358	763.875
2069.051	766.875
2071.742	761.875
2074.431	776.875
2077.118	758.20833
2079.804	748.54167
2082.487	750.875
2085.169	776.875
2087.849	783.20833
2090.527	756.20833
2093.203	771.54167
2095.877	772.54167
2098.55	773.20833
2101.22	777.875
2103.889	801.54167
2106.556	797.875
2109.221	822.875
2111.884	834.20833
2114.546	886.20833
2117.205	928.54167
2119.863	1006.54167
2122.519	1057.875
2125.173	1113.20833
2127.825	1171.54167
2130.475	1170.20833
2133.124	1128.54167
2135.771	1070.54167
2138.416	1038.20833
2141.059	968.54167
2143.7	922.875
2146.339	880.54167
2148.977	829.20833
2151.613	822.20833
2154.247	809.875
2156.879	788.875
2159.51	767.20833
2162.138	755.54167
2164.765	748.54167
2167.39	723.54167
2170.013	745.20833
2172.634	736.54167
2175.254	725.54167
2177.872	761.54167
2180.488	708.20833
2183.102	720.20833
2185.714	703.875
2188.325	694.875
2190.934	704.54167
2193.541	688.20833
2196.146	684.20833
2198.75	678.54167
2201.351	671.54167
2203.951	665.875
2206.549	675.20833
2209.146	658.54167
2211.74	667.54167
2214.333	666.54167
2216.924	640.54167
2219.514	654.54167
2222.101	641.875
2224.687	666.54167
2227.271	640.20833
2229.853	631.54167
2232.433	624.54167
2235.012	639.20833
2237.589	641.875
2240.164	648.20833
2242.738	629.54167
2245.309	611.54167
2247.879	633.20833
2250.448	634.54167
2253.014	608.875
2255.579	585.875
2258.142	606.875
2260.703	578.875
2263.262	603.875
2265.82	597.54167
2268.376	594.20833
2270.93	581.20833
2273.483	586.54167
2276.033	584.54167
2278.583	570.54167
2281.13	568.20833
2283.675	564.54167
2286.219	571.20833
2288.761	577.20833
2291.302	576.20833
2293.841	593.54167
2296.377	567.54167
2298.913	560.20833
2301.446	567.20833
2303.978	577.20833
2306.508	543.54167
2309.037	563.20833
2311.563	565.875
2314.088	569.875
2316.612	538.20833
2319.133	554.875
2321.653	553.20833
2324.171	540.20833
2326.688	562.20833
2329.202	545.20833
2331.715	551.20833
2334.227	543.875
2336.736	554.20833
2339.244	537.875
2341.751	528.20833
2344.255	553.20833
2346.758	546.875
2349.259	533.875
2351.759	538.20833
2354.257	528.54167
2356.753	523.20833
2359.247	532.54167
2361.74	535.20833
2364.231	538.54167
2366.721	523.875
2369.209	529.875
2371.695	528.54167
2374.179	521.20833
2376.662	512.875
2379.143	529.54167
2381.622	524.20833
2384.1	527.875
2386.576	526.54167
2389.051	548.875
2391.524	544.54167
2393.995	524.875
2396.464	519.875
2398.932	520.20833
2401.398	512.54167
2403.863	509.875
2406.325	506.20833
2408.787	518.54167
2411.246	512.20833
2413.704	508.875
2416.16	507.20833
2418.615	507.875
2421.068	520.875
2423.519	521.20833
2425.969	512.54167
2428.417	501.20833
2430.863	533.20833
2433.308	513.875
2435.751	516.20833
2438.193	511.20833
2440.633	507.54167
2443.071	516.875
2445.508	501.54167
2447.943	501.875
2450.376	488.54167
2452.808	508.875
2455.238	497.20833
2457.667	536.875
2460.093	504.54167
2462.519	491.20833
2464.942	496.54167
2467.365	489.875
2469.785	506.20833
2472.204	501.875
2474.621	493.20833
2477.037	515.875
2479.451	484.54167
2481.863	486.875
2484.274	487.54167
2486.683	492.20833
2489.091	504.54167
2491.497	489.54167
2493.901	502.20833
2496.304	495.20833
2498.705	502.875
2501.105	490.20833
2503.503	511.20833
2505.899	477.54167
2508.294	498.54167
2510.687	484.20833
2513.079	486.54167
2515.469	470.20833
2517.858	488.20833
2520.245	497.875
2522.63	483.875
2525.014	481.54167
2527.396	476.20833
2529.776	481.54167
2532.156	484.875
2534.533	470.875
2536.909	473.20833
2539.283	456.54167
2541.656	473.875
2544.027	490.875
2546.397	482.20833
2548.765	467.20833
2551.131	477.20833
2553.496	478.54167
2555.86	480.20833
2558.221	484.54167
2560.582	468.875
2562.94	469.54167
2565.298	469.54167
2567.653	488.875
2570.007	458.20833
2572.36	482.875
2574.711	457.875
2577.06	496.20833
2579.408	475.20833
2581.754	479.20833
2584.099	483.20833
2586.442	475.20833
2588.784	480.54167
2591.124	486.54167
2593.463	475.54167
2595.8	472.875
2598.135	476.54167
2600.469	470.54167
2602.802	490.20833
2605.133	485.54167
2607.462	465.875
2609.79	458.875
2612.116	478.20833
2614.441	477.20833
2616.764	491.20833
2619.086	485.875
2621.406	472.875
2623.725	489.20833
2626.042	480.54167
2628.358	482.20833
2630.672	480.20833
2632.985	497.54167
2635.296	485.20833
2637.606	472.875
2639.914	470.875
2642.22	479.875
2644.525	465.54167
2646.829	491.20833
2649.131	496.20833
2651.432	497.54167
2653.731	481.54167
2656.028	497.54167
2658.324	508.54167
2660.619	481.54167
2662.912	500.20833
2665.204	483.875
2667.494	493.875
2669.782	491.20833
2672.07	494.54167
2674.355	501.54167
2676.639	493.875
2678.922	484.875
2681.203	494.54167
2683.483	479.875
2685.761	486.875
2688.038	491.54167
2690.313	509.54167
2692.587	495.54167
2694.859	499.20833
2697.13	500.54167
2699.399	512.875
2701.667	512.875
2703.933	509.54167
2706.198	515.875
2708.461	524.54167
2710.723	524.54167
2712.984	520.20833
2715.243	520.54167
2717.5	517.20833
2719.757	532.20833
2722.011	529.20833
2724.264	526.20833
2726.516	547.20833
2728.766	535.54167
2731.015	539.54167
2733.262	543.54167
2735.508	544.20833
2737.753	536.875
2739.996	521.875
2742.237	524.20833
2744.477	543.54167
2746.716	533.20833
2748.953	520.875
2751.189	524.875
2753.423	510.20833
2755.656	510.20833
2757.887	507.20833
2760.117	503.875
2762.346	512.875
2764.573	506.54167
2766.798	520.20833
2769.022	501.875
2771.245	519.875
2773.467	520.54167
2775.686	521.875
2777.905	522.875
2780.122	529.875
2782.337	535.875
2784.552	525.875
2786.764	532.875
2788.976	541.875
2791.186	538.54167
2793.394	542.875
2795.601	552.54167
2797.807	557.875
2800.011	564.54167
2802.214	561.54167
2804.415	566.20833
2806.615	568.54167
2808.814	576.875
2811.011	585.20833
2813.206	578.875
2815.401	607.20833
2817.594	600.54167
2819.785	616.875
2821.975	608.54167
2824.164	607.54167
2826.351	639.20833
2828.537	646.54167
2830.722	656.875
2832.905	663.875
2835.086	688.54167
2837.267	723.875
2839.445	739.875
2841.623	760.20833
2843.799	780.20833
2845.974	819.54167
2848.147	847.20833
2850.319	869.20833
2852.489	897.54167
2854.659	915.875
2856.826	927.875
2858.993	945.875
2861.158	948.20833
2863.321	936.54167
2865.483	958.54167
2867.644	955.20833
2869.804	940.54167
2871.962	941.875
2874.118	950.54167
2876.274	939.875
2878.428	945.20833
2880.58	937.20833
2882.731	932.54167
2884.881	927.875
2887.03	933.875
2889.177	942.20833
2891.322	957.20833
2893.467	942.54167
2895.61	948.20833
2897.751	977.20833
2899.892	965.875
2902.03	970.20833
2904.168	997.20833
2906.304	972.875
2908.439	1017.20833
2910.572	994.875
2912.704	1003.875
2914.835	989.20833
2916.965	1001.54167
2919.093	1008.20833
2921.219	990.20833
2923.345	1002.875
2925.469	969.20833
2927.591	966.54167
2929.712	937.54167
2931.832	932.20833
2933.951	916.54167
2936.068	907.875
2938.184	879.875
2940.299	859.875
2942.412	846.54167
2944.524	809.20833
2946.634	797.875
2948.744	739.20833
2950.851	782.20833
2952.958	736.875
2955.063	736.875
2957.167	711.54167
2959.269	694.20833
2961.371	714.20833
2963.471	679.54167
2965.569	680.54167
2967.666	646.875
2969.762	651.20833
2971.857	640.54167
2973.95	606.54167
2976.042	617.20833
2978.133	593.54167
2980.222	582.875
2982.31	559.20833
2984.396	554.20833
2986.482	544.875
2988.566	543.54167
2990.648	533.20833
2992.73	540.20833
2994.81	534.54167
2996.889	525.875
2998.966	533.20833
3001.042	534.54167
3003.117	519.20833
3005.191	529.54167
3007.263	518.54167
3009.334	504.20833
3011.403	513.875
3013.472	493.20833
3015.539	496.54167
3017.604	492.875
3019.669	469.20833
3021.732	464.54167
3023.794	472.875
3025.854	477.54167
3027.914	460.20833
3029.971	472.20833
3032.028	457.54167
3034.083	460.20833
3036.137	463.20833
3038.19	443.20833
3040.242	438.54167
3042.292	422.20833
3044.341	426.875
3046.388	434.20833
3048.435	412.875
3050.48	422.875
3052.524	421.54167
3054.566	403.20833
3056.607	412.20833
3058.647	393.54167
3060.686	391.20833
3062.723	374.20833
3064.759	362.54167
3066.794	0.875
3068.828	2.54167
3070.86	2.875
