-0.839	599.58333
3.438	740.25
7.711	217.25
11.981	65.91667
16.247	45.91667
20.509	49.91667
24.768	47.25
29.024	54.25
33.276	44.58333
37.524	51.25
41.769	46.91667
46.01	32.91667
50.247	48.91667
54.481	61.58333
58.712	60.58333
62.939	48.91667
67.162	62.25
71.382	55.58333
75.599	45.91667
79.812	62.58333
84.021	78.25
88.227	60.25
92.429	58.91667
96.628	46.58333
100.823	71.25
105.015	77.91667
109.204	64.91667
113.388	71.91667
117.57	75.91667
121.748	83.91667
125.922	77.58333
130.093	101.58333
134.261	98.58333
138.425	96.91667
142.585	139.91667
146.742	125.91667
150.896	159.91667
155.046	193.91667
159.193	296.58333
163.336	513.25
167.476	928.58333
171.613	1725.91667
175.746	2870.58333
179.875	4230.25
184.002	5548.25
188.124	6436.91667
192.244	6757.58333
196.36	6669.25
200.472	6468.25
204.581	6253.25
208.687	6108.91667
212.79	6022.25
216.889	6018.91667
220.984	6015.58333
225.077	6012.25
229.165	6015.25
233.251	5970.25
237.333	5941.58333
241.412	5883.58333
245.487	5775.25
249.559	5748.25
253.628	5695.25
257.694	5672.25
261.756	5592.91667
265.814	5475.25
269.87	5321.91667
273.922	5186.58333
277.97	5047.25
282.016	5034.58333
286.058	5043.58333
290.097	5113.91667
294.132	5202.91667
298.164	5135.58333
302.193	4906.25
306.219	4600.58333
310.241	4262.25
314.26	3971.58333
318.276	3702.91667
322.288	3548.91667
326.297	3405.58333
330.303	3317.25
334.305	3249.58333
338.305	3196.25
342.301	3158.58333
346.294	3172.58333
350.283	3140.58333
354.269	3128.25
358.252	3084.91667
362.232	3069.25
366.209	3051.91667
370.182	3020.91667
374.152	3016.58333
378.119	3036.25
382.083	3007.25
386.043	3042.58333
390	3006.25
393.954	3004.25
397.905	2998.91667
401.852	2981.91667
405.797	2973.25
409.738	2975.58333
413.676	2974.58333
417.61	2961.91667
421.542	2930.25
425.47	2912.91667
429.396	2898.91667
433.318	2878.91667
437.236	2867.25
441.152	2906.58333
445.065	2847.25
448.974	2840.58333
452.88	2825.91667
456.783	2811.58333
460.683	2798.25
464.58	2805.91667
468.473	2825.25
472.364	2843.58333
476.251	2850.91667
480.135	2869.91667
484.016	2923.58333
487.894	2924.91667
491.769	2952.91667
495.641	2929.91667
499.509	2930.91667
503.375	2947.91667
507.237	2930.91667
511.096	2958.25
514.952	3143.25
518.805	3313.25
522.655	3366.58333
526.502	3139.91667
530.346	2945.91667
534.187	2917.91667
538.024	2938.91667
541.859	2905.91667
545.69	2940.58333
549.519	2930.91667
553.344	2897.91667
557.166	2857.58333
560.985	2830.58333
564.802	2800.58333
568.615	2746.91667
572.425	2704.91667
576.232	2674.58333
580.036	2678.91667
583.836	2712.58333
587.634	2721.25
591.429	2739.25
595.221	2761.91667
599.01	2786.25
602.796	2818.25
606.578	2819.58333
610.358	2824.58333
614.135	2799.91667
617.909	2790.91667
621.679	2752.25
625.447	2757.91667
629.212	2766.91667
632.973	2766.58333
636.732	2765.58333
640.488	2739.25
644.241	2724.91667
647.991	2728.25
651.737	2727.58333
655.481	2701.91667
659.222	2713.25
662.96	2717.58333
666.695	2724.25
670.427	2717.58333
674.156	2735.91667
677.882	2755.91667
681.605	2705.91667
685.325	2722.58333
689.043	2702.91667
692.757	2699.58333
696.468	2681.58333
700.177	2686.91667
703.882	2670.25
707.585	2662.25
711.284	2641.25
714.981	2648.58333
718.675	2639.91667
722.366	2632.25
726.054	2632.91667
729.739	2638.58333
733.421	2651.58333
737.1	2632.25
740.777	2675.58333
744.45	2679.91667
748.121	2687.91667
751.789	2727.58333
755.453	2696.91667
759.115	2752.58333
762.774	2742.25
766.431	2743.25
770.084	2791.91667
773.734	2766.58333
777.382	2830.91667
781.027	2856.25
784.669	2875.25
788.308	2867.25
791.944	2882.58333
795.577	2922.25
799.208	2915.58333
802.835	2942.25
806.46	2933.91667
810.082	2956.25
813.701	2953.25
817.317	2970.25
820.931	2973.25
824.542	2959.58333
828.149	2916.91667
831.754	2922.25
835.357	2914.91667
838.956	2924.25
842.553	2904.58333
846.146	2911.25
849.737	2862.58333
853.326	2881.58333
856.911	2857.91667
860.493	2909.91667
864.073	2906.25
867.65	2935.25
871.225	2989.91667
874.796	2937.58333
878.365	2979.58333
881.931	2999.25
885.494	3021.91667
889.054	3010.58333
892.612	3015.25
896.166	2973.91667
899.719	2978.91667
903.268	2912.91667
906.814	2885.58333
910.358	2894.58333
913.899	2879.91667
917.438	2855.25
920.973	2814.58333
924.506	2877.58333
928.036	2928.25
931.564	2959.25
935.088	3011.25
938.61	2997.91667
942.129	3053.25
945.646	3108.91667
949.16	3152.58333
952.671	3195.91667
956.179	3159.25
959.685	3150.58333
963.188	3143.58333
966.688	3105.25
970.185	2999.58333
973.68	2937.25
977.173	2927.25
980.662	2903.91667
984.149	2900.25
987.633	2872.25
991.114	2922.91667
994.593	2956.25
998.069	3045.58333
1001.542	3112.91667
1005.013	3067.25
1008.481	2924.58333
1011.947	2873.91667
1015.409	2843.91667
1018.869	2835.91667
1022.327	2839.91667
1025.782	2823.25
1029.234	2806.58333
1032.683	2773.25
1036.13	2687.25
1039.574	2613.91667
1043.016	2544.91667
1046.455	2468.25
1049.891	2496.91667
1053.325	2469.58333
1056.756	2488.58333
1060.184	2502.58333
1063.61	2503.91667
1067.033	2537.25
1070.454	2518.58333
1073.872	2562.91667
1077.287	2531.91667
1080.7	2546.91667
1084.11	2525.25
1087.517	2504.91667
1090.922	2479.58333
1094.325	2481.91667
1097.724	2436.58333
1101.122	2445.25
1104.516	2434.91667
1107.908	2405.58333
1111.298	2467.91667
1114.684	2508.58333
1118.069	2525.25
1121.45	2537.91667
1124.83	2550.25
1128.206	2586.58333
1131.58	2608.91667
1134.951	2676.91667
1138.32	2738.91667
1141.687	2836.25
1145.05	2890.25
1148.412	2884.91667
1151.77	2858.58333
1155.126	2881.58333
1158.48	2834.25
1161.831	2852.58333
1165.18	2856.58333
1168.525	2884.58333
1171.869	2925.58333
1175.21	2939.91667
1178.548	2986.58333
1181.884	3007.58333
1185.217	3012.91667
1188.548	3094.91667
1191.877	3141.25
1195.202	3218.25
1198.526	3281.91667
1201.846	3312.25
1205.165	3329.58333
1208.48	3325.25
1211.794	3317.58333
1215.104	3319.58333
1218.413	3299.58333
1221.719	3293.91667
1225.022	3251.91667
1228.323	3192.91667
1231.621	3171.91667
1234.917	3140.58333
1238.21	3192.58333
1241.501	3169.58333
1244.79	3145.58333
1248.076	3149.91667
1251.359	3193.58333
1254.64	3269.25
1257.919	3276.58333
1261.195	3308.25
1264.468	3367.58333
1267.74	3402.25
1271.008	3436.58333
1274.275	3387.91667
1277.538	3375.25
1280.8	3399.91667
1284.059	3380.91667
1287.315	3387.58333
1290.569	3401.58333
1293.821	3432.91667
1297.07	3439.91667
1300.317	3421.91667
1303.562	3415.91667
1306.803	3401.91667
1310.043	3375.91667
1313.28	3332.91667
1316.515	3310.91667
1319.747	3305.91667
1322.977	3282.91667
1326.204	3261.91667
1329.429	3208.58333
1332.652	3176.91667
1335.872	3185.58333
1339.09	3147.25
1342.306	3135.25
1345.519	3092.25
1348.729	3058.25
1351.938	3049.58333
1355.144	3029.58333
1358.347	2976.58333
1361.548	2966.58333
1364.747	2957.25
1367.944	2920.91667
1371.138	2942.58333
1374.329	2948.25
1377.518	2983.58333
1380.705	2999.25
1383.89	2952.25
1387.072	2904.91667
1390.252	2771.25
1393.429	2671.58333
1396.605	2635.58333
1399.777	2555.91667
1402.948	2504.58333
1406.116	2509.91667
1409.282	2488.58333
1412.445	2502.25
1415.606	2515.25
1418.765	2559.91667
1421.921	2597.25
1425.075	2666.25
1428.227	2706.91667
1431.376	2836.58333
1434.524	2923.58333
1437.668	2997.91667
1440.811	3038.91667
1443.951	3054.91667
1447.089	3058.25
1450.224	3079.91667
1453.357	3043.25
1456.488	3026.25
1459.617	2954.91667
1462.743	2928.25
1465.867	2858.91667
1468.989	2830.58333
1472.108	2786.25
1475.225	2725.25
1478.34	2692.58333
1481.453	2680.58333
1484.563	2692.58333
1487.671	2701.58333
1490.776	2752.91667
1493.88	2789.25
1496.981	2831.91667
1500.08	2845.91667
1503.176	2899.91667
1506.271	2940.25
1509.363	2966.91667
1512.452	2996.25
1515.54	3036.91667
1518.625	3075.58333
1521.708	3166.25
1524.789	3247.25
1527.867	3358.25
1530.944	3520.91667
1534.018	3675.25
1537.089	3822.25
1540.159	3874.58333
1543.226	3880.25
1546.291	3819.58333
1549.354	3722.91667
1552.415	3631.91667
1555.473	3549.91667
1558.529	3491.25
1561.583	3423.58333
1564.634	3421.58333
1567.684	3399.91667
1570.731	3430.58333
1573.776	3430.58333
1576.819	3501.58333
1579.859	3524.91667
1582.898	3534.25
1585.934	3588.25
1588.968	3594.58333
1591.999	3558.91667
1595.029	3581.58333
1598.056	3604.25
1601.081	3629.91667
1604.104	3604.25
1607.125	3590.25
1610.144	3525.91667
1613.16	3456.91667
1616.174	3400.58333
1619.186	3335.91667
1622.196	3252.25
1625.203	3184.91667
1628.209	3134.25
1631.212	3111.58333
1634.213	3113.58333
1637.212	3100.58333
1640.209	3057.25
1643.203	2959.91667
1646.196	2868.58333
1649.186	2752.58333
1652.174	2667.91667
1655.16	2592.58333
1658.144	2521.58333
1661.125	2399.58333
1664.105	2327.91667
1667.082	2219.25
1670.057	2130.25
1673.03	1982.25
1676.001	1855.58333
1678.97	1749.91667
1681.937	1657.25
1684.901	1571.25
1687.863	1525.91667
1690.824	1429.58333
1693.782	1434.58333
1696.738	1377.58333
1699.692	1339.91667
1702.643	1310.91667
1705.593	1301.91667
1708.54	1290.25
1711.486	1270.25
1714.429	1246.58333
1717.37	1249.91667
1720.309	1213.25
1723.246	1230.58333
1726.181	1195.91667
1729.113	1192.25
1732.044	1178.91667
1734.972	1161.58333
1737.899	1175.91667
1740.823	1160.25
1743.745	1125.58333
1746.665	1131.58333
1749.583	1099.25
1752.499	1096.25
1755.413	1079.58333
1758.325	1062.91667
1761.235	1038.58333
1764.142	1044.25
1767.048	1015.58333
1769.951	1035.25
1772.852	1034.91667
1775.752	1013.58333
1778.649	1005.25
1781.544	1008.58333
1784.437	997.25
1787.328	1012.58333
1790.217	988.25
1793.104	970.91667
1795.989	963.91667
1798.872	953.25
1801.753	972.91667
1804.631	965.25
1807.508	978.58333
1810.383	964.91667
1813.255	961.25
1816.126	956.25
1818.994	954.25
1821.861	942.91667
1824.725	933.58333
1827.587	938.25
1830.448	930.58333
1833.306	905.25
1836.162	913.91667
1839.017	914.25
1841.869	921.91667
1844.719	902.25
1847.567	903.25
1850.414	893.25
1853.258	894.25
1856.1	893.91667
1858.94	911.58333
1861.778	900.58333
1864.614	889.25
1867.448	888.91667
1870.28	888.91667
1873.111	900.91667
1875.939	885.58333
1878.765	905.91667
1881.589	880.25
1884.411	884.91667
1887.231	881.25
1890.049	891.58333
1892.865	891.91667
1895.68	868.91667
1898.492	879.91667
1901.302	864.91667
1904.11	861.25
1906.916	859.58333
1909.721	853.58333
1912.523	850.25
1915.323	839.58333
1918.122	840.58333
1920.918	838.91667
1923.712	841.91667
1926.505	841.58333
1929.295	826.25
1932.084	852.91667
1934.87	849.58333
1937.655	833.25
1940.438	823.58333
1943.218	832.58333
1945.997	844.58333
1948.774	841.91667
1951.549	843.91667
1954.322	834.25
1957.093	819.58333
1959.862	820.91667
1962.629	822.25
1965.394	822.58333
1968.157	816.25
1970.918	808.58333
1973.678	795.58333
1976.435	817.58333
1979.19	797.91667
1981.944	798.91667
1984.696	790.25
1987.445	785.25
1990.193	801.25
1992.939	813.91667
1995.683	794.25
1998.425	779.25
2001.165	822.25
2003.903	774.58333
2006.639	786.25
2009.374	778.25
2012.106	793.58333
2014.837	768.25
2017.566	785.58333
2020.292	781.58333
2023.017	781.91667
2025.74	768.91667
2028.461	768.91667
2031.18	776.58333
2033.898	760.25
2036.613	774.91667
2039.327	782.25
2042.038	754.58333
2044.748	758.25
2047.456	761.58333
2050.162	748.58333
2052.866	749.58333
2055.568	763.91667
2058.268	754.25
2060.967	751.91667
2063.663	751.25
2066.358	744.91667
2069.051	739.58333
2071.742	753.25
2074.431	757.91667
2077.118	750.58333
2079.804	740.91667
2082.487	750.25
2085.169	764.91667
2087.849	771.58333
2090.527	733.91667
2093.203	751.25
2095.877	759.91667
2098.55	752.91667
2101.22	779.91667
2103.889	774.25
2106.556	782.91667
2109.221	792.25
2111.884	815.25
2114.546	865.58333
2117.205	899.25
2119.863	967.25
2122.519	1015.91667
2125.173	1087.91667
2127.825	1116.58333
2130.475	1120.91667
2133.124	1074.25
2135.771	1044.91667
2138.416	988.25
2141.059	954.25
2143.7	915.58333
2146.339	877.25
2148.977	825.58333
2151.613	816.91667
2154.247	810.25
2156.879	775.58333
2159.51	766.25
2162.138	758.91667
2164.765	751.91667
2167.39	728.91667
2170.013	755.91667
2172.634	749.25
2175.254	736.25
2177.872	765.25
2180.488	718.91667
2183.102	728.25
2185.714	730.25
2188.325	700.25
2190.934	706.91667
2193.541	715.25
2196.146	712.91667
2198.75	692.91667
2201.351	691.91667
2203.951	689.58333
2206.549	701.25
2209.146	687.25
2211.74	698.58333
2214.333	686.91667
2216.924	660.25
2219.514	684.58333
2222.101	670.91667
2224.687	683.58333
2227.271	684.91667
2229.853	679.91667
2232.433	657.25
2235.012	680.91667
2237.589	675.25
2240.164	696.91667
2242.738	673.91667
2245.309	661.25
2247.879	679.91667
2250.448	678.58333
2253.014	649.58333
2255.579	646.25
2258.142	666.91667
2260.703	652.58333
2263.262	645.25
2265.82	644.25
2268.376	650.91667
2270.93	633.58333
2273.483	631.25
2276.033	651.25
2278.583	641.58333
2281.13	641.58333
2283.675	625.25
2286.219	635.25
2288.761	635.25
2291.302	636.25
2293.841	650.25
2296.377	620.58333
2298.913	625.58333
2301.446	644.25
2303.978	639.25
2306.508	621.91667
2309.037	638.58333
2311.563	635.25
2314.088	635.58333
2316.612	618.58333
2319.133	634.91667
2321.653	629.58333
2324.171	617.58333
2326.688	635.58333
2329.202	618.25
2331.715	623.25
2334.227	617.25
2336.736	631.91667
2339.244	618.58333
2341.751	612.58333
2344.255	628.58333
2346.758	627.91667
2349.259	607.25
2351.759	623.58333
2354.257	612.58333
2356.753	614.91667
2359.247	614.91667
2361.74	621.91667
2364.231	619.58333
2366.721	626.58333
2369.209	611.25
2371.695	614.91667
2374.179	614.91667
2376.662	611.25
2379.143	631.91667
2381.622	613.91667
2384.1	624.25
2386.576	619.58333
2389.051	636.91667
2391.524	637.25
2393.995	627.91667
2396.464	623.25
2398.932	621.91667
2401.398	614.91667
2403.863	617.25
2406.325	612.91667
2408.787	621.25
2411.246	625.25
2413.704	617.25
2416.16	624.58333
2418.615	628.91667
2421.068	631.58333
2423.519	633.91667
2425.969	624.58333
2428.417	630.58333
2430.863	656.25
2433.308	641.58333
2435.751	634.25
2438.193	627.25
2440.633	636.25
2443.071	630.25
2445.508	631.25
2447.943	629.25
2450.376	625.58333
2452.808	627.91667
2455.238	629.58333
2457.667	664.25
2460.093	626.91667
2462.519	628.91667
2464.942	625.91667
2467.365	633.58333
2469.785	655.91667
2472.204	641.91667
2474.621	619.58333
2477.037	648.91667
2479.451	623.91667
2481.863	627.91667
2484.274	621.91667
2486.683	641.91667
2489.091	641.25
2491.497	631.91667
2493.901	651.91667
2496.304	638.58333
2498.705	652.58333
2501.105	630.58333
2503.503	663.25
2505.899	637.58333
2508.294	664.25
2510.687	642.91667
2513.079	640.25
2515.469	642.58333
2517.858	634.25
2520.245	645.91667
2522.63	641.25
2525.014	641.91667
2527.396	641.91667
2529.776	641.25
2532.156	655.25
2534.533	642.25
2536.909	641.58333
2539.283	644.25
2541.656	632.91667
2544.027	658.58333
2546.397	643.25
2548.765	647.25
2551.131	647.58333
2553.496	650.25
2555.86	662.25
2558.221	659.91667
2560.582	645.91667
2562.94	646.91667
2565.298	657.25
2567.653	678.58333
2570.007	653.25
2572.36	669.25
2574.711	648.58333
2577.06	679.25
2579.408	668.25
2581.754	679.25
2584.099	668.25
2586.442	657.25
2588.784	678.58333
2591.124	672.25
2593.463	674.25
2595.8	674.91667
2598.135	666.58333
2600.469	669.25
2602.802	684.91667
2605.133	679.58333
2607.462	668.91667
2609.79	667.25
2612.116	694.25
2614.441	675.58333
2616.764	682.58333
2619.086	689.58333
2621.406	679.58333
2623.725	703.58333
2626.042	691.25
2628.358	697.58333
2630.672	684.91667
2632.985	709.58333
2635.296	693.58333
2637.606	705.25
2639.914	696.25
2642.22	702.58333
2644.525	695.25
2646.829	717.58333
2649.131	711.58333
2651.432	721.25
2653.731	711.58333
2656.028	725.58333
2658.324	739.25
2660.619	727.91667
2662.912	728.25
2665.204	727.58333
2667.494	731.58333
2669.782	722.58333
2672.07	737.58333
2674.355	743.58333
2676.639	739.25
2678.922	726.91667
2681.203	742.58333
2683.483	734.58333
2685.761	721.91667
2688.038	736.91667
2690.313	756.25
2692.587	742.91667
2694.859	728.25
2697.13	747.91667
2699.399	751.91667
2701.667	762.58333
2703.933	765.91667
2706.198	761.25
2708.461	767.58333
2710.723	776.58333
2712.984	766.25
2715.243	772.25
2717.5	777.25
2719.757	796.25
2722.011	785.25
2724.264	796.58333
2726.516	808.91667
2728.766	788.91667
2731.015	800.25
2733.262	803.58333
2735.508	795.58333
2737.753	800.58333
2739.996	796.91667
2742.237	787.25
2744.477	807.91667
2746.716	791.91667
2748.953	786.58333
2751.189	802.58333
2753.423	795.25
2755.656	784.91667
2757.887	780.58333
2760.117	785.91667
2762.346	770.91667
2764.573	772.58333
2766.798	789.58333
2769.022	774.58333
2771.245	773.25
2773.467	807.25
2775.686	803.58333
2777.905	800.25
2780.122	806.58333
2782.337	805.91667
2784.552	822.25
2786.764	808.25
2788.976	832.58333
2791.186	827.91667
2793.394	833.91667
2795.601	840.25
2797.807	844.91667
2800.011	871.25
2802.214	866.25
2804.415	853.91667
2806.615	866.58333
2808.814	861.25
2811.011	880.25
2813.206	866.91667
2815.401	888.25
2817.594	882.58333
2819.785	894.58333
2821.975	892.25
2824.164	898.25
2826.351	912.58333
2828.537	926.25
2830.722	940.58333
2832.905	940.91667
2835.086	958.25
2837.267	979.91667
2839.445	995.91667
2841.623	999.91667
2843.799	1025.25
2845.974	1054.58333
2848.147	1098.91667
2850.319	1107.25
2852.489	1135.91667
2854.659	1136.91667
2856.826	1158.25
2858.993	1182.91667
2861.158	1174.58333
2863.321	1157.91667
2865.483	1184.25
2867.644	1187.58333
2869.804	1172.58333
2871.962	1159.25
2874.118	1165.58333
2876.274	1177.91667
2878.428	1175.91667
2880.58	1164.25
2882.731	1163.25
2884.881	1153.58333
2887.03	1168.91667
2889.177	1170.25
2891.322	1192.91667
2893.467	1185.25
2895.61	1184.91667
2897.751	1200.58333
2899.892	1194.25
2902.03	1219.91667
2904.168	1214.58333
2906.304	1220.91667
2908.439	1234.91667
2910.572	1225.58333
2912.704	1242.58333
2914.835	1241.25
2916.965	1233.58333
2919.093	1251.58333
2921.219	1219.58333
2923.345	1243.25
2925.469	1212.58333
2927.591	1212.58333
2929.712	1187.91667
2931.832	1191.91667
2933.951	1164.91667
2936.068	1158.91667
2938.184	1141.58333
2940.299	1126.25
2942.412	1109.25
2944.524	1084.58333
2946.634	1098.25
2948.744	1048.58333
2950.851	1052.58333
2952.958	1025.91667
2955.063	1037.91667
2957.167	1017.25
2959.269	990.58333
2961.371	1032.58333
2963.471	998.58333
2965.569	1002.58333
2967.666	965.91667
2969.762	963.25
2971.857	951.91667
2973.95	944.25
2976.042	937.58333
2978.133	916.25
2980.222	900.25
2982.31	886.25
2984.396	875.91667
2986.482	882.25
2988.566	867.91667
2990.648	866.58333
2992.73	879.25
2994.81	846.58333
2996.889	868.25
2998.966	862.25
3001.042	858.91667
3003.117	857.91667
3005.191	853.91667
3007.263	859.91667
3009.334	846.25
3011.403	847.58333
3013.472	820.25
3015.539	819.25
3017.604	839.58333
3019.669	786.91667
3021.732	796.58333
3023.794	797.91667
3025.854	800.25
3027.914	785.58333
3029.971	806.25
3032.028	789.58333
3034.083	793.25
3036.137	789.58333
3038.19	766.91667
3040.242	750.91667
3042.292	715.91667
3044.341	734.58333
3046.388	737.25
3048.435	709.25
3050.48	728.25
3052.524	712.58333
3054.566	705.91667
3056.607	714.25
3058.647	691.25
3060.686	671.25
3062.723	652.91667
3064.759	631.58333
3066.794	-0.41667
3068.828	4.58333
3070.86	-0.75
