-0.839	593.54167
3.438	733.54167
7.711	213.20833
11.981	64.875
16.247	43.54167
20.509	49.20833
24.768	46.54167
29.024	51.20833
33.276	43.54167
37.524	50.54167
41.769	47.875
46.01	32.20833
50.247	44.54167
54.481	56.875
58.712	60.54167
62.939	51.875
67.162	62.20833
71.382	56.20833
75.599	43.20833
79.812	58.54167
84.021	81.875
88.227	57.20833
92.429	58.54167
96.628	51.875
100.823	74.20833
105.015	69.20833
109.204	67.54167
113.388	74.875
117.57	72.875
121.748	89.20833
125.922	74.20833
130.093	99.875
134.261	95.875
138.425	98.875
142.585	135.875
146.742	126.54167
150.896	156.875
155.046	189.54167
159.193	311.54167
163.336	510.875
167.476	950.20833
171.613	1712.54167
175.746	2852.54167
179.875	4211.54167
184.002	5494.54167
188.124	6352.875
192.244	6635.54167
196.36	6576.20833
200.472	6370.20833
204.581	6177.875
208.687	5979.20833
212.79	5902.20833
216.889	5895.20833
220.984	5892.20833
225.077	5919.875
229.165	5889.20833
233.251	5858.20833
237.333	5808.875
241.412	5729.20833
245.487	5698.875
249.559	5614.54167
253.628	5582.875
257.694	5515.875
261.756	5476.54167
265.814	5357.875
269.87	5226.54167
273.922	5058.54167
277.97	4955.875
282.016	4903.875
286.058	4952.875
290.097	5044.54167
294.132	5074.20833
298.164	5043.20833
302.193	4779.875
306.219	4480.875
310.241	4146.875
314.26	3868.20833
318.276	3610.20833
322.288	3406.54167
326.297	3312.54167
330.303	3199.875
334.305	3128.875
338.305	3089.875
342.301	3047.20833
346.294	3022.875
350.283	3009.875
354.269	2986.54167
358.252	2994.875
362.232	2952.875
366.209	2944.875
370.182	2899.54167
374.152	2895.54167
378.119	2887.54167
382.083	2880.20833
386.043	2905.20833
390	2866.54167
393.954	2894.875
397.905	2880.875
401.852	2859.20833
405.797	2833.20833
409.738	2811.875
413.676	2848.875
417.61	2829.875
421.542	2801.54167
425.47	2786.20833
429.396	2777.54167
433.318	2767.54167
437.236	2759.875
441.152	2793.20833
445.065	2720.54167
448.974	2720.875
452.88	2709.20833
456.783	2688.20833
460.683	2672.20833
464.58	2694.54167
468.473	2668.20833
472.364	2712.20833
476.251	2711.54167
480.135	2737.20833
484.016	2753.54167
487.894	2770.20833
491.769	2781.54167
495.641	2786.54167
499.509	2783.875
503.375	2807.54167
507.237	2801.20833
511.096	2812.20833
514.952	2976.875
518.805	3145.54167
522.655	3229.875
526.502	3004.875
530.346	2806.875
534.187	2780.875
538.024	2767.875
541.859	2780.20833
545.69	2815.54167
549.519	2779.54167
553.344	2765.54167
557.166	2711.875
560.985	2674.54167
564.802	2661.875
568.615	2617.20833
572.425	2571.54167
576.232	2565.54167
580.036	2570.875
583.836	2581.875
587.634	2585.54167
591.429	2586.875
595.221	2671.20833
599.01	2683.54167
602.796	2667.54167
606.578	2712.20833
610.358	2695.54167
614.135	2688.54167
617.909	2666.875
621.679	2642.54167
625.447	2626.875
629.212	2637.875
632.973	2629.54167
636.732	2619.20833
640.488	2600.54167
644.241	2599.875
647.991	2596.54167
651.737	2604.20833
655.481	2573.54167
659.222	2563.875
662.96	2567.54167
666.695	2588.54167
670.427	2604.20833
674.156	2610.875
677.882	2600.54167
681.605	2590.20833
685.325	2562.20833
689.043	2575.54167
692.757	2540.875
696.468	2544.54167
700.177	2554.875
703.882	2509.875
707.585	2530.54167
711.284	2511.54167
714.981	2512.875
718.675	2515.54167
722.366	2516.54167
726.054	2486.875
729.739	2524.20833
733.421	2515.54167
737.1	2515.20833
740.777	2551.20833
744.45	2545.875
748.121	2557.875
751.789	2589.54167
755.453	2596.54167
759.115	2626.20833
762.774	2614.875
766.431	2633.875
770.084	2641.875
773.734	2666.875
777.382	2714.54167
781.027	2745.54167
784.669	2746.20833
788.308	2763.875
791.944	2785.875
795.577	2782.875
799.208	2783.20833
802.835	2796.875
806.46	2809.875
810.082	2833.875
813.701	2832.54167
817.317	2849.875
820.931	2857.875
824.542	2837.54167
828.149	2797.54167
831.754	2826.20833
835.357	2785.20833
838.956	2820.20833
842.553	2794.54167
846.146	2782.875
849.737	2743.875
853.326	2787.875
856.911	2750.20833
860.493	2805.875
864.073	2811.54167
867.65	2844.54167
871.225	2848.20833
874.796	2879.875
878.365	2855.875
881.931	2888.20833
885.494	2923.875
889.054	2923.875
892.612	2918.20833
896.166	2891.875
899.719	2879.54167
903.268	2830.20833
906.814	2800.875
910.358	2771.20833
913.899	2771.20833
917.438	2746.875
920.973	2732.54167
924.506	2777.54167
928.036	2819.875
931.564	2864.20833
935.088	2894.875
938.61	2885.54167
942.129	2936.20833
945.646	2992.54167
949.16	3059.20833
952.671	3086.20833
956.179	3090.54167
959.685	3052.20833
963.188	3023.54167
966.688	2996.20833
970.185	2911.20833
973.68	2892.875
977.173	2825.54167
980.662	2794.54167
984.149	2779.54167
987.633	2785.875
991.114	2830.54167
994.593	2877.54167
998.069	2946.54167
1001.542	3007.875
1005.013	2980.54167
1008.481	2804.20833
1011.947	2781.875
1015.409	2758.54167
1018.869	2752.20833
1022.327	2745.875
1025.782	2741.20833
1029.234	2706.54167
1032.683	2638.54167
1036.13	2603.54167
1039.574	2501.875
1043.016	2446.875
1046.455	2416.20833
1049.891	2391.54167
1053.325	2392.54167
1056.756	2392.875
1060.184	2412.875
1063.61	2425.20833
1067.033	2453.875
1070.454	2440.875
1073.872	2458.54167
1077.287	2452.20833
1080.7	2459.875
1084.11	2444.20833
1087.517	2426.54167
1090.922	2397.54167
1094.325	2371.875
1097.724	2353.54167
1101.122	2361.875
1104.516	2359.875
1107.908	2331.875
1111.298	2371.20833
1114.684	2437.875
1118.069	2466.20833
1121.45	2475.20833
1124.83	2452.875
1128.206	2506.875
1131.58	2527.54167
1134.951	2594.875
1138.32	2659.54167
1141.687	2747.20833
1145.05	2789.20833
1148.412	2781.54167
1151.77	2798.875
1155.126	2788.875
1158.48	2768.20833
1161.831	2786.54167
1165.18	2809.54167
1168.525	2836.20833
1171.869	2867.875
1175.21	2865.54167
1178.548	2885.54167
1181.884	2915.20833
1185.217	2975.875
1188.548	3007.875
1191.877	3044.54167
1195.202	3155.54167
1198.526	3219.875
1201.846	3223.20833
1205.165	3235.20833
1208.48	3242.54167
1211.794	3209.54167
1215.104	3214.54167
1218.413	3217.875
1221.719	3210.875
1225.022	3180.54167
1228.323	3125.875
1231.621	3100.20833
1234.917	3089.875
1238.21	3106.875
1241.501	3093.54167
1244.79	3074.54167
1248.076	3069.875
1251.359	3108.54167
1254.64	3179.54167
1257.919	3186.54167
1261.195	3228.875
1264.468	3304.875
1267.74	3349.54167
1271.008	3362.20833
1274.275	3332.54167
1277.538	3285.20833
1280.8	3308.875
1284.059	3282.20833
1287.315	3321.54167
1290.569	3335.20833
1293.821	3354.54167
1297.07	3351.875
1300.317	3375.20833
1303.562	3387.54167
1306.803	3343.20833
1310.043	3308.875
1313.28	3273.20833
1316.515	3234.20833
1319.747	3224.54167
1322.977	3195.20833
1326.204	3162.20833
1329.429	3110.20833
1332.652	3101.54167
1335.872	3095.54167
1339.09	3056.20833
1342.306	3040.20833
1345.519	2995.54167
1348.729	2983.875
1351.938	2970.875
1355.144	2917.54167
1358.347	2917.54167
1361.548	2893.54167
1364.747	2881.54167
1367.944	2853.875
1371.138	2884.20833
1374.329	2873.54167
1377.518	2908.875
1380.705	2919.20833
1383.89	2888.20833
1387.072	2809.54167
1390.252	2703.54167
1393.429	2613.875
1396.605	2541.54167
1399.777	2469.875
1402.948	2439.20833
1406.116	2410.20833
1409.282	2422.20833
1412.445	2427.20833
1415.606	2449.54167
1418.765	2501.54167
1421.921	2569.54167
1425.075	2667.875
1428.227	2657.20833
1431.376	2768.875
1434.524	2881.20833
1437.668	2946.20833
1440.811	2978.20833
1443.951	3007.54167
1447.089	2999.54167
1450.224	2978.20833
1453.357	2981.54167
1456.488	2946.875
1459.617	2906.54167
1462.743	2835.20833
1465.867	2780.20833
1468.989	2733.20833
1472.108	2698.20833
1475.225	2647.875
1478.34	2637.54167
1481.453	2619.20833
1484.563	2619.54167
1487.671	2644.875
1490.776	2667.875
1493.88	2717.875
1496.981	2758.54167
1500.08	2820.20833
1503.176	2820.875
1506.271	2876.875
1509.363	2917.54167
1512.452	2931.54167
1515.54	2977.54167
1518.625	3017.54167
1521.708	3079.54167
1524.789	3161.875
1527.867	3310.54167
1530.944	3445.54167
1534.018	3609.20833
1537.089	3769.875
1540.159	3802.875
1543.226	3813.20833
1546.291	3742.54167
1549.354	3648.875
1552.415	3604.875
1555.473	3483.54167
1558.529	3422.20833
1561.583	3406.875
1564.634	3350.54167
1567.684	3358.20833
1570.731	3365.875
1573.776	3414.54167
1576.819	3434.20833
1579.859	3473.54167
1582.898	3495.20833
1585.934	3535.54167
1588.968	3534.54167
1591.999	3526.20833
1595.029	3538.875
1598.056	3548.54167
1601.081	3580.875
1604.104	3563.54167
1607.125	3517.54167
1610.144	3474.20833
1613.16	3401.875
1616.174	3330.875
1619.186	3279.875
1622.196	3166.54167
1625.203	3106.54167
1628.209	3065.54167
1631.212	3055.20833
1634.213	3021.875
1637.212	3003.875
1640.209	2947.54167
1643.203	2882.54167
1646.196	2770.54167
1649.186	2692.54167
1652.174	2614.875
1655.16	2499.54167
1658.144	2442.54167
1661.125	2343.875
1664.105	2240.875
1667.082	2171.20833
1670.057	2041.20833
1673.03	1930.20833
1676.001	1799.875
1678.97	1703.875
1681.937	1606.54167
1684.901	1510.20833
1687.863	1476.20833
1690.824	1395.875
1693.782	1384.875
1696.738	1317.875
1699.692	1309.875
1702.643	1256.875
1705.593	1255.20833
1708.54	1242.20833
1711.486	1220.20833
1714.429	1216.875
1717.37	1194.875
1720.309	1166.875
1723.246	1177.20833
1726.181	1146.875
1729.113	1157.20833
1732.044	1149.20833
1734.972	1124.20833
1737.899	1130.20833
1740.823	1128.20833
1743.745	1091.875
1746.665	1091.875
1749.583	1072.54167
1752.499	1038.20833
1755.413	1038.20833
1758.325	1018.875
1761.235	1006.875
1764.142	1004.54167
1767.048	986.20833
1769.951	995.20833
1772.852	990.875
1775.752	976.20833
1778.649	969.20833
1781.544	999.875
1784.437	946.20833
1787.328	960.875
1790.217	957.54167
1793.104	920.20833
1795.989	924.875
1798.872	918.875
1801.753	936.54167
1804.631	942.20833
1807.508	942.875
1810.383	929.20833
1813.255	909.875
1816.126	926.20833
1818.994	925.20833
1821.861	917.875
1824.725	903.875
1827.587	900.875
1830.448	889.875
1833.306	874.875
1836.162	887.20833
1839.017	883.875
1841.869	868.875
1844.719	865.875
1847.567	865.20833
1850.414	863.875
1853.258	854.875
1856.1	881.875
1858.94	868.54167
1861.778	860.875
1864.614	852.875
1867.448	858.875
1870.28	846.875
1873.111	867.20833
1875.939	853.875
1878.765	877.54167
1881.589	845.54167
1884.411	839.875
1887.231	850.54167
1890.049	851.54167
1892.865	844.20833
1895.68	838.20833
1898.492	837.20833
1901.302	850.54167
1904.11	830.20833
1906.916	828.20833
1909.721	805.54167
1912.523	825.875
1915.323	807.875
1918.122	812.54167
1920.918	823.20833
1923.712	815.54167
1926.505	813.20833
1929.295	798.54167
1932.084	808.54167
1934.87	806.20833
1937.655	812.875
1940.438	796.54167
1943.218	798.20833
1945.997	821.54167
1948.774	825.54167
1951.549	821.20833
1954.322	801.875
1957.093	796.875
1959.862	797.54167
1962.629	791.875
1965.394	786.20833
1968.157	776.20833
1970.918	775.875
1973.678	776.875
1976.435	786.54167
1979.19	791.875
1981.944	771.875
1984.696	767.20833
1987.445	755.20833
1990.193	769.20833
1992.939	783.20833
1995.683	774.54167
1998.425	755.54167
2001.165	764.54167
2003.903	756.875
2006.639	748.20833
2009.374	765.54167
2012.106	762.54167
2014.837	735.875
2017.566	757.875
2020.292	763.20833
2023.017	757.54167
2025.74	756.54167
2028.461	732.20833
2031.18	746.875
2033.898	737.54167
2036.613	735.54167
2039.327	739.875
2042.038	741.20833
2044.748	723.875
2047.456	740.20833
2050.162	719.875
2052.866	736.875
2055.568	739.875
2058.268	721.20833
2060.967	731.54167
2063.663	717.54167
2066.358	718.875
2069.051	714.20833
2071.742	734.20833
2074.431	734.875
2077.118	725.54167
2079.804	719.20833
2082.487	724.54167
2085.169	736.20833
2087.849	750.54167
2090.527	725.20833
2093.203	738.54167
2095.877	748.875
2098.55	747.20833
2101.22	738.875
2103.889	762.875
2106.556	746.20833
2109.221	775.20833
2111.884	787.875
2114.546	849.54167
2117.205	886.875
2119.863	950.20833
2122.519	999.875
2125.173	1063.875
2127.825	1105.20833
2130.475	1091.20833
2133.124	1053.54167
2135.771	1024.875
2138.416	977.54167
2141.059	927.54167
2143.7	896.54167
2146.339	855.875
2148.977	809.875
2151.613	819.875
2154.247	779.54167
2156.879	761.875
2159.51	751.54167
2162.138	727.54167
2164.765	744.54167
2167.39	717.54167
2170.013	738.875
2172.634	728.875
2175.254	724.20833
2177.872	737.54167
2180.488	703.54167
2183.102	715.20833
2185.714	697.54167
2188.325	678.875
2190.934	688.875
2193.541	690.54167
2196.146	688.54167
2198.75	678.875
2201.351	670.54167
2203.951	660.875
2206.549	689.54167
2209.146	669.20833
2211.74	670.54167
2214.333	671.20833
2216.924	651.875
2219.514	656.20833
2222.101	661.54167
2224.687	667.875
2227.271	663.20833
2229.853	653.875
2232.433	639.54167
2235.012	669.54167
2237.589	661.20833
2240.164	668.20833
2242.738	651.875
2245.309	643.20833
2247.879	667.20833
2250.448	656.875
2253.014	639.20833
2255.579	642.54167
2258.142	630.875
2260.703	621.54167
2263.262	629.20833
2265.82	620.54167
2268.376	632.20833
2270.93	620.875
2273.483	624.54167
2276.033	629.875
2278.583	617.54167
2281.13	619.54167
2283.675	613.54167
2286.219	630.20833
2288.761	620.20833
2291.302	634.54167
2293.841	641.54167
2296.377	600.875
2298.913	613.54167
2301.446	630.20833
2303.978	622.875
2306.508	613.875
2309.037	610.20833
2311.563	629.54167
2314.088	623.875
2316.612	603.875
2319.133	610.20833
2321.653	612.54167
2324.171	610.20833
2326.688	630.875
2329.202	619.20833
2331.715	612.875
2334.227	619.20833
2336.736	609.20833
2339.244	611.20833
2341.751	597.875
2344.255	614.54167
2346.758	600.20833
2349.259	595.20833
2351.759	613.54167
2354.257	610.54167
2356.753	600.20833
2359.247	609.20833
2361.74	621.54167
2364.231	623.875
2366.721	620.20833
2369.209	614.20833
2371.695	617.20833
2374.179	610.875
2376.662	601.875
2379.143	626.54167
2381.622	606.20833
2384.1	620.20833
2386.576	621.54167
2389.051	633.875
2391.524	628.875
2393.995	621.54167
2396.464	614.20833
2398.932	615.54167
2401.398	616.20833
2403.863	617.875
2406.325	618.20833
2408.787	613.875
2411.246	610.875
2413.704	613.875
2416.16	619.54167
2418.615	613.20833
2421.068	619.875
2423.519	618.20833
2425.969	609.20833
2428.417	618.54167
2430.863	635.875
2433.308	642.875
2435.751	624.875
2438.193	622.20833
2440.633	624.875
2443.071	624.20833
2445.508	631.20833
2447.943	622.875
2450.376	617.20833
2452.808	627.54167
2455.238	615.875
2457.667	654.54167
2460.093	617.875
2462.519	610.54167
2464.942	616.54167
2467.365	631.54167
2469.785	637.875
2472.204	636.54167
2474.621	632.20833
2477.037	633.875
2479.451	615.20833
2481.863	623.875
2484.274	619.54167
2486.683	637.54167
2489.091	646.20833
2491.497	642.875
2493.901	646.875
2496.304	632.875
2498.705	637.54167
2501.105	632.20833
2503.503	656.20833
2505.899	625.20833
2508.294	645.875
2510.687	640.54167
2513.079	646.54167
2515.469	641.54167
2517.858	638.20833
2520.245	652.875
2522.63	638.20833
2525.014	634.20833
2527.396	640.54167
2529.776	640.875
2532.156	652.54167
2534.533	640.875
2536.909	637.20833
2539.283	632.20833
2541.656	632.20833
2544.027	654.20833
2546.397	652.875
2548.765	644.20833
2551.131	654.875
2553.496	643.875
2555.86	658.20833
2558.221	654.54167
2560.582	655.20833
2562.94	647.20833
2565.298	650.54167
2567.653	667.54167
2570.007	649.20833
2572.36	664.54167
2574.711	648.20833
2577.06	678.875
2579.408	668.54167
2581.754	663.875
2584.099	679.20833
2586.442	661.875
2588.784	674.54167
2591.124	659.54167
2593.463	677.20833
2595.8	683.20833
2598.135	662.875
2600.469	674.20833
2602.802	683.20833
2605.133	682.20833
2607.462	669.54167
2609.79	663.54167
2612.116	688.875
2614.441	682.875
2616.764	684.54167
2619.086	677.875
2621.406	682.20833
2623.725	708.54167
2626.042	702.875
2628.358	673.20833
2630.672	684.54167
2632.985	709.54167
2635.296	697.54167
2637.606	710.875
2639.914	686.54167
2642.22	684.875
2644.525	697.20833
2646.829	717.54167
2649.131	714.54167
2651.432	719.875
2653.731	718.875
2656.028	727.54167
2658.324	726.20833
2660.619	712.875
2662.912	728.20833
2665.204	712.54167
2667.494	730.20833
2669.782	724.875
2672.07	729.20833
2674.355	748.54167
2676.639	730.54167
2678.922	726.20833
2681.203	732.54167
2683.483	731.875
2685.761	729.20833
2688.038	737.20833
2690.313	759.20833
2692.587	741.20833
2694.859	743.20833
2697.13	744.54167
2699.399	765.20833
2701.667	762.54167
2703.933	759.54167
2706.198	757.875
2708.461	771.875
2710.723	772.875
2712.984	780.20833
2715.243	781.875
2717.5	764.875
2719.757	795.54167
2722.011	783.54167
2724.264	795.20833
2726.516	811.875
2728.766	796.20833
2731.015	795.54167
2733.262	813.20833
2735.508	806.20833
2737.753	810.54167
2739.996	801.875
2742.237	802.54167
2744.477	817.20833
2746.716	803.54167
2748.953	795.875
2751.189	802.875
2753.423	787.20833
2755.656	782.875
2757.887	770.54167
2760.117	780.20833
2762.346	783.875
2764.573	775.54167
2766.798	785.54167
2769.022	784.54167
2771.245	789.875
2773.467	808.875
2775.686	800.20833
2777.905	816.20833
2780.122	806.875
2782.337	821.20833
2784.552	823.20833
2786.764	817.20833
2788.976	829.875
2791.186	820.875
2793.394	843.875
2795.601	843.875
2797.807	843.875
2800.011	862.54167
2802.214	873.20833
2804.415	872.875
2806.615	867.54167
2808.814	877.20833
2811.011	885.54167
2813.206	875.54167
2815.401	886.20833
2817.594	899.875
2819.785	904.875
2821.975	894.20833
2824.164	899.54167
2826.351	919.20833
2828.537	930.20833
2830.722	930.54167
2832.905	941.875
2835.086	967.20833
2837.267	1005.20833
2839.445	993.20833
2841.623	1023.875
2843.799	1033.875
2845.974	1063.54167
2848.147	1084.54167
2850.319	1118.54167
2852.489	1137.875
2854.659	1153.20833
2856.826	1162.875
2858.993	1183.54167
2861.158	1178.875
2863.321	1186.20833
2865.483	1189.54167
2867.644	1183.875
2869.804	1173.20833
2871.962	1192.54167
2874.118	1177.20833
2876.274	1171.20833
2878.428	1188.20833
2880.58	1172.20833
2882.731	1170.54167
2884.881	1157.54167
2887.03	1177.875
2889.177	1189.875
2891.322	1194.875
2893.467	1184.20833
2895.61	1187.875
2897.751	1214.20833
2899.892	1200.54167
2902.03	1198.54167
2904.168	1217.875
2906.304	1220.875
2908.439	1244.54167
2910.572	1226.20833
2912.704	1255.54167
2914.835	1235.20833
2916.965	1258.875
2919.093	1262.20833
2921.219	1233.875
2923.345	1264.20833
2925.469	1224.875
2927.591	1226.54167
2929.712	1188.54167
2931.832	1198.20833
2933.951	1170.20833
2936.068	1173.54167
2938.184	1137.20833
2940.299	1127.54167
2942.412	1109.54167
2944.524	1090.875
2946.634	1078.20833
2948.744	1044.54167
2950.851	1075.20833
2952.958	1032.875
2955.063	1025.54167
2957.167	1029.875
2959.269	1006.875
2961.371	1040.875
2963.471	999.54167
2965.569	997.54167
2967.666	985.875
2969.762	976.875
2971.857	965.875
2973.95	940.20833
2976.042	941.875
2978.133	919.54167
2980.222	920.20833
2982.31	901.20833
2984.396	888.875
2986.482	890.54167
2988.566	883.875
2990.648	858.20833
2992.73	873.875
2994.81	858.875
2996.889	873.875
2998.966	870.20833
3001.042	880.20833
3003.117	873.20833
3005.191	874.54167
3007.263	868.20833
3009.334	856.20833
3011.403	847.875
3013.472	826.54167
3015.539	835.20833
3017.604	829.54167
3019.669	805.54167
3021.732	816.875
3023.794	804.875
3025.854	807.20833
3027.914	798.54167
3029.971	815.875
3032.028	806.20833
3034.083	812.54167
3036.137	791.20833
3038.19	764.54167
3040.242	748.20833
3042.292	730.54167
3044.341	731.54167
3046.388	746.54167
3048.435	718.54167
3050.48	736.20833
3052.524	720.875
3054.566	711.54167
3056.607	727.875
3058.647	691.20833
3060.686	682.875
3062.723	658.20833
3064.759	636.54167
3066.794	-0.125
3068.828	1.875
3070.86	3.20833
