-0.839	421.29167
3.438	507.95833
7.711	148.95833
11.981	59.29167
16.247	47.625
20.509	53.29167
24.768	44.29167
29.024	56.625
33.276	45.625
37.524	52.625
41.769	47.625
46.01	36.29167
50.247	41.29167
54.481	61.625
58.712	67.95833
62.939	50.95833
67.162	64.625
71.382	59.95833
75.599	49.625
79.812	63.625
84.021	78.95833
88.227	62.29167
92.429	62.29167
96.628	52.625
100.823	68.625
105.015	80.29167
109.204	69.625
113.388	78.95833
117.57	77.95833
121.748	88.29167
125.922	82.95833
130.093	101.625
134.261	98.95833
138.425	99.95833
142.585	135.625
146.742	137.29167
150.896	163.29167
155.046	197.95833
159.193	290.95833
163.336	486.625
167.476	909.95833
171.613	1664.95833
175.746	2853.95833
179.875	4231.625
184.002	5589.625
188.124	6556.29167
192.244	6971.95833
196.36	7014.95833
200.472	6890.625
204.581	6738.625
208.687	6672.625
212.79	6714.29167
216.889	6741.625
220.984	6823.625
225.077	6891.29167
229.165	6976.625
233.251	7014.95833
237.333	7017.29167
241.412	6970.29167
245.487	6919.625
249.559	6911.29167
253.628	6886.29167
257.694	6839.95833
261.756	6777.95833
265.814	6623.95833
269.87	6436.29167
273.922	6241.625
277.97	6173.625
282.016	6062.95833
286.058	6154.29167
290.097	6287.29167
294.132	6417.625
298.164	6325.95833
302.193	5953.625
306.219	5524.29167
310.241	5082.625
314.26	4626.95833
318.276	4306.29167
322.288	4076.95833
326.297	3873.29167
330.303	3762.625
334.305	3663.625
338.305	3604.29167
342.301	3510.625
346.294	3500.29167
350.283	3480.95833
354.269	3463.95833
358.252	3436.29167
362.232	3426.29167
366.209	3386.95833
370.182	3349.29167
374.152	3336.95833
378.119	3345.95833
382.083	3366.95833
386.043	3327.95833
390	3315.95833
393.954	3304.29167
397.905	3317.29167
401.852	3306.625
405.797	3251.625
409.738	3254.95833
413.676	3255.625
417.61	3256.625
421.542	3252.95833
425.47	3204.625
429.396	3162.95833
433.318	3166.625
437.236	3149.29167
441.152	3161.625
445.065	3124.625
448.974	3123.29167
452.88	3096.29167
456.783	3063.625
460.683	3065.625
464.58	3038.95833
468.473	3036.29167
472.364	3083.95833
476.251	3094.625
480.135	3104.95833
484.016	3168.95833
487.894	3187.29167
491.769	3197.625
495.641	3159.29167
499.509	3172.95833
503.375	3150.95833
507.237	3177.625
511.096	3148.29167
514.952	3194.95833
518.805	3225.95833
522.655	3255.625
526.502	3194.625
530.346	3167.29167
534.187	3153.29167
538.024	3177.95833
541.859	3190.95833
545.69	3222.95833
549.519	3183.29167
553.344	3199.29167
557.166	3136.29167
560.985	3085.95833
564.802	3020.95833
568.615	2977.29167
572.425	2922.29167
576.232	2928.625
580.036	2934.29167
583.836	2942.625
587.634	2961.95833
591.429	2976.29167
595.221	3030.625
599.01	3052.29167
602.796	3083.95833
606.578	3096.625
610.358	3096.625
614.135	3078.95833
617.909	3052.29167
621.679	3031.29167
625.447	3007.29167
629.212	3018.29167
632.973	3020.95833
636.732	3017.29167
640.488	3011.29167
644.241	2982.95833
647.991	2973.29167
651.737	2993.95833
655.481	2949.625
659.222	2946.29167
662.96	2932.29167
666.695	2956.29167
670.427	2966.625
674.156	3006.95833
677.882	2957.625
681.605	2966.625
685.325	2930.95833
689.043	2931.625
692.757	2891.625
696.468	2900.625
700.177	2913.29167
703.882	2896.625
707.585	2901.625
711.284	2897.95833
714.981	2859.29167
718.675	2872.95833
722.366	2895.29167
726.054	2869.95833
729.739	2899.625
733.421	2864.95833
737.1	2893.29167
740.777	2919.625
744.45	2925.625
748.121	2949.95833
751.789	2985.95833
755.453	2980.29167
759.115	3011.95833
762.774	3039.625
766.431	3028.95833
770.084	3083.95833
773.734	3116.29167
777.382	3160.95833
781.027	3212.29167
784.669	3225.95833
788.308	3232.29167
791.944	3269.625
795.577	3251.625
799.208	3289.95833
802.835	3318.29167
806.46	3340.625
810.082	3341.29167
813.701	3326.625
817.317	3372.95833
820.931	3364.625
824.542	3336.95833
828.149	3333.625
831.754	3310.95833
835.357	3341.625
838.956	3344.625
842.553	3349.625
846.146	3311.29167
849.737	3283.95833
853.326	3283.95833
856.911	3309.625
860.493	3329.29167
864.073	3371.29167
867.65	3404.29167
871.225	3445.625
874.796	3457.625
878.365	3456.625
881.931	3458.95833
885.494	3510.625
889.054	3508.95833
892.612	3487.95833
896.166	3479.625
899.719	3450.29167
903.268	3398.29167
906.814	3380.95833
910.358	3327.95833
913.899	3321.625
917.438	3318.29167
920.973	3316.29167
924.506	3341.29167
928.036	3403.29167
931.564	3445.625
935.088	3486.625
938.61	3495.625
942.129	3540.625
945.646	3625.625
949.16	3672.29167
952.671	3741.625
956.179	3711.625
959.685	3657.29167
963.188	3659.29167
966.688	3575.29167
970.185	3505.625
973.68	3440.29167
977.173	3394.95833
980.662	3346.625
984.149	3365.95833
987.633	3339.95833
991.114	3396.29167
994.593	3464.625
998.069	3578.95833
1001.542	3673.29167
1005.013	3605.29167
1008.481	3416.625
1011.947	3364.95833
1015.409	3323.95833
1018.869	3310.625
1022.327	3333.625
1025.782	3308.95833
1029.234	3308.95833
1032.683	3211.625
1036.13	3103.625
1039.574	3013.625
1043.016	2934.95833
1046.455	2885.95833
1049.891	2873.29167
1053.325	2880.95833
1056.756	2898.625
1060.184	2920.625
1063.61	2924.625
1067.033	2949.625
1070.454	2947.29167
1073.872	2995.625
1077.287	2973.29167
1080.7	2966.95833
1084.11	2948.29167
1087.517	2923.29167
1090.922	2864.29167
1094.325	2865.625
1097.724	2830.625
1101.122	2831.29167
1104.516	2849.29167
1107.908	2847.625
1111.298	2875.29167
1114.684	2942.625
1118.069	2971.625
1121.45	3004.29167
1124.83	3019.625
1128.206	3040.29167
1131.58	3090.29167
1134.951	3142.625
1138.32	3245.625
1141.687	3366.625
1145.05	3425.95833
1148.412	3437.95833
1151.77	3400.95833
1155.126	3428.95833
1158.48	3393.625
1161.831	3429.29167
1165.18	3491.29167
1168.525	3508.29167
1171.869	3546.95833
1175.21	3587.95833
1178.548	3591.625
1181.884	3639.95833
1185.217	3661.95833
1188.548	3744.625
1191.877	3814.625
1195.202	3897.95833
1198.526	3963.625
1201.846	3989.625
1205.165	4009.625
1208.48	3967.95833
1211.794	3926.625
1215.104	3982.95833
1218.413	3942.29167
1221.719	3957.625
1225.022	3905.95833
1228.323	3839.625
1231.621	3804.625
1234.917	3764.29167
1238.21	3829.95833
1241.501	3782.625
1244.79	3775.625
1248.076	3769.95833
1251.359	3823.95833
1254.64	3920.95833
1257.919	3919.95833
1261.195	4016.95833
1264.468	4057.95833
1267.74	4103.29167
1271.008	4138.625
1274.275	4102.29167
1277.538	4068.625
1280.8	4055.625
1284.059	4033.29167
1287.315	4096.95833
1290.569	4118.95833
1293.821	4129.625
1297.07	4165.625
1300.317	4133.625
1303.562	4185.95833
1306.803	4113.95833
1310.043	4088.29167
1313.28	4053.625
1316.515	4005.625
1319.747	3993.625
1322.977	3944.625
1326.204	3852.625
1329.429	3816.29167
1332.652	3804.29167
1335.872	3762.625
1339.09	3718.95833
1342.306	3704.29167
1345.519	3645.625
1348.729	3617.95833
1351.938	3610.29167
1355.144	3531.625
1358.347	3506.625
1361.548	3507.625
1364.747	3468.95833
1367.944	3433.29167
1371.138	3467.625
1374.329	3475.29167
1377.518	3512.29167
1380.705	3552.95833
1383.89	3477.29167
1387.072	3404.29167
1390.252	3264.95833
1393.429	3120.29167
1396.605	3053.95833
1399.777	2983.625
1402.948	2942.625
1406.116	2925.29167
1409.282	2916.95833
1412.445	2926.95833
1415.606	2962.625
1418.765	3008.29167
1421.921	3058.625
1425.075	3137.625
1428.227	3239.625
1431.376	3379.95833
1434.524	3494.625
1437.668	3602.625
1440.811	3623.625
1443.951	3678.95833
1447.089	3643.95833
1450.224	3652.625
1453.357	3669.95833
1456.488	3602.29167
1459.617	3549.29167
1462.743	3492.29167
1465.867	3417.29167
1468.989	3336.95833
1472.108	3274.625
1475.225	3220.29167
1478.34	3205.95833
1481.453	3171.95833
1484.563	3196.29167
1487.671	3245.29167
1490.776	3263.29167
1493.88	3339.95833
1496.981	3382.625
1500.08	3431.29167
1503.176	3495.625
1506.271	3511.95833
1509.363	3560.95833
1512.452	3623.95833
1515.54	3664.29167
1518.625	3715.625
1521.708	3796.95833
1524.789	3898.625
1527.867	4032.29167
1530.944	4265.95833
1534.018	4492.29167
1537.089	4690.95833
1540.159	4757.95833
1543.226	4749.29167
1546.291	4673.95833
1549.354	4576.95833
1552.415	4471.29167
1555.473	4349.95833
1558.529	4285.29167
1561.583	4238.29167
1564.634	4196.95833
1567.684	4182.625
1570.731	4222.29167
1573.776	4230.95833
1576.819	4291.29167
1579.859	4337.95833
1582.898	4363.95833
1585.934	4408.95833
1588.968	4401.95833
1591.999	4393.95833
1595.029	4395.95833
1598.056	4414.95833
1601.081	4479.625
1604.104	4447.625
1607.125	4412.95833
1610.144	4303.95833
1613.16	4200.625
1616.174	4097.29167
1619.186	3999.625
1622.196	3844.29167
1625.203	3765.95833
1628.209	3650.625
1631.212	3630.29167
1634.213	3573.95833
1637.212	3566.625
1640.209	3470.29167
1643.203	3361.625
1646.196	3291.95833
1649.186	3144.95833
1652.174	3077.95833
1655.16	2949.625
1658.144	2874.29167
1661.125	2757.95833
1664.105	2639.95833
1667.082	2529.625
1670.057	2393.29167
1673.03	2233.625
1676.001	2111.625
1678.97	1963.29167
1681.937	1834.95833
1684.901	1760.29167
1687.863	1682.95833
1690.824	1601.625
1693.782	1567.95833
1696.738	1522.95833
1699.692	1484.95833
1702.643	1439.625
1705.593	1409.95833
1708.54	1409.95833
1711.486	1403.29167
1714.429	1361.29167
1717.37	1352.95833
1720.309	1328.625
1723.246	1331.29167
1726.181	1282.625
1729.113	1290.29167
1732.044	1276.625
1734.972	1265.29167
1737.899	1257.625
1740.823	1269.625
1743.745	1217.29167
1746.665	1217.625
1749.583	1190.625
1752.499	1178.95833
1755.413	1168.625
1758.325	1141.95833
1761.235	1123.625
1764.142	1100.95833
1767.048	1068.95833
1769.951	1076.625
1772.852	1084.29167
1775.752	1079.29167
1778.649	1069.625
1781.544	1059.95833
1784.437	1036.29167
1787.328	1052.95833
1790.217	1039.29167
1793.104	1018.29167
1795.989	1019.625
1798.872	1014.625
1801.753	1009.95833
1804.631	1003.95833
1807.508	1022.625
1810.383	1020.625
1813.255	998.29167
1816.126	1005.29167
1818.994	1000.95833
1821.861	982.625
1824.725	978.625
1827.587	974.29167
1830.448	968.95833
1833.306	950.29167
1836.162	954.625
1839.017	950.95833
1841.869	946.625
1844.719	948.625
1847.567	917.29167
1850.414	923.29167
1853.258	921.95833
1856.1	932.29167
1858.94	931.625
1861.778	925.95833
1864.614	916.29167
1867.448	923.29167
1870.28	899.29167
1873.111	943.625
1875.939	916.95833
1878.765	935.29167
1881.589	916.625
1884.411	912.625
1887.231	915.29167
1890.049	892.625
1892.865	909.29167
1895.68	884.95833
1898.492	904.625
1901.302	887.95833
1904.11	893.29167
1906.916	880.29167
1909.721	863.95833
1912.523	885.29167
1915.323	860.625
1918.122	855.95833
1920.918	866.29167
1923.712	848.625
1926.505	848.95833
1929.295	847.29167
1932.084	861.95833
1934.87	846.625
1937.655	854.29167
1940.438	841.625
1943.218	843.29167
1945.997	848.95833
1948.774	866.625
1951.549	857.95833
1954.322	837.625
1957.093	829.95833
1959.862	823.625
1962.629	830.29167
1965.394	826.29167
1968.157	816.95833
1970.918	815.29167
1973.678	793.625
1976.435	818.29167
1979.19	805.95833
1981.944	800.95833
1984.696	789.29167
1987.445	805.95833
1990.193	792.29167
1992.939	795.625
1995.683	798.625
1998.425	774.95833
2001.165	810.29167
2003.903	794.95833
2006.639	779.29167
2009.374	782.95833
2012.106	797.95833
2014.837	770.29167
2017.566	779.29167
2020.292	777.625
2023.017	772.95833
2025.74	772.29167
2028.461	763.95833
2031.18	767.29167
2033.898	765.95833
2036.613	758.625
2039.327	760.95833
2042.038	739.95833
2044.748	759.625
2047.456	764.625
2050.162	742.29167
2052.866	747.29167
2055.568	744.95833
2058.268	740.95833
2060.967	745.625
2063.663	740.95833
2066.358	752.95833
2069.051	734.625
2071.742	737.29167
2074.431	740.29167
2077.118	727.29167
2079.804	723.29167
2082.487	730.625
2085.169	745.625
2087.849	757.95833
2090.527	729.29167
2093.203	729.29167
2095.877	751.95833
2098.55	741.625
2101.22	751.95833
2103.889	767.29167
2106.556	764.95833
2109.221	787.29167
2111.884	803.625
2114.546	860.95833
2117.205	909.625
2119.863	978.29167
2122.519	1037.29167
2125.173	1103.29167
2127.825	1158.29167
2130.475	1147.625
2133.124	1109.625
2135.771	1069.625
2138.416	1021.625
2141.059	942.29167
2143.7	907.29167
2146.339	859.625
2148.977	805.29167
2151.613	804.625
2154.247	777.625
2156.879	776.29167
2159.51	745.625
2162.138	724.95833
2164.765	732.95833
2167.39	707.625
2170.013	720.29167
2172.634	714.95833
2175.254	696.29167
2177.872	725.29167
2180.488	691.625
2183.102	683.29167
2185.714	677.625
2188.325	657.95833
2190.934	673.95833
2193.541	676.625
2196.146	673.95833
2198.75	658.625
2201.351	654.95833
2203.951	633.95833
2206.549	657.95833
2209.146	639.95833
2211.74	629.95833
2214.333	635.95833
2216.924	628.29167
2219.514	633.625
2222.101	624.29167
2224.687	620.625
2227.271	621.625
2229.853	617.29167
2232.433	604.95833
2235.012	625.29167
2237.589	624.95833
2240.164	626.95833
2242.738	611.29167
2245.309	600.625
2247.879	601.29167
2250.448	611.625
2253.014	584.95833
2255.579	579.29167
2258.142	584.625
2260.703	574.625
2263.262	570.625
2265.82	571.95833
2268.376	576.95833
2270.93	565.625
2273.483	572.625
2276.033	568.95833
2278.583	571.95833
2281.13	562.95833
2283.675	546.95833
2286.219	556.95833
2288.761	562.29167
2291.302	567.95833
2293.841	563.625
2296.377	536.95833
2298.913	528.625
2301.446	563.95833
2303.978	549.625
2306.508	535.95833
2309.037	545.95833
2311.563	547.625
2314.088	551.625
2316.612	521.625
2319.133	540.29167
2321.653	538.95833
2324.171	533.29167
2326.688	549.29167
2329.202	534.95833
2331.715	526.625
2334.227	536.625
2336.736	527.29167
2339.244	511.29167
2341.751	519.625
2344.255	526.625
2346.758	518.625
2349.259	507.95833
2351.759	522.95833
2354.257	512.625
2356.753	509.625
2359.247	512.625
2361.74	527.625
2364.231	522.625
2366.721	527.29167
2369.209	512.95833
2371.695	511.29167
2374.179	508.625
2376.662	501.95833
2379.143	519.29167
2381.622	507.625
2384.1	517.95833
2386.576	507.29167
2389.051	520.95833
2391.524	520.625
2393.995	515.29167
2396.464	500.29167
2398.932	504.625
2401.398	501.29167
2403.863	513.625
2406.325	491.625
2408.787	497.95833
2411.246	492.95833
2413.704	500.625
2416.16	493.29167
2418.615	486.625
2421.068	501.29167
2423.519	499.95833
2425.969	492.29167
2428.417	494.29167
2430.863	518.625
2433.308	497.29167
2435.751	494.29167
2438.193	493.95833
2440.633	491.29167
2443.071	498.625
2445.508	482.95833
2447.943	486.625
2450.376	478.29167
2452.808	482.95833
2455.238	477.29167
2457.667	528.29167
2460.093	484.95833
2462.519	476.625
2464.942	481.95833
2467.365	484.29167
2469.785	484.95833
2472.204	496.95833
2474.621	471.625
2477.037	490.95833
2479.451	467.95833
2481.863	471.625
2484.274	478.29167
2486.683	477.625
2489.091	486.625
2491.497	475.625
2493.901	482.95833
2496.304	474.95833
2498.705	492.29167
2501.105	478.29167
2503.503	495.29167
2505.899	463.29167
2508.294	490.625
2510.687	472.29167
2513.079	479.625
2515.469	464.625
2517.858	466.95833
2520.245	483.29167
2522.63	471.95833
2525.014	462.95833
2527.396	462.95833
2529.776	451.625
2532.156	476.625
2534.533	465.29167
2536.909	455.95833
2539.283	454.625
2541.656	466.95833
2544.027	476.625
2546.397	464.625
2548.765	461.95833
2551.131	461.625
2553.496	463.625
2555.86	468.625
2558.221	471.95833
2560.582	462.625
2562.94	450.29167
2565.298	467.625
2567.653	479.625
2570.007	452.29167
2572.36	464.625
2574.711	463.625
2577.06	474.95833
2579.408	475.95833
2581.754	457.29167
2584.099	473.95833
2586.442	468.625
2588.784	473.29167
2591.124	467.625
2593.463	466.29167
2595.8	468.95833
2598.135	449.625
2600.469	453.625
2602.802	481.29167
2605.133	475.625
2607.462	461.625
2609.79	450.95833
2612.116	469.29167
2614.441	465.625
2616.764	466.95833
2619.086	460.95833
2621.406	461.29167
2623.725	480.29167
2626.042	471.625
2628.358	464.29167
2630.672	458.625
2632.985	472.95833
2635.296	467.95833
2637.606	475.625
2639.914	461.95833
2642.22	468.29167
2644.525	463.625
2646.829	472.625
2649.131	488.95833
2651.432	479.625
2653.731	467.29167
2656.028	482.625
2658.324	479.625
2660.619	466.29167
2662.912	479.29167
2665.204	468.95833
2667.494	484.95833
2669.782	472.95833
2672.07	488.29167
2674.355	490.95833
2676.639	483.95833
2678.922	474.29167
2681.203	480.625
2683.483	472.95833
2685.761	482.95833
2688.038	483.95833
2690.313	496.625
2692.587	482.29167
2694.859	477.95833
2697.13	495.625
2699.399	504.29167
2701.667	507.29167
2703.933	499.29167
2706.198	502.29167
2708.461	511.95833
2710.723	520.95833
2712.984	519.29167
2715.243	513.95833
2717.5	504.29167
2719.757	530.95833
2722.011	523.625
2724.264	526.29167
2726.516	544.29167
2728.766	522.625
2731.015	538.95833
2733.262	528.29167
2735.508	537.625
2737.753	528.29167
2739.996	514.29167
2742.237	514.29167
2744.477	523.95833
2746.716	525.29167
2748.953	512.625
2751.189	519.95833
2753.423	515.625
2755.656	499.625
2757.887	500.95833
2760.117	505.625
2762.346	496.625
2764.573	492.625
2766.798	498.29167
2769.022	503.95833
2771.245	511.29167
2773.467	508.29167
2775.686	508.95833
2777.905	513.625
2780.122	517.625
2782.337	524.29167
2784.552	515.625
2786.764	516.95833
2788.976	524.625
2791.186	524.625
2793.394	539.29167
2795.601	546.95833
2797.807	559.95833
2800.011	564.95833
2802.214	567.29167
2804.415	561.625
2806.615	568.95833
2808.814	582.625
2811.011	585.95833
2813.206	583.29167
2815.401	599.29167
2817.594	597.29167
2819.785	613.29167
2821.975	603.95833
2824.164	621.95833
2826.351	630.625
2828.537	648.29167
2830.722	660.29167
2832.905	663.625
2835.086	674.29167
2837.267	725.95833
2839.445	732.95833
2841.623	741.625
2843.799	785.95833
2845.974	812.625
2848.147	845.625
2850.319	866.29167
2852.489	901.625
2854.659	901.29167
2856.826	919.95833
2858.993	955.95833
2861.158	933.625
2863.321	919.95833
2865.483	955.29167
2867.644	944.95833
2869.804	956.95833
2871.962	949.29167
2874.118	938.625
2876.274	943.625
2878.428	941.95833
2880.58	941.625
2882.731	926.625
2884.881	919.625
2887.03	947.29167
2889.177	941.625
2891.322	960.29167
2893.467	953.29167
2895.61	952.95833
2897.751	976.29167
2899.892	956.95833
2902.03	964.29167
2904.168	970.29167
2906.304	978.625
2908.439	1008.95833
2910.572	976.625
2912.704	1004.625
2914.835	987.95833
2916.965	1001.625
2919.093	996.625
2921.219	979.95833
2923.345	1002.625
2925.469	956.625
2927.591	959.29167
2929.712	939.625
2931.832	932.29167
2933.951	924.95833
2936.068	905.625
2938.184	878.29167
2940.299	869.29167
2942.412	836.95833
2944.524	800.625
2946.634	783.29167
2948.744	749.95833
2950.851	767.95833
2952.958	726.29167
2955.063	732.95833
2957.167	714.95833
2959.269	688.29167
2961.371	712.625
2963.471	666.29167
2965.569	673.95833
2967.666	638.625
2969.762	635.95833
2971.857	624.625
2973.95	606.29167
2976.042	601.625
2978.133	590.95833
2980.222	578.625
2982.31	559.29167
2984.396	546.625
2986.482	551.625
2988.566	532.29167
2990.648	536.95833
2992.73	533.625
2994.81	514.95833
2996.889	519.29167
2998.966	513.625
3001.042	517.625
3003.117	521.95833
3005.191	523.625
3007.263	520.29167
3009.334	507.29167
3011.403	510.95833
3013.472	487.625
3015.539	491.95833
3017.604	503.625
3019.669	456.95833
3021.732	462.95833
3023.794	469.625
3025.854	455.625
3027.914	462.625
3029.971	474.29167
3032.028	450.29167
3034.083	452.29167
3036.137	445.625
3038.19	439.95833
3040.242	431.95833
3042.292	413.29167
3044.341	409.29167
3046.388	430.625
3048.435	398.95833
3050.48	424.95833
3052.524	418.95833
3054.566	393.29167
3056.607	415.29167
3058.647	396.29167
3060.686	385.95833
3062.723	371.95833
3064.759	362.95833
3066.794	0.29167
3068.828	1.95833
3070.86	3.95833
