-0.839	619.79167
3.438	726.45833
7.711	211.45833
11.981	66.125
16.247	48.79167
20.509	51.79167
24.768	46.79167
29.024	58.79167
33.276	43.79167
37.524	55.79167
41.769	49.79167
46.01	32.79167
50.247	49.45833
54.481	56.79167
58.712	63.125
62.939	51.79167
67.162	70.125
71.382	58.79167
75.599	47.79167
79.812	66.125
84.021	83.45833
88.227	63.45833
92.429	60.125
96.628	53.125
100.823	73.45833
105.015	78.79167
109.204	71.79167
113.388	81.79167
117.57	78.125
121.748	92.45833
125.922	82.45833
130.093	102.79167
134.261	101.79167
138.425	106.45833
142.585	146.45833
146.742	133.79167
150.896	168.125
155.046	211.79167
159.193	332.45833
163.336	565.79167
167.476	1044.45833
171.613	1903.125
175.746	3200.45833
179.875	4761.125
184.002	6238.79167
188.124	7270.125
192.244	7644.79167
196.36	7595.79167
200.472	7376.79167
204.581	7179.45833
208.687	7011.125
212.79	6938.79167
216.889	6909.45833
220.984	6935.125
225.077	6969.125
229.165	6995.79167
233.251	7011.45833
237.333	6978.125
241.412	6985.79167
245.487	6858.45833
249.559	6764.125
253.628	6753.125
257.694	6687.125
261.756	6633.125
265.814	6550.79167
269.87	6337.125
273.922	6134.79167
277.97	5963.45833
282.016	5899.79167
286.058	5875.79167
290.097	5961.125
294.132	6027.45833
298.164	6010.79167
302.193	5796.125
306.219	5427.79167
310.241	5037.45833
314.26	4643.79167
318.276	4333.79167
322.288	4135.79167
326.297	3965.45833
330.303	3827.79167
334.305	3736.79167
338.305	3670.79167
342.301	3615.45833
346.294	3589.125
350.283	3592.45833
354.269	3559.125
358.252	3531.125
362.232	3484.45833
366.209	3494.125
370.182	3472.79167
374.152	3437.125
378.119	3450.79167
382.083	3440.79167
386.043	3471.125
390	3419.79167
393.954	3439.45833
397.905	3436.45833
401.852	3413.45833
405.797	3369.45833
409.738	3346.79167
413.676	3338.125
417.61	3319.79167
421.542	3327.125
425.47	3286.45833
429.396	3271.45833
433.318	3215.79167
437.236	3247.45833
441.152	3274.45833
445.065	3204.79167
448.974	3182.79167
452.88	3173.79167
456.783	3154.125
460.683	3121.125
464.58	3143.125
468.473	3131.45833
472.364	3148.125
476.251	3136.45833
480.135	3160.125
484.016	3202.125
487.894	3208.125
491.769	3226.125
495.641	3244.79167
499.509	3229.45833
503.375	3218.45833
507.237	3209.125
511.096	3216.79167
514.952	3227.125
518.805	3244.125
522.655	3276.79167
526.502	3248.79167
530.346	3239.79167
534.187	3249.45833
538.024	3262.45833
541.859	3252.125
545.69	3307.79167
549.519	3290.125
553.344	3257.45833
557.166	3188.45833
560.985	3163.45833
564.802	3143.45833
568.615	3062.45833
572.425	3041.45833
576.232	3044.125
580.036	3010.125
583.836	3005.125
587.634	3033.45833
591.429	3030.125
595.221	3126.125
599.01	3139.45833
602.796	3168.125
606.578	3195.45833
610.358	3203.79167
614.135	3164.125
617.909	3143.79167
621.679	3101.79167
625.447	3084.79167
629.212	3108.79167
632.973	3114.125
636.732	3097.79167
640.488	3088.125
644.241	3073.45833
647.991	3049.79167
651.737	3089.125
655.481	3047.79167
659.222	3032.125
662.96	3054.79167
666.695	3089.45833
670.427	3104.125
674.156	3089.79167
677.882	3086.45833
681.605	3061.45833
685.325	3048.79167
689.043	3036.125
692.757	3009.45833
696.468	3036.79167
700.177	3018.45833
703.882	2987.125
707.585	2955.79167
711.284	2974.45833
714.981	2969.79167
718.675	2961.79167
722.366	2980.45833
726.054	2946.45833
729.739	2948.45833
733.421	2963.79167
737.1	2949.79167
740.777	2968.125
744.45	2985.125
748.121	3006.45833
751.789	3089.125
755.453	3076.79167
759.115	3101.79167
762.774	3096.45833
766.431	3154.45833
770.084	3147.79167
773.734	3174.45833
777.382	3243.45833
781.027	3292.125
784.669	3267.125
788.308	3289.45833
791.944	3303.125
795.577	3303.125
799.208	3327.45833
802.835	3323.45833
806.46	3332.79167
810.082	3375.45833
813.701	3352.45833
817.317	3375.125
820.931	3385.45833
824.542	3387.79167
828.149	3343.125
831.754	3330.79167
835.357	3306.125
838.956	3316.45833
842.553	3327.125
846.146	3297.45833
849.737	3280.45833
853.326	3304.79167
856.911	3317.125
860.493	3346.125
864.073	3364.125
867.65	3377.79167
871.225	3443.125
874.796	3410.125
878.365	3440.79167
881.931	3473.125
885.494	3488.79167
889.054	3498.125
892.612	3486.79167
896.166	3471.79167
899.719	3455.125
903.268	3403.45833
906.814	3373.45833
910.358	3364.45833
913.899	3339.45833
917.438	3326.125
920.973	3332.79167
924.506	3362.45833
928.036	3397.45833
931.564	3471.45833
935.088	3509.79167
938.61	3524.45833
942.129	3568.79167
945.646	3635.79167
949.16	3689.125
952.671	3732.79167
956.179	3722.45833
959.685	3676.45833
963.188	3684.79167
966.688	3635.79167
970.185	3495.125
973.68	3425.45833
977.173	3368.45833
980.662	3291.45833
984.149	3292.45833
987.633	3292.45833
991.114	3345.79167
994.593	3384.125
998.069	3486.79167
1001.542	3574.79167
1005.013	3541.79167
1008.481	3355.45833
1011.947	3320.79167
1015.409	3293.45833
1018.869	3309.125
1022.327	3273.45833
1025.782	3259.125
1029.234	3238.45833
1032.683	3200.79167
1036.13	3111.45833
1039.574	2994.79167
1043.016	2906.45833
1046.455	2878.45833
1049.891	2866.45833
1053.325	2879.45833
1056.756	2862.125
1060.184	2889.45833
1063.61	2891.125
1067.033	2917.125
1070.454	2911.79167
1073.872	2934.125
1077.287	2930.125
1080.7	2943.79167
1084.11	2906.125
1087.517	2898.125
1090.922	2842.79167
1094.325	2851.125
1097.724	2809.45833
1101.122	2821.125
1104.516	2839.125
1107.908	2822.45833
1111.298	2864.125
1114.684	2894.45833
1118.069	2939.79167
1121.45	2973.45833
1124.83	2978.45833
1128.206	3018.125
1131.58	3059.45833
1134.951	3149.125
1138.32	3224.45833
1141.687	3348.125
1145.05	3421.45833
1148.412	3459.79167
1151.77	3440.125
1155.126	3439.79167
1158.48	3428.125
1161.831	3455.125
1165.18	3478.125
1168.525	3512.125
1171.869	3570.79167
1175.21	3571.45833
1178.548	3594.45833
1181.884	3635.125
1185.217	3663.45833
1188.548	3786.79167
1191.877	3829.45833
1195.202	3945.125
1198.526	3975.45833
1201.846	4011.45833
1205.165	3997.79167
1208.48	3961.125
1211.794	3928.45833
1215.104	3890.45833
1218.413	3918.79167
1221.719	3892.125
1225.022	3846.79167
1228.323	3791.45833
1231.621	3773.79167
1234.917	3730.45833
1238.21	3719.45833
1241.501	3676.45833
1244.79	3693.125
1248.076	3698.45833
1251.359	3725.45833
1254.64	3800.125
1257.919	3838.125
1261.195	3870.125
1264.468	3940.125
1267.74	4009.79167
1271.008	4020.45833
1274.275	4004.45833
1277.538	3979.45833
1280.8	3987.45833
1284.059	3962.45833
1287.315	4001.79167
1290.569	4002.45833
1293.821	4013.79167
1297.07	4051.125
1300.317	4052.45833
1303.562	4061.125
1306.803	4046.125
1310.043	4012.45833
1313.28	3964.125
1316.515	3978.45833
1319.747	3916.125
1322.977	3883.125
1326.204	3818.45833
1329.429	3776.125
1332.652	3705.79167
1335.872	3717.79167
1339.09	3665.125
1342.306	3648.125
1345.519	3589.45833
1348.729	3551.125
1351.938	3526.125
1355.144	3541.45833
1358.347	3457.45833
1361.548	3438.45833
1364.747	3448.79167
1367.944	3417.79167
1371.138	3424.125
1374.329	3435.79167
1377.518	3447.45833
1380.705	3490.125
1383.89	3470.79167
1387.072	3373.125
1390.252	3257.125
1393.429	3138.79167
1396.605	3053.79167
1399.777	2959.45833
1402.948	2918.79167
1406.116	2904.45833
1409.282	2912.45833
1412.445	2895.125
1415.606	2898.79167
1418.765	2962.79167
1421.921	2996.79167
1425.075	3043.79167
1428.227	3124.45833
1431.376	3263.45833
1434.524	3363.79167
1437.668	3453.45833
1440.811	3511.79167
1443.951	3516.45833
1447.089	3549.45833
1450.224	3550.45833
1453.357	3540.125
1456.488	3530.125
1459.617	3463.45833
1462.743	3437.45833
1465.867	3369.79167
1468.989	3315.45833
1472.108	3251.79167
1475.225	3241.125
1478.34	3179.125
1481.453	3190.79167
1484.563	3187.79167
1487.671	3271.45833
1490.776	3264.125
1493.88	3346.79167
1496.981	3432.79167
1500.08	3499.45833
1503.176	3555.79167
1506.271	3592.125
1509.363	3650.45833
1512.452	3660.79167
1515.54	3709.79167
1518.625	3742.79167
1521.708	3847.125
1524.789	3938.45833
1527.867	4070.45833
1530.944	4246.79167
1534.018	4389.45833
1537.089	4550.45833
1540.159	4619.45833
1543.226	4572.45833
1546.291	4466.125
1549.354	4386.79167
1552.415	4345.45833
1555.473	4231.45833
1558.529	4191.79167
1561.583	4186.79167
1564.634	4171.125
1567.684	4161.45833
1570.731	4207.45833
1573.776	4277.45833
1576.819	4332.125
1579.859	4384.45833
1582.898	4434.125
1585.934	4484.125
1588.968	4511.79167
1591.999	4495.79167
1595.029	4511.45833
1598.056	4513.79167
1601.081	4538.125
1604.104	4490.45833
1607.125	4429.79167
1610.144	4344.45833
1613.16	4213.125
1616.174	4158.45833
1619.186	4049.79167
1622.196	3935.45833
1625.203	3826.45833
1628.209	3751.125
1631.212	3659.45833
1634.213	3617.45833
1637.212	3584.125
1640.209	3536.125
1643.203	3429.125
1646.196	3306.45833
1649.186	3147.125
1652.174	3050.79167
1655.16	2923.45833
1658.144	2839.79167
1661.125	2715.125
1664.105	2575.79167
1667.082	2471.125
1670.057	2350.79167
1673.03	2242.45833
1676.001	2106.79167
1678.97	1978.79167
1681.937	1869.79167
1684.901	1739.79167
1687.863	1710.45833
1690.824	1640.45833
1693.782	1609.45833
1696.738	1526.125
1699.692	1485.79167
1702.643	1453.79167
1705.593	1448.45833
1708.54	1424.125
1711.486	1419.125
1714.429	1388.45833
1717.37	1396.125
1720.309	1355.79167
1723.246	1356.125
1726.181	1305.125
1729.113	1322.45833
1732.044	1294.79167
1734.972	1292.79167
1737.899	1296.125
1740.823	1294.125
1743.745	1254.125
1746.665	1245.125
1749.583	1209.45833
1752.499	1200.79167
1755.413	1186.45833
1758.325	1176.45833
1761.235	1163.79167
1764.142	1143.45833
1767.048	1136.125
1769.951	1133.125
1772.852	1132.125
1775.752	1105.79167
1778.649	1122.125
1781.544	1105.79167
1784.437	1081.45833
1787.328	1093.79167
1790.217	1075.45833
1793.104	1054.125
1795.989	1058.45833
1798.872	1047.45833
1801.753	1065.79167
1804.631	1043.45833
1807.508	1070.79167
1810.383	1064.45833
1813.255	1037.125
1816.126	1029.45833
1818.994	1034.45833
1821.861	1032.45833
1824.725	1028.125
1827.587	1010.125
1830.448	1003.125
1833.306	990.45833
1836.162	997.45833
1839.017	985.45833
1841.869	990.45833
1844.719	985.45833
1847.567	958.79167
1850.414	957.125
1853.258	958.79167
1856.1	967.79167
1858.94	974.125
1861.778	950.79167
1864.614	953.79167
1867.448	957.79167
1870.28	950.79167
1873.111	970.45833
1875.939	947.45833
1878.765	963.45833
1881.589	939.45833
1884.411	940.45833
1887.231	943.79167
1890.049	931.125
1892.865	939.79167
1895.68	925.125
1898.492	913.45833
1901.302	924.125
1904.11	914.45833
1906.916	898.45833
1909.721	894.125
1912.523	897.79167
1915.323	886.79167
1918.122	890.79167
1920.918	903.125
1923.712	892.79167
1926.505	884.45833
1929.295	876.45833
1932.084	884.45833
1934.87	888.45833
1937.655	869.79167
1940.438	859.125
1943.218	868.45833
1945.997	884.125
1948.774	874.45833
1951.549	888.45833
1954.322	861.79167
1957.093	857.125
1959.862	851.79167
1962.629	858.79167
1965.394	851.45833
1968.157	833.79167
1970.918	843.125
1973.678	834.79167
1976.435	844.45833
1979.19	829.79167
1981.944	824.45833
1984.696	815.79167
1987.445	817.125
1990.193	816.125
1992.939	830.125
1995.683	804.125
1998.425	800.125
2001.165	822.45833
2003.903	798.125
2006.639	793.45833
2009.374	816.125
2012.106	798.125
2014.837	785.125
2017.566	797.79167
2020.292	795.125
2023.017	785.45833
2025.74	785.79167
2028.461	782.79167
2031.18	795.45833
2033.898	772.79167
2036.613	773.45833
2039.327	781.125
2042.038	774.45833
2044.748	765.45833
2047.456	780.125
2050.162	752.45833
2052.866	767.79167
2055.568	762.79167
2058.268	754.125
2060.967	760.79167
2063.663	750.125
2066.358	740.125
2069.051	743.125
2071.742	744.45833
2074.431	758.79167
2077.118	737.79167
2079.804	747.45833
2082.487	741.125
2085.169	744.79167
2087.849	753.79167
2090.527	748.79167
2093.203	736.79167
2095.877	756.125
2098.55	745.45833
2101.22	766.45833
2103.889	762.125
2106.556	755.45833
2109.221	789.79167
2111.884	784.79167
2114.546	830.45833
2117.205	876.125
2119.863	936.125
2122.519	993.79167
2125.173	1060.79167
2127.825	1106.79167
2130.475	1127.125
2133.124	1068.45833
2135.771	1039.79167
2138.416	1010.45833
2141.059	933.79167
2143.7	898.79167
2146.339	844.125
2148.977	799.125
2151.613	789.79167
2154.247	772.45833
2156.879	749.45833
2159.51	726.125
2162.138	729.79167
2164.765	722.79167
2167.39	698.79167
2170.013	723.45833
2172.634	716.45833
2175.254	701.79167
2177.872	726.79167
2180.488	682.45833
2183.102	697.45833
2185.714	679.125
2188.325	665.45833
2190.934	677.79167
2193.541	678.125
2196.146	666.79167
2198.75	644.45833
2201.351	643.79167
2203.951	634.45833
2206.549	662.79167
2209.146	649.79167
2211.74	637.125
2214.333	650.79167
2216.924	625.79167
2219.514	624.79167
2222.101	617.125
2224.687	638.125
2227.271	619.45833
2229.853	614.45833
2232.433	593.45833
2235.012	615.125
2237.589	615.79167
2240.164	629.125
2242.738	605.79167
2245.309	606.45833
2247.879	602.45833
2250.448	599.79167
2253.014	580.125
2255.579	557.79167
2258.142	572.125
2260.703	562.79167
2263.262	560.45833
2265.82	558.125
2268.376	575.125
2270.93	543.45833
2273.483	552.125
2276.033	553.79167
2278.583	543.45833
2281.13	544.125
2283.675	533.45833
2286.219	534.125
2288.761	540.79167
2291.302	541.79167
2293.841	544.125
2296.377	525.45833
2298.913	530.79167
2301.446	546.79167
2303.978	523.45833
2306.508	520.45833
2309.037	523.79167
2311.563	516.79167
2314.088	529.45833
2316.612	500.79167
2319.133	519.45833
2321.653	512.45833
2324.171	510.125
2326.688	522.79167
2329.202	505.125
2331.715	499.79167
2334.227	507.125
2336.736	499.79167
2339.244	488.125
2341.751	485.79167
2344.255	507.79167
2346.758	507.45833
2349.259	473.79167
2351.759	495.125
2354.257	484.79167
2356.753	478.125
2359.247	486.125
2361.74	490.125
2364.231	480.45833
2366.721	484.79167
2369.209	479.125
2371.695	478.45833
2374.179	478.125
2376.662	472.45833
2379.143	487.79167
2381.622	475.125
2384.1	482.45833
2386.576	468.79167
2389.051	492.125
2391.524	481.125
2393.995	476.45833
2396.464	468.125
2398.932	468.125
2401.398	463.125
2403.863	458.45833
2406.325	461.79167
2408.787	459.79167
2411.246	461.125
2413.704	456.45833
2416.16	449.125
2418.615	447.125
2421.068	465.79167
2423.519	455.125
2425.969	440.45833
2428.417	452.125
2430.863	471.125
2433.308	453.45833
2435.751	442.45833
2438.193	447.45833
2440.633	448.125
2443.071	452.125
2445.508	440.45833
2447.943	434.125
2450.376	430.125
2452.808	429.45833
2455.238	432.45833
2457.667	475.79167
2460.093	433.125
2462.519	421.45833
2464.942	429.45833
2467.365	435.79167
2469.785	435.45833
2472.204	428.79167
2474.621	420.45833
2477.037	436.45833
2479.451	414.125
2481.863	407.79167
2484.274	422.45833
2486.683	420.125
2489.091	424.79167
2491.497	422.125
2493.901	427.45833
2496.304	415.45833
2498.705	423.125
2501.105	413.79167
2503.503	435.79167
2505.899	391.79167
2508.294	429.45833
2510.687	412.45833
2513.079	410.125
2515.469	400.125
2517.858	414.125
2520.245	418.45833
2522.63	399.45833
2525.014	396.125
2527.396	390.79167
2529.776	393.125
2532.156	408.79167
2534.533	398.45833
2536.909	389.125
2539.283	390.125
2541.656	393.45833
2544.027	413.125
2546.397	389.79167
2548.765	382.125
2551.131	392.45833
2553.496	388.125
2555.86	400.125
2558.221	396.125
2560.582	385.125
2562.94	378.45833
2565.298	390.125
2567.653	399.79167
2570.007	377.125
2572.36	393.125
2574.711	378.79167
2577.06	396.125
2579.408	390.45833
2581.754	373.79167
2584.099	394.125
2586.442	378.125
2588.784	395.125
2591.124	380.45833
2593.463	375.45833
2595.8	384.125
2598.135	370.45833
2600.469	373.125
2602.802	388.79167
2605.133	391.125
2607.462	370.125
2609.79	367.125
2612.116	380.125
2614.441	383.45833
2616.764	379.125
2619.086	374.79167
2621.406	365.45833
2623.725	388.125
2626.042	381.79167
2628.358	365.125
2630.672	367.45833
2632.985	388.125
2635.296	372.125
2637.606	373.79167
2639.914	360.79167
2642.22	373.125
2644.525	366.45833
2646.829	375.79167
2649.131	382.79167
2651.432	383.45833
2653.731	367.45833
2656.028	386.125
2658.324	380.79167
2660.619	363.45833
2662.912	386.125
2665.204	369.45833
2667.494	381.45833
2669.782	365.45833
2672.07	387.45833
2674.355	378.45833
2676.639	369.125
2678.922	365.45833
2681.203	370.125
2683.483	363.79167
2685.761	358.45833
2688.038	378.45833
2690.313	393.79167
2692.587	372.45833
2694.859	363.79167
2697.13	379.79167
2699.399	380.79167
2701.667	390.79167
2703.933	383.79167
2706.198	385.125
2708.461	391.125
2710.723	397.125
2712.984	390.125
2715.243	391.79167
2717.5	383.45833
2719.757	390.79167
2722.011	385.125
2724.264	405.125
2726.516	414.79167
2728.766	393.125
2731.015	401.45833
2733.262	391.79167
2735.508	397.45833
2737.753	403.45833
2739.996	388.79167
2742.237	383.79167
2744.477	392.45833
2746.716	401.45833
2748.953	391.45833
2751.189	388.79167
2753.423	374.79167
2755.656	366.45833
2757.887	369.125
2760.117	375.45833
2762.346	365.45833
2764.573	362.79167
2766.798	364.125
2769.022	365.45833
2771.245	365.79167
2773.467	367.125
2775.686	377.79167
2777.905	377.45833
2780.122	376.79167
2782.337	386.79167
2784.552	372.79167
2786.764	374.79167
2788.976	380.79167
2791.186	381.79167
2793.394	377.125
2795.601	390.45833
2797.807	412.125
2800.011	408.45833
2802.214	404.45833
2804.415	398.45833
2806.615	409.125
2808.814	404.79167
2811.011	422.125
2813.206	426.125
2815.401	429.79167
2817.594	435.125
2819.785	440.125
2821.975	430.79167
2824.164	442.45833
2826.351	455.79167
2828.537	468.125
2830.722	481.125
2832.905	482.45833
2835.086	520.79167
2837.267	536.45833
2839.445	529.45833
2841.623	561.125
2843.799	580.125
2845.974	620.45833
2848.147	641.79167
2850.319	667.125
2852.489	692.125
2854.659	700.79167
2856.826	716.45833
2858.993	750.45833
2861.158	720.125
2863.321	733.79167
2865.483	754.45833
2867.644	749.45833
2869.804	733.79167
2871.962	740.79167
2874.118	733.79167
2876.274	739.79167
2878.428	745.125
2880.58	722.79167
2882.731	731.125
2884.881	722.45833
2887.03	742.45833
2889.177	749.45833
2891.322	753.45833
2893.467	746.125
2895.61	750.125
2897.751	768.45833
2899.892	760.125
2902.03	782.125
2904.168	780.45833
2906.304	775.125
2908.439	797.45833
2910.572	772.45833
2912.704	805.79167
2914.835	791.45833
2916.965	780.125
2919.093	809.79167
2921.219	790.79167
2923.345	806.125
2925.469	792.79167
2927.591	780.45833
2929.712	748.45833
2931.832	744.45833
2933.951	728.125
2936.068	730.125
2938.184	692.79167
2940.299	677.45833
2942.412	656.45833
2944.524	624.45833
2946.634	623.79167
2948.744	575.125
2950.851	593.125
2952.958	556.45833
2955.063	552.125
2957.167	546.79167
2959.269	504.79167
2961.371	543.45833
2963.471	492.45833
2965.569	495.125
2967.666	472.79167
2969.762	460.125
2971.857	456.79167
2973.95	439.125
2976.042	436.45833
2978.133	427.125
2980.222	418.45833
2982.31	400.79167
2984.396	384.45833
2986.482	382.45833
2988.566	375.45833
2990.648	372.45833
2992.73	368.125
2994.81	355.125
2996.889	369.125
2998.966	371.125
3001.042	365.79167
3003.117	359.125
3005.191	347.45833
3007.263	344.125
3009.334	340.79167
3011.403	344.79167
3013.472	334.79167
3015.539	338.125
3017.604	340.79167
3019.669	313.79167
3021.732	308.125
3023.794	321.79167
3025.854	306.45833
3027.914	306.125
3029.971	320.79167
3032.028	304.79167
3034.083	305.45833
3036.137	303.45833
3038.19	285.125
3040.242	280.125
3042.292	274.79167
3044.341	270.125
3046.388	283.45833
3048.435	263.125
3050.48	284.125
3052.524	272.45833
3054.566	257.45833
3056.607	282.45833
3058.647	258.125
3060.686	254.45833
3062.723	248.45833
3064.759	231.125
3066.794	0.125
3068.828	2.79167
3070.86	2.79167
