-0.839	604.79167
3.438	729.79167
7.711	217.125
11.981	66.79167
16.247	51.79167
20.509	49.125
24.768	49.125
29.024	55.45833
33.276	44.45833
37.524	55.125
41.769	48.45833
46.01	35.125
50.247	46.45833
54.481	60.125
58.712	61.125
62.939	47.79167
67.162	65.45833
71.382	55.79167
75.599	47.125
79.812	63.79167
84.021	78.45833
88.227	56.45833
92.429	58.79167
96.628	54.125
100.823	67.79167
105.015	77.45833
109.204	66.45833
113.388	75.79167
117.57	75.79167
121.748	88.45833
125.922	80.125
130.093	95.45833
134.261	100.79167
138.425	92.79167
142.585	140.79167
146.742	128.125
150.896	153.45833
155.046	193.125
159.193	308.79167
163.336	513.45833
167.476	937.45833
171.613	1711.125
175.746	2869.79167
179.875	4233.125
184.002	5521.125
188.124	6433.45833
192.244	6719.125
196.36	6612.125
200.472	6425.45833
204.581	6260.45833
208.687	6062.45833
212.79	5966.79167
216.889	5987.79167
220.984	5966.45833
225.077	5959.79167
229.165	5933.125
233.251	5941.125
237.333	5933.79167
241.412	5823.45833
245.487	5722.79167
249.559	5677.125
253.628	5641.45833
257.694	5614.45833
261.756	5525.125
265.814	5401.79167
269.87	5309.125
273.922	5102.45833
277.97	5014.125
282.016	4981.45833
286.058	4996.45833
290.097	5110.45833
294.132	5158.125
298.164	5128.79167
302.193	4862.125
306.219	4559.79167
310.241	4195.79167
314.26	3926.45833
318.276	3682.45833
322.288	3508.125
326.297	3343.125
330.303	3264.125
334.305	3182.79167
338.305	3171.45833
342.301	3122.45833
346.294	3099.79167
350.283	3049.45833
354.269	3065.125
358.252	3022.125
362.232	3033.125
366.209	3021.45833
370.182	2971.125
374.152	2969.125
378.119	2995.125
382.083	2984.125
386.043	2991.45833
390	2960.79167
393.954	2958.79167
397.905	2953.79167
401.852	2954.79167
405.797	2913.45833
409.738	2902.79167
413.676	2910.79167
417.61	2933.125
421.542	2900.79167
425.47	2870.45833
429.396	2852.125
433.318	2840.45833
437.236	2837.125
441.152	2856.45833
445.065	2803.45833
448.974	2804.125
452.88	2798.79167
456.783	2765.45833
460.683	2753.45833
464.58	2761.45833
468.473	2760.79167
472.364	2785.125
476.251	2770.125
480.135	2800.79167
484.016	2828.79167
487.894	2857.79167
491.769	2875.79167
495.641	2880.79167
499.509	2874.79167
503.375	2880.125
507.237	2881.125
511.096	2911.125
514.952	3071.79167
518.805	3230.79167
522.655	3321.125
526.502	3064.79167
530.346	2898.125
534.187	2877.45833
538.024	2869.79167
541.859	2869.125
545.69	2882.45833
549.519	2878.45833
553.344	2841.45833
557.166	2805.45833
560.985	2786.125
564.802	2729.79167
568.615	2694.79167
572.425	2647.45833
576.232	2627.125
580.036	2631.125
583.836	2624.79167
587.634	2663.125
591.429	2639.125
595.221	2719.45833
599.01	2741.79167
602.796	2773.125
606.578	2783.45833
610.358	2787.125
614.135	2771.79167
617.909	2737.79167
621.679	2720.45833
625.447	2704.45833
629.212	2708.79167
632.973	2715.45833
636.732	2694.45833
640.488	2685.45833
644.241	2656.125
647.991	2663.45833
651.737	2706.125
655.481	2663.125
659.222	2661.45833
662.96	2652.79167
666.695	2679.125
670.427	2675.79167
674.156	2699.79167
677.882	2668.45833
681.605	2673.125
685.325	2644.125
689.043	2654.45833
692.757	2638.125
696.468	2645.79167
700.177	2617.125
703.882	2602.79167
707.585	2606.79167
711.284	2609.79167
714.981	2590.45833
718.675	2600.79167
722.366	2600.125
726.054	2579.125
729.739	2590.125
733.421	2600.79167
737.1	2578.79167
740.777	2603.125
744.45	2616.45833
748.121	2623.125
751.789	2681.125
755.453	2661.79167
759.115	2707.79167
762.774	2688.79167
766.431	2700.45833
770.084	2736.45833
773.734	2734.125
777.382	2788.45833
781.027	2819.79167
784.669	2809.79167
788.308	2808.79167
791.944	2821.79167
795.577	2834.79167
799.208	2863.125
802.835	2858.45833
806.46	2873.45833
810.082	2899.45833
813.701	2898.45833
817.317	2901.45833
820.931	2927.79167
824.542	2910.79167
828.149	2885.125
831.754	2881.45833
835.357	2869.125
838.956	2880.125
842.553	2877.45833
846.146	2843.125
849.737	2831.45833
853.326	2847.45833
856.911	2831.79167
860.493	2861.45833
864.073	2850.45833
867.65	2890.79167
871.225	2945.45833
874.796	2938.125
878.365	2930.45833
881.931	2958.79167
885.494	2968.45833
889.054	2953.79167
892.612	2972.45833
896.166	2942.79167
899.719	2922.79167
903.268	2879.45833
906.814	2867.45833
910.358	2832.125
913.899	2826.79167
917.438	2804.125
920.973	2799.79167
924.506	2835.45833
928.036	2877.45833
931.564	2910.125
935.088	2964.45833
938.61	2970.79167
942.129	3015.45833
945.646	3056.79167
949.16	3104.79167
952.671	3140.79167
956.179	3115.125
959.685	3110.79167
963.188	3082.79167
966.688	3064.125
970.185	2971.125
973.68	2913.45833
977.173	2871.125
980.662	2854.125
984.149	2847.125
987.633	2822.79167
991.114	2885.79167
994.593	2920.79167
998.069	3027.45833
1001.542	3083.79167
1005.013	3030.45833
1008.481	2879.79167
1011.947	2829.79167
1015.409	2810.125
1018.869	2826.45833
1022.327	2799.45833
1025.782	2787.45833
1029.234	2772.79167
1032.683	2738.79167
1036.13	2638.79167
1039.574	2561.79167
1043.016	2497.125
1046.455	2465.125
1049.891	2437.125
1053.325	2449.79167
1056.756	2442.45833
1060.184	2454.79167
1063.61	2468.79167
1067.033	2505.125
1070.454	2482.125
1073.872	2532.45833
1077.287	2514.125
1080.7	2499.79167
1084.11	2503.45833
1087.517	2485.45833
1090.922	2444.79167
1094.325	2427.79167
1097.724	2397.45833
1101.122	2415.125
1104.516	2386.125
1107.908	2403.45833
1111.298	2431.79167
1114.684	2457.125
1118.069	2486.79167
1121.45	2508.125
1124.83	2513.125
1128.206	2527.125
1131.58	2564.45833
1134.951	2630.79167
1138.32	2706.79167
1141.687	2788.79167
1145.05	2837.125
1148.412	2852.45833
1151.77	2821.125
1155.126	2840.125
1158.48	2819.79167
1161.831	2825.125
1165.18	2827.125
1168.525	2866.45833
1171.869	2884.125
1175.21	2915.79167
1178.548	2920.79167
1181.884	2957.125
1185.217	2976.45833
1188.548	3056.125
1191.877	3121.45833
1195.202	3208.125
1198.526	3243.79167
1201.846	3273.79167
1205.165	3281.45833
1208.48	3283.45833
1211.794	3263.45833
1215.104	3263.45833
1218.413	3252.79167
1221.719	3256.79167
1225.022	3233.125
1228.323	3189.45833
1231.621	3149.45833
1234.917	3127.125
1238.21	3145.125
1241.501	3138.79167
1244.79	3134.125
1248.076	3129.125
1251.359	3150.79167
1254.64	3214.79167
1257.919	3230.79167
1261.195	3281.45833
1264.468	3331.45833
1267.74	3372.45833
1271.008	3394.79167
1274.275	3387.125
1277.538	3388.79167
1280.8	3356.45833
1284.059	3351.125
1287.315	3373.79167
1290.569	3372.79167
1293.821	3393.79167
1297.07	3399.45833
1300.317	3420.45833
1303.562	3409.79167
1306.803	3377.125
1310.043	3336.125
1313.28	3317.45833
1316.515	3284.79167
1319.747	3288.125
1322.977	3245.125
1326.204	3222.45833
1329.429	3148.45833
1332.652	3151.45833
1335.872	3146.79167
1339.09	3115.45833
1342.306	3098.125
1345.519	3060.79167
1348.729	3032.79167
1351.938	3027.45833
1355.144	2997.45833
1358.347	2953.45833
1361.548	2940.79167
1364.747	2942.79167
1367.944	2902.125
1371.138	2913.79167
1374.329	2923.45833
1377.518	2950.79167
1380.705	2980.79167
1383.89	2927.125
1387.072	2858.45833
1390.252	2764.79167
1393.429	2662.45833
1396.605	2573.79167
1399.777	2509.79167
1402.948	2492.79167
1406.116	2451.79167
1409.282	2463.79167
1412.445	2458.79167
1415.606	2479.45833
1418.765	2536.45833
1421.921	2577.125
1425.075	2618.125
1428.227	2717.125
1431.376	2804.79167
1434.524	2890.45833
1437.668	2976.45833
1440.811	3012.45833
1443.951	3044.79167
1447.089	3047.45833
1450.224	3029.79167
1453.357	3013.125
1456.488	2976.45833
1459.617	2934.45833
1462.743	2906.79167
1465.867	2825.79167
1468.989	2786.45833
1472.108	2734.45833
1475.225	2727.79167
1478.34	2668.45833
1481.453	2646.125
1484.563	2647.125
1487.671	2700.79167
1490.776	2724.79167
1493.88	2765.125
1496.981	2800.45833
1500.08	2843.45833
1503.176	2853.79167
1506.271	2918.125
1509.363	2946.45833
1512.452	2972.79167
1515.54	3026.45833
1518.625	3062.125
1521.708	3131.79167
1524.789	3217.125
1527.867	3310.45833
1530.944	3489.79167
1534.018	3637.79167
1537.089	3790.79167
1540.159	3847.79167
1543.226	3854.79167
1546.291	3787.45833
1549.354	3709.45833
1552.415	3628.45833
1555.473	3559.45833
1558.529	3477.79167
1561.583	3423.125
1564.634	3388.79167
1567.684	3387.79167
1570.731	3396.45833
1573.776	3429.45833
1576.819	3468.79167
1579.859	3482.45833
1582.898	3529.125
1585.934	3564.125
1588.968	3550.79167
1591.999	3555.79167
1595.029	3558.45833
1598.056	3579.45833
1601.081	3611.79167
1604.104	3593.125
1607.125	3569.79167
1610.144	3509.125
1613.16	3434.125
1616.174	3369.125
1619.186	3295.45833
1622.196	3211.125
1625.203	3156.79167
1628.209	3112.125
1631.212	3075.79167
1634.213	3089.125
1637.212	3068.125
1640.209	3022.45833
1643.203	2927.125
1646.196	2831.79167
1649.186	2763.79167
1652.174	2649.79167
1655.16	2555.125
1658.144	2471.45833
1661.125	2391.125
1664.105	2286.125
1667.082	2198.45833
1670.057	2090.79167
1673.03	1956.45833
1676.001	1827.45833
1678.97	1737.45833
1681.937	1628.45833
1684.901	1551.79167
1687.863	1505.45833
1690.824	1438.45833
1693.782	1426.125
1696.738	1355.45833
1699.692	1327.45833
1702.643	1283.125
1705.593	1283.45833
1708.54	1272.79167
1711.486	1255.45833
1714.429	1234.125
1717.37	1217.79167
1720.309	1209.79167
1723.246	1197.79167
1726.181	1191.125
1729.113	1168.125
1732.044	1156.45833
1734.972	1150.125
1737.899	1161.125
1740.823	1155.125
1743.745	1110.125
1746.665	1094.125
1749.583	1110.79167
1752.499	1082.125
1755.413	1079.45833
1758.325	1042.45833
1761.235	1041.125
1764.142	1017.125
1767.048	1007.125
1769.951	1003.45833
1772.852	1012.79167
1775.752	999.79167
1778.649	993.79167
1781.544	1009.79167
1784.437	973.125
1787.328	981.79167
1790.217	974.125
1793.104	937.79167
1795.989	955.79167
1798.872	943.45833
1801.753	958.79167
1804.631	958.45833
1807.508	961.45833
1810.383	938.79167
1813.255	936.79167
1816.126	959.125
1818.994	935.125
1821.861	935.45833
1824.725	930.45833
1827.587	933.45833
1830.448	923.79167
1833.306	899.125
1836.162	913.79167
1839.017	903.79167
1841.869	902.79167
1844.719	891.125
1847.567	875.125
1850.414	873.45833
1853.258	881.45833
1856.1	901.79167
1858.94	901.79167
1861.778	880.79167
1864.614	876.79167
1867.448	868.79167
1870.28	860.45833
1873.111	896.125
1875.939	871.125
1878.765	885.79167
1881.589	874.79167
1884.411	868.45833
1887.231	889.125
1890.049	877.45833
1892.865	881.125
1895.68	856.125
1898.492	874.125
1901.302	862.125
1904.11	853.45833
1906.916	840.79167
1909.721	833.125
1912.523	855.45833
1915.323	837.125
1918.122	824.79167
1920.918	845.125
1923.712	831.45833
1926.505	823.45833
1929.295	824.79167
1932.084	831.79167
1934.87	830.125
1937.655	822.125
1940.438	819.125
1943.218	828.79167
1945.997	823.79167
1948.774	822.45833
1951.549	819.45833
1954.322	812.79167
1957.093	810.125
1959.862	812.79167
1962.629	805.125
1965.394	802.45833
1968.157	797.79167
1970.918	797.125
1973.678	797.45833
1976.435	812.45833
1979.19	791.125
1981.944	793.45833
1984.696	787.79167
1987.445	767.125
1990.193	787.79167
1992.939	799.79167
1995.683	770.45833
1998.425	763.45833
2001.165	792.79167
2003.903	766.79167
2006.639	768.79167
2009.374	783.79167
2012.106	787.79167
2014.837	773.45833
2017.566	777.45833
2020.292	777.45833
2023.017	776.125
2025.74	783.79167
2028.461	758.125
2031.18	768.79167
2033.898	754.45833
2036.613	762.79167
2039.327	782.125
2042.038	744.45833
2044.748	757.79167
2047.456	757.125
2050.162	736.79167
2052.866	746.45833
2055.568	755.125
2058.268	730.79167
2060.967	758.79167
2063.663	731.45833
2066.358	745.79167
2069.051	729.79167
2071.742	736.45833
2074.431	752.125
2077.118	738.125
2079.804	736.45833
2082.487	731.125
2085.169	747.45833
2087.849	756.45833
2090.527	739.45833
2093.203	754.79167
2095.877	755.79167
2098.55	755.79167
2101.22	761.125
2103.889	776.79167
2106.556	767.45833
2109.221	803.45833
2111.884	804.125
2114.546	855.125
2117.205	909.79167
2119.863	965.79167
2122.519	1005.125
2125.173	1059.45833
2127.825	1112.79167
2130.475	1102.79167
2133.124	1077.45833
2135.771	1032.125
2138.416	992.45833
2141.059	942.45833
2143.7	909.125
2146.339	866.79167
2148.977	808.45833
2151.613	797.45833
2154.247	786.79167
2156.879	783.125
2159.51	757.79167
2162.138	742.125
2164.765	749.125
2167.39	730.125
2170.013	750.79167
2172.634	747.125
2175.254	729.45833
2177.872	755.79167
2180.488	708.79167
2183.102	717.79167
2185.714	707.79167
2188.325	678.45833
2190.934	702.45833
2193.541	705.45833
2196.146	702.125
2198.75	687.45833
2201.351	682.125
2203.951	680.45833
2206.549	694.125
2209.146	682.125
2211.74	681.45833
2214.333	680.79167
2216.924	668.45833
2219.514	671.79167
2222.101	668.79167
2224.687	690.125
2227.271	672.45833
2229.853	662.79167
2232.433	651.45833
2235.012	673.45833
2237.589	679.45833
2240.164	674.79167
2242.738	681.45833
2245.309	659.125
2247.879	671.45833
2250.448	675.79167
2253.014	653.45833
2255.579	643.125
2258.142	642.45833
2260.703	651.125
2263.262	652.125
2265.82	637.79167
2268.376	649.79167
2270.93	624.79167
2273.483	630.125
2276.033	640.125
2278.583	636.45833
2281.13	629.45833
2283.675	620.125
2286.219	635.79167
2288.761	627.125
2291.302	634.79167
2293.841	638.79167
2296.377	615.125
2298.913	633.125
2301.446	636.79167
2303.978	631.45833
2306.508	622.79167
2309.037	632.45833
2311.563	623.45833
2314.088	632.45833
2316.612	611.79167
2319.133	630.45833
2321.653	630.125
2324.171	619.45833
2326.688	633.79167
2329.202	622.45833
2331.715	611.79167
2334.227	603.125
2336.736	616.45833
2339.244	623.45833
2341.751	607.79167
2344.255	624.125
2346.758	629.45833
2349.259	609.125
2351.759	620.125
2354.257	604.45833
2356.753	603.125
2359.247	615.79167
2361.74	616.45833
2364.231	619.125
2366.721	616.79167
2369.209	610.45833
2371.695	620.45833
2374.179	618.125
2376.662	597.79167
2379.143	618.125
2381.622	613.45833
2384.1	610.79167
2386.576	624.45833
2389.051	637.125
2391.524	638.79167
2393.995	629.45833
2396.464	615.45833
2398.932	616.45833
2401.398	616.79167
2403.863	611.79167
2406.325	624.79167
2408.787	623.79167
2411.246	627.125
2413.704	616.125
2416.16	628.79167
2418.615	618.125
2421.068	634.125
2423.519	632.45833
2425.969	620.79167
2428.417	621.79167
2430.863	645.125
2433.308	630.125
2435.751	637.79167
2438.193	619.45833
2440.633	623.79167
2443.071	630.45833
2445.508	618.125
2447.943	626.125
2450.376	624.79167
2452.808	629.125
2455.238	628.45833
2457.667	657.45833
2460.093	632.79167
2462.519	619.45833
2464.942	634.79167
2467.365	631.45833
2469.785	631.45833
2472.204	634.45833
2474.621	633.125
2477.037	657.125
2479.451	620.45833
2481.863	623.79167
2484.274	631.79167
2486.683	632.79167
2489.091	643.45833
2491.497	636.45833
2493.901	634.45833
2496.304	632.45833
2498.705	651.79167
2501.105	640.45833
2503.503	661.79167
2505.899	631.125
2508.294	649.125
2510.687	634.79167
2513.079	645.79167
2515.469	637.79167
2517.858	639.45833
2520.245	652.79167
2522.63	645.45833
2525.014	645.79167
2527.396	637.45833
2529.776	631.125
2532.156	659.125
2534.533	637.79167
2536.909	640.125
2539.283	629.125
2541.656	648.45833
2544.027	666.125
2546.397	645.125
2548.765	652.125
2551.131	653.79167
2553.496	652.125
2555.86	656.79167
2558.221	660.45833
2560.582	649.45833
2562.94	646.125
2565.298	660.125
2567.653	677.79167
2570.007	642.45833
2572.36	659.79167
2574.711	649.45833
2577.06	676.45833
2579.408	679.45833
2581.754	669.45833
2584.099	659.79167
2586.442	661.45833
2588.784	672.45833
2591.124	670.79167
2593.463	674.45833
2595.8	670.125
2598.135	665.79167
2600.469	662.45833
2602.802	689.45833
2605.133	681.45833
2607.462	659.125
2609.79	681.125
2612.116	689.79167
2614.441	685.79167
2616.764	683.125
2619.086	686.45833
2621.406	670.79167
2623.725	699.45833
2626.042	707.45833
2628.358	693.125
2630.672	682.79167
2632.985	705.45833
2635.296	696.125
2637.606	691.125
2639.914	694.45833
2642.22	698.45833
2644.525	705.79167
2646.829	710.45833
2649.131	720.125
2651.432	729.79167
2653.731	719.45833
2656.028	730.45833
2658.324	731.125
2660.619	719.79167
2662.912	733.45833
2665.204	717.79167
2667.494	736.45833
2669.782	723.125
2672.07	731.45833
2674.355	734.45833
2676.639	729.125
2678.922	727.79167
2681.203	744.125
2683.483	718.79167
2685.761	725.125
2688.038	733.79167
2690.313	766.125
2692.587	737.79167
2694.859	736.79167
2697.13	752.45833
2699.399	757.125
2701.667	764.125
2703.933	753.79167
2706.198	763.45833
2708.461	765.79167
2710.723	768.125
2712.984	763.45833
2715.243	786.45833
2717.5	773.79167
2719.757	793.125
2722.011	779.79167
2724.264	796.79167
2726.516	814.45833
2728.766	791.79167
2731.015	812.125
2733.262	801.79167
2735.508	812.79167
2737.753	802.125
2739.996	788.45833
2742.237	798.45833
2744.477	804.45833
2746.716	799.45833
2748.953	795.45833
2751.189	793.79167
2753.423	788.125
2755.656	790.79167
2757.887	788.79167
2760.117	785.125
2762.346	773.79167
2764.573	775.79167
2766.798	784.79167
2769.022	796.79167
2771.245	795.125
2773.467	794.125
2775.686	811.125
2777.905	808.125
2780.122	805.125
2782.337	818.45833
2784.552	807.125
2786.764	811.79167
2788.976	819.79167
2791.186	831.125
2793.394	834.45833
2795.601	842.125
2797.807	851.45833
2800.011	855.79167
2802.214	870.45833
2804.415	867.79167
2806.615	857.45833
2808.814	860.125
2811.011	889.45833
2813.206	864.45833
2815.401	901.79167
2817.594	891.45833
2819.785	903.125
2821.975	885.45833
2824.164	897.125
2826.351	917.125
2828.537	919.125
2830.722	929.125
2832.905	934.45833
2835.086	966.125
2837.267	984.45833
2839.445	1005.45833
2841.623	1009.79167
2843.799	1046.79167
2845.974	1073.125
2848.147	1084.45833
2850.319	1114.45833
2852.489	1149.45833
2854.659	1143.79167
2856.826	1171.79167
2858.993	1195.125
2861.158	1175.45833
2863.321	1176.125
2865.483	1194.45833
2867.644	1188.45833
2869.804	1169.79167
2871.962	1176.79167
2874.118	1172.45833
2876.274	1164.79167
2878.428	1181.45833
2880.58	1181.45833
2882.731	1161.79167
2884.881	1170.79167
2887.03	1174.125
2889.177	1179.45833
2891.322	1187.45833
2893.467	1185.45833
2895.61	1178.79167
2897.751	1211.79167
2899.892	1182.45833
2902.03	1206.125
2904.168	1214.79167
2906.304	1231.79167
2908.439	1239.45833
2910.572	1226.125
2912.704	1230.125
2914.835	1245.79167
2916.965	1241.45833
2919.093	1250.45833
2921.219	1230.125
2923.345	1246.79167
2925.469	1224.45833
2927.591	1226.125
2929.712	1192.79167
2931.832	1183.45833
2933.951	1184.79167
2936.068	1165.45833
2938.184	1132.45833
2940.299	1133.125
2942.412	1109.125
2944.524	1077.79167
2946.634	1088.45833
2948.744	1044.79167
2950.851	1071.79167
2952.958	1035.45833
2955.063	1036.79167
2957.167	1035.45833
2959.269	1003.125
2961.371	1024.45833
2963.471	985.79167
2965.569	1010.125
2967.666	967.45833
2969.762	967.125
2971.857	956.79167
2973.95	942.45833
2976.042	947.125
2978.133	911.125
2980.222	915.125
2982.31	895.45833
2984.396	869.45833
2986.482	876.125
2988.566	881.125
2990.648	862.79167
2992.73	865.45833
2994.81	855.125
2996.889	860.45833
2998.966	867.45833
3001.042	863.125
3003.117	871.45833
3005.191	864.45833
3007.263	866.125
3009.334	847.79167
3011.403	841.45833
3013.472	831.79167
3015.539	837.45833
3017.604	831.79167
3019.669	797.45833
3021.732	792.125
3023.794	813.79167
3025.854	801.45833
3027.914	805.125
3029.971	803.79167
3032.028	797.79167
3034.083	791.45833
3036.137	781.45833
3038.19	772.125
3040.242	751.125
3042.292	740.79167
3044.341	741.45833
3046.388	744.45833
3048.435	718.125
3050.48	738.79167
3052.524	723.125
3054.566	697.45833
3056.607	716.79167
3058.647	687.125
3060.686	669.79167
3062.723	652.125
3064.759	630.79167
3066.794	1.125
3068.828	2.45833
3070.86	1.45833
