-0.839	607.16667
3.438	737.16667
7.711	213.5
11.981	64.16667
16.247	43.83333
20.509	52.83333
24.768	48.5
29.024	57.5
33.276	47.5
37.524	51.16667
41.769	45.83333
46.01	33.5
50.247	49.5
54.481	57.16667
58.712	64.16667
62.939	50.5
67.162	67.83333
71.382	59.16667
75.599	49.5
79.812	64.83333
84.021	79.83333
88.227	62.83333
92.429	62.16667
96.628	55.16667
100.823	74.5
105.015	77.16667
109.204	71.83333
113.388	78.5
117.57	81.16667
121.748	88.16667
125.922	83.16667
130.093	103.83333
134.261	104.16667
138.425	100.16667
142.585	144.16667
146.742	134.16667
150.896	170.83333
155.046	211.83333
159.193	333.5
163.336	551.16667
167.476	1022.16667
171.613	1869.5
175.746	3148.16667
179.875	4657.5
184.002	6056.16667
188.124	7060.83333
192.244	7435.83333
196.36	7336.5
200.472	7098.83333
204.581	6929.5
208.687	6775.83333
212.79	6675.5
216.889	6621.16667
220.984	6636.5
225.077	6634.16667
229.165	6623.5
233.251	6655.83333
237.333	6630.83333
241.412	6583.83333
245.487	6525.83333
249.559	6430.83333
253.628	6373.83333
257.694	6379.16667
261.756	6299.5
265.814	6152.5
269.87	5963.16667
273.922	5780.83333
277.97	5679.83333
282.016	5573.83333
286.058	5554.5
290.097	5662.5
294.132	5684.16667
298.164	5642.83333
302.193	5445.16667
306.219	5034.83333
310.241	4665.83333
314.26	4291.83333
318.276	4004.5
322.288	3780.16667
326.297	3605.16667
330.303	3495.16667
334.305	3399.83333
338.305	3327.5
342.301	3273.16667
346.294	3260.16667
350.283	3227.5
354.269	3213.83333
358.252	3164.5
362.232	3146.16667
366.209	3129.16667
370.182	3098.83333
374.152	3085.16667
378.119	3097.83333
382.083	3082.5
386.043	3078.5
390	3053.83333
393.954	3076.83333
397.905	3050.5
401.852	3028.16667
405.797	2982.5
409.738	2991.16667
413.676	2965.16667
417.61	2962.5
421.542	2909.16667
425.47	2877.83333
429.396	2879.83333
433.318	2851.16667
437.236	2868.83333
441.152	2882.83333
445.065	2836.16667
448.974	2797.5
452.88	2768.16667
456.783	2752.5
460.683	2744.83333
464.58	2722.16667
468.473	2738.83333
472.364	2771.5
476.251	2739.5
480.135	2756.5
484.016	2793.5
487.894	2825.83333
491.769	2808.5
495.641	2808.5
499.509	2815.83333
503.375	2791.5
507.237	2798.5
511.096	2774.83333
514.952	2807.83333
518.805	2818.83333
522.655	2828.83333
526.502	2819.16667
530.346	2819.5
534.187	2835.83333
538.024	2838.5
541.859	2864.16667
545.69	2915.83333
549.519	2883.83333
553.344	2847.5
557.166	2817.16667
560.985	2763.83333
564.802	2721.83333
568.615	2700.5
572.425	2625.5
576.232	2607.5
580.036	2620.83333
583.836	2620.16667
587.634	2640.16667
591.429	2625.83333
595.221	2688.16667
599.01	2739.83333
602.796	2775.5
606.578	2769.83333
610.358	2793.83333
614.135	2754.16667
617.909	2738.83333
621.679	2701.16667
625.447	2709.5
629.212	2707.16667
632.973	2711.16667
636.732	2712.16667
640.488	2713.83333
644.241	2679.16667
647.991	2655.83333
651.737	2671.83333
655.481	2634.16667
659.222	2623.16667
662.96	2619.16667
666.695	2656.5
670.427	2683.16667
674.156	2699.5
677.882	2689.16667
681.605	2683.5
685.325	2627.83333
689.043	2636.5
692.757	2629.5
696.468	2638.83333
700.177	2630.83333
703.882	2610.5
707.585	2571.16667
711.284	2571.83333
714.981	2564.16667
718.675	2592.16667
722.366	2584.83333
726.054	2556.83333
729.739	2568.5
733.421	2586.16667
737.1	2574.83333
740.777	2614.83333
744.45	2609.5
748.121	2637.5
751.789	2671.83333
755.453	2679.5
759.115	2687.83333
762.774	2731.16667
766.431	2753.16667
770.084	2756.83333
773.734	2804.16667
777.382	2837.16667
781.027	2892.83333
784.669	2900.83333
788.308	2886.5
791.944	2881.83333
795.577	2917.83333
799.208	2949.83333
802.835	2943.83333
806.46	2959.83333
810.082	2975.83333
813.701	2975.5
817.317	3014.5
820.931	2991.16667
824.542	3002.83333
828.149	2957.83333
831.754	2965.83333
835.357	2957.5
838.956	2969.16667
842.553	2981.5
846.146	2940.16667
849.737	2925.83333
853.326	2952.16667
856.911	2953.5
860.493	3019.83333
864.073	3022.5
867.65	3058.16667
871.225	3101.16667
874.796	3101.83333
878.365	3110.16667
881.931	3144.16667
885.494	3171.16667
889.054	3141.5
892.612	3170.16667
896.166	3142.83333
899.719	3109.83333
903.268	3085.5
906.814	3063.83333
910.358	3056.5
913.899	3017.16667
917.438	3036.16667
920.973	3011.16667
924.506	3049.5
928.036	3095.83333
931.564	3131.5
935.088	3171.16667
938.61	3191.16667
942.129	3217.83333
945.646	3311.83333
949.16	3365.5
952.671	3404.16667
956.179	3401.16667
959.685	3332.5
963.188	3299.16667
966.688	3274.83333
970.185	3158.5
973.68	3094.16667
977.173	3022.16667
980.662	3004.83333
984.149	2970.83333
987.633	2968.16667
991.114	3012.5
994.593	3079.16667
998.069	3132.16667
1001.542	3233.5
1005.013	3188.5
1008.481	3032.5
1011.947	3028.16667
1015.409	2996.83333
1018.869	2993.83333
1022.327	2970.16667
1025.782	2950.16667
1029.234	2930.83333
1032.683	2892.16667
1036.13	2789.83333
1039.574	2692.16667
1043.016	2628.5
1046.455	2558.5
1049.891	2559.5
1053.325	2578.16667
1056.756	2578.5
1060.184	2592.5
1063.61	2608.16667
1067.033	2596.5
1070.454	2634.83333
1073.872	2640.83333
1077.287	2653.5
1080.7	2623.5
1084.11	2619.5
1087.517	2612.83333
1090.922	2571.5
1094.325	2561.83333
1097.724	2558.16667
1101.122	2564.5
1104.516	2570.16667
1107.908	2582.83333
1111.298	2616.16667
1114.684	2627.5
1118.069	2682.5
1121.45	2730.5
1124.83	2724.5
1128.206	2766.5
1131.58	2819.83333
1134.951	2874.16667
1138.32	2990.5
1141.687	3120.83333
1145.05	3159.16667
1148.412	3177.16667
1151.77	3190.16667
1155.126	3182.83333
1158.48	3199.5
1161.831	3217.5
1165.18	3229.83333
1168.525	3307.83333
1171.869	3328.5
1175.21	3347.5
1178.548	3382.5
1181.884	3413.5
1185.217	3447.5
1188.548	3512.83333
1191.877	3601.83333
1195.202	3664.5
1198.526	3742.5
1201.846	3731.5
1205.165	3702.16667
1208.48	3698.83333
1211.794	3652.83333
1215.104	3656.5
1218.413	3629.16667
1221.719	3642.5
1225.022	3574.83333
1228.323	3526.83333
1231.621	3512.16667
1234.917	3476.83333
1238.21	3466.16667
1241.501	3442.83333
1244.79	3416.83333
1248.076	3436.83333
1251.359	3446.5
1254.64	3514.16667
1257.919	3530.5
1261.195	3634.83333
1264.468	3690.83333
1267.74	3738.16667
1271.008	3766.16667
1274.275	3711.5
1277.538	3726.83333
1280.8	3704.5
1284.059	3684.5
1287.315	3776.16667
1290.569	3772.16667
1293.821	3771.5
1297.07	3783.5
1300.317	3811.5
1303.562	3799.5
1306.803	3782.83333
1310.043	3755.83333
1313.28	3731.5
1316.515	3683.16667
1319.747	3664.83333
1322.977	3617.5
1326.204	3575.5
1329.429	3491.16667
1332.652	3458.16667
1335.872	3442.16667
1339.09	3366.5
1342.306	3365.5
1345.519	3313.5
1348.729	3278.5
1351.938	3256.5
1355.144	3228.5
1358.347	3177.83333
1361.548	3155.83333
1364.747	3174.16667
1367.944	3161.83333
1371.138	3172.5
1374.329	3174.5
1377.518	3218.16667
1380.705	3244.5
1383.89	3236.83333
1387.072	3121.83333
1390.252	2981.5
1393.429	2866.5
1396.605	2799.5
1399.777	2722.5
1402.948	2706.5
1406.116	2679.83333
1409.282	2672.83333
1412.445	2676.16667
1415.606	2699.16667
1418.765	2751.83333
1421.921	2778.5
1425.075	2835.5
1428.227	2922.16667
1431.376	3060.5
1434.524	3152.5
1437.668	3254.83333
1440.811	3255.5
1443.951	3335.16667
1447.089	3298.83333
1450.224	3328.5
1453.357	3326.5
1456.488	3305.16667
1459.617	3244.83333
1462.743	3211.16667
1465.867	3142.83333
1468.989	3121.83333
1472.108	3076.16667
1475.225	3016.83333
1478.34	2976.5
1481.453	2995.16667
1484.563	3011.5
1487.671	3065.83333
1490.776	3098.83333
1493.88	3200.83333
1496.981	3242.5
1500.08	3318.16667
1503.176	3354.5
1506.271	3388.5
1509.363	3448.5
1512.452	3467.16667
1515.54	3524.83333
1518.625	3578.16667
1521.708	3629.5
1524.789	3744.5
1527.867	3860.5
1530.944	4038.16667
1534.018	4172.83333
1537.089	4351.5
1540.159	4351.83333
1543.226	4354.83333
1546.291	4300.83333
1549.354	4221.83333
1552.415	4168.5
1555.473	4065.83333
1558.529	4040.5
1561.583	3999.5
1564.634	4001.16667
1567.684	3989.83333
1570.731	4061.5
1573.776	4115.16667
1576.819	4179.5
1579.859	4222.83333
1582.898	4249.5
1585.934	4282.83333
1588.968	4334.16667
1591.999	4314.16667
1595.029	4337.83333
1598.056	4327.5
1601.081	4343.16667
1604.104	4327.83333
1607.125	4277.5
1610.144	4175.5
1613.16	4039.16667
1616.174	3948.5
1619.186	3859.16667
1622.196	3723.5
1625.203	3605.5
1628.209	3484.5
1631.212	3431.16667
1634.213	3373.83333
1637.212	3328.83333
1640.209	3245.83333
1643.203	3132.83333
1646.196	3028.5
1649.186	2890.5
1652.174	2805.83333
1655.16	2698.16667
1658.144	2597.5
1661.125	2472.5
1664.105	2374.83333
1667.082	2288.5
1670.057	2179.83333
1673.03	2043.83333
1676.001	1921.83333
1678.97	1819.5
1681.937	1700.83333
1684.901	1603.83333
1687.863	1552.83333
1690.824	1481.83333
1693.782	1475.16667
1696.738	1407.83333
1699.692	1367.16667
1702.643	1317.83333
1705.593	1300.16667
1708.54	1293.16667
1711.486	1280.16667
1714.429	1246.5
1717.37	1230.5
1720.309	1222.5
1723.246	1215.5
1726.181	1192.83333
1729.113	1184.83333
1732.044	1170.16667
1734.972	1159.83333
1737.899	1152.16667
1740.823	1138.83333
1743.745	1105.5
1746.665	1112.5
1749.583	1078.83333
1752.499	1079.83333
1755.413	1063.16667
1758.325	1019.5
1761.235	1016.83333
1764.142	1009.83333
1767.048	992.5
1769.951	989.5
1772.852	984.83333
1775.752	983.5
1778.649	967.5
1781.544	973.83333
1784.437	945.5
1787.328	954.16667
1790.217	947.16667
1793.104	908.5
1795.989	920.83333
1798.872	916.83333
1801.753	931.16667
1804.631	915.83333
1807.508	923.16667
1810.383	913.83333
1813.255	907.83333
1816.126	912.83333
1818.994	892.16667
1821.861	889.16667
1824.725	889.83333
1827.587	880.83333
1830.448	881.5
1833.306	863.16667
1836.162	884.16667
1839.017	866.83333
1841.869	862.83333
1844.719	844.83333
1847.567	846.16667
1850.414	831.16667
1853.258	839.16667
1856.1	850.5
1858.94	853.5
1861.778	841.16667
1864.614	844.5
1867.448	822.16667
1870.28	815.16667
1873.111	846.83333
1875.939	830.5
1878.765	847.5
1881.589	822.5
1884.411	822.83333
1887.231	825.16667
1890.049	819.16667
1892.865	828.5
1895.68	811.83333
1898.492	817.5
1901.302	796.83333
1904.11	811.16667
1906.916	799.83333
1909.721	774.5
1912.523	792.16667
1915.323	774.16667
1918.122	777.83333
1920.918	788.16667
1923.712	772.83333
1926.505	767.16667
1929.295	764.5
1932.084	774.83333
1934.87	778.5
1937.655	769.5
1940.438	756.5
1943.218	773.83333
1945.997	773.16667
1948.774	773.83333
1951.549	767.5
1954.322	764.83333
1957.093	753.16667
1959.862	760.83333
1962.629	750.5
1965.394	741.16667
1968.157	739.16667
1970.918	740.83333
1973.678	723.16667
1976.435	753.83333
1979.19	730.16667
1981.944	719.16667
1984.696	717.5
1987.445	712.16667
1990.193	726.5
1992.939	727.16667
1995.683	714.83333
1998.425	694.83333
2001.165	733.16667
2003.903	713.83333
2006.639	705.16667
2009.374	705.5
2012.106	714.83333
2014.837	697.83333
2017.566	722.83333
2020.292	704.16667
2023.017	706.5
2025.74	696.83333
2028.461	681.83333
2031.18	689.83333
2033.898	677.16667
2036.613	680.83333
2039.327	694.5
2042.038	677.83333
2044.748	684.16667
2047.456	693.5
2050.162	674.16667
2052.866	668.5
2055.568	680.5
2058.268	665.5
2060.967	675.5
2063.663	655.5
2066.358	661.16667
2069.051	649.5
2071.742	661.5
2074.431	656.83333
2077.118	656.83333
2079.804	655.16667
2082.487	656.83333
2085.169	678.5
2087.849	680.83333
2090.527	649.16667
2093.203	657.5
2095.877	664.83333
2098.55	665.5
2101.22	680.5
2103.889	687.83333
2106.556	686.5
2109.221	704.5
2111.884	717.16667
2114.546	768.83333
2117.205	792.16667
2119.863	877.16667
2122.519	920.16667
2125.173	979.83333
2127.825	1038.16667
2130.475	1040.83333
2133.124	993.83333
2135.771	960.5
2138.416	927.83333
2141.059	862.83333
2143.7	823.83333
2146.339	764.83333
2148.977	735.16667
2151.613	713.16667
2154.247	689.5
2156.879	690.5
2159.51	654.5
2162.138	663.16667
2164.765	656.5
2167.39	639.5
2170.013	649.5
2172.634	646.5
2175.254	629.83333
2177.872	658.5
2180.488	617.83333
2183.102	635.5
2185.714	620.5
2188.325	591.5
2190.934	607.5
2193.541	606.83333
2196.146	603.16667
2198.75	595.5
2201.351	597.5
2203.951	584.83333
2206.549	582.83333
2209.146	580.16667
2211.74	573.83333
2214.333	578.5
2216.924	555.16667
2219.514	577.5
2222.101	556.83333
2224.687	578.83333
2227.271	552.83333
2229.853	556.16667
2232.433	533.5
2235.012	559.5
2237.589	547.16667
2240.164	563.5
2242.738	537.16667
2245.309	536.5
2247.879	539.83333
2250.448	546.16667
2253.014	527.16667
2255.579	505.5
2258.142	517.83333
2260.703	505.5
2263.262	512.83333
2265.82	495.5
2268.376	501.83333
2270.93	491.83333
2273.483	486.83333
2276.033	498.16667
2278.583	495.16667
2281.13	488.5
2283.675	481.5
2286.219	485.83333
2288.761	473.5
2291.302	491.83333
2293.841	492.16667
2296.377	462.83333
2298.913	473.83333
2301.446	478.16667
2303.978	474.16667
2306.508	465.5
2309.037	471.83333
2311.563	468.16667
2314.088	482.5
2316.612	453.5
2319.133	452.83333
2321.653	459.16667
2324.171	454.83333
2326.688	468.83333
2329.202	446.83333
2331.715	450.16667
2334.227	447.83333
2336.736	451.5
2339.244	440.83333
2341.751	435.83333
2344.255	453.5
2346.758	440.5
2349.259	432.5
2351.759	441.16667
2354.257	438.5
2356.753	432.83333
2359.247	439.16667
2361.74	443.5
2364.231	443.83333
2366.721	441.83333
2369.209	433.83333
2371.695	433.83333
2374.179	423.5
2376.662	412.83333
2379.143	441.83333
2381.622	417.83333
2384.1	430.83333
2386.576	417.5
2389.051	443.5
2391.524	443.16667
2393.995	428.83333
2396.464	412.5
2398.932	415.16667
2401.398	423.16667
2403.863	416.83333
2406.325	408.16667
2408.787	415.83333
2411.246	410.16667
2413.704	409.16667
2416.16	410.16667
2418.615	412.83333
2421.068	423.5
2423.519	416.83333
2425.969	406.83333
2428.417	400.83333
2430.863	424.83333
2433.308	419.83333
2435.751	405.5
2438.193	406.83333
2440.633	408.16667
2443.071	403.83333
2445.508	398.16667
2447.943	402.5
2450.376	390.83333
2452.808	398.83333
2455.238	387.16667
2457.667	425.5
2460.093	389.16667
2462.519	379.83333
2464.942	386.5
2467.365	392.16667
2469.785	404.83333
2472.204	392.83333
2474.621	378.83333
2477.037	400.83333
2479.451	376.83333
2481.863	370.5
2484.274	381.16667
2486.683	382.5
2489.091	396.5
2491.497	382.5
2493.901	380.83333
2496.304	383.5
2498.705	382.5
2501.105	384.16667
2503.503	404.5
2505.899	360.16667
2508.294	400.16667
2510.687	380.83333
2513.079	374.5
2515.469	368.83333
2517.858	376.5
2520.245	383.5
2522.63	362.83333
2525.014	365.5
2527.396	359.16667
2529.776	353.83333
2532.156	372.16667
2534.533	357.83333
2536.909	358.5
2539.283	353.5
2541.656	358.83333
2544.027	368.83333
2546.397	351.16667
2548.765	356.5
2551.131	351.83333
2553.496	352.5
2555.86	363.83333
2558.221	364.16667
2560.582	363.16667
2562.94	349.83333
2565.298	348.83333
2567.653	368.5
2570.007	346.16667
2572.36	365.16667
2574.711	348.5
2577.06	372.83333
2579.408	363.5
2581.754	356.5
2584.099	352.16667
2586.442	351.83333
2588.784	355.5
2591.124	354.5
2593.463	343.83333
2595.8	358.5
2598.135	332.83333
2600.469	338.83333
2602.802	354.16667
2605.133	361.16667
2607.462	334.83333
2609.79	332.16667
2612.116	351.16667
2614.441	347.83333
2616.764	344.83333
2619.086	342.83333
2621.406	333.16667
2623.725	351.16667
2626.042	353.5
2628.358	332.16667
2630.672	336.5
2632.985	349.5
2635.296	338.16667
2637.606	336.5
2639.914	336.16667
2642.22	343.5
2644.525	342.83333
2646.829	350.16667
2649.131	355.83333
2651.432	347.5
2653.731	337.83333
2656.028	353.83333
2658.324	355.83333
2660.619	341.5
2662.912	352.5
2665.204	330.5
2667.494	356.16667
2669.782	336.16667
2672.07	354.83333
2674.355	359.16667
2676.639	339.83333
2678.922	339.5
2681.203	342.83333
2683.483	340.5
2685.761	341.5
2688.038	345.83333
2690.313	361.5
2692.587	351.5
2694.859	349.16667
2697.13	349.83333
2699.399	358.83333
2701.667	359.83333
2703.933	360.16667
2706.198	360.5
2708.461	362.83333
2710.723	370.16667
2712.984	364.83333
2715.243	367.16667
2717.5	357.16667
2719.757	368.16667
2722.011	364.5
2724.264	369.83333
2726.516	386.5
2728.766	365.5
2731.015	368.16667
2733.262	373.16667
2735.508	369.83333
2737.753	369.83333
2739.996	355.16667
2742.237	358.16667
2744.477	373.16667
2746.716	375.16667
2748.953	356.16667
2751.189	354.16667
2753.423	350.83333
2755.656	344.16667
2757.887	351.16667
2760.117	352.83333
2762.346	351.16667
2764.573	330.5
2766.798	340.5
2769.022	343.5
2771.245	353.5
2773.467	349.83333
2775.686	347.5
2777.905	349.5
2780.122	359.16667
2782.337	360.16667
2784.552	357.16667
2786.764	362.83333
2788.976	350.5
2791.186	363.83333
2793.394	374.16667
2795.601	371.5
2797.807	384.83333
2800.011	387.5
2802.214	383.83333
2804.415	391.16667
2806.615	390.5
2808.814	386.16667
2811.011	402.5
2813.206	401.83333
2815.401	416.16667
2817.594	404.83333
2819.785	423.83333
2821.975	417.83333
2824.164	427.5
2826.351	449.16667
2828.537	450.16667
2830.722	468.5
2832.905	464.16667
2835.086	484.5
2837.267	514.5
2839.445	525.83333
2841.623	543.83333
2843.799	562.5
2845.974	594.16667
2848.147	627.83333
2850.319	644.16667
2852.489	681.83333
2854.659	683.16667
2856.826	701.5
2858.993	734.83333
2861.158	720.83333
2863.321	712.16667
2865.483	733.16667
2867.644	725.83333
2869.804	715.5
2871.962	724.16667
2874.118	725.16667
2876.274	705.83333
2878.428	718.16667
2880.58	718.83333
2882.731	709.16667
2884.881	707.16667
2887.03	726.16667
2889.177	724.5
2891.322	728.83333
2893.467	724.5
2895.61	729.16667
2897.751	741.83333
2899.892	736.83333
2902.03	741.16667
2904.168	757.83333
2906.304	739.83333
2908.439	783.5
2910.572	758.83333
2912.704	782.83333
2914.835	777.5
2916.965	772.83333
2919.093	799.83333
2921.219	762.16667
2923.345	776.5
2925.469	748.16667
2927.591	751.16667
2929.712	726.5
2931.832	723.83333
2933.951	712.16667
2936.068	690.16667
2938.184	680.5
2940.299	666.83333
2942.412	640.16667
2944.524	600.5
2946.634	600.16667
2948.744	557.5
2950.851	577.5
2952.958	543.5
2955.063	535.83333
2957.167	525.16667
2959.269	498.5
2961.371	522.5
2963.471	484.16667
2965.569	480.5
2967.666	454.83333
2969.762	450.5
2971.857	432.83333
2973.95	425.83333
2976.042	425.16667
2978.133	407.5
2980.222	400.5
2982.31	377.16667
2984.396	364.83333
2986.482	363.5
2988.566	363.83333
2990.648	351.5
2992.73	358.16667
2994.81	344.5
2996.889	342.5
2998.966	335.5
3001.042	351.16667
3003.117	338.16667
3005.191	333.83333
3007.263	335.83333
3009.334	322.5
3011.403	329.83333
3013.472	318.16667
3015.539	323.16667
3017.604	325.16667
3019.669	290.16667
3021.732	295.83333
3023.794	303.83333
3025.854	295.5
3027.914	290.83333
3029.971	297.16667
3032.028	293.5
3034.083	296.16667
3036.137	287.16667
3038.19	279.16667
3040.242	268.5
3042.292	253.83333
3044.341	264.83333
3046.388	276.83333
3048.435	255.16667
3050.48	268.83333
3052.524	263.16667
3054.566	244.5
3056.607	256.5
3058.647	249.5
3060.686	238.16667
3062.723	229.5
3064.759	221.16667
3066.794	1.16667
3068.828	1.16667
3070.86	-0.5
