-0.839	413.29167
3.438	501.29167
7.711	148.29167
11.981	58.29167
16.247	44.95833
20.509	51.625
24.768	50.29167
29.024	53.29167
33.276	44.625
37.524	51.625
41.769	49.95833
46.01	36.625
50.247	44.625
54.481	60.625
58.712	61.625
62.939	46.95833
67.162	65.625
71.382	57.29167
75.599	49.625
79.812	64.29167
84.021	82.625
88.227	63.95833
92.429	60.29167
96.628	53.95833
100.823	69.95833
105.015	77.625
109.204	70.95833
113.388	76.95833
117.57	75.625
121.748	90.625
125.922	77.29167
130.093	98.95833
134.261	101.95833
138.425	101.29167
142.585	138.95833
146.742	127.625
150.896	158.29167
155.046	191.625
159.193	306.625
163.336	501.29167
167.476	903.29167
171.613	1664.95833
175.746	2832.95833
179.875	4258.29167
184.002	5593.29167
188.124	6592.29167
192.244	6963.625
196.36	6995.95833
200.472	6872.625
204.581	6745.95833
208.687	6677.625
212.79	6713.625
216.889	6721.29167
220.984	6815.625
225.077	6872.29167
229.165	6975.625
233.251	6988.625
237.333	7052.625
241.412	6982.625
245.487	6938.625
249.559	6881.29167
253.628	6847.95833
257.694	6835.95833
261.756	6802.29167
265.814	6677.95833
269.87	6449.29167
273.922	6229.625
277.97	6113.95833
282.016	6130.625
286.058	6156.29167
290.097	6318.29167
294.132	6385.625
298.164	6341.29167
302.193	5997.625
306.219	5517.625
310.241	5056.95833
314.26	4639.625
318.276	4313.625
322.288	4081.625
326.297	3878.95833
330.303	3736.95833
334.305	3648.29167
338.305	3598.29167
342.301	3540.625
346.294	3508.29167
350.283	3499.95833
354.269	3469.625
358.252	3429.29167
362.232	3401.95833
366.209	3403.95833
370.182	3369.95833
374.152	3352.95833
378.119	3356.95833
382.083	3340.29167
386.043	3347.29167
390	3306.625
393.954	3339.95833
397.905	3300.95833
401.852	3291.95833
405.797	3267.625
409.738	3248.625
413.676	3266.29167
417.61	3251.29167
421.542	3220.29167
425.47	3190.95833
429.396	3184.29167
433.318	3166.625
437.236	3153.625
441.152	3189.95833
445.065	3129.95833
448.974	3124.95833
452.88	3077.95833
456.783	3079.29167
460.683	3055.625
464.58	3089.29167
468.473	3072.95833
472.364	3082.625
476.251	3082.625
480.135	3121.625
484.016	3181.29167
487.894	3173.95833
491.769	3192.625
495.641	3200.625
499.509	3203.95833
503.375	3194.95833
507.237	3161.95833
511.096	3166.29167
514.952	3196.625
518.805	3232.625
522.655	3251.29167
526.502	3192.625
530.346	3186.95833
534.187	3171.29167
538.024	3204.29167
541.859	3224.29167
545.69	3235.625
549.519	3198.95833
553.344	3206.29167
557.166	3165.95833
560.985	3098.29167
564.802	3061.95833
568.615	3002.95833
572.425	2946.95833
576.232	2947.625
580.036	2935.625
583.836	2931.625
587.634	2943.625
591.429	2970.29167
595.221	3015.29167
599.01	3068.95833
602.796	3092.95833
606.578	3123.625
610.358	3124.625
614.135	3068.95833
617.909	3064.95833
621.679	3040.95833
625.447	2998.95833
629.212	3030.95833
632.973	3002.625
636.732	3017.29167
640.488	3022.29167
644.241	2983.29167
647.991	2997.625
651.737	2990.29167
655.481	2956.95833
659.222	2918.29167
662.96	2963.29167
666.695	2999.95833
670.427	2974.625
674.156	2993.29167
677.882	2998.29167
681.605	2978.29167
685.325	2948.625
689.043	2953.29167
692.757	2913.625
696.468	2924.29167
700.177	2928.95833
703.882	2921.29167
707.585	2893.29167
711.284	2892.29167
714.981	2878.95833
718.675	2898.29167
722.366	2926.29167
726.054	2913.95833
729.739	2876.625
733.421	2902.95833
737.1	2886.29167
740.777	2935.29167
744.45	2955.29167
748.121	2962.625
751.789	3003.625
755.453	3002.95833
759.115	3014.625
762.774	3064.95833
766.431	3064.625
770.084	3091.95833
773.734	3116.95833
777.382	3174.29167
781.027	3197.29167
784.669	3227.29167
788.308	3243.29167
791.944	3269.625
795.577	3268.29167
799.208	3283.625
802.835	3314.95833
806.46	3362.625
810.082	3337.29167
813.701	3337.95833
817.317	3390.625
820.931	3383.625
824.542	3365.625
828.149	3356.95833
831.754	3322.29167
835.357	3330.95833
838.956	3365.625
842.553	3344.29167
846.146	3319.95833
849.737	3285.29167
853.326	3327.29167
856.911	3306.625
860.493	3354.625
864.073	3383.95833
867.65	3421.625
871.225	3454.625
874.796	3459.95833
878.365	3470.625
881.931	3467.29167
885.494	3506.625
889.054	3508.95833
892.612	3501.29167
896.166	3480.95833
899.719	3475.625
903.268	3424.95833
906.814	3379.625
910.358	3353.95833
913.899	3320.625
917.438	3322.29167
920.973	3323.95833
924.506	3363.625
928.036	3415.625
931.564	3433.29167
935.088	3492.29167
938.61	3507.95833
942.129	3564.625
945.646	3624.625
949.16	3701.625
952.671	3740.29167
956.179	3749.29167
959.685	3687.625
963.188	3674.95833
966.688	3593.625
970.185	3501.95833
973.68	3474.29167
977.173	3418.95833
980.662	3376.625
984.149	3368.95833
987.633	3352.95833
991.114	3404.29167
994.593	3502.625
998.069	3585.625
1001.542	3683.29167
1005.013	3632.95833
1008.481	3418.625
1011.947	3350.29167
1015.409	3311.29167
1018.869	3347.29167
1022.327	3320.95833
1025.782	3278.625
1029.234	3313.95833
1032.683	3240.625
1036.13	3139.29167
1039.574	3004.625
1043.016	2946.95833
1046.455	2889.29167
1049.891	2871.625
1053.325	2862.95833
1056.756	2871.29167
1060.184	2933.625
1063.61	2930.625
1067.033	2943.95833
1070.454	2943.29167
1073.872	2979.95833
1077.287	2960.29167
1080.7	2961.29167
1084.11	2949.625
1087.517	2908.95833
1090.922	2907.29167
1094.325	2858.29167
1097.724	2822.625
1101.122	2851.29167
1104.516	2851.29167
1107.908	2842.625
1111.298	2864.95833
1114.684	2928.95833
1118.069	2967.625
1121.45	3032.29167
1124.83	3015.95833
1128.206	3050.95833
1131.58	3090.625
1134.951	3143.29167
1138.32	3255.95833
1141.687	3359.625
1145.05	3413.625
1148.412	3439.95833
1151.77	3413.29167
1155.126	3426.95833
1158.48	3435.95833
1161.831	3440.29167
1165.18	3467.29167
1168.525	3538.625
1171.869	3539.29167
1175.21	3573.29167
1178.548	3588.95833
1181.884	3633.625
1185.217	3652.95833
1188.548	3712.29167
1191.877	3800.95833
1195.202	3896.29167
1198.526	3958.625
1201.846	4009.95833
1205.165	3978.29167
1208.48	3980.625
1211.794	3955.29167
1215.104	3958.95833
1218.413	3938.625
1221.719	3970.29167
1225.022	3905.95833
1228.323	3841.29167
1231.621	3801.29167
1234.917	3778.625
1238.21	3784.29167
1241.501	3785.625
1244.79	3745.29167
1248.076	3773.29167
1251.359	3821.95833
1254.64	3903.29167
1257.919	3921.95833
1261.195	3983.95833
1264.468	4063.29167
1267.74	4122.95833
1271.008	4139.29167
1274.275	4090.95833
1277.538	4093.95833
1280.8	4057.29167
1284.059	4070.95833
1287.315	4083.95833
1290.569	4147.625
1293.821	4119.625
1297.07	4167.29167
1300.317	4164.625
1303.562	4172.95833
1306.803	4127.95833
1310.043	4103.625
1313.28	4078.29167
1316.515	4032.95833
1319.747	3995.95833
1322.977	3931.95833
1326.204	3886.95833
1329.429	3824.625
1332.652	3775.625
1335.872	3776.625
1339.09	3718.95833
1342.306	3702.625
1345.519	3682.29167
1348.729	3623.29167
1351.938	3596.625
1355.144	3544.29167
1358.347	3514.95833
1361.548	3494.95833
1364.747	3462.29167
1367.944	3425.95833
1371.138	3461.95833
1374.329	3479.625
1377.518	3527.625
1380.705	3533.625
1383.89	3496.625
1387.072	3394.29167
1390.252	3269.95833
1393.429	3132.95833
1396.605	3034.29167
1399.777	2964.95833
1402.948	2945.95833
1406.116	2916.625
1409.282	2908.29167
1412.445	2919.625
1415.606	2969.95833
1418.765	3002.95833
1421.921	3066.95833
1425.075	3138.29167
1428.227	3207.29167
1431.376	3386.625
1434.524	3504.29167
1437.668	3601.95833
1440.811	3652.95833
1443.951	3695.95833
1447.089	3676.29167
1450.224	3661.625
1453.357	3678.29167
1456.488	3604.95833
1459.617	3561.625
1462.743	3524.625
1465.867	3415.625
1468.989	3376.625
1472.108	3300.95833
1475.225	3231.625
1478.34	3212.29167
1481.453	3184.29167
1484.563	3186.95833
1487.671	3254.95833
1490.776	3290.29167
1493.88	3356.95833
1496.981	3387.29167
1500.08	3452.29167
1503.176	3497.29167
1506.271	3512.625
1509.363	3574.625
1512.452	3600.95833
1515.54	3674.29167
1518.625	3695.29167
1521.708	3803.625
1524.789	3897.29167
1527.867	4040.29167
1530.944	4250.95833
1534.018	4478.95833
1537.089	4654.95833
1540.159	4761.29167
1543.226	4704.29167
1546.291	4655.29167
1549.354	4574.29167
1552.415	4485.625
1555.473	4348.95833
1558.529	4256.95833
1561.583	4218.95833
1564.634	4190.95833
1567.684	4185.625
1570.731	4192.95833
1573.776	4220.95833
1576.819	4279.29167
1579.859	4314.95833
1582.898	4346.95833
1585.934	4390.29167
1588.968	4408.29167
1591.999	4404.625
1595.029	4380.95833
1598.056	4421.625
1601.081	4464.95833
1604.104	4423.29167
1607.125	4385.625
1610.144	4293.29167
1613.16	4186.625
1616.174	4111.95833
1619.186	4016.625
1622.196	3900.95833
1625.203	3763.625
1628.209	3681.625
1631.212	3642.625
1634.213	3582.625
1637.212	3555.29167
1640.209	3504.29167
1643.203	3409.95833
1646.196	3278.95833
1649.186	3188.95833
1652.174	3080.29167
1655.16	2951.625
1658.144	2888.625
1661.125	2739.95833
1664.105	2653.95833
1667.082	2521.29167
1670.057	2403.625
1673.03	2253.95833
1676.001	2108.95833
1678.97	1962.29167
1681.937	1849.95833
1684.901	1750.95833
1687.863	1683.625
1690.824	1619.29167
1693.782	1574.29167
1696.738	1512.95833
1699.692	1475.29167
1702.643	1451.625
1705.593	1425.95833
1708.54	1403.625
1711.486	1396.29167
1714.429	1366.29167
1717.37	1367.29167
1720.309	1323.625
1723.246	1317.95833
1726.181	1302.625
1729.113	1295.625
1732.044	1271.625
1734.972	1258.625
1737.899	1281.625
1740.823	1254.29167
1743.745	1219.95833
1746.665	1210.29167
1749.583	1204.29167
1752.499	1189.95833
1755.413	1182.95833
1758.325	1129.29167
1761.235	1129.625
1764.142	1113.95833
1767.048	1097.95833
1769.951	1074.95833
1772.852	1086.625
1775.752	1075.625
1778.649	1076.95833
1781.544	1073.29167
1784.437	1045.625
1787.328	1047.95833
1790.217	1053.625
1793.104	1018.625
1795.989	1024.95833
1798.872	1011.625
1801.753	1029.29167
1804.631	1017.625
1807.508	1027.29167
1810.383	1015.29167
1813.255	1018.29167
1816.126	1016.29167
1818.994	991.625
1821.861	994.625
1824.725	979.29167
1827.587	986.29167
1830.448	983.95833
1833.306	954.95833
1836.162	971.95833
1839.017	947.29167
1841.869	942.625
1844.719	941.29167
1847.567	922.95833
1850.414	921.29167
1853.258	928.95833
1856.1	933.625
1858.94	942.625
1861.778	925.625
1864.614	937.95833
1867.448	914.29167
1870.28	908.29167
1873.111	946.625
1875.939	925.625
1878.765	942.29167
1881.589	917.95833
1884.411	919.29167
1887.231	901.95833
1890.049	906.29167
1892.865	907.95833
1895.68	891.625
1898.492	900.625
1901.302	899.95833
1904.11	877.29167
1906.916	876.625
1909.721	872.625
1912.523	871.29167
1915.323	863.625
1918.122	869.625
1920.918	868.95833
1923.712	852.95833
1926.505	856.625
1929.295	859.625
1932.084	866.625
1934.87	850.625
1937.655	853.95833
1940.438	834.29167
1943.218	850.95833
1945.997	863.29167
1948.774	856.29167
1951.549	852.95833
1954.322	842.95833
1957.093	836.95833
1959.862	838.625
1962.629	824.95833
1965.394	824.29167
1968.157	816.95833
1970.918	820.625
1973.678	797.625
1976.435	822.625
1979.19	806.29167
1981.944	795.625
1984.696	799.95833
1987.445	792.29167
1990.193	801.95833
1992.939	804.29167
1995.683	803.625
1998.425	780.625
2001.165	818.95833
2003.903	788.29167
2006.639	789.29167
2009.374	789.95833
2012.106	788.625
2014.837	765.95833
2017.566	787.95833
2020.292	787.95833
2023.017	785.625
2025.74	785.625
2028.461	771.95833
2031.18	774.95833
2033.898	762.625
2036.613	765.29167
2039.327	772.625
2042.038	747.95833
2044.748	757.95833
2047.456	760.625
2050.162	740.29167
2052.866	746.29167
2055.568	759.29167
2058.268	742.625
2060.967	747.95833
2063.663	737.625
2066.358	742.95833
2069.051	732.29167
2071.742	734.29167
2074.431	728.29167
2077.118	734.95833
2079.804	721.29167
2082.487	741.625
2085.169	740.95833
2087.849	758.95833
2090.527	736.95833
2093.203	737.29167
2095.877	747.625
2098.55	740.95833
2101.22	755.625
2103.889	769.29167
2106.556	750.95833
2109.221	793.29167
2111.884	800.625
2114.546	862.29167
2117.205	904.625
2119.863	976.95833
2122.519	1034.29167
2125.173	1096.95833
2127.825	1157.95833
2130.475	1155.625
2133.124	1107.95833
2135.771	1057.625
2138.416	1007.95833
2141.059	944.29167
2143.7	916.29167
2146.339	860.29167
2148.977	800.625
2151.613	813.625
2154.247	785.625
2156.879	769.95833
2159.51	746.625
2162.138	726.625
2164.765	727.95833
2167.39	698.95833
2170.013	722.29167
2172.634	716.95833
2175.254	699.625
2177.872	723.95833
2180.488	693.625
2183.102	688.625
2185.714	680.625
2188.325	652.625
2190.934	670.625
2193.541	672.29167
2196.146	664.29167
2198.75	652.625
2201.351	648.625
2203.951	637.625
2206.549	657.95833
2209.146	631.29167
2211.74	631.625
2214.333	644.625
2216.924	626.29167
2219.514	633.625
2222.101	613.625
2224.687	649.29167
2227.271	625.29167
2229.853	615.29167
2232.433	607.625
2235.012	630.95833
2237.589	615.625
2240.164	630.625
2242.738	620.625
2245.309	611.625
2247.879	606.29167
2250.448	617.29167
2253.014	587.95833
2255.579	569.625
2258.142	591.625
2260.703	576.95833
2263.262	578.95833
2265.82	581.95833
2268.376	585.95833
2270.93	557.29167
2273.483	567.29167
2276.033	568.625
2278.583	566.625
2281.13	559.95833
2283.675	548.625
2286.219	549.625
2288.761	561.625
2291.302	562.29167
2293.841	566.625
2296.377	541.625
2298.913	546.95833
2301.446	558.95833
2303.978	550.29167
2306.508	543.625
2309.037	550.29167
2311.563	550.625
2314.088	552.625
2316.612	526.29167
2319.133	544.95833
2321.653	538.29167
2324.171	540.625
2326.688	544.29167
2329.202	537.29167
2331.715	528.625
2334.227	527.95833
2336.736	531.625
2339.244	521.95833
2341.751	515.29167
2344.255	532.95833
2346.758	523.29167
2349.259	514.95833
2351.759	522.29167
2354.257	518.95833
2356.753	514.95833
2359.247	514.29167
2361.74	519.29167
2364.231	518.625
2366.721	519.625
2369.209	511.95833
2371.695	514.29167
2374.179	519.625
2376.662	505.625
2379.143	522.29167
2381.622	500.95833
2384.1	517.29167
2386.576	511.625
2389.051	515.95833
2391.524	518.29167
2393.995	514.95833
2396.464	504.625
2398.932	494.95833
2401.398	504.29167
2403.863	502.29167
2406.325	495.29167
2408.787	504.625
2411.246	492.625
2413.704	503.625
2416.16	489.29167
2418.615	504.29167
2421.068	507.29167
2423.519	505.625
2425.969	486.29167
2428.417	499.95833
2430.863	516.625
2433.308	504.625
2435.751	500.95833
2438.193	495.95833
2440.633	493.95833
2443.071	498.95833
2445.508	485.95833
2447.943	483.625
2450.376	491.625
2452.808	482.95833
2455.238	484.29167
2457.667	511.95833
2460.093	486.95833
2462.519	479.29167
2464.942	479.29167
2467.365	488.29167
2469.785	497.625
2472.204	490.625
2474.621	475.625
2477.037	502.29167
2479.451	468.95833
2481.863	461.95833
2484.274	479.29167
2486.683	482.29167
2489.091	487.29167
2491.497	476.29167
2493.901	486.95833
2496.304	479.625
2498.705	487.625
2501.105	472.95833
2503.503	495.29167
2505.899	472.625
2508.294	503.95833
2510.687	482.95833
2513.079	483.29167
2515.469	472.29167
2517.858	477.95833
2520.245	478.29167
2522.63	468.625
2525.014	469.625
2527.396	469.29167
2529.776	463.29167
2532.156	475.625
2534.533	461.625
2536.909	462.29167
2539.283	447.29167
2541.656	456.29167
2544.027	486.29167
2546.397	461.625
2548.765	460.625
2551.131	467.625
2553.496	467.625
2555.86	474.95833
2558.221	465.625
2560.582	468.29167
2562.94	459.625
2565.298	463.95833
2567.653	480.95833
2570.007	455.625
2572.36	471.95833
2574.711	457.625
2577.06	477.29167
2579.408	468.29167
2581.754	459.95833
2584.099	471.625
2586.442	464.29167
2588.784	465.29167
2591.124	460.625
2593.463	466.625
2595.8	475.95833
2598.135	459.625
2600.469	460.625
2602.802	475.625
2605.133	475.95833
2607.462	463.29167
2609.79	461.625
2612.116	468.625
2614.441	464.625
2616.764	474.29167
2619.086	465.29167
2621.406	457.625
2623.725	477.95833
2626.042	464.625
2628.358	466.29167
2630.672	462.95833
2632.985	477.95833
2635.296	470.29167
2637.606	471.29167
2639.914	467.625
2642.22	464.29167
2644.525	468.95833
2646.829	475.625
2649.131	479.29167
2651.432	490.29167
2653.731	476.29167
2656.028	486.95833
2658.324	489.625
2660.619	478.625
2662.912	490.95833
2665.204	480.29167
2667.494	486.29167
2669.782	479.95833
2672.07	490.29167
2674.355	485.29167
2676.639	487.95833
2678.922	473.625
2681.203	487.95833
2683.483	469.29167
2685.761	478.625
2688.038	488.29167
2690.313	505.625
2692.587	486.95833
2694.859	481.625
2697.13	492.95833
2699.399	499.29167
2701.667	501.29167
2703.933	507.29167
2706.198	509.29167
2708.461	518.95833
2710.723	519.95833
2712.984	518.29167
2715.243	520.29167
2717.5	517.95833
2719.757	531.625
2722.011	513.29167
2724.264	530.95833
2726.516	538.29167
2728.766	519.625
2731.015	532.29167
2733.262	528.29167
2735.508	535.95833
2737.753	523.29167
2739.996	521.95833
2742.237	511.625
2744.477	528.29167
2746.716	526.95833
2748.953	510.95833
2751.189	527.625
2753.423	510.95833
2755.656	503.625
2757.887	503.625
2760.117	502.625
2762.346	495.625
2764.573	495.29167
2766.798	499.625
2769.022	492.625
2771.245	499.95833
2773.467	513.29167
2775.686	517.625
2777.905	510.29167
2780.122	525.95833
2782.337	524.625
2784.552	522.625
2786.764	525.95833
2788.976	532.29167
2791.186	531.95833
2793.394	549.625
2795.601	542.625
2797.807	562.95833
2800.011	567.29167
2802.214	560.95833
2804.415	561.95833
2806.615	554.625
2808.814	572.95833
2811.011	584.95833
2813.206	581.625
2815.401	595.625
2817.594	595.625
2819.785	615.625
2821.975	607.625
2824.164	618.95833
2826.351	623.95833
2828.537	646.95833
2830.722	650.95833
2832.905	645.95833
2835.086	698.29167
2837.267	731.95833
2839.445	734.625
2841.623	746.625
2843.799	781.29167
2845.974	811.625
2848.147	832.95833
2850.319	866.625
2852.489	902.625
2854.659	917.29167
2856.826	918.29167
2858.993	963.29167
2861.158	924.95833
2863.321	938.95833
2865.483	952.29167
2867.644	966.29167
2869.804	942.29167
2871.962	959.95833
2874.118	955.95833
2876.274	945.95833
2878.428	931.95833
2880.58	936.625
2882.731	928.95833
2884.881	926.29167
2887.03	931.29167
2889.177	938.625
2891.322	945.95833
2893.467	944.95833
2895.61	949.95833
2897.751	978.29167
2899.892	959.29167
2902.03	974.29167
2904.168	980.29167
2906.304	987.95833
2908.439	993.29167
2910.572	986.29167
2912.704	998.29167
2914.835	1000.29167
2916.965	985.95833
2919.093	1001.29167
2921.219	979.625
2923.345	993.29167
2925.469	969.95833
2927.591	969.29167
2929.712	936.625
2931.832	909.29167
2933.951	913.95833
2936.068	896.625
2938.184	878.95833
2940.299	864.625
2942.412	830.95833
2944.524	814.625
2946.634	794.29167
2948.744	751.625
2950.851	777.625
2952.958	737.29167
2955.063	717.625
2957.167	721.29167
2959.269	691.29167
2961.371	708.625
2963.471	673.29167
2965.569	668.625
2967.666	644.95833
2969.762	641.95833
2971.857	624.625
2973.95	606.29167
2976.042	599.625
2978.133	589.95833
2980.222	569.29167
2982.31	554.625
2984.396	539.625
2986.482	536.95833
2988.566	529.625
2990.648	541.625
2992.73	527.95833
2994.81	512.29167
2996.889	525.29167
2998.966	515.625
3001.042	525.95833
3003.117	519.625
3005.191	509.29167
3007.263	515.625
3009.334	496.625
3011.403	506.625
3013.472	485.625
3015.539	490.625
3017.604	487.625
3019.669	458.625
3021.732	460.29167
3023.794	468.625
3025.854	460.29167
3027.914	460.95833
3029.971	467.625
3032.028	457.625
3034.083	465.29167
3036.137	457.95833
3038.19	440.95833
3040.242	433.29167
3042.292	417.625
3044.341	408.29167
3046.388	427.95833
3048.435	411.29167
3050.48	422.95833
3052.524	413.95833
3054.566	395.95833
3056.607	403.625
3058.647	396.625
3060.686	377.95833
3062.723	365.29167
3064.759	354.29167
3066.794	-0.70833
3068.828	2.625
3070.86	0.625
