-0.839	626.125
3.438	762.125
7.711	212.125
11.981	67.79167
16.247	47.125
20.509	49.45833
24.768	49.45833
29.024	52.45833
33.276	47.45833
37.524	53.125
41.769	50.45833
46.01	34.79167
50.247	47.79167
54.481	62.45833
58.712	67.125
62.939	50.79167
67.162	65.79167
71.382	56.45833
75.599	46.79167
79.812	62.79167
84.021	83.45833
88.227	61.45833
92.429	61.125
96.628	53.45833
100.823	73.125
105.015	78.79167
109.204	66.125
113.388	77.125
117.57	80.125
121.748	86.125
125.922	83.45833
130.093	104.45833
134.261	101.125
138.425	102.125
142.585	140.45833
146.742	135.125
150.896	165.45833
155.046	209.79167
159.193	326.45833
163.336	551.45833
167.476	1016.125
171.613	1876.79167
175.746	3135.125
179.875	4594.125
184.002	6087.125
188.124	7075.45833
192.244	7380.79167
196.36	7322.45833
200.472	7130.125
204.581	6921.79167
208.687	6765.125
212.79	6670.45833
216.889	6675.45833
220.984	6641.79167
225.077	6627.79167
229.165	6672.45833
233.251	6690.125
237.333	6672.125
241.412	6562.79167
245.487	6543.125
249.559	6442.125
253.628	6416.125
257.694	6353.45833
261.756	6307.45833
265.814	6138.79167
269.87	6014.125
273.922	5796.79167
277.97	5662.79167
282.016	5577.79167
286.058	5573.45833
290.097	5653.125
294.132	5708.125
298.164	5662.125
302.193	5462.79167
306.219	5078.79167
310.241	4719.45833
314.26	4343.79167
318.276	4053.125
322.288	3846.45833
326.297	3655.125
330.303	3571.79167
334.305	3467.45833
338.305	3416.125
342.301	3340.79167
346.294	3314.79167
350.283	3316.125
354.269	3259.45833
358.252	3243.45833
362.232	3226.125
366.209	3204.45833
370.182	3176.79167
374.152	3155.79167
378.119	3153.125
382.083	3150.45833
386.043	3170.45833
390	3138.45833
393.954	3129.79167
397.905	3102.45833
401.852	3135.79167
405.797	3064.125
409.738	3061.125
413.676	3042.79167
417.61	3051.45833
421.542	2995.79167
425.47	2952.45833
429.396	2957.125
433.318	2945.79167
437.236	2935.45833
441.152	2974.125
445.065	2918.125
448.974	2911.45833
452.88	2866.45833
456.783	2846.125
460.683	2855.125
464.58	2834.79167
468.473	2835.79167
472.364	2849.45833
476.251	2826.79167
480.135	2850.45833
484.016	2875.45833
487.894	2905.79167
491.769	2899.45833
495.641	2913.125
499.509	2912.79167
503.375	2893.79167
507.237	2883.125
511.096	2891.45833
514.952	2916.45833
518.805	2945.45833
522.655	2936.79167
526.502	2897.45833
530.346	2926.79167
534.187	2914.45833
538.024	2966.45833
541.859	2953.125
545.69	2999.79167
549.519	2971.45833
553.344	2951.125
557.166	2903.45833
560.985	2862.45833
564.802	2814.45833
568.615	2772.125
572.425	2735.45833
576.232	2717.45833
580.036	2700.125
583.836	2732.79167
587.634	2729.45833
591.429	2752.79167
595.221	2805.125
599.01	2837.79167
602.796	2872.79167
606.578	2859.125
610.358	2886.45833
614.135	2860.45833
617.909	2835.125
621.679	2810.79167
625.447	2779.45833
629.212	2788.125
632.973	2802.79167
636.732	2776.45833
640.488	2806.45833
644.241	2772.79167
647.991	2760.79167
651.737	2774.79167
655.481	2725.45833
659.222	2747.45833
662.96	2743.125
666.695	2762.45833
670.427	2774.45833
674.156	2810.125
677.882	2778.125
681.605	2759.79167
685.325	2722.45833
689.043	2755.79167
692.757	2695.45833
696.468	2724.79167
700.177	2717.45833
703.882	2700.79167
707.585	2674.125
711.284	2682.79167
714.981	2674.79167
718.675	2684.45833
722.366	2699.125
726.054	2669.125
729.739	2686.125
733.421	2683.45833
737.1	2656.79167
740.777	2730.79167
744.45	2704.125
748.121	2723.125
751.789	2760.79167
755.453	2778.45833
759.115	2789.125
762.774	2821.79167
766.431	2843.125
770.084	2866.79167
773.734	2899.79167
777.382	2937.45833
781.027	2988.45833
784.669	3001.125
788.308	2984.45833
791.944	3013.125
795.577	3019.125
799.208	2997.79167
802.835	3036.79167
806.46	3045.125
810.082	3059.79167
813.701	3103.125
817.317	3117.79167
820.931	3118.79167
824.542	3106.79167
828.149	3070.79167
831.754	3048.45833
835.357	3051.125
838.956	3052.79167
842.553	3037.79167
846.146	3034.125
849.737	2998.79167
853.326	3011.79167
856.911	3047.125
860.493	3079.79167
864.073	3087.125
867.65	3146.125
871.225	3152.45833
874.796	3154.79167
878.365	3174.79167
881.931	3198.125
885.494	3220.45833
889.054	3220.45833
892.612	3238.45833
896.166	3210.125
899.719	3183.45833
903.268	3140.125
906.814	3129.45833
910.358	3089.125
913.899	3091.45833
917.438	3102.45833
920.973	3060.45833
924.506	3109.79167
928.036	3178.79167
931.564	3210.79167
935.088	3245.45833
938.61	3248.45833
942.129	3307.79167
945.646	3347.79167
949.16	3428.45833
952.671	3485.45833
956.179	3466.45833
959.685	3420.79167
963.188	3399.45833
966.688	3347.79167
970.185	3236.79167
973.68	3194.79167
977.173	3118.79167
980.662	3080.45833
984.149	3069.125
987.633	3030.125
991.114	3055.79167
994.593	3151.45833
998.069	3229.79167
1001.542	3309.125
1005.013	3251.79167
1008.481	3109.125
1011.947	3071.45833
1015.409	3075.79167
1018.869	3074.45833
1022.327	3046.125
1025.782	2996.125
1029.234	2987.45833
1032.683	2942.45833
1036.13	2861.79167
1039.574	2759.45833
1043.016	2688.125
1046.455	2640.125
1049.891	2629.79167
1053.325	2635.125
1056.756	2627.125
1060.184	2656.125
1063.61	2660.125
1067.033	2688.45833
1070.454	2693.79167
1073.872	2706.45833
1077.287	2701.125
1080.7	2699.45833
1084.11	2674.45833
1087.517	2688.45833
1090.922	2634.125
1094.325	2641.79167
1097.724	2606.125
1101.122	2630.79167
1104.516	2616.79167
1107.908	2641.125
1111.298	2668.125
1114.684	2694.45833
1118.069	2714.45833
1121.45	2774.125
1124.83	2756.125
1128.206	2806.45833
1131.58	2857.125
1134.951	2955.79167
1138.32	3040.125
1141.687	3131.125
1145.05	3239.125
1148.412	3237.45833
1151.77	3237.45833
1155.126	3247.45833
1158.48	3232.79167
1161.831	3241.125
1165.18	3353.45833
1168.525	3555.125
1171.869	3436.125
1175.21	3396.45833
1178.548	3411.45833
1181.884	3438.125
1185.217	3448.45833
1188.548	3558.79167
1191.877	3624.45833
1195.202	3725.45833
1198.526	3774.45833
1201.846	3798.125
1205.165	3766.125
1208.48	3706.125
1211.794	3683.79167
1215.104	3670.45833
1218.413	3691.79167
1221.719	3682.79167
1225.022	3615.79167
1228.323	3578.79167
1231.621	3550.79167
1234.917	3509.45833
1238.21	3514.79167
1241.501	3491.79167
1244.79	3484.125
1248.076	3459.125
1251.359	3517.45833
1254.64	3563.45833
1257.919	3592.125
1261.195	3646.125
1264.468	3720.45833
1267.74	3757.45833
1271.008	3784.125
1274.275	3779.45833
1277.538	3760.125
1280.8	3745.79167
1284.059	3743.125
1287.315	3791.125
1290.569	3797.45833
1293.821	3828.79167
1297.07	3843.45833
1300.317	3840.79167
1303.562	3844.79167
1306.803	3798.125
1310.043	3801.45833
1313.28	3747.79167
1316.515	3731.45833
1319.747	3686.79167
1322.977	3658.45833
1326.204	3614.125
1329.429	3534.45833
1332.652	3503.45833
1335.872	3474.45833
1339.09	3450.45833
1342.306	3423.79167
1345.519	3361.79167
1348.729	3334.45833
1351.938	3312.45833
1355.144	3278.45833
1358.347	3240.45833
1361.548	3213.125
1364.747	3235.79167
1367.944	3202.45833
1371.138	3205.125
1374.329	3237.45833
1377.518	3244.79167
1380.705	3295.125
1383.89	3258.45833
1387.072	3166.79167
1390.252	3064.125
1393.429	2938.45833
1396.605	2844.125
1399.777	2769.125
1402.948	2742.45833
1406.116	2712.79167
1409.282	2714.125
1412.445	2727.45833
1415.606	2733.45833
1418.765	2750.79167
1421.921	2826.79167
1425.075	2878.125
1428.227	2965.79167
1431.376	3086.125
1434.524	3194.125
1437.668	3250.125
1440.811	3295.125
1443.951	3335.45833
1447.089	3329.125
1450.224	3349.79167
1453.357	3321.45833
1456.488	3311.45833
1459.617	3273.125
1462.743	3212.125
1465.867	3167.125
1468.989	3146.79167
1472.108	3112.45833
1475.225	3043.79167
1478.34	3019.125
1481.453	3018.125
1484.563	3044.79167
1487.671	3091.45833
1490.776	3144.125
1493.88	3219.45833
1496.981	3243.79167
1500.08	3337.79167
1503.176	3351.125
1506.271	3404.79167
1509.363	3443.45833
1512.452	3490.45833
1515.54	3517.79167
1518.625	3555.79167
1521.708	3656.79167
1524.789	3756.45833
1527.867	3869.79167
1530.944	4051.79167
1534.018	4210.45833
1537.089	4318.79167
1540.159	4383.79167
1543.226	4373.79167
1546.291	4305.79167
1549.354	4206.125
1552.415	4138.45833
1555.473	4061.45833
1558.529	4020.79167
1561.583	3979.79167
1564.634	3993.45833
1567.684	4039.125
1570.731	4046.125
1573.776	4099.79167
1576.819	4155.45833
1579.859	4220.45833
1582.898	4262.125
1585.934	4322.45833
1588.968	4360.79167
1591.999	4336.79167
1595.029	4326.45833
1598.056	4336.79167
1601.081	4366.45833
1604.104	4330.125
1607.125	4266.45833
1610.144	4171.45833
1613.16	4073.125
1616.174	3974.125
1619.186	3861.79167
1622.196	3735.45833
1625.203	3641.79167
1628.209	3542.125
1631.212	3458.45833
1634.213	3442.125
1637.212	3393.125
1640.209	3307.125
1643.203	3214.125
1646.196	3094.125
1649.186	2968.125
1652.174	2854.125
1655.16	2734.45833
1658.144	2643.79167
1661.125	2519.45833
1664.105	2406.79167
1667.082	2324.79167
1670.057	2199.45833
1673.03	2059.125
1676.001	1968.79167
1678.97	1844.125
1681.937	1746.79167
1684.901	1653.79167
1687.863	1580.79167
1690.824	1513.79167
1693.782	1496.45833
1696.738	1422.79167
1699.692	1393.125
1702.643	1341.79167
1705.593	1342.45833
1708.54	1321.125
1711.486	1323.125
1714.429	1265.45833
1717.37	1280.45833
1720.309	1247.79167
1723.246	1250.125
1726.181	1225.125
1729.113	1221.45833
1732.044	1204.45833
1734.972	1186.79167
1737.899	1181.79167
1740.823	1179.45833
1743.745	1146.45833
1746.665	1134.125
1749.583	1118.79167
1752.499	1103.45833
1755.413	1087.79167
1758.325	1054.45833
1761.235	1063.125
1764.142	1050.125
1767.048	1016.79167
1769.951	1029.79167
1772.852	1029.79167
1775.752	1017.125
1778.649	1000.125
1781.544	1009.45833
1784.437	980.45833
1787.328	998.79167
1790.217	975.79167
1793.104	959.45833
1795.989	944.125
1798.872	959.125
1801.753	958.45833
1804.631	967.79167
1807.508	960.125
1810.383	956.125
1813.255	943.45833
1816.126	938.125
1818.994	940.125
1821.861	929.79167
1824.725	931.79167
1827.587	930.125
1830.448	913.45833
1833.306	902.79167
1836.162	914.125
1839.017	900.125
1841.869	882.79167
1844.719	893.45833
1847.567	882.125
1850.414	866.79167
1853.258	872.45833
1856.1	885.45833
1858.94	878.79167
1861.778	866.45833
1864.614	861.45833
1867.448	872.45833
1870.28	845.125
1873.111	871.45833
1875.939	873.79167
1878.765	877.79167
1881.589	853.45833
1884.411	853.45833
1887.231	859.79167
1890.049	845.125
1892.865	849.79167
1895.68	835.125
1898.492	840.79167
1901.302	832.79167
1904.11	821.125
1906.916	825.125
1909.721	818.45833
1912.523	839.125
1915.323	800.45833
1918.122	806.79167
1920.918	809.45833
1923.712	795.125
1926.505	798.45833
1929.295	795.45833
1932.084	801.45833
1934.87	802.125
1937.655	800.125
1940.438	797.79167
1943.218	785.45833
1945.997	801.45833
1948.774	798.79167
1951.549	792.45833
1954.322	778.125
1957.093	774.45833
1959.862	768.79167
1962.629	771.79167
1965.394	777.45833
1968.157	763.125
1970.918	765.125
1973.678	753.79167
1976.435	764.45833
1979.19	758.125
1981.944	750.125
1984.696	739.125
1987.445	728.79167
1990.193	744.45833
1992.939	745.45833
1995.683	739.45833
1998.425	722.79167
2001.165	751.125
2003.903	734.125
2006.639	738.45833
2009.374	735.125
2012.106	738.79167
2014.837	718.45833
2017.566	721.79167
2020.292	725.125
2023.017	733.79167
2025.74	726.79167
2028.461	711.45833
2031.18	706.45833
2033.898	701.45833
2036.613	701.79167
2039.327	708.79167
2042.038	691.125
2044.748	695.79167
2047.456	706.45833
2050.162	697.45833
2052.866	690.79167
2055.568	693.45833
2058.268	685.45833
2060.967	696.45833
2063.663	672.45833
2066.358	683.79167
2069.051	679.125
2071.742	682.79167
2074.431	694.125
2077.118	685.79167
2079.804	663.45833
2082.487	675.45833
2085.169	681.45833
2087.849	716.125
2090.527	669.45833
2093.203	667.125
2095.877	699.125
2098.55	686.79167
2101.22	699.45833
2103.889	704.45833
2106.556	687.45833
2109.221	719.125
2111.884	716.45833
2114.546	776.45833
2117.205	813.125
2119.863	904.125
2122.519	922.45833
2125.173	997.45833
2127.825	1048.45833
2130.475	1064.79167
2133.124	1004.79167
2135.771	974.79167
2138.416	943.45833
2141.059	887.125
2143.7	835.125
2146.339	795.125
2148.977	735.45833
2151.613	737.125
2154.247	706.125
2156.879	697.45833
2159.51	683.45833
2162.138	655.125
2164.765	666.79167
2167.39	639.79167
2170.013	670.45833
2172.634	670.125
2175.254	646.45833
2177.872	671.125
2180.488	642.79167
2183.102	637.125
2185.714	631.79167
2188.325	615.125
2190.934	619.79167
2193.541	629.79167
2196.146	617.79167
2198.75	602.79167
2201.351	604.125
2203.951	595.125
2206.549	605.79167
2209.146	599.125
2211.74	587.125
2214.333	600.79167
2216.924	571.45833
2219.514	581.45833
2222.101	573.79167
2224.687	584.125
2227.271	567.79167
2229.853	562.79167
2232.433	548.125
2235.012	572.79167
2237.589	566.45833
2240.164	576.125
2242.738	558.45833
2245.309	543.45833
2247.879	553.79167
2250.448	561.45833
2253.014	540.79167
2255.579	529.125
2258.142	531.125
2260.703	525.125
2263.262	517.125
2265.82	513.45833
2268.376	524.45833
2270.93	500.45833
2273.483	507.45833
2276.033	516.125
2278.583	505.125
2281.13	507.125
2283.675	491.125
2286.219	494.79167
2288.761	492.79167
2291.302	498.45833
2293.841	510.125
2296.377	484.125
2298.913	487.79167
2301.446	489.45833
2303.978	484.45833
2306.508	477.45833
2309.037	476.79167
2311.563	482.125
2314.088	478.45833
2316.612	463.45833
2319.133	470.79167
2321.653	478.79167
2324.171	466.45833
2326.688	478.125
2329.202	462.125
2331.715	456.125
2334.227	458.45833
2336.736	466.79167
2339.244	456.45833
2341.751	452.125
2344.255	463.79167
2346.758	463.79167
2349.259	449.79167
2351.759	452.125
2354.257	440.45833
2356.753	439.45833
2359.247	442.125
2361.74	454.125
2364.231	452.79167
2366.721	452.45833
2369.209	450.45833
2371.695	444.125
2374.179	429.79167
2376.662	434.45833
2379.143	449.45833
2381.622	429.79167
2384.1	437.125
2386.576	436.79167
2389.051	444.79167
2391.524	452.125
2393.995	438.45833
2396.464	426.45833
2398.932	425.125
2401.398	421.125
2403.863	428.125
2406.325	420.45833
2408.787	425.45833
2411.246	430.45833
2413.704	428.45833
2416.16	410.79167
2418.615	413.79167
2421.068	432.45833
2423.519	428.79167
2425.969	412.79167
2428.417	423.45833
2430.863	435.45833
2433.308	425.45833
2435.751	418.45833
2438.193	409.79167
2440.633	415.45833
2443.071	412.45833
2445.508	404.79167
2447.943	406.45833
2450.376	406.125
2452.808	409.125
2455.238	402.45833
2457.667	440.45833
2460.093	396.125
2462.519	396.45833
2464.942	403.79167
2467.365	406.45833
2469.785	403.79167
2472.204	404.79167
2474.621	391.125
2477.037	414.45833
2479.451	382.45833
2481.863	387.45833
2484.274	392.125
2486.683	397.45833
2489.091	401.45833
2491.497	382.45833
2493.901	399.125
2496.304	379.45833
2498.705	390.45833
2501.105	385.45833
2503.503	411.45833
2505.899	372.45833
2508.294	405.125
2510.687	382.79167
2513.079	387.79167
2515.469	376.45833
2517.858	374.45833
2520.245	391.79167
2522.63	370.79167
2525.014	369.45833
2527.396	369.45833
2529.776	363.45833
2532.156	383.125
2534.533	371.125
2536.909	359.45833
2539.283	350.125
2541.656	359.125
2544.027	381.125
2546.397	365.79167
2548.765	357.79167
2551.131	369.125
2553.496	363.45833
2555.86	369.45833
2558.221	369.125
2560.582	364.79167
2562.94	350.125
2565.298	360.45833
2567.653	378.79167
2570.007	350.125
2572.36	367.125
2574.711	365.125
2577.06	368.125
2579.408	368.79167
2581.754	360.45833
2584.099	363.45833
2586.442	352.125
2588.784	367.45833
2591.124	362.45833
2593.463	357.79167
2595.8	358.125
2598.135	341.125
2600.469	349.125
2602.802	362.79167
2605.133	366.125
2607.462	356.79167
2609.79	341.45833
2612.116	356.79167
2614.441	352.79167
2616.764	356.45833
2619.086	347.79167
2621.406	334.79167
2623.725	361.45833
2626.042	354.125
2628.358	348.125
2630.672	347.125
2632.985	357.79167
2635.296	346.79167
2637.606	346.79167
2639.914	343.125
2642.22	347.79167
2644.525	339.45833
2646.829	351.79167
2649.131	368.45833
2651.432	358.45833
2653.731	348.79167
2656.028	357.125
2658.324	356.45833
2660.619	346.125
2662.912	364.79167
2665.204	343.125
2667.494	356.79167
2669.782	344.79167
2672.07	353.79167
2674.355	363.79167
2676.639	351.45833
2678.922	345.125
2681.203	348.79167
2683.483	342.45833
2685.761	343.125
2688.038	352.125
2690.313	362.45833
2692.587	354.125
2694.859	343.125
2697.13	351.79167
2699.399	361.79167
2701.667	364.79167
2703.933	361.125
2706.198	363.79167
2708.461	374.79167
2710.723	371.79167
2712.984	359.79167
2715.243	377.79167
2717.5	361.79167
2719.757	378.45833
2722.011	371.79167
2724.264	374.79167
2726.516	386.125
2728.766	369.45833
2731.015	375.79167
2733.262	376.45833
2735.508	382.125
2737.753	372.45833
2739.996	364.125
2742.237	370.79167
2744.477	368.125
2746.716	369.125
2748.953	364.79167
2751.189	373.125
2753.423	359.45833
2755.656	346.79167
2757.887	343.79167
2760.117	355.45833
2762.346	341.125
2764.573	338.45833
2766.798	350.45833
2769.022	347.125
2771.245	361.125
2773.467	349.125
2775.686	358.45833
2777.905	357.125
2780.122	359.79167
2782.337	356.125
2784.552	363.45833
2786.764	362.45833
2788.976	365.79167
2791.186	364.125
2793.394	368.45833
2795.601	376.79167
2797.807	379.79167
2800.011	392.79167
2802.214	397.45833
2804.415	393.125
2806.615	385.125
2808.814	394.79167
2811.011	404.125
2813.206	393.79167
2815.401	414.125
2817.594	413.45833
2819.785	421.45833
2821.975	418.125
2824.164	415.79167
2826.351	436.45833
2828.537	445.125
2830.722	455.79167
2832.905	453.79167
2835.086	498.45833
2837.267	516.45833
2839.445	527.45833
2841.623	546.45833
2843.799	565.125
2845.974	609.125
2848.147	621.79167
2850.319	649.79167
2852.489	689.45833
2854.659	697.125
2856.826	690.79167
2858.993	730.79167
2861.158	695.125
2863.321	712.125
2865.483	715.45833
2867.644	731.125
2869.804	724.79167
2871.962	725.79167
2874.118	716.79167
2876.274	710.79167
2878.428	714.45833
2880.58	720.79167
2882.731	711.125
2884.881	700.79167
2887.03	723.45833
2889.177	708.45833
2891.322	726.125
2893.467	717.79167
2895.61	733.125
2897.751	750.79167
2899.892	740.79167
2902.03	736.125
2904.168	750.45833
2906.304	764.125
2908.439	776.125
2910.572	750.45833
2912.704	774.45833
2914.835	770.79167
2916.965	761.79167
2919.093	789.79167
2921.219	758.79167
2923.345	780.125
2925.469	755.125
2927.591	759.45833
2929.712	737.45833
2931.832	725.125
2933.951	714.79167
2936.068	701.125
2938.184	683.45833
2940.299	663.45833
2942.412	640.79167
2944.524	609.45833
2946.634	602.45833
2948.744	557.125
2950.851	581.125
2952.958	544.79167
2955.063	532.45833
2957.167	528.125
2959.269	494.125
2961.371	515.45833
2963.471	485.45833
2965.569	494.79167
2967.666	462.125
2969.762	452.79167
2971.857	437.125
2973.95	422.79167
2976.042	421.125
2978.133	414.45833
2980.222	404.45833
2982.31	375.45833
2984.396	365.45833
2986.482	371.79167
2988.566	361.45833
2990.648	359.125
2992.73	360.125
2994.81	345.125
2996.889	349.79167
2998.966	351.125
3001.042	344.125
3003.117	337.79167
3005.191	337.79167
3007.263	341.125
3009.334	319.125
3011.403	329.125
3013.472	313.125
3015.539	324.45833
3017.604	325.79167
3019.669	296.45833
3021.732	293.125
3023.794	306.79167
3025.854	285.45833
3027.914	291.79167
3029.971	297.45833
3032.028	298.125
3034.083	291.79167
3036.137	290.45833
3038.19	276.125
3040.242	273.125
3042.292	264.125
3044.341	266.79167
3046.388	277.45833
3048.435	261.45833
3050.48	275.45833
3052.524	263.79167
3054.566	246.125
3056.607	257.45833
3058.647	247.45833
3060.686	240.45833
3062.723	238.79167
3064.759	222.125
3066.794	0.125
3068.828	2.79167
3070.86	2.125
