-0.839	603.75
3.438	735.08333
7.711	224.41667
11.981	65.41667
16.247	48.08333
20.509	51.41667
24.768	48.08333
29.024	52.08333
33.276	44.75
37.524	51.08333
41.769	47.41667
46.01	33.08333
50.247	48.41667
54.481	57.41667
58.712	62.75
62.939	49.75
67.162	64.08333
71.382	56.75
75.599	50.08333
79.812	63.41667
84.021	81.08333
88.227	62.75
92.429	59.41667
96.628	52.75
100.823	72.08333
105.015	72.41667
109.204	70.08333
113.388	76.75
117.57	73.41667
121.748	89.08333
125.922	80.08333
130.093	94.08333
134.261	99.08333
138.425	95.75
142.585	136.08333
146.742	123.41667
150.896	155.75
155.046	189.08333
159.193	305.41667
163.336	514.41667
167.476	935.75
171.613	1697.08333
175.746	2853.08333
179.875	4226.41667
184.002	5526.08333
188.124	6378.41667
192.244	6667.08333
196.36	6607.08333
200.472	6385.41667
204.581	6216.75
208.687	6039.08333
212.79	5968.75
216.889	5934.08333
220.984	5946.75
225.077	5923.41667
229.165	5903.41667
233.251	5943.08333
237.333	5870.75
241.412	5745.75
245.487	5687.75
249.559	5626.08333
253.628	5599.41667
257.694	5548.75
261.756	5510.41667
265.814	5411.08333
269.87	5256.08333
273.922	5084.41667
277.97	4979.08333
282.016	4921.41667
286.058	4938.75
290.097	5060.75
294.132	5115.75
298.164	5068.41667
302.193	4878.08333
306.219	4496.75
310.241	4187.41667
314.26	3900.41667
318.276	3659.75
322.288	3470.08333
326.297	3318.08333
330.303	3235.08333
334.305	3145.41667
338.305	3110.08333
342.301	3062.41667
346.294	3059.75
350.283	3066.41667
354.269	3033.41667
358.252	2991.08333
362.232	2986.75
366.209	2963.41667
370.182	2944.75
374.152	2931.08333
378.119	2929.75
382.083	2939.41667
386.043	2957.08333
390	2911.41667
393.954	2945.41667
397.905	2921.41667
401.852	2909.41667
405.797	2875.08333
409.738	2865.41667
413.676	2886.41667
417.61	2868.75
421.542	2837.41667
425.47	2832.75
429.396	2804.41667
433.318	2791.41667
437.236	2779.75
441.152	2830.41667
445.065	2765.75
448.974	2782.41667
452.88	2752.75
456.783	2705.75
460.683	2705.08333
464.58	2720.08333
468.473	2697.75
472.364	2733.75
476.251	2731.75
480.135	2755.41667
484.016	2797.08333
487.894	2804.75
491.769	2829.08333
495.641	2837.41667
499.509	2839.08333
503.375	2853.75
507.237	2832.08333
511.096	2885.75
514.952	3026.41667
518.805	3224.41667
522.655	3285.08333
526.502	3032.75
530.346	2859.41667
534.187	2828.41667
538.024	2838.08333
541.859	2805.75
545.69	2839.41667
549.519	2824.75
553.344	2797.41667
557.166	2765.08333
560.985	2732.75
564.802	2699.41667
568.615	2637.08333
572.425	2597.75
576.232	2616.75
580.036	2586.75
583.836	2613.75
587.634	2620.75
591.429	2632.75
595.221	2675.41667
599.01	2709.41667
602.796	2726.41667
606.578	2733.08333
610.358	2718.75
614.135	2699.75
617.909	2727.75
621.679	2652.75
625.447	2669.75
629.212	2669.75
632.973	2670.41667
636.732	2653.41667
640.488	2656.08333
644.241	2621.41667
647.991	2617.08333
651.737	2632.75
655.481	2614.41667
659.222	2601.08333
662.96	2602.75
666.695	2623.75
670.427	2656.08333
674.156	2653.08333
677.882	2645.41667
681.605	2624.08333
685.325	2606.75
689.043	2623.41667
692.757	2609.41667
696.468	2599.08333
700.177	2590.75
703.882	2576.75
707.585	2578.75
711.284	2548.75
714.981	2557.41667
718.675	2553.08333
722.366	2577.75
726.054	2559.08333
729.739	2536.41667
733.421	2546.75
737.1	2539.41667
740.777	2569.41667
744.45	2587.08333
748.121	2601.08333
751.789	2661.75
755.453	2626.41667
759.115	2653.75
762.774	2640.75
766.431	2687.75
770.084	2702.08333
773.734	2720.75
777.382	2750.75
781.027	2745.08333
784.669	2791.41667
788.308	2795.75
791.944	2805.08333
795.577	2788.75
799.208	2831.75
802.835	2850.41667
806.46	2841.75
810.082	2852.41667
813.701	2839.08333
817.317	2885.08333
820.931	2892.41667
824.542	2899.08333
828.149	2865.08333
831.754	2836.08333
835.357	2820.08333
838.956	2819.75
842.553	2835.41667
846.146	2813.41667
849.737	2779.08333
853.326	2802.41667
856.911	2795.08333
860.493	2847.75
864.073	2861.75
867.65	2870.75
871.225	2883.41667
874.796	2906.75
878.365	2910.75
881.931	2926.75
885.494	2933.41667
889.054	2930.08333
892.612	2942.75
896.166	2906.41667
899.719	2916.75
903.268	2857.75
906.814	2859.08333
910.358	2826.41667
913.899	2770.41667
917.438	2778.75
920.973	2784.41667
924.506	2796.08333
928.036	2848.75
931.564	2883.41667
935.088	2931.41667
938.61	2955.08333
942.129	2956.75
945.646	3019.41667
949.16	3079.41667
952.671	3107.08333
956.179	3108.75
959.685	3046.08333
963.188	3052.41667
966.688	3026.08333
970.185	2947.75
973.68	2893.41667
977.173	2856.41667
980.662	2828.08333
984.149	2831.08333
987.633	2816.75
991.114	2854.41667
994.593	2921.08333
998.069	2986.75
1001.542	3062.75
1005.013	2999.75
1008.481	2835.75
1011.947	2802.75
1015.409	2786.41667
1018.869	2781.75
1022.327	2767.08333
1025.782	2754.41667
1029.234	2745.41667
1032.683	2701.08333
1036.13	2620.75
1039.574	2535.41667
1043.016	2467.75
1046.455	2422.41667
1049.891	2419.75
1053.325	2426.75
1056.756	2424.08333
1060.184	2444.08333
1063.61	2460.08333
1067.033	2471.41667
1070.454	2465.75
1073.872	2485.08333
1077.287	2487.75
1080.7	2490.75
1084.11	2456.41667
1087.517	2446.41667
1090.922	2401.08333
1094.325	2404.08333
1097.724	2395.41667
1101.122	2383.08333
1104.516	2357.41667
1107.908	2375.75
1111.298	2414.75
1114.684	2449.75
1118.069	2464.08333
1121.45	2529.41667
1124.83	2477.08333
1128.206	2513.08333
1131.58	2552.41667
1134.951	2605.75
1138.32	2679.41667
1141.687	2756.08333
1145.05	2814.41667
1148.412	2806.41667
1151.77	2807.08333
1155.126	2789.41667
1158.48	2784.41667
1161.831	2799.08333
1165.18	2809.75
1168.525	2835.41667
1171.869	2873.41667
1175.21	2900.08333
1178.548	2910.08333
1181.884	2945.75
1185.217	2986.75
1188.548	3033.08333
1191.877	3070.41667
1195.202	3173.08333
1198.526	3225.75
1201.846	3253.75
1205.165	3243.08333
1208.48	3275.08333
1211.794	3255.08333
1215.104	3251.75
1218.413	3246.75
1221.719	3235.75
1225.022	3185.75
1228.323	3158.75
1231.621	3127.75
1234.917	3096.75
1238.21	3115.75
1241.501	3117.08333
1244.79	3087.75
1248.076	3108.75
1251.359	3142.08333
1254.64	3223.08333
1257.919	3210.75
1261.195	3266.41667
1264.468	3323.75
1267.74	3334.75
1271.008	3362.41667
1274.275	3339.08333
1277.538	3330.41667
1280.8	3319.08333
1284.059	3328.08333
1287.315	3335.41667
1290.569	3358.41667
1293.821	3357.41667
1297.07	3396.75
1300.317	3384.41667
1303.562	3365.08333
1306.803	3354.75
1310.043	3354.08333
1313.28	3297.08333
1316.515	3282.08333
1319.747	3229.75
1322.977	3242.41667
1326.204	3206.08333
1329.429	3156.08333
1332.652	3130.08333
1335.872	3104.75
1339.09	3066.41667
1342.306	3078.08333
1345.519	3067.08333
1348.729	3013.41667
1351.938	3007.08333
1355.144	2954.41667
1358.347	2936.75
1361.548	2921.41667
1364.747	2936.75
1367.944	2845.41667
1371.138	2881.41667
1374.329	2902.41667
1377.518	2937.08333
1380.705	2934.75
1383.89	2906.75
1387.072	2836.08333
1390.252	2716.75
1393.429	2632.08333
1396.605	2554.41667
1399.777	2491.41667
1402.948	2474.41667
1406.116	2453.75
1409.282	2429.08333
1412.445	2455.41667
1415.606	2478.41667
1418.765	2513.41667
1421.921	2542.08333
1425.075	2610.41667
1428.227	2678.41667
1431.376	2802.08333
1434.524	2893.75
1437.668	2963.08333
1440.811	2978.08333
1443.951	3023.08333
1447.089	3006.08333
1450.224	3016.41667
1453.357	3006.75
1456.488	2977.75
1459.617	2921.41667
1462.743	2871.41667
1465.867	2809.08333
1468.989	2775.75
1472.108	2731.08333
1475.225	2662.41667
1478.34	2641.75
1481.453	2659.08333
1484.563	2649.08333
1487.671	2688.41667
1490.776	2718.08333
1493.88	2738.41667
1496.981	2770.75
1500.08	2826.41667
1503.176	2875.41667
1506.271	2881.41667
1509.363	2933.08333
1512.452	2940.08333
1515.54	2978.41667
1518.625	3028.41667
1521.708	3117.41667
1524.789	3200.08333
1527.867	3323.08333
1530.944	3485.41667
1534.018	3609.41667
1537.089	3783.41667
1540.159	3808.41667
1543.226	3829.75
1546.291	3770.75
1549.354	3696.41667
1552.415	3598.08333
1555.473	3528.08333
1558.529	3460.75
1561.583	3405.41667
1564.634	3380.75
1567.684	3373.75
1570.731	3411.08333
1573.776	3410.41667
1576.819	3455.75
1579.859	3480.41667
1582.898	3522.41667
1585.934	3566.08333
1588.968	3548.75
1591.999	3559.08333
1595.029	3551.08333
1598.056	3579.75
1601.081	3609.75
1604.104	3592.08333
1607.125	3534.75
1610.144	3485.41667
1613.16	3419.75
1616.174	3341.41667
1619.186	3294.41667
1622.196	3223.41667
1625.203	3137.75
1628.209	3078.08333
1631.212	3071.08333
1634.213	3047.41667
1637.212	3055.75
1640.209	3021.75
1643.203	2900.08333
1646.196	2811.08333
1649.186	2712.41667
1652.174	2644.41667
1655.16	2556.75
1658.144	2454.75
1661.125	2347.41667
1664.105	2276.75
1667.082	2170.75
1670.057	2075.08333
1673.03	1939.41667
1676.001	1809.75
1678.97	1717.41667
1681.937	1604.41667
1684.901	1530.41667
1687.863	1494.41667
1690.824	1424.75
1693.782	1410.08333
1696.738	1337.08333
1699.692	1311.75
1702.643	1275.75
1705.593	1264.41667
1708.54	1256.08333
1711.486	1261.08333
1714.429	1212.41667
1717.37	1214.75
1720.309	1182.41667
1723.246	1201.75
1726.181	1165.75
1729.113	1159.75
1732.044	1151.75
1734.972	1141.75
1737.899	1156.41667
1740.823	1137.08333
1743.745	1103.08333
1746.665	1099.41667
1749.583	1082.75
1752.499	1058.41667
1755.413	1059.41667
1758.325	1030.08333
1761.235	1030.75
1764.142	1027.75
1767.048	1004.75
1769.951	1011.41667
1772.852	981.08333
1775.752	990.08333
1778.649	979.75
1781.544	982.41667
1784.437	960.75
1787.328	979.08333
1790.217	957.41667
1793.104	932.41667
1795.989	936.08333
1798.872	931.75
1801.753	955.08333
1804.631	950.08333
1807.508	949.41667
1810.383	937.08333
1813.255	939.75
1816.126	931.08333
1818.994	930.75
1821.861	927.08333
1824.725	926.41667
1827.587	915.08333
1830.448	901.41667
1833.306	895.08333
1836.162	902.08333
1839.017	892.75
1841.869	876.08333
1844.719	888.41667
1847.567	878.08333
1850.414	863.41667
1853.258	860.08333
1856.1	883.75
1858.94	890.41667
1861.778	870.08333
1864.614	871.41667
1867.448	875.41667
1870.28	870.08333
1873.111	874.08333
1875.939	859.08333
1878.765	885.08333
1881.589	849.75
1884.411	865.75
1887.231	862.41667
1890.049	865.08333
1892.865	875.41667
1895.68	843.75
1898.492	857.08333
1901.302	839.08333
1904.11	845.75
1906.916	831.08333
1909.721	826.75
1912.523	828.41667
1915.323	818.41667
1918.122	825.41667
1920.918	837.75
1923.712	817.08333
1926.505	811.08333
1929.295	809.08333
1932.084	823.75
1934.87	823.08333
1937.655	816.08333
1940.438	807.75
1943.218	800.41667
1945.997	826.08333
1948.774	828.75
1951.549	822.08333
1954.322	802.08333
1957.093	803.08333
1959.862	797.41667
1962.629	797.41667
1965.394	789.75
1968.157	788.75
1970.918	804.08333
1973.678	779.75
1976.435	794.75
1979.19	783.41667
1981.944	765.75
1984.696	777.08333
1987.445	757.75
1990.193	772.08333
1992.939	797.75
1995.683	779.41667
1998.425	754.41667
2001.165	786.41667
2003.903	763.75
2006.639	774.08333
2009.374	771.08333
2012.106	779.75
2014.837	757.75
2017.566	766.75
2020.292	772.75
2023.017	765.41667
2025.74	774.08333
2028.461	759.75
2031.18	756.41667
2033.898	755.08333
2036.613	743.75
2039.327	748.41667
2042.038	742.75
2044.748	744.75
2047.456	756.08333
2050.162	735.08333
2052.866	744.75
2055.568	747.75
2058.268	741.41667
2060.967	736.08333
2063.663	715.41667
2066.358	725.08333
2069.051	729.41667
2071.742	739.08333
2074.431	737.08333
2077.118	726.41667
2079.804	724.08333
2082.487	734.08333
2085.169	743.41667
2087.849	753.08333
2090.527	726.08333
2093.203	746.75
2095.877	764.08333
2098.55	745.41667
2101.22	751.08333
2103.889	762.08333
2106.556	767.75
2109.221	788.41667
2111.884	790.08333
2114.546	861.75
2117.205	893.75
2119.863	955.41667
2122.519	995.08333
2125.173	1050.08333
2127.825	1102.08333
2130.475	1114.08333
2133.124	1071.75
2135.771	1035.41667
2138.416	994.41667
2141.059	948.41667
2143.7	896.75
2146.339	850.08333
2148.977	817.08333
2151.613	817.41667
2154.247	789.75
2156.879	763.75
2159.51	753.41667
2162.138	747.75
2164.765	751.08333
2167.39	728.41667
2170.013	741.41667
2172.634	739.75
2175.254	727.41667
2177.872	745.75
2180.488	706.08333
2183.102	714.41667
2185.714	708.41667
2188.325	694.41667
2190.934	696.08333
2193.541	701.75
2196.146	699.41667
2198.75	680.41667
2201.351	671.41667
2203.951	669.75
2206.549	688.75
2209.146	667.41667
2211.74	673.08333
2214.333	681.41667
2216.924	650.41667
2219.514	661.41667
2222.101	667.08333
2224.687	676.08333
2227.271	672.08333
2229.853	667.41667
2232.433	641.08333
2235.012	665.41667
2237.589	667.41667
2240.164	686.75
2242.738	661.75
2245.309	659.75
2247.879	656.75
2250.448	675.08333
2253.014	641.75
2255.579	634.08333
2258.142	634.75
2260.703	632.08333
2263.262	644.75
2265.82	631.41667
2268.376	634.08333
2270.93	617.41667
2273.483	630.08333
2276.033	635.08333
2278.583	629.75
2281.13	629.08333
2283.675	620.08333
2286.219	626.41667
2288.761	626.08333
2291.302	625.08333
2293.841	636.41667
2296.377	618.41667
2298.913	618.08333
2301.446	640.41667
2303.978	627.75
2306.508	613.41667
2309.037	616.41667
2311.563	622.41667
2314.088	631.75
2316.612	599.41667
2319.133	621.08333
2321.653	630.75
2324.171	617.08333
2326.688	627.08333
2329.202	612.41667
2331.715	614.08333
2334.227	623.41667
2336.736	617.75
2339.244	618.41667
2341.751	600.41667
2344.255	617.41667
2346.758	610.41667
2349.259	602.41667
2351.759	613.08333
2354.257	610.08333
2356.753	606.41667
2359.247	626.08333
2361.74	627.75
2364.231	614.41667
2366.721	625.08333
2369.209	605.41667
2371.695	618.75
2374.179	602.41667
2376.662	601.75
2379.143	624.41667
2381.622	603.08333
2384.1	618.75
2386.576	615.75
2389.051	638.75
2391.524	637.08333
2393.995	626.08333
2396.464	611.75
2398.932	616.08333
2401.398	614.75
2403.863	617.41667
2406.325	615.41667
2408.787	627.75
2411.246	612.75
2413.704	619.75
2416.16	616.41667
2418.615	623.75
2421.068	631.75
2423.519	628.75
2425.969	619.75
2428.417	626.08333
2430.863	653.08333
2433.308	643.08333
2435.751	634.08333
2438.193	630.75
2440.633	616.75
2443.071	633.75
2445.508	631.08333
2447.943	622.41667
2450.376	614.41667
2452.808	621.75
2455.238	612.41667
2457.667	669.75
2460.093	627.75
2462.519	628.75
2464.942	622.75
2467.365	636.75
2469.785	632.75
2472.204	636.41667
2474.621	626.08333
2477.037	643.41667
2479.451	612.75
2481.863	618.41667
2484.274	636.08333
2486.683	622.75
2489.091	635.75
2491.497	638.08333
2493.901	651.08333
2496.304	633.08333
2498.705	649.08333
2501.105	635.08333
2503.503	667.08333
2505.899	619.41667
2508.294	660.75
2510.687	649.75
2513.079	642.41667
2515.469	631.08333
2517.858	639.08333
2520.245	655.08333
2522.63	639.75
2525.014	634.75
2527.396	636.08333
2529.776	637.08333
2532.156	641.75
2534.533	637.08333
2536.909	644.41667
2539.283	630.41667
2541.656	646.41667
2544.027	664.08333
2546.397	655.08333
2548.765	644.41667
2551.131	652.41667
2553.496	645.75
2555.86	658.41667
2558.221	661.41667
2560.582	646.75
2562.94	641.75
2565.298	657.75
2567.653	669.41667
2570.007	648.08333
2572.36	664.08333
2574.711	655.75
2577.06	685.41667
2579.408	671.08333
2581.754	668.41667
2584.099	670.41667
2586.442	670.08333
2588.784	675.41667
2591.124	674.41667
2593.463	682.41667
2595.8	676.75
2598.135	658.41667
2600.469	668.41667
2602.802	689.41667
2605.133	682.41667
2607.462	661.75
2609.79	662.41667
2612.116	678.75
2614.441	693.75
2616.764	685.08333
2619.086	675.75
2621.406	681.41667
2623.725	697.75
2626.042	698.41667
2628.358	684.41667
2630.672	686.75
2632.985	702.41667
2635.296	708.75
2637.606	701.41667
2639.914	679.75
2642.22	690.41667
2644.525	699.75
2646.829	712.41667
2649.131	714.75
2651.432	725.75
2653.731	722.75
2656.028	731.08333
2658.324	743.08333
2660.619	724.75
2662.912	730.41667
2665.204	720.08333
2667.494	739.41667
2669.782	711.08333
2672.07	721.41667
2674.355	736.08333
2676.639	734.75
2678.922	722.75
2681.203	727.75
2683.483	714.41667
2685.761	732.75
2688.038	741.75
2690.313	757.08333
2692.587	747.75
2694.859	741.08333
2697.13	743.75
2699.399	753.41667
2701.667	764.08333
2703.933	760.41667
2706.198	755.08333
2708.461	773.08333
2710.723	774.08333
2712.984	769.75
2715.243	774.75
2717.5	777.41667
2719.757	809.41667
2722.011	776.75
2724.264	800.41667
2726.516	809.41667
2728.766	790.08333
2731.015	796.75
2733.262	816.08333
2735.508	804.08333
2737.753	806.08333
2739.996	793.08333
2742.237	794.08333
2744.477	805.75
2746.716	791.75
2748.953	791.75
2751.189	801.41667
2753.423	805.41667
2755.656	785.08333
2757.887	783.08333
2760.117	783.75
2762.346	773.08333
2764.573	785.41667
2766.798	790.41667
2769.022	795.08333
2771.245	792.75
2773.467	797.75
2775.686	813.41667
2777.905	796.75
2780.122	835.08333
2782.337	827.08333
2784.552	813.75
2786.764	811.41667
2788.976	831.08333
2791.186	818.75
2793.394	835.08333
2795.601	842.75
2797.807	862.08333
2800.011	867.41667
2802.214	863.75
2804.415	868.08333
2806.615	879.08333
2808.814	871.75
2811.011	874.41667
2813.206	891.08333
2815.401	905.08333
2817.594	894.75
2819.785	906.75
2821.975	894.75
2824.164	904.75
2826.351	910.41667
2828.537	932.75
2830.722	941.41667
2832.905	943.41667
2835.086	957.75
2837.267	999.75
2839.445	1011.75
2841.623	1029.41667
2843.799	1037.41667
2845.974	1067.75
2848.147	1103.08333
2850.319	1104.08333
2852.489	1139.75
2854.659	1147.41667
2856.826	1165.41667
2858.993	1194.75
2861.158	1173.08333
2863.321	1178.75
2865.483	1191.08333
2867.644	1193.41667
2869.804	1199.75
2871.962	1181.08333
2874.118	1188.41667
2876.274	1165.08333
2878.428	1166.41667
2880.58	1167.41667
2882.731	1162.41667
2884.881	1161.08333
2887.03	1182.08333
2889.177	1171.75
2891.322	1184.41667
2893.467	1179.75
2895.61	1191.75
2897.751	1212.41667
2899.892	1207.75
2902.03	1225.08333
2904.168	1226.75
2906.304	1224.75
2908.439	1263.75
2910.572	1224.41667
2912.704	1228.75
2914.835	1264.41667
2916.965	1244.08333
2919.093	1266.08333
2921.219	1238.08333
2923.345	1255.08333
2925.469	1228.08333
2927.591	1215.08333
2929.712	1182.75
2931.832	1180.75
2933.951	1188.08333
2936.068	1157.41667
2938.184	1143.08333
2940.299	1121.41667
2942.412	1110.41667
2944.524	1087.08333
2946.634	1081.08333
2948.744	1044.75
2950.851	1071.75
2952.958	1025.41667
2955.063	1049.41667
2957.167	1044.75
2959.269	1003.08333
2961.371	1019.75
2963.471	1005.75
2965.569	1016.41667
2967.666	980.08333
2969.762	979.41667
2971.857	958.41667
2973.95	945.41667
2976.042	933.08333
2978.133	921.75
2980.222	918.08333
2982.31	892.08333
2984.396	885.08333
2986.482	875.75
2988.566	872.08333
2990.648	873.75
2992.73	874.75
2994.81	873.08333
2996.889	869.08333
2998.966	873.75
3001.042	881.08333
3003.117	871.41667
3005.191	859.41667
3007.263	865.41667
3009.334	851.08333
3011.403	855.41667
3013.472	834.75
3015.539	831.08333
3017.604	835.75
3019.669	792.41667
3021.732	802.75
3023.794	804.41667
3025.854	812.41667
3027.914	794.75
3029.971	813.41667
3032.028	810.75
3034.083	803.41667
3036.137	788.75
3038.19	775.41667
3040.242	752.41667
3042.292	738.08333
3044.341	737.75
3046.388	744.41667
3048.435	719.08333
3050.48	730.41667
3052.524	721.08333
3054.566	718.41667
3056.607	707.08333
3058.647	686.08333
3060.686	669.08333
3062.723	653.75
3064.759	629.75
3066.794	1.41667
3068.828	2.75
3070.86	3.08333
