-0.839	427.375
3.438	503.375
7.711	153.375
11.981	59.04167
16.247	47.04167
20.509	52.04167
24.768	43.04167
29.024	54.04167
33.276	43.375
37.524	52.375
41.769	49.375
46.01	33.70833
50.247	50.375
54.481	59.70833
58.712	62.04167
62.939	51.04167
67.162	61.70833
71.382	61.375
75.599	48.375
79.812	64.375
84.021	82.70833
88.227	62.70833
92.429	62.04167
96.628	53.70833
100.823	73.70833
105.015	76.04167
109.204	64.70833
113.388	80.70833
117.57	76.04167
121.748	85.375
125.922	80.04167
130.093	103.70833
134.261	99.70833
138.425	99.70833
142.585	139.70833
146.742	137.04167
150.896	160.04167
155.046	200.70833
159.193	302.04167
163.336	494.375
167.476	922.375
171.613	1676.04167
175.746	2818.70833
179.875	4234.04167
184.002	5603.04167
188.124	6593.70833
192.244	7027.04167
196.36	7030.375
200.472	6896.375
204.581	6820.70833
208.687	6715.375
212.79	6736.70833
216.889	6815.375
220.984	6854.70833
225.077	6966.04167
229.165	7030.04167
233.251	7078.375
237.333	7084.04167
241.412	7018.04167
245.487	6976.375
249.559	6958.04167
253.628	6918.375
257.694	6901.375
261.756	6844.375
265.814	6707.375
269.87	6518.375
273.922	6281.04167
277.97	6185.375
282.016	6170.70833
286.058	6188.70833
290.097	6315.70833
294.132	6415.04167
298.164	6324.375
302.193	6055.70833
306.219	5583.04167
310.241	5120.375
314.26	4690.70833
318.276	4379.04167
322.288	4143.375
326.297	3958.70833
330.303	3813.70833
334.305	3701.375
338.305	3667.70833
342.301	3604.04167
346.294	3579.70833
350.283	3547.04167
354.269	3550.70833
358.252	3517.375
362.232	3491.70833
366.209	3446.375
370.182	3437.375
374.152	3418.375
378.119	3435.04167
382.083	3387.70833
386.043	3411.375
390	3397.70833
393.954	3386.04167
397.905	3389.70833
401.852	3368.375
405.797	3351.70833
409.738	3333.04167
413.676	3316.04167
417.61	3345.04167
421.542	3306.375
425.47	3255.04167
429.396	3252.70833
433.318	3240.70833
437.236	3209.375
441.152	3272.375
445.065	3214.70833
448.974	3179.04167
452.88	3160.375
456.783	3134.375
460.683	3126.70833
464.58	3117.375
468.473	3133.375
472.364	3160.04167
476.251	3151.375
480.135	3216.70833
484.016	3253.70833
487.894	3245.70833
491.769	3274.375
495.641	3269.375
499.509	3268.70833
503.375	3274.70833
507.237	3261.375
511.096	3235.375
514.952	3298.04167
518.805	3327.375
522.655	3353.70833
526.502	3286.70833
530.346	3222.70833
534.187	3258.04167
538.024	3260.04167
541.859	3297.375
545.69	3316.70833
549.519	3271.70833
553.344	3252.70833
557.166	3205.375
560.985	3162.04167
564.802	3115.70833
568.615	3061.375
572.425	3021.70833
576.232	3010.04167
580.036	3014.375
583.836	2986.375
587.634	3044.04167
591.429	3053.70833
595.221	3111.04167
599.01	3142.04167
602.796	3180.375
606.578	3198.70833
610.358	3176.375
614.135	3141.04167
617.909	3138.70833
621.679	3112.375
625.447	3059.70833
629.212	3068.70833
632.973	3091.04167
636.732	3077.04167
640.488	3062.375
644.241	3061.70833
647.991	3046.70833
651.737	3071.70833
655.481	3028.04167
659.222	3017.375
662.96	3015.04167
666.695	3030.04167
670.427	3047.04167
674.156	3089.04167
677.882	3066.375
681.605	3042.70833
685.325	3013.04167
689.043	3020.375
692.757	2995.04167
696.468	2978.70833
700.177	2980.375
703.882	2980.70833
707.585	2975.04167
711.284	2969.04167
714.981	2962.375
718.675	2954.04167
722.366	2985.70833
726.054	2948.04167
729.739	2968.04167
733.421	2942.375
737.1	2955.04167
740.777	2983.70833
744.45	2992.375
748.121	3027.375
751.789	3071.04167
755.453	3085.70833
759.115	3087.375
762.774	3110.04167
766.431	3097.70833
770.084	3151.04167
773.734	3179.04167
777.382	3216.375
781.027	3269.04167
784.669	3264.70833
788.308	3277.04167
791.944	3297.70833
795.577	3335.70833
799.208	3336.375
802.835	3374.375
806.46	3404.04167
810.082	3377.375
813.701	3408.04167
817.317	3446.04167
820.931	3434.04167
824.542	3435.70833
828.149	3412.04167
831.754	3390.04167
835.357	3377.70833
838.956	3413.04167
842.553	3395.70833
846.146	3355.70833
849.737	3355.70833
853.326	3395.70833
856.911	3372.375
860.493	3404.375
864.073	3421.375
867.65	3443.04167
871.225	3468.04167
874.796	3497.04167
878.365	3523.375
881.931	3527.70833
885.494	3554.04167
889.054	3534.70833
892.612	3541.70833
896.166	3514.375
899.719	3492.375
903.268	3442.70833
906.814	3423.70833
910.358	3401.375
913.899	3359.04167
917.438	3361.04167
920.973	3346.70833
924.506	3389.70833
928.036	3452.04167
931.564	3473.70833
935.088	3544.375
938.61	3568.70833
942.129	3604.04167
945.646	3682.04167
949.16	3734.70833
952.671	3806.04167
956.179	3800.375
959.685	3734.375
963.188	3705.70833
966.688	3669.04167
970.185	3551.70833
973.68	3517.04167
977.173	3449.04167
980.662	3391.04167
984.149	3413.375
987.633	3373.70833
991.114	3450.04167
994.593	3526.04167
998.069	3595.375
1001.542	3725.70833
1005.013	3675.04167
1008.481	3455.70833
1011.947	3408.375
1015.409	3366.04167
1018.869	3392.70833
1022.327	3378.04167
1025.782	3367.70833
1029.234	3340.70833
1032.683	3286.375
1036.13	3180.70833
1039.574	3062.375
1043.016	2995.375
1046.455	2936.375
1049.891	2902.70833
1053.325	2914.04167
1056.756	2941.04167
1060.184	2951.04167
1063.61	2981.375
1067.033	2985.70833
1070.454	2979.70833
1073.872	3003.04167
1077.287	2990.70833
1080.7	2983.375
1084.11	2985.375
1087.517	2956.70833
1090.922	2906.375
1094.325	2885.375
1097.724	2870.375
1101.122	2873.70833
1104.516	2883.375
1107.908	2876.04167
1111.298	2930.375
1114.684	2970.70833
1118.069	2994.70833
1121.45	3052.70833
1124.83	3028.375
1128.206	3063.04167
1131.58	3103.70833
1134.951	3189.70833
1138.32	3285.04167
1141.687	3406.375
1145.05	3471.70833
1148.412	3474.375
1151.77	3419.70833
1155.126	3441.04167
1158.48	3446.70833
1161.831	3460.375
1165.18	3448.04167
1168.525	3547.70833
1171.869	3579.375
1175.21	3593.04167
1178.548	3609.70833
1181.884	3662.04167
1185.217	3687.375
1188.548	3786.04167
1191.877	3828.04167
1195.202	3930.70833
1198.526	4009.70833
1201.846	4033.375
1205.165	4035.70833
1208.48	4011.375
1211.794	4010.70833
1215.104	3985.375
1218.413	3982.375
1221.719	3981.04167
1225.022	3936.375
1228.323	3870.04167
1231.621	3851.70833
1234.917	3814.375
1238.21	3829.04167
1241.501	3830.375
1244.79	3813.70833
1248.076	3822.04167
1251.359	3831.375
1254.64	3912.04167
1257.919	3961.70833
1261.195	4043.375
1264.468	4069.375
1267.74	4158.70833
1271.008	4157.04167
1274.275	4115.70833
1277.538	4103.04167
1280.8	4111.04167
1284.059	4075.375
1287.315	4125.04167
1290.569	4171.375
1293.821	4170.70833
1297.07	4202.70833
1300.317	4222.375
1303.562	4178.375
1306.803	4155.04167
1310.043	4159.375
1313.28	4113.70833
1316.515	4037.04167
1319.747	4016.70833
1322.977	3964.70833
1326.204	3932.04167
1329.429	3836.375
1332.652	3807.04167
1335.872	3789.70833
1339.09	3747.04167
1342.306	3750.70833
1345.519	3702.04167
1348.729	3665.04167
1351.938	3651.70833
1355.144	3594.375
1358.347	3559.04167
1361.548	3544.375
1364.747	3508.04167
1367.944	3475.375
1371.138	3490.04167
1374.329	3513.375
1377.518	3561.04167
1380.705	3575.375
1383.89	3526.375
1387.072	3397.70833
1390.252	3288.04167
1393.429	3167.04167
1396.605	3071.375
1399.777	3003.375
1402.948	2954.70833
1406.116	2940.70833
1409.282	2954.70833
1412.445	2934.04167
1415.606	2990.04167
1418.765	3032.04167
1421.921	3094.70833
1425.075	3158.04167
1428.227	3279.375
1431.376	3412.04167
1434.524	3528.04167
1437.668	3620.04167
1440.811	3669.375
1443.951	3712.04167
1447.089	3688.375
1450.224	3683.375
1453.357	3682.04167
1456.488	3651.375
1459.617	3598.70833
1462.743	3516.04167
1465.867	3433.375
1468.989	3391.70833
1472.108	3314.04167
1475.225	3247.375
1478.34	3215.04167
1481.453	3179.70833
1484.563	3204.70833
1487.671	3242.70833
1490.776	3313.04167
1493.88	3348.375
1496.981	3413.375
1500.08	3460.70833
1503.176	3488.70833
1506.271	3541.70833
1509.363	3598.04167
1512.452	3602.04167
1515.54	3679.70833
1518.625	3713.375
1521.708	3802.375
1524.789	3955.375
1527.867	4091.04167
1530.944	4313.04167
1534.018	4499.70833
1537.089	4706.04167
1540.159	4802.04167
1543.226	4755.70833
1546.291	4683.70833
1549.354	4590.70833
1552.415	4465.70833
1555.473	4350.375
1558.529	4283.70833
1561.583	4229.04167
1564.634	4190.375
1567.684	4176.70833
1570.731	4218.04167
1573.776	4237.70833
1576.819	4254.70833
1579.859	4321.04167
1582.898	4355.04167
1585.934	4399.70833
1588.968	4406.375
1591.999	4413.375
1595.029	4403.04167
1598.056	4435.70833
1601.081	4473.375
1604.104	4437.375
1607.125	4427.04167
1610.144	4305.70833
1613.16	4225.375
1616.174	4117.70833
1619.186	3993.70833
1622.196	3890.375
1625.203	3771.375
1628.209	3732.04167
1631.212	3666.04167
1634.213	3654.04167
1637.212	3615.04167
1640.209	3548.375
1643.203	3487.04167
1646.196	3327.70833
1649.186	3227.04167
1652.174	3128.375
1655.16	3005.375
1658.144	2921.70833
1661.125	2790.375
1664.105	2701.04167
1667.082	2564.70833
1670.057	2440.375
1673.03	2299.375
1676.001	2137.375
1678.97	2006.04167
1681.937	1886.375
1684.901	1780.70833
1687.863	1725.70833
1690.824	1636.70833
1693.782	1605.70833
1696.738	1537.375
1699.692	1504.375
1702.643	1457.375
1705.593	1437.70833
1708.54	1437.70833
1711.486	1404.375
1714.429	1396.375
1717.37	1379.375
1720.309	1343.375
1723.246	1346.375
1726.181	1315.04167
1729.113	1319.04167
1732.044	1303.04167
1734.972	1272.70833
1737.899	1291.70833
1740.823	1276.04167
1743.745	1263.04167
1746.665	1239.375
1749.583	1203.375
1752.499	1202.375
1755.413	1195.375
1758.325	1155.375
1761.235	1141.375
1764.142	1124.375
1767.048	1115.04167
1769.951	1100.04167
1772.852	1099.375
1775.752	1094.70833
1778.649	1098.375
1781.544	1078.04167
1784.437	1047.375
1787.328	1073.04167
1790.217	1057.375
1793.104	1040.04167
1795.989	1045.70833
1798.872	1041.375
1801.753	1052.375
1804.631	1032.70833
1807.508	1045.375
1810.383	1036.375
1813.255	1032.04167
1816.126	1040.04167
1818.994	1033.375
1821.861	1008.70833
1824.725	1005.04167
1827.587	1003.70833
1830.448	990.375
1833.306	971.375
1836.162	983.70833
1839.017	978.70833
1841.869	983.04167
1844.719	960.375
1847.567	946.70833
1850.414	945.375
1853.258	959.375
1856.1	962.375
1858.94	957.04167
1861.778	950.375
1864.614	941.375
1867.448	943.04167
1870.28	935.70833
1873.111	963.375
1875.939	938.70833
1878.765	965.70833
1881.589	936.04167
1884.411	949.375
1887.231	935.04167
1890.049	920.375
1892.865	929.375
1895.68	914.04167
1898.492	916.04167
1901.302	917.04167
1904.11	916.04167
1906.916	896.375
1909.721	880.04167
1912.523	892.70833
1915.323	884.04167
1918.122	888.04167
1920.918	894.70833
1923.712	878.04167
1926.505	873.70833
1929.295	860.70833
1932.084	876.04167
1934.87	872.04167
1937.655	873.04167
1940.438	869.375
1943.218	872.70833
1945.997	875.70833
1948.774	877.04167
1951.549	884.375
1954.322	867.04167
1957.093	852.375
1959.862	850.70833
1962.629	851.375
1965.394	847.375
1968.157	829.375
1970.918	829.375
1973.678	823.04167
1976.435	842.04167
1979.19	832.04167
1981.944	817.70833
1984.696	813.70833
1987.445	805.375
1990.193	820.70833
1992.939	835.375
1995.683	810.375
1998.425	788.70833
2001.165	818.375
2003.903	809.70833
2006.639	790.375
2009.374	816.70833
2012.106	804.70833
2014.837	792.375
2017.566	797.375
2020.292	806.70833
2023.017	793.375
2025.74	787.70833
2028.461	790.04167
2031.18	787.70833
2033.898	779.04167
2036.613	772.375
2039.327	785.04167
2042.038	760.04167
2044.748	765.04167
2047.456	772.70833
2050.162	754.04167
2052.866	766.70833
2055.568	781.04167
2058.268	751.70833
2060.967	748.04167
2063.663	757.375
2066.358	755.70833
2069.051	746.04167
2071.742	745.70833
2074.431	750.375
2077.118	750.04167
2079.804	736.375
2082.487	760.04167
2085.169	760.70833
2087.849	770.375
2090.527	735.04167
2093.203	751.70833
2095.877	765.70833
2098.55	745.70833
2101.22	775.375
2103.889	774.04167
2106.556	787.70833
2109.221	800.70833
2111.884	817.375
2114.546	863.375
2117.205	922.375
2119.863	989.375
2122.519	1049.04167
2125.173	1093.375
2127.825	1150.04167
2130.475	1158.375
2133.124	1121.375
2135.771	1068.375
2138.416	1025.70833
2141.059	950.04167
2143.7	906.70833
2146.339	865.375
2148.977	817.375
2151.613	820.04167
2154.247	779.375
2156.879	780.04167
2159.51	742.375
2162.138	737.70833
2164.765	722.70833
2167.39	718.04167
2170.013	733.70833
2172.634	728.04167
2175.254	720.70833
2177.872	730.04167
2180.488	698.04167
2183.102	700.70833
2185.714	695.375
2188.325	667.70833
2190.934	696.04167
2193.541	689.375
2196.146	679.04167
2198.75	674.375
2201.351	660.04167
2203.951	657.70833
2206.549	677.04167
2209.146	656.04167
2211.74	646.70833
2214.333	647.70833
2216.924	632.375
2219.514	652.04167
2222.101	636.375
2224.687	642.70833
2227.271	631.04167
2229.853	609.04167
2232.433	607.04167
2235.012	632.70833
2237.589	623.70833
2240.164	640.70833
2242.738	621.04167
2245.309	615.70833
2247.879	618.375
2250.448	627.04167
2253.014	592.70833
2255.579	583.70833
2258.142	593.70833
2260.703	585.70833
2263.262	590.04167
2265.82	584.04167
2268.376	590.04167
2270.93	576.70833
2273.483	576.04167
2276.033	584.375
2278.583	575.70833
2281.13	572.04167
2283.675	562.70833
2286.219	559.04167
2288.761	571.375
2291.302	566.04167
2293.841	582.04167
2296.377	548.375
2298.913	556.04167
2301.446	571.375
2303.978	555.375
2306.508	549.375
2309.037	553.04167
2311.563	550.70833
2314.088	552.04167
2316.612	538.375
2319.133	553.375
2321.653	542.375
2324.171	539.04167
2326.688	555.375
2329.202	543.70833
2331.715	542.04167
2334.227	539.70833
2336.736	538.375
2339.244	526.70833
2341.751	526.04167
2344.255	537.375
2346.758	537.04167
2349.259	522.70833
2351.759	533.04167
2354.257	524.375
2356.753	514.04167
2359.247	522.70833
2361.74	530.04167
2364.231	524.04167
2366.721	528.04167
2369.209	514.375
2371.695	525.375
2374.179	518.375
2376.662	506.375
2379.143	530.375
2381.622	516.04167
2384.1	517.375
2386.576	513.70833
2389.051	541.70833
2391.524	529.70833
2393.995	518.70833
2396.464	506.04167
2398.932	511.70833
2401.398	507.04167
2403.863	513.70833
2406.325	507.70833
2408.787	507.375
2411.246	511.70833
2413.704	497.70833
2416.16	505.375
2418.615	501.375
2421.068	510.70833
2423.519	508.04167
2425.969	493.04167
2428.417	505.375
2430.863	519.375
2433.308	509.04167
2435.751	502.70833
2438.193	508.04167
2440.633	509.375
2443.071	504.375
2445.508	496.04167
2447.943	490.70833
2450.376	487.375
2452.808	493.04167
2455.238	488.70833
2457.667	528.04167
2460.093	499.375
2462.519	489.04167
2464.942	484.70833
2467.365	497.70833
2469.785	498.375
2472.204	489.04167
2474.621	490.70833
2477.037	509.375
2479.451	489.04167
2481.863	487.04167
2484.274	482.70833
2486.683	491.70833
2489.091	496.70833
2491.497	489.70833
2493.901	490.04167
2496.304	478.375
2498.705	497.375
2501.105	478.70833
2503.503	512.70833
2505.899	465.70833
2508.294	507.04167
2510.687	476.04167
2513.079	470.70833
2515.469	474.04167
2517.858	474.04167
2520.245	486.375
2522.63	477.04167
2525.014	471.375
2527.396	465.04167
2529.776	468.04167
2532.156	482.04167
2534.533	466.375
2536.909	464.70833
2539.283	456.04167
2541.656	469.375
2544.027	489.375
2546.397	473.04167
2548.765	470.04167
2551.131	465.375
2553.496	470.375
2555.86	473.04167
2558.221	467.375
2560.582	469.375
2562.94	459.375
2565.298	467.375
2567.653	480.70833
2570.007	459.375
2572.36	483.375
2574.711	469.04167
2577.06	480.70833
2579.408	480.04167
2581.754	466.70833
2584.099	476.04167
2586.442	467.375
2588.784	471.375
2591.124	470.70833
2593.463	469.375
2595.8	477.04167
2598.135	454.70833
2600.469	472.70833
2602.802	484.04167
2605.133	479.70833
2607.462	465.70833
2609.79	462.70833
2612.116	473.70833
2614.441	472.375
2616.764	472.70833
2619.086	476.70833
2621.406	465.04167
2623.725	498.70833
2626.042	473.375
2628.358	473.04167
2630.672	461.70833
2632.985	485.70833
2635.296	477.04167
2637.606	470.70833
2639.914	466.04167
2642.22	471.375
2644.525	470.375
2646.829	488.70833
2649.131	489.375
2651.432	486.375
2653.731	477.04167
2656.028	488.70833
2658.324	498.375
2660.619	488.04167
2662.912	491.70833
2665.204	482.70833
2667.494	493.04167
2669.782	475.375
2672.07	495.70833
2674.355	486.70833
2676.639	489.04167
2678.922	483.70833
2681.203	490.04167
2683.483	476.04167
2685.761	481.04167
2688.038	499.375
2690.313	512.04167
2692.587	497.70833
2694.859	491.70833
2697.13	503.70833
2699.399	505.04167
2701.667	509.70833
2703.933	496.375
2706.198	514.70833
2708.461	508.375
2710.723	516.04167
2712.984	516.375
2715.243	523.70833
2717.5	513.04167
2719.757	525.70833
2722.011	524.04167
2724.264	530.70833
2726.516	542.04167
2728.766	521.70833
2731.015	537.70833
2733.262	544.04167
2735.508	539.70833
2737.753	538.375
2739.996	522.70833
2742.237	519.70833
2744.477	525.04167
2746.716	529.375
2748.953	517.70833
2751.189	522.70833
2753.423	516.70833
2755.656	498.375
2757.887	513.04167
2760.117	513.70833
2762.346	501.375
2764.573	502.375
2766.798	501.70833
2769.022	500.375
2771.245	505.04167
2773.467	506.04167
2775.686	524.04167
2777.905	522.04167
2780.122	527.375
2782.337	525.375
2784.552	520.70833
2786.764	529.04167
2788.976	536.70833
2791.186	529.04167
2793.394	541.04167
2795.601	546.04167
2797.807	557.375
2800.011	563.375
2802.214	582.375
2804.415	577.375
2806.615	566.375
2808.814	573.70833
2811.011	585.70833
2813.206	576.375
2815.401	603.375
2817.594	600.70833
2819.785	607.375
2821.975	605.375
2824.164	611.04167
2826.351	625.70833
2828.537	657.04167
2830.722	654.70833
2832.905	675.375
2835.086	686.375
2837.267	721.70833
2839.445	728.375
2841.623	752.70833
2843.799	786.70833
2845.974	809.375
2848.147	843.375
2850.319	878.04167
2852.489	908.375
2854.659	908.04167
2856.826	936.375
2858.993	955.70833
2861.158	926.375
2863.321	932.04167
2865.483	952.04167
2867.644	956.04167
2869.804	952.70833
2871.962	947.04167
2874.118	947.70833
2876.274	952.04167
2878.428	940.375
2880.58	949.04167
2882.731	943.04167
2884.881	934.70833
2887.03	938.375
2889.177	937.04167
2891.322	950.70833
2893.467	943.375
2895.61	953.375
2897.751	970.375
2899.892	966.04167
2902.03	967.70833
2904.168	985.04167
2906.304	980.70833
2908.439	994.70833
2910.572	979.70833
2912.704	994.70833
2914.835	1002.70833
2916.965	996.375
2919.093	1019.04167
2921.219	977.70833
2923.345	1002.04167
2925.469	966.375
2927.591	963.70833
2929.712	932.375
2931.832	931.70833
2933.951	921.04167
2936.068	895.375
2938.184	877.04167
2940.299	863.70833
2942.412	842.375
2944.524	797.04167
2946.634	795.375
2948.744	747.04167
2950.851	778.70833
2952.958	727.70833
2955.063	738.375
2957.167	716.375
2959.269	686.70833
2961.371	716.04167
2963.471	672.70833
2965.569	670.70833
2967.666	647.375
2969.762	638.04167
2971.857	636.04167
2973.95	603.04167
2976.042	603.70833
2978.133	590.04167
2980.222	593.375
2982.31	560.375
2984.396	543.375
2986.482	558.375
2988.566	540.04167
2990.648	536.375
2992.73	523.375
2994.81	519.04167
2996.889	522.04167
2998.966	529.375
3001.042	529.375
3003.117	518.375
3005.191	514.375
3007.263	508.04167
3009.334	506.70833
3011.403	502.04167
3013.472	482.04167
3015.539	494.375
3017.604	498.70833
3019.669	451.04167
3021.732	469.04167
3023.794	475.04167
3025.854	468.70833
3027.914	457.375
3029.971	474.04167
3032.028	456.375
3034.083	469.375
3036.137	457.04167
3038.19	439.375
3040.242	431.70833
3042.292	421.04167
3044.341	418.04167
3046.388	433.04167
3048.435	412.04167
3050.48	421.375
3052.524	413.375
3054.566	401.70833
3056.607	419.70833
3058.647	396.04167
3060.686	389.70833
3062.723	376.375
3064.759	355.04167
3066.794	-1.625
3068.828	2.70833
3070.86	0.70833
