-0.839	128.375
3.438	141.04167
7.711	64.04167
11.981	39.375
16.247	29.375
20.509	37.04167
24.768	33.375
29.024	45.04167
33.276	29.70833
37.524	42.04167
41.769	30.375
46.01	26.375
50.247	41.375
54.481	47.70833
58.712	51.70833
62.939	38.70833
67.162	51.70833
71.382	46.375
75.599	35.70833
79.812	41.04167
84.021	58.70833
88.227	44.375
92.429	51.04167
96.628	36.375
100.823	50.04167
105.015	49.375
109.204	43.70833
113.388	57.04167
117.57	40.70833
121.748	57.70833
125.922	43.70833
130.093	62.375
134.261	62.04167
138.425	49.04167
142.585	81.70833
146.742	58.70833
150.896	71.375
155.046	66.04167
159.193	98.70833
163.336	133.04167
167.476	225.375
171.613	388.70833
175.746	627.375
179.875	916.04167
184.002	1161.04167
188.124	1395.375
192.244	1446.70833
196.36	1445.375
200.472	1429.04167
204.581	1417.04167
208.687	1362.04167
212.79	1367.04167
216.889	1376.04167
220.984	1398.04167
225.077	1402.375
229.165	1397.375
233.251	1404.04167
237.333	1406.375
241.412	1386.04167
245.487	1392.04167
249.559	1354.04167
253.628	1352.375
257.694	1349.70833
261.756	1332.70833
265.814	1302.70833
269.87	1277.375
273.922	1247.70833
277.97	1241.04167
282.016	1223.70833
286.058	1206.70833
290.097	1248.04167
294.132	1258.04167
298.164	1244.70833
302.193	1212.70833
306.219	1137.375
310.241	1047.70833
314.26	982.70833
318.276	935.375
322.288	888.04167
326.297	876.375
330.303	842.375
334.305	827.70833
338.305	815.04167
342.301	808.04167
346.294	807.04167
350.283	796.04167
354.269	787.70833
358.252	774.375
362.232	786.70833
366.209	799.375
370.182	775.70833
374.152	764.70833
378.119	775.70833
382.083	760.70833
386.043	782.04167
390	755.375
393.954	770.04167
397.905	766.375
401.852	779.375
405.797	757.04167
409.738	762.70833
413.676	781.04167
417.61	784.70833
421.542	774.70833
425.47	751.375
429.396	751.04167
433.318	730.70833
437.236	745.04167
441.152	760.70833
445.065	729.04167
448.974	730.375
452.88	714.70833
456.783	729.70833
460.683	718.375
464.58	730.70833
468.473	734.04167
472.364	730.70833
476.251	736.375
480.135	727.70833
484.016	741.375
487.894	751.04167
491.769	756.04167
495.641	748.375
499.509	756.04167
503.375	760.70833
507.237	752.04167
511.096	751.70833
514.952	758.04167
518.805	758.375
522.655	762.70833
526.502	743.70833
530.346	766.70833
534.187	750.375
538.024	740.70833
541.859	735.375
545.69	755.375
549.519	746.70833
553.344	742.375
557.166	731.70833
560.985	722.70833
564.802	725.04167
568.615	712.04167
572.425	691.70833
576.232	690.70833
580.036	701.04167
583.836	717.375
587.634	712.375
591.429	710.04167
595.221	728.70833
599.01	721.375
602.796	728.375
606.578	714.375
610.358	730.375
614.135	707.70833
617.909	720.04167
621.679	710.04167
625.447	705.70833
629.212	718.70833
632.973	703.70833
636.732	706.04167
640.488	717.375
644.241	699.04167
647.991	700.04167
651.737	728.04167
655.481	690.04167
659.222	687.04167
662.96	695.04167
666.695	704.375
670.427	720.375
674.156	709.04167
677.882	724.04167
681.605	714.04167
685.325	695.70833
689.043	705.70833
692.757	710.375
696.468	700.04167
700.177	703.375
703.882	694.04167
707.585	682.70833
711.284	692.70833
714.981	677.375
718.675	675.375
722.366	699.375
726.054	675.375
729.739	688.04167
733.421	690.70833
737.1	683.70833
740.777	689.70833
744.45	690.04167
748.121	677.375
751.789	726.04167
755.453	707.375
759.115	713.70833
762.774	702.70833
766.431	712.375
770.084	717.70833
773.734	716.70833
777.382	732.375
781.027	732.04167
784.669	729.375
788.308	720.375
791.944	742.375
795.577	748.375
799.208	737.70833
802.835	748.70833
806.46	760.04167
810.082	743.70833
813.701	751.70833
817.317	749.04167
820.931	756.04167
824.542	768.375
828.149	749.04167
831.754	735.70833
835.357	732.375
838.956	757.04167
842.553	742.375
846.146	724.375
849.737	723.04167
853.326	735.04167
856.911	721.375
860.493	750.70833
864.073	740.375
867.65	765.375
871.225	770.70833
874.796	757.04167
878.365	755.70833
881.931	778.375
885.494	783.04167
889.054	780.70833
892.612	798.375
896.166	794.70833
899.719	789.70833
903.268	763.04167
906.814	769.04167
910.358	726.375
913.899	728.70833
917.438	726.70833
920.973	702.04167
924.506	714.04167
928.036	726.70833
931.564	745.04167
935.088	761.375
938.61	737.70833
942.129	733.04167
945.646	766.375
949.16	748.375
952.671	769.375
956.179	775.04167
959.685	764.04167
963.188	760.70833
966.688	753.375
970.185	730.375
973.68	716.375
977.173	710.04167
980.662	699.375
984.149	706.04167
987.633	689.375
991.114	700.70833
994.593	726.375
998.069	734.04167
1001.542	747.70833
1005.013	741.70833
1008.481	698.375
1011.947	695.04167
1015.409	692.04167
1018.869	699.04167
1022.327	694.70833
1025.782	684.375
1029.234	664.70833
1032.683	677.04167
1036.13	672.70833
1039.574	644.375
1043.016	619.70833
1046.455	622.04167
1049.891	605.70833
1053.325	620.375
1056.756	602.375
1060.184	611.04167
1063.61	591.375
1067.033	616.70833
1070.454	606.70833
1073.872	615.70833
1077.287	600.70833
1080.7	608.375
1084.11	594.375
1087.517	604.70833
1090.922	601.375
1094.325	593.375
1097.724	593.04167
1101.122	595.70833
1104.516	589.375
1107.908	577.04167
1111.298	591.375
1114.684	598.70833
1118.069	584.04167
1121.45	628.04167
1124.83	599.70833
1128.206	607.375
1131.58	624.70833
1134.951	632.70833
1138.32	643.04167
1141.687	668.04167
1145.05	672.70833
1148.412	676.70833
1151.77	673.70833
1155.126	670.70833
1158.48	650.04167
1161.831	668.375
1165.18	665.04167
1168.525	679.04167
1171.869	678.375
1175.21	677.70833
1178.548	683.375
1181.884	697.375
1185.217	698.375
1188.548	724.04167
1191.877	735.04167
1195.202	764.04167
1198.526	776.04167
1201.846	774.70833
1205.165	782.375
1208.48	777.375
1211.794	780.04167
1215.104	789.375
1218.413	772.375
1221.719	767.70833
1225.022	767.70833
1228.323	742.70833
1231.621	755.70833
1234.917	747.375
1238.21	753.375
1241.501	748.04167
1244.79	726.70833
1248.076	726.375
1251.359	742.04167
1254.64	770.04167
1257.919	759.04167
1261.195	769.70833
1264.468	771.04167
1267.74	785.04167
1271.008	776.375
1274.275	786.375
1277.538	781.375
1280.8	765.04167
1284.059	777.375
1287.315	789.70833
1290.569	782.375
1293.821	794.375
1297.07	810.04167
1300.317	789.04167
1303.562	802.375
1306.803	808.70833
1310.043	805.04167
1313.28	803.04167
1316.515	795.375
1319.747	813.375
1322.977	792.04167
1326.204	786.375
1329.429	784.70833
1332.652	788.04167
1335.872	777.375
1339.09	766.04167
1342.306	766.375
1345.519	747.70833
1348.729	737.375
1351.938	741.375
1355.144	715.375
1358.347	718.04167
1361.548	726.04167
1364.747	734.04167
1367.944	706.375
1371.138	717.375
1374.329	713.04167
1377.518	719.04167
1380.705	722.70833
1383.89	717.04167
1387.072	702.70833
1390.252	675.375
1393.429	669.375
1396.605	660.375
1399.777	644.70833
1402.948	640.70833
1406.116	628.04167
1409.282	641.375
1412.445	636.70833
1415.606	664.375
1418.765	640.70833
1421.921	647.70833
1425.075	655.70833
1428.227	670.375
1431.376	690.70833
1434.524	715.375
1437.668	716.70833
1440.811	738.70833
1443.951	743.04167
1447.089	759.04167
1450.224	739.375
1453.357	719.375
1456.488	724.375
1459.617	710.04167
1462.743	704.375
1465.867	676.70833
1468.989	688.04167
1472.108	654.70833
1475.225	661.04167
1478.34	642.04167
1481.453	634.04167
1484.563	630.70833
1487.671	655.375
1490.776	657.375
1493.88	664.04167
1496.981	676.375
1500.08	684.375
1503.176	693.70833
1506.271	681.04167
1509.363	690.70833
1512.452	689.70833
1515.54	707.70833
1518.625	706.70833
1521.708	728.375
1524.789	762.70833
1527.867	763.04167
1530.944	814.70833
1534.018	817.04167
1537.089	879.375
1540.159	877.04167
1543.226	881.04167
1546.291	851.375
1549.354	856.375
1552.415	830.375
1555.473	833.04167
1558.529	807.70833
1561.583	802.375
1564.634	793.375
1567.684	781.70833
1570.731	791.70833
1573.776	796.375
1576.819	807.04167
1579.859	806.375
1582.898	813.04167
1585.934	822.04167
1588.968	834.04167
1591.999	816.04167
1595.029	810.375
1598.056	830.04167
1601.081	855.04167
1604.104	848.375
1607.125	826.70833
1610.144	807.375
1613.16	788.375
1616.174	765.04167
1619.186	766.70833
1622.196	740.04167
1625.203	718.375
1628.209	714.70833
1631.212	698.04167
1634.213	706.04167
1637.212	709.375
1640.209	711.04167
1643.203	675.70833
1646.196	660.70833
1649.186	641.04167
1652.174	634.375
1655.16	609.70833
1658.144	610.04167
1661.125	572.70833
1664.105	557.375
1667.082	535.375
1670.057	504.70833
1673.03	475.375
1676.001	466.375
1678.97	423.375
1681.937	408.375
1684.901	386.375
1687.863	383.375
1690.824	368.375
1693.782	371.375
1696.738	341.04167
1699.692	348.04167
1702.643	339.04167
1705.593	338.04167
1708.54	332.375
1711.486	343.04167
1714.429	318.375
1717.37	336.375
1720.309	318.04167
1723.246	324.70833
1726.181	305.04167
1729.113	317.70833
1732.044	310.70833
1734.972	303.375
1737.899	322.375
1740.823	319.04167
1743.745	342.04167
1746.665	294.70833
1749.583	299.04167
1752.499	292.04167
1755.413	291.04167
1758.325	266.04167
1761.235	288.70833
1764.142	265.375
1767.048	273.375
1769.951	275.70833
1772.852	265.04167
1775.752	285.70833
1778.649	280.04167
1781.544	288.375
1784.437	261.70833
1787.328	274.375
1790.217	270.70833
1793.104	245.70833
1795.989	250.04167
1798.872	248.70833
1801.753	265.375
1804.631	258.04167
1807.508	259.70833
1810.383	258.375
1813.255	259.04167
1816.126	258.70833
1818.994	254.70833
1821.861	252.04167
1824.725	256.70833
1827.587	257.70833
1830.448	252.04167
1833.306	245.70833
1836.162	262.04167
1839.017	251.04167
1841.869	247.375
1844.719	244.375
1847.567	233.375
1850.414	235.04167
1853.258	231.70833
1856.1	249.375
1858.94	252.375
1861.778	244.70833
1864.614	227.70833
1867.448	245.04167
1870.28	225.04167
1873.111	255.70833
1875.939	235.375
1878.765	250.70833
1881.589	240.04167
1884.411	240.375
1887.231	247.375
1890.049	238.04167
1892.865	250.04167
1895.68	230.04167
1898.492	240.375
1901.302	231.04167
1904.11	230.04167
1906.916	233.04167
1909.721	225.70833
1912.523	236.375
1915.323	222.375
1918.122	228.04167
1920.918	239.04167
1923.712	214.04167
1926.505	232.375
1929.295	205.70833
1932.084	232.04167
1934.87	232.375
1937.655	225.375
1940.438	209.04167
1943.218	221.04167
1945.997	224.375
1948.774	232.70833
1951.549	222.375
1954.322	211.04167
1957.093	219.70833
1959.862	216.70833
1962.629	214.375
1965.394	215.70833
1968.157	209.375
1970.918	229.70833
1973.678	206.04167
1976.435	226.375
1979.19	216.04167
1981.944	201.375
1984.696	214.04167
1987.445	206.375
1990.193	206.04167
1992.939	226.375
1995.683	210.04167
1998.425	191.70833
2001.165	225.70833
2003.903	195.70833
2006.639	204.375
2009.374	205.04167
2012.106	206.375
2014.837	185.70833
2017.566	214.70833
2020.292	210.70833
2023.017	196.70833
2025.74	196.375
2028.461	194.04167
2031.18	205.04167
2033.898	190.04167
2036.613	196.70833
2039.327	208.04167
2042.038	188.04167
2044.748	201.375
2047.456	202.04167
2050.162	184.70833
2052.866	194.375
2055.568	207.70833
2058.268	194.04167
2060.967	198.04167
2063.663	185.04167
2066.358	183.70833
2069.051	181.70833
2071.742	196.70833
2074.431	197.70833
2077.118	184.70833
2079.804	185.04167
2082.487	188.04167
2085.169	202.70833
2087.849	212.375
2090.527	187.04167
2093.203	196.04167
2095.877	195.04167
2098.55	191.70833
2101.22	200.375
2103.889	200.70833
2106.556	192.375
2109.221	211.70833
2111.884	200.70833
2114.546	221.04167
2117.205	224.70833
2119.863	256.375
2122.519	244.04167
2125.173	260.70833
2127.825	288.04167
2130.475	282.70833
2133.124	268.70833
2135.771	248.70833
2138.416	265.04167
2141.059	239.04167
2143.7	238.375
2146.339	218.04167
2148.977	196.375
2151.613	210.375
2154.247	203.375
2156.879	198.375
2159.51	185.375
2162.138	195.375
2164.765	186.70833
2167.39	174.04167
2170.013	209.70833
2172.634	198.375
2175.254	180.04167
2177.872	220.375
2180.488	174.04167
2183.102	173.04167
2185.714	181.04167
2188.325	161.375
2190.934	175.70833
2193.541	184.04167
2196.146	178.375
2198.75	165.04167
2201.351	169.70833
2203.951	155.04167
2206.549	183.375
2209.146	166.70833
2211.74	158.375
2214.333	169.70833
2216.924	155.04167
2219.514	164.375
2222.101	166.375
2224.687	180.04167
2227.271	161.70833
2229.853	158.70833
2232.433	146.04167
2235.012	166.375
2237.589	155.375
2240.164	176.375
2242.738	152.70833
2245.309	153.04167
2247.879	177.70833
2250.448	169.70833
2253.014	152.70833
2255.579	142.375
2258.142	151.70833
2260.703	149.375
2263.262	148.04167
2265.82	145.70833
2268.376	157.375
2270.93	147.70833
2273.483	145.04167
2276.033	161.04167
2278.583	148.375
2281.13	141.70833
2283.675	139.04167
2286.219	148.70833
2288.761	155.04167
2291.302	156.04167
2293.841	160.375
2296.377	135.70833
2298.913	149.04167
2301.446	160.04167
2303.978	150.04167
2306.508	142.04167
2309.037	148.04167
2311.563	149.375
2314.088	150.70833
2316.612	133.375
2319.133	150.04167
2321.653	145.70833
2324.171	139.375
2326.688	155.70833
2329.202	140.04167
2331.715	144.70833
2334.227	143.375
2336.736	143.70833
2339.244	142.375
2341.751	128.04167
2344.255	148.04167
2346.758	139.375
2349.259	134.04167
2351.759	140.375
2354.257	128.70833
2356.753	127.70833
2359.247	137.04167
2361.74	137.375
2364.231	134.375
2366.721	143.70833
2369.209	130.70833
2371.695	140.04167
2374.179	130.70833
2376.662	122.70833
2379.143	143.04167
2381.622	131.70833
2384.1	138.70833
2386.576	132.375
2389.051	141.04167
2391.524	139.375
2393.995	145.04167
2396.464	136.04167
2398.932	126.70833
2401.398	136.375
2403.863	123.375
2406.325	117.375
2408.787	135.375
2411.246	127.70833
2413.704	128.04167
2416.16	123.375
2418.615	127.04167
2421.068	131.04167
2423.519	125.04167
2425.969	126.04167
2428.417	135.70833
2430.863	152.70833
2433.308	135.375
2435.751	132.04167
2438.193	132.04167
2440.633	135.04167
2443.071	137.70833
2445.508	119.70833
2447.943	130.375
2450.376	122.04167
2452.808	138.04167
2455.238	121.375
2457.667	152.04167
2460.093	118.375
2462.519	113.375
2464.942	118.70833
2467.365	128.04167
2469.785	136.375
2472.204	120.375
2474.621	121.375
2477.037	140.375
2479.451	113.375
2481.863	114.04167
2484.274	120.04167
2486.683	122.04167
2489.091	134.70833
2491.497	126.70833
2493.901	122.70833
2496.304	119.375
2498.705	130.04167
2501.105	126.375
2503.503	145.04167
2505.899	115.375
2508.294	140.375
2510.687	113.375
2513.079	118.04167
2515.469	113.70833
2517.858	116.04167
2520.245	130.04167
2522.63	118.70833
2525.014	112.70833
2527.396	117.375
2529.776	119.04167
2532.156	121.04167
2534.533	108.04167
2536.909	110.375
2539.283	105.70833
2541.656	112.375
2544.027	127.70833
2546.397	120.70833
2548.765	120.04167
2551.131	119.04167
2553.496	121.375
2555.86	122.375
2558.221	124.70833
2560.582	116.70833
2562.94	104.70833
2565.298	120.375
2567.653	129.04167
2570.007	106.70833
2572.36	124.70833
2574.711	106.375
2577.06	127.375
2579.408	117.04167
2581.754	115.04167
2584.099	112.375
2586.442	112.70833
2588.784	120.70833
2591.124	116.04167
2593.463	114.70833
2595.8	117.375
2598.135	103.04167
2600.469	106.04167
2602.802	116.70833
2605.133	120.04167
2607.462	108.375
2609.79	101.70833
2612.116	117.375
2614.441	113.70833
2616.764	117.70833
2619.086	115.04167
2621.406	108.04167
2623.725	120.375
2626.042	112.04167
2628.358	108.04167
2630.672	119.04167
2632.985	125.04167
2635.296	117.70833
2637.606	113.70833
2639.914	107.70833
2642.22	109.70833
2644.525	112.375
2646.829	110.04167
2649.131	125.70833
2651.432	123.04167
2653.731	111.70833
2656.028	123.70833
2658.324	112.70833
2660.619	101.375
2662.912	124.04167
2665.204	104.375
2667.494	116.70833
2669.782	107.375
2672.07	123.70833
2674.355	123.04167
2676.639	120.375
2678.922	111.70833
2681.203	117.04167
2683.483	106.04167
2685.761	103.04167
2688.038	120.04167
2690.313	125.70833
2692.587	119.70833
2694.859	111.375
2697.13	111.375
2699.399	121.70833
2701.667	124.04167
2703.933	114.04167
2706.198	123.70833
2708.461	127.375
2710.723	122.04167
2712.984	114.70833
2715.243	127.375
2717.5	117.375
2719.757	122.70833
2722.011	120.375
2724.264	128.375
2726.516	129.70833
2728.766	114.375
2731.015	116.04167
2733.262	118.04167
2735.508	114.70833
2737.753	120.70833
2739.996	108.70833
2742.237	111.375
2744.477	125.375
2746.716	130.70833
2748.953	129.70833
2751.189	130.70833
2753.423	124.04167
2755.656	112.70833
2757.887	108.04167
2760.117	114.375
2762.346	108.04167
2764.573	98.04167
2766.798	109.70833
2769.022	116.04167
2771.245	110.04167
2773.467	113.375
2775.686	109.375
2777.905	123.04167
2780.122	113.04167
2782.337	117.375
2784.552	114.70833
2786.764	113.70833
2788.976	110.375
2791.186	121.375
2793.394	121.04167
2795.601	120.70833
2797.807	123.70833
2800.011	116.375
2802.214	128.375
2804.415	123.04167
2806.615	119.70833
2808.814	127.04167
2811.011	129.375
2813.206	119.70833
2815.401	137.70833
2817.594	141.04167
2819.785	139.04167
2821.975	125.04167
2824.164	132.375
2826.351	122.70833
2828.537	141.70833
2830.722	140.70833
2832.905	136.375
2835.086	136.70833
2837.267	154.70833
2839.445	154.04167
2841.623	150.04167
2843.799	150.04167
2845.974	162.375
2848.147	157.375
2850.319	171.375
2852.489	173.70833
2854.659	178.70833
2856.826	188.375
2858.993	194.04167
2861.158	177.70833
2863.321	181.70833
2865.483	197.70833
2867.644	188.04167
2869.804	191.70833
2871.962	183.375
2874.118	182.70833
2876.274	195.04167
2878.428	192.70833
2880.58	189.375
2882.731	173.04167
2884.881	186.70833
2887.03	193.04167
2889.177	185.70833
2891.322	193.70833
2893.467	182.04167
2895.61	187.04167
2897.751	202.04167
2899.892	187.04167
2902.03	194.04167
2904.168	190.70833
2906.304	187.375
2908.439	208.375
2910.572	184.375
2912.704	194.70833
2914.835	202.375
2916.965	195.04167
2919.093	210.04167
2921.219	185.04167
2923.345	210.04167
2925.469	193.375
2927.591	191.70833
2929.712	184.375
2931.832	192.04167
2933.951	187.70833
2936.068	179.70833
2938.184	179.375
2940.299	174.375
2942.412	174.375
2944.524	157.375
2946.634	167.375
2948.744	149.04167
2950.851	184.375
2952.958	150.70833
2955.063	160.04167
2957.167	150.04167
2959.269	136.70833
2961.371	173.375
2963.471	142.70833
2965.569	161.70833
2967.666	133.70833
2969.762	139.70833
2971.857	129.70833
2973.95	127.04167
2976.042	138.70833
2978.133	133.375
2980.222	129.04167
2982.31	118.375
2984.396	105.70833
2986.482	111.375
2988.566	119.375
2990.648	118.375
2992.73	119.375
2994.81	106.70833
2996.889	115.04167
2998.966	114.04167
3001.042	124.04167
3003.117	113.375
3005.191	115.04167
3007.263	123.375
3009.334	113.70833
3011.403	112.70833
3013.472	105.04167
3015.539	119.375
3017.604	129.70833
3019.669	101.375
3021.732	102.375
3023.794	107.04167
3025.854	99.375
3027.914	91.04167
3029.971	98.375
3032.028	100.04167
3034.083	107.04167
3036.137	95.04167
3038.19	90.70833
3040.242	86.375
3042.292	85.04167
3044.341	89.70833
3046.388	108.70833
3048.435	88.70833
3050.48	99.375
3052.524	90.70833
3054.566	76.04167
3056.607	85.04167
3058.647	85.04167
3060.686	76.04167
3062.723	72.04167
3064.759	77.04167
3066.794	-0.29167
3068.828	1.04167
3070.86	1.375
