-0.839	117
3.438	143
7.711	59.33333
11.981	41.33333
16.247	26.66667
20.509	37
24.768	33.66667
29.024	44.66667
33.276	29.66667
37.524	41
41.769	29
46.01	25.66667
50.247	45
54.481	50.33333
58.712	53.66667
62.939	34
67.162	53.33333
71.382	46.33333
75.599	35.66667
79.812	45.33333
84.021	63
88.227	44.66667
92.429	49
96.628	39
100.823	53.33333
105.015	51.33333
109.204	42.66667
113.388	56.33333
117.57	38.66667
121.748	56
125.922	43.33333
130.093	60.66667
134.261	63.33333
138.425	51.66667
142.585	75.66667
146.742	57.66667
150.896	73
155.046	60.66667
159.193	91
163.336	127.33333
167.476	221.33333
171.613	388
175.746	621
179.875	898
184.002	1158.33333
188.124	1368.66667
192.244	1426.66667
196.36	1429.33333
200.472	1419.66667
204.581	1407.66667
208.687	1360.66667
212.79	1356.33333
216.889	1356.66667
220.984	1376.66667
225.077	1389
229.165	1396.66667
233.251	1380.33333
237.333	1399.33333
241.412	1366
245.487	1364
249.559	1338
253.628	1346
257.694	1334.66667
261.756	1339
265.814	1311.33333
269.87	1269
273.922	1222
277.97	1216.33333
282.016	1215.33333
286.058	1195.33333
290.097	1223.66667
294.132	1255.66667
298.164	1256
302.193	1192.66667
306.219	1115.66667
310.241	1048
314.26	964.33333
318.276	904
322.288	871.33333
326.297	850.33333
330.303	832.33333
334.305	810.66667
338.305	793
342.301	786
346.294	795.33333
350.283	786.33333
354.269	779.66667
358.252	768.33333
362.232	764.66667
366.209	762
370.182	758
374.152	752
378.119	761.33333
382.083	756
386.043	763.33333
390	745.33333
393.954	750
397.905	758
401.852	779.33333
405.797	748.66667
409.738	751.33333
413.676	766
417.61	764
421.542	740
425.47	735.33333
429.396	727
433.318	713.33333
437.236	727.33333
441.152	752.66667
445.065	715
448.974	725
452.88	716.33333
456.783	701.33333
460.683	696
464.58	710.66667
468.473	724.66667
472.364	721.66667
476.251	713.66667
480.135	704
484.016	730.33333
487.894	725.33333
491.769	731.66667
495.641	734.33333
499.509	736.33333
503.375	742.66667
507.237	736
511.096	743.33333
514.952	746.33333
518.805	750.33333
522.655	737
526.502	732
530.346	733
534.187	727.33333
538.024	729.33333
541.859	729.33333
545.69	740.66667
549.519	727.33333
553.344	719.33333
557.166	704
560.985	706.33333
564.802	712.66667
568.615	700
572.425	686
576.232	692.66667
580.036	677
583.836	688.66667
587.634	693.33333
591.429	683
595.221	719
599.01	710.33333
602.796	710.33333
606.578	699.66667
610.358	711
614.135	702
617.909	705
621.679	685.33333
625.447	680.33333
629.212	695.33333
632.973	700.33333
636.732	694
640.488	705
644.241	677.66667
647.991	676.66667
651.737	719
655.481	665.66667
659.222	670.33333
662.96	675
666.695	690.66667
670.427	680.33333
674.156	701
677.882	697.66667
681.605	698
685.325	678.33333
689.043	688.66667
692.757	691.33333
696.468	684.66667
700.177	685
703.882	667.33333
707.585	670
711.284	670.66667
714.981	674.66667
718.675	662.66667
722.366	683.33333
726.054	668
729.739	676.66667
733.421	665.33333
737.1	667
740.777	679.66667
744.45	671.33333
748.121	666.66667
751.789	705
755.453	677.66667
759.115	691
762.774	694.66667
766.431	697.66667
770.084	705
773.734	699.66667
777.382	732.33333
781.027	719.33333
784.669	713.33333
788.308	703
791.944	722.33333
795.577	723.66667
799.208	731.66667
802.835	731.33333
806.46	737.66667
810.082	741.33333
813.701	733.33333
817.317	745.66667
820.931	741.66667
824.542	751.33333
828.149	726.66667
831.754	718
835.357	714.33333
838.956	732.33333
842.553	733
846.146	710.33333
849.737	710
853.326	725
856.911	701.33333
860.493	729.66667
864.073	737
867.65	741.33333
871.225	755
874.796	753.66667
878.365	737.66667
881.931	756.33333
885.494	775.66667
889.054	769
892.612	793
896.166	793.33333
899.719	772
903.268	754
906.814	745.33333
910.358	731.33333
913.899	718.33333
917.438	714
920.973	691.33333
924.506	700.66667
928.036	718.66667
931.564	723
935.088	738
938.61	718.66667
942.129	727.33333
945.646	742
949.16	739.66667
952.671	756.66667
956.179	767.33333
959.685	752.33333
963.188	752.66667
966.688	744.33333
970.185	723
973.68	706.33333
977.173	707
980.662	679
984.149	689.33333
987.633	689.33333
991.114	688
994.593	714.66667
998.069	719.66667
1001.542	740.33333
1005.013	727
1008.481	681.66667
1011.947	674.33333
1015.409	664.33333
1018.869	673.33333
1022.327	690
1025.782	677
1029.234	669
1032.683	666.66667
1036.13	648.33333
1039.574	620.66667
1043.016	616.66667
1046.455	603.33333
1049.891	596
1053.325	608.66667
1056.756	593.66667
1060.184	602.66667
1063.61	587
1067.033	599.66667
1070.454	596.66667
1073.872	616
1077.287	589
1080.7	595.33333
1084.11	599.66667
1087.517	595.66667
1090.922	590.66667
1094.325	578.33333
1097.724	580.66667
1101.122	582.66667
1104.516	587
1107.908	577.66667
1111.298	577
1114.684	595
1118.069	587.33333
1121.45	603
1124.83	593.33333
1128.206	605.66667
1131.58	610
1134.951	624
1138.32	632
1141.687	659
1145.05	658.33333
1148.412	669.33333
1151.77	664.66667
1155.126	665.66667
1158.48	655.33333
1161.831	651.33333
1165.18	652.66667
1168.525	675
1171.869	684
1175.21	669.33333
1178.548	682
1181.884	691.66667
1185.217	694.33333
1188.548	708.66667
1191.877	716.66667
1195.202	748.33333
1198.526	763.33333
1201.846	766
1205.165	767.66667
1208.48	768
1211.794	775.66667
1215.104	775
1218.413	768
1221.719	760.33333
1225.022	739
1228.323	730.66667
1231.621	752
1234.917	739.66667
1238.21	753.33333
1241.501	738.33333
1244.79	723.33333
1248.076	710
1251.359	720
1254.64	779.66667
1257.919	746.33333
1261.195	736.33333
1264.468	756.66667
1267.74	768.33333
1271.008	770.66667
1274.275	787.33333
1277.538	756.33333
1280.8	767
1284.059	773.33333
1287.315	778.66667
1290.569	767
1293.821	791.66667
1297.07	800
1300.317	805
1303.562	806
1306.803	795.66667
1310.043	800
1313.28	795.33333
1316.515	781.66667
1319.747	801.66667
1322.977	790.66667
1326.204	786.33333
1329.429	771.66667
1332.652	794
1335.872	766.33333
1339.09	747
1342.306	753.66667
1345.519	734.66667
1348.729	727.33333
1351.938	727.33333
1355.144	709.66667
1358.347	713.33333
1361.548	719.66667
1364.747	723.33333
1367.944	702.66667
1371.138	706.33333
1374.329	706.66667
1377.518	704.66667
1380.705	718
1383.89	713
1387.072	688.33333
1390.252	677.33333
1393.429	667
1396.605	652
1399.777	606.66667
1402.948	622.33333
1406.116	623.33333
1409.282	627
1412.445	629.66667
1415.606	656
1418.765	641
1421.921	651.66667
1425.075	643.66667
1428.227	649
1431.376	678.66667
1434.524	686.33333
1437.668	714
1440.811	720
1443.951	721
1447.089	733.66667
1450.224	733
1453.357	713.33333
1456.488	712.66667
1459.617	700
1462.743	694
1465.867	661.33333
1468.989	672.33333
1472.108	669
1475.225	640.33333
1478.34	647.66667
1481.453	631.66667
1484.563	626
1487.671	637
1490.776	661.33333
1493.88	647.66667
1496.981	666.33333
1500.08	678.33333
1503.176	669
1506.271	679.33333
1509.363	694.66667
1512.452	695.66667
1515.54	685.66667
1518.625	698.66667
1521.708	730.33333
1524.789	751
1527.867	766.66667
1530.944	800
1534.018	803
1537.089	862.33333
1540.159	878.66667
1543.226	872
1546.291	854.33333
1549.354	851
1552.415	829
1555.473	816.33333
1558.529	802.66667
1561.583	797.33333
1564.634	789.33333
1567.684	788.33333
1570.731	784
1573.776	786.33333
1576.819	807.33333
1579.859	795.33333
1582.898	819.33333
1585.934	812.66667
1588.968	842.66667
1591.999	812
1595.029	816
1598.056	826.66667
1601.081	839.66667
1604.104	839
1607.125	819.66667
1610.144	817.33333
1613.16	775
1616.174	764.66667
1619.186	752.33333
1622.196	723.33333
1625.203	718
1628.209	714.33333
1631.212	704
1634.213	694.66667
1637.212	697
1640.209	696.66667
1643.203	656.33333
1646.196	655.66667
1649.186	624.66667
1652.174	620
1655.16	597.33333
1658.144	594.66667
1661.125	565
1664.105	545.33333
1667.082	535.33333
1670.057	490.33333
1673.03	476.66667
1676.001	454.33333
1678.97	425
1681.937	406.66667
1684.901	384
1687.863	387
1690.824	354.33333
1693.782	373.66667
1696.738	340.33333
1699.692	340
1702.643	333.66667
1705.593	331.33333
1708.54	323.33333
1711.486	336.66667
1714.429	313.33333
1717.37	322
1720.309	312.66667
1723.246	324.33333
1726.181	303.66667
1729.113	311
1732.044	315
1734.972	302.66667
1737.899	312.66667
1740.823	312
1743.745	335.66667
1746.665	282
1749.583	287.66667
1752.499	282
1755.413	280
1758.325	274.33333
1761.235	280
1764.142	267.66667
1767.048	264.33333
1769.951	264.66667
1772.852	268.33333
1775.752	280
1778.649	272.33333
1781.544	283.66667
1784.437	259
1787.328	273.66667
1790.217	263.33333
1793.104	243.66667
1795.989	247.33333
1798.872	239
1801.753	268.33333
1804.631	253.33333
1807.508	253.66667
1810.383	252
1813.255	253.66667
1816.126	240.66667
1818.994	249
1821.861	253.66667
1824.725	250
1827.587	255.33333
1830.448	252
1833.306	233.66667
1836.162	258.33333
1839.017	240.33333
1841.869	243.66667
1844.719	245.33333
1847.567	226
1850.414	224.66667
1853.258	229.33333
1856.1	248.66667
1858.94	252
1861.778	241
1864.614	227.33333
1867.448	246
1870.28	223
1873.111	254.33333
1875.939	234.66667
1878.765	246.66667
1881.589	231
1884.411	232.66667
1887.231	241
1890.049	231
1892.865	243
1895.68	225.66667
1898.492	229.33333
1901.302	232.66667
1904.11	231.33333
1906.916	226
1909.721	222.33333
1912.523	232.66667
1915.323	217.66667
1918.122	221.66667
1920.918	238.33333
1923.712	214.33333
1926.505	231.33333
1929.295	206.33333
1932.084	229.66667
1934.87	225.66667
1937.655	206.66667
1940.438	216.33333
1943.218	216
1945.997	216.33333
1948.774	228
1951.549	229
1954.322	212
1957.093	216
1959.862	213.33333
1962.629	211.66667
1965.394	214.33333
1968.157	201.66667
1970.918	218.66667
1973.678	206
1976.435	213
1979.19	210.66667
1981.944	197
1984.696	204.33333
1987.445	201
1990.193	214.33333
1992.939	223.66667
1995.683	206
1998.425	189.33333
2001.165	229.33333
2003.903	198.33333
2006.639	201
2009.374	214.33333
2012.106	204
2014.837	177.33333
2017.566	205.33333
2020.292	196.33333
2023.017	197
2025.74	193.66667
2028.461	186
2031.18	198.66667
2033.898	186.33333
2036.613	197
2039.327	197.33333
2042.038	188.66667
2044.748	196.33333
2047.456	203
2050.162	183.33333
2052.866	195.33333
2055.568	203.66667
2058.268	196
2060.967	200.33333
2063.663	179.33333
2066.358	185
2069.051	186.66667
2071.742	188.66667
2074.431	202.33333
2077.118	187.66667
2079.804	178
2082.487	181
2085.169	201.66667
2087.849	210.66667
2090.527	179
2093.203	191.33333
2095.877	188.33333
2098.55	185.33333
2101.22	199.66667
2103.889	199.33333
2106.556	183.33333
2109.221	207
2111.884	194
2114.546	215.33333
2117.205	220
2119.863	248
2122.519	238
2125.173	252.33333
2127.825	281.66667
2130.475	281.33333
2133.124	257.66667
2135.771	245.66667
2138.416	257
2141.059	240.66667
2143.7	237.66667
2146.339	219.66667
2148.977	197.66667
2151.613	208.66667
2154.247	206
2156.879	198
2159.51	177.33333
2162.138	187.66667
2164.765	187.33333
2167.39	173.33333
2170.013	198.33333
2172.634	187.33333
2175.254	179
2177.872	222.33333
2180.488	180.33333
2183.102	181
2185.714	177.33333
2188.325	170
2190.934	177
2193.541	183.66667
2196.146	178.66667
2198.75	163.66667
2201.351	160
2203.951	153.33333
2206.549	179
2209.146	168
2211.74	162
2214.333	168
2216.924	158
2219.514	159.66667
2222.101	158.33333
2224.687	173
2227.271	157
2229.853	160
2232.433	140.33333
2235.012	167.66667
2237.589	157.33333
2240.164	178
2242.738	156.66667
2245.309	152.66667
2247.879	163.66667
2250.448	165.33333
2253.014	148.66667
2255.579	145.33333
2258.142	152
2260.703	149.33333
2263.262	143.66667
2265.82	146.33333
2268.376	162.33333
2270.93	146.33333
2273.483	137.33333
2276.033	154.33333
2278.583	142.66667
2281.13	142.66667
2283.675	134.66667
2286.219	142.66667
2288.761	153.66667
2291.302	151
2293.841	160.66667
2296.377	136.66667
2298.913	148.33333
2301.446	157
2303.978	145.33333
2306.508	143.66667
2309.037	150.66667
2311.563	144.33333
2314.088	150.33333
2316.612	132
2319.133	145.66667
2321.653	149.33333
2324.171	138
2326.688	151.33333
2329.202	147.33333
2331.715	148
2334.227	143.66667
2336.736	142.33333
2339.244	136.33333
2341.751	131.33333
2344.255	143
2346.758	142.66667
2349.259	128
2351.759	140.33333
2354.257	130.66667
2356.753	124
2359.247	129
2361.74	129.66667
2364.231	136
2366.721	145
2369.209	130.66667
2371.695	135.33333
2374.179	127.66667
2376.662	120
2379.143	142
2381.622	128
2384.1	143
2386.576	126
2389.051	144
2391.524	139.66667
2393.995	137.66667
2396.464	127
2398.932	129
2401.398	131.33333
2403.863	127.33333
2406.325	123.33333
2408.787	133.66667
2411.246	123.33333
2413.704	130
2416.16	123
2418.615	127
2421.068	131.33333
2423.519	125
2425.969	123.33333
2428.417	139
2430.863	147.66667
2433.308	136.66667
2435.751	130.66667
2438.193	128.33333
2440.633	126.33333
2443.071	138
2445.508	124
2447.943	125.33333
2450.376	127
2452.808	131.66667
2455.238	123
2457.667	154
2460.093	113.33333
2462.519	117
2464.942	117.66667
2467.365	125.66667
2469.785	128.33333
2472.204	119.66667
2474.621	121
2477.037	141.33333
2479.451	114.66667
2481.863	114
2484.274	117.66667
2486.683	126.33333
2489.091	135
2491.497	122.66667
2493.901	123.33333
2496.304	115.66667
2498.705	129.66667
2501.105	120
2503.503	139.66667
2505.899	111.33333
2508.294	140.66667
2510.687	115.66667
2513.079	116.66667
2515.469	114
2517.858	113.66667
2520.245	133.66667
2522.63	125
2525.014	119.33333
2527.396	116.33333
2529.776	113.66667
2532.156	126.33333
2534.533	112.33333
2536.909	109.66667
2539.283	100
2541.656	113
2544.027	133.33333
2546.397	123.33333
2548.765	114.33333
2551.131	116.66667
2553.496	119
2555.86	126
2558.221	121
2560.582	113.66667
2562.94	108
2565.298	115.33333
2567.653	123.66667
2570.007	101.66667
2572.36	123.66667
2574.711	105.33333
2577.06	128
2579.408	117.33333
2581.754	111
2584.099	111.66667
2586.442	116.66667
2588.784	118.33333
2591.124	112.33333
2593.463	113.66667
2595.8	115.66667
2598.135	101.66667
2600.469	106.66667
2602.802	126.66667
2605.133	120.66667
2607.462	107.33333
2609.79	104.33333
2612.116	121.33333
2614.441	112.33333
2616.764	109
2619.086	113.33333
2621.406	108
2623.725	127
2626.042	110.66667
2628.358	104.33333
2630.672	110.66667
2632.985	117.33333
2635.296	113.66667
2637.606	112
2639.914	107.33333
2642.22	108.33333
2644.525	113.33333
2646.829	113.66667
2649.131	125
2651.432	120.66667
2653.731	107.33333
2656.028	124
2658.324	115
2660.619	105
2662.912	121.66667
2665.204	99.66667
2667.494	117
2669.782	105.66667
2672.07	122
2674.355	125.33333
2676.639	117
2678.922	107.33333
2681.203	117
2683.483	111.33333
2685.761	98
2688.038	124
2690.313	125.66667
2692.587	117
2694.859	110.66667
2697.13	113
2699.399	118
2701.667	122.66667
2703.933	116
2706.198	122.33333
2708.461	122
2710.723	120
2712.984	114
2715.243	121.33333
2717.5	119.33333
2719.757	122
2722.011	113.66667
2724.264	131
2726.516	131
2728.766	114.66667
2731.015	117
2733.262	118
2735.508	115
2737.753	124
2739.996	112.33333
2742.237	108.66667
2744.477	119.66667
2746.716	127.66667
2748.953	122
2751.189	128.33333
2753.423	124.66667
2755.656	119
2757.887	103.66667
2760.117	112.33333
2762.346	110.33333
2764.573	99
2766.798	109.66667
2769.022	111.33333
2771.245	109.33333
2773.467	116.33333
2775.686	113.33333
2777.905	116
2780.122	112
2782.337	120.33333
2784.552	111.33333
2786.764	107
2788.976	112.66667
2791.186	116.66667
2793.394	113.33333
2795.601	119.33333
2797.807	126.66667
2800.011	117
2802.214	129.33333
2804.415	120.33333
2806.615	120
2808.814	125.33333
2811.011	124.66667
2813.206	129
2815.401	135.33333
2817.594	130.66667
2819.785	139
2821.975	121.33333
2824.164	129.33333
2826.351	127.33333
2828.537	138.66667
2830.722	136
2832.905	132.66667
2835.086	142
2837.267	158
2839.445	152.66667
2841.623	154
2843.799	150
2845.974	158
2848.147	158.66667
2850.319	171.33333
2852.489	176
2854.659	179
2856.826	181.66667
2858.993	195.33333
2861.158	174
2863.321	174
2865.483	199.66667
2867.644	186.33333
2869.804	192.66667
2871.962	188
2874.118	187.33333
2876.274	190.66667
2878.428	193.66667
2880.58	191.33333
2882.731	175.33333
2884.881	183
2887.03	194
2889.177	188
2891.322	191.33333
2893.467	187.33333
2895.61	183.66667
2897.751	201.33333
2899.892	187
2902.03	188
2904.168	185
2906.304	185.66667
2908.439	203
2910.572	178.66667
2912.704	191.66667
2914.835	196.66667
2916.965	194.33333
2919.093	210.33333
2921.219	178.66667
2923.345	209.33333
2925.469	191.66667
2927.591	191.33333
2929.712	172.33333
2931.832	193.66667
2933.951	181.33333
2936.068	180.66667
2938.184	175.33333
2940.299	175.66667
2942.412	173
2944.524	159
2946.634	165
2948.744	143.33333
2950.851	177.66667
2952.958	151.33333
2955.063	161
2957.167	149.66667
2959.269	140
2961.371	167.33333
2963.471	142.66667
2965.569	162.66667
2967.666	130
2969.762	134.66667
2971.857	131
2973.95	127.66667
2976.042	144
2978.133	132.33333
2980.222	133
2982.31	121.66667
2984.396	103.33333
2986.482	111.66667
2988.566	116.33333
2990.648	111.66667
2992.73	114.66667
2994.81	102
2996.889	114.33333
2998.966	108
3001.042	120.66667
3003.117	109.33333
3005.191	116.66667
3007.263	119.33333
3009.334	108.66667
3011.403	115.66667
3013.472	108
3015.539	118
3017.604	132.33333
3019.669	97
3021.732	107.33333
3023.794	109.66667
3025.854	93.66667
3027.914	92
3029.971	95
3032.028	97.66667
3034.083	108.66667
3036.137	100.33333
3038.19	89.33333
3040.242	87.33333
3042.292	91
3044.341	95.33333
3046.388	105
3048.435	81.66667
3050.48	105.66667
3052.524	93.33333
3054.566	80.33333
3056.607	89.66667
3058.647	91.66667
3060.686	75.33333
3062.723	66.66667
3064.759	73.66667
3066.794	0.33333
3068.828	0.33333
3070.86	2.66667
