-0.839	129
3.438	143
7.711	62.66667
11.981	43.33333
16.247	31.33333
20.509	36
24.768	36.33333
29.024	40.66667
33.276	30
37.524	40
41.769	32
46.01	29.33333
50.247	43.33333
54.481	47
58.712	51
62.939	33.33333
67.162	51
71.382	42.33333
75.599	35.66667
79.812	44.66667
84.021	64.33333
88.227	42.33333
92.429	50
96.628	36.66667
100.823	51.66667
105.015	50
109.204	44.33333
113.388	58.33333
117.57	43
121.748	61
125.922	44
130.093	59
134.261	62.66667
138.425	48.33333
142.585	81.66667
146.742	57.33333
150.896	67.33333
155.046	65.33333
159.193	89.33333
163.336	132.33333
167.476	224.33333
171.613	390.66667
175.746	625
179.875	911.33333
184.002	1169
188.124	1389.66667
192.244	1455
196.36	1457.66667
200.472	1434
204.581	1422
208.687	1364
212.79	1369.33333
216.889	1382
220.984	1390
225.077	1400.33333
229.165	1381.66667
233.251	1392.33333
237.333	1393.66667
241.412	1361.33333
245.487	1348.33333
249.559	1347
253.628	1332.66667
257.694	1323
261.756	1335.66667
265.814	1287.33333
269.87	1249
273.922	1226
277.97	1220
282.016	1206.66667
286.058	1196
290.097	1227
294.132	1255
298.164	1221.33333
302.193	1186.66667
306.219	1107
310.241	1058.66667
314.26	975.33333
318.276	938.33333
322.288	904.66667
326.297	867.66667
330.303	848.66667
334.305	828.66667
338.305	831.33333
342.301	805
346.294	818.33333
350.283	804
354.269	810.33333
358.252	789
362.232	797.66667
366.209	794.66667
370.182	783.66667
374.152	782.66667
378.119	793.33333
382.083	780
386.043	799.33333
390	771.33333
393.954	801.33333
397.905	793.33333
401.852	808.33333
405.797	783
409.738	788.33333
413.676	830.66667
417.61	839.66667
421.542	800.33333
425.47	771
429.396	765
433.318	744.66667
437.236	757.66667
441.152	792.33333
445.065	747.66667
448.974	744.66667
452.88	722.33333
456.783	733
460.683	738.66667
464.58	740.66667
468.473	747.33333
472.364	739.33333
476.251	736
480.135	740
484.016	758
487.894	764
491.769	769.33333
495.641	767
499.509	769.66667
503.375	781
507.237	764.33333
511.096	780.66667
514.952	773.66667
518.805	769.33333
522.655	775
526.502	747.66667
530.346	768.66667
534.187	760
538.024	755.66667
541.859	757.33333
545.69	766.33333
549.519	766.33333
553.344	761.33333
557.166	740.66667
560.985	729.33333
564.802	737
568.615	736
572.425	722.66667
576.232	721.66667
580.036	726
583.836	741.33333
587.634	742.66667
591.429	730.66667
595.221	745.33333
599.01	738.33333
602.796	735.33333
606.578	740.66667
610.358	754.33333
614.135	734.33333
617.909	725
621.679	718
625.447	716
629.212	721
632.973	740
636.732	727
640.488	748
644.241	720
647.991	717.66667
651.737	757.33333
655.481	704.66667
659.222	707
662.96	706.33333
666.695	721
670.427	728
674.156	722.66667
677.882	719.33333
681.605	729.33333
685.325	708.33333
689.043	725
692.757	713.33333
696.468	714
700.177	726.33333
703.882	705.33333
707.585	691
711.284	695
714.981	692
718.675	691
722.366	701.66667
726.054	692.66667
729.739	698.33333
733.421	699
737.1	695.66667
740.777	709.33333
744.45	706.33333
748.121	695
751.789	733.33333
755.453	721.66667
759.115	728
762.774	713.33333
766.431	715
770.084	728.33333
773.734	725.66667
777.382	743.33333
781.027	741.66667
784.669	742
788.308	727.66667
791.944	756.66667
795.577	752
799.208	747.66667
802.835	751.33333
806.46	765.33333
810.082	765.33333
813.701	756
817.317	769
820.931	767.33333
824.542	761.66667
828.149	755
831.754	749.66667
835.357	751
838.956	768.66667
842.553	772.66667
846.146	744.66667
849.737	725.66667
853.326	744
856.911	729.33333
860.493	766.66667
864.073	769
867.65	790
871.225	801
874.796	772.33333
878.365	769.66667
881.931	773
885.494	791.66667
889.054	808.66667
892.612	817.33333
896.166	810.33333
899.719	801
903.268	786
906.814	767.33333
910.358	744.66667
913.899	736.66667
917.438	731.66667
920.973	717.66667
924.506	735.33333
928.036	745
931.564	747.66667
935.088	766.66667
938.61	751.66667
942.129	750.33333
945.646	759.33333
949.16	761.33333
952.671	772.33333
956.179	769.66667
959.685	774
963.188	779.66667
966.688	763
970.185	736.33333
973.68	728
977.173	739.33333
980.662	716
984.149	716.33333
987.633	698.33333
991.114	710
994.593	728.33333
998.069	734.66667
1001.542	756
1005.013	758
1008.481	712.66667
1011.947	699.33333
1015.409	689.66667
1018.869	707.33333
1022.327	699
1025.782	693.33333
1029.234	676
1032.683	687.33333
1036.13	670.66667
1039.574	644.66667
1043.016	632
1046.455	625
1049.891	618
1053.325	614
1056.756	605.33333
1060.184	617.66667
1063.61	595.66667
1067.033	621
1070.454	611.66667
1073.872	633.66667
1077.287	607.66667
1080.7	618.66667
1084.11	616.33333
1087.517	614.66667
1090.922	616
1094.325	593.33333
1097.724	595.66667
1101.122	595.66667
1104.516	608
1107.908	594
1111.298	602.33333
1114.684	601.33333
1118.069	598.66667
1121.45	621.66667
1124.83	605.33333
1128.206	620.66667
1131.58	630.66667
1134.951	648.66667
1138.32	643.33333
1141.687	683
1145.05	683.66667
1148.412	684
1151.77	689.66667
1155.126	685.33333
1158.48	669.66667
1161.831	669.66667
1165.18	672.66667
1168.525	689.66667
1171.869	690
1175.21	689.33333
1178.548	710
1181.884	702
1185.217	701.33333
1188.548	729.66667
1191.877	746
1195.202	774
1198.526	797
1201.846	784.33333
1205.165	779.66667
1208.48	784.33333
1211.794	792.66667
1215.104	785.33333
1218.413	787.33333
1221.719	775.66667
1225.022	760.66667
1228.323	745.66667
1231.621	772.33333
1234.917	751.33333
1238.21	770.66667
1241.501	748.33333
1244.79	740
1248.076	735.66667
1251.359	743.66667
1254.64	783.66667
1257.919	771.33333
1261.195	767.66667
1264.468	779.66667
1267.74	792.66667
1271.008	797.66667
1274.275	785.66667
1277.538	785.66667
1280.8	789.66667
1284.059	789.66667
1287.315	798
1290.569	790.33333
1293.821	796
1297.07	820.33333
1300.317	811
1303.562	825.33333
1306.803	816.33333
1310.043	815
1313.28	802.66667
1316.515	795.33333
1319.747	810.66667
1322.977	803.33333
1326.204	796
1329.429	794
1332.652	804
1335.872	791.66667
1339.09	768.66667
1342.306	772.66667
1345.519	749.66667
1348.729	740.66667
1351.938	753.33333
1355.144	727
1358.347	724.33333
1361.548	737.33333
1364.747	742.33333
1367.944	720
1371.138	722.66667
1374.329	715
1377.518	728
1380.705	727.66667
1383.89	744.66667
1387.072	703.33333
1390.252	697.66667
1393.429	689.66667
1396.605	671
1399.777	641.66667
1402.948	661.66667
1406.116	635.33333
1409.282	645.33333
1412.445	649
1415.606	653.33333
1418.765	652.33333
1421.921	664.33333
1425.075	668.66667
1428.227	684
1431.376	696
1434.524	708.33333
1437.668	740
1440.811	743.66667
1443.951	745.33333
1447.089	754.33333
1450.224	751
1453.357	732.66667
1456.488	727
1459.617	720.66667
1462.743	706.66667
1465.867	678.66667
1468.989	702.33333
1472.108	676
1475.225	654
1478.34	657.66667
1481.453	643.66667
1484.563	645
1487.671	659.33333
1490.776	664.66667
1493.88	660.66667
1496.981	683
1500.08	693.33333
1503.176	691
1506.271	704.33333
1509.363	712
1512.452	706
1515.54	715.33333
1518.625	724.66667
1521.708	754
1524.789	770.33333
1527.867	773.66667
1530.944	823
1534.018	848.33333
1537.089	897
1540.159	897
1543.226	898.66667
1546.291	870.33333
1549.354	874.66667
1552.415	863.33333
1555.473	837.66667
1558.529	837.66667
1561.583	825.66667
1564.634	808.33333
1567.684	810.33333
1570.731	809
1573.776	806.66667
1576.819	824
1579.859	819
1582.898	831.66667
1585.934	852
1588.968	857
1591.999	829
1595.029	836.66667
1598.056	853.33333
1601.081	865.33333
1604.104	859
1607.125	848.66667
1610.144	830
1613.16	798.66667
1616.174	773.66667
1619.186	770
1622.196	749.33333
1625.203	734
1628.209	730
1631.212	718
1634.213	709.33333
1637.212	712
1640.209	695.33333
1643.203	680.33333
1646.196	664
1649.186	632.66667
1652.174	640.33333
1655.16	606.33333
1658.144	616
1661.125	583
1664.105	558
1667.082	551.33333
1670.057	508.33333
1673.03	478.66667
1676.001	461.33333
1678.97	437.33333
1681.937	424.33333
1684.901	402
1687.863	397
1690.824	373.33333
1693.782	389.66667
1696.738	344.33333
1699.692	355.66667
1702.643	333.66667
1705.593	340.33333
1708.54	327.66667
1711.486	354
1714.429	325
1717.37	348.66667
1720.309	315.33333
1723.246	326.33333
1726.181	311.33333
1729.113	310.33333
1732.044	323.33333
1734.972	305.66667
1737.899	322.33333
1740.823	325
1743.745	341
1746.665	300.33333
1749.583	297.66667
1752.499	296.66667
1755.413	293.33333
1758.325	283.33333
1761.235	291
1764.142	271
1767.048	283.33333
1769.951	275
1772.852	277
1775.752	299.66667
1778.649	305.66667
1781.544	302.33333
1784.437	272.33333
1787.328	279
1790.217	270.66667
1793.104	248
1795.989	256.66667
1798.872	258.33333
1801.753	273
1804.631	261.66667
1807.508	269.33333
1810.383	262.33333
1813.255	261.33333
1816.126	258
1818.994	254.66667
1821.861	251.66667
1824.725	264.33333
1827.587	255
1830.448	262.66667
1833.306	250
1836.162	259.66667
1839.017	251.66667
1841.869	252.33333
1844.719	258
1847.567	240.33333
1850.414	238.33333
1853.258	237
1856.1	247.66667
1858.94	252.33333
1861.778	249.66667
1864.614	230.33333
1867.448	244
1870.28	225.33333
1873.111	258
1875.939	241.66667
1878.765	251.33333
1881.589	232
1884.411	239.33333
1887.231	253
1890.049	241.66667
1892.865	254
1895.68	239.33333
1898.492	246.33333
1901.302	233.33333
1904.11	239.33333
1906.916	240
1909.721	230.33333
1912.523	237
1915.323	230
1918.122	224
1920.918	241.66667
1923.712	225
1926.505	232
1929.295	221
1932.084	234.66667
1934.87	233.66667
1937.655	219.33333
1940.438	221.33333
1943.218	225
1945.997	233
1948.774	234
1951.549	237.33333
1954.322	226.66667
1957.093	224
1959.862	225
1962.629	216.66667
1965.394	224
1968.157	211.33333
1970.918	235.33333
1973.678	210.33333
1976.435	225
1979.19	222.66667
1981.944	214.66667
1984.696	213.33333
1987.445	205.33333
1990.193	214.33333
1992.939	223
1995.683	217
1998.425	197.33333
2001.165	230.66667
2003.903	200.66667
2006.639	208.33333
2009.374	212.66667
2012.106	221.33333
2014.837	194.33333
2017.566	217.66667
2020.292	209
2023.017	194.66667
2025.74	200.66667
2028.461	198
2031.18	206
2033.898	190.66667
2036.613	203
2039.327	205.33333
2042.038	192
2044.748	199.33333
2047.456	204.66667
2050.162	185.33333
2052.866	197
2055.568	205.66667
2058.268	196.33333
2060.967	205
2063.663	190
2066.358	195
2069.051	189.33333
2071.742	198.66667
2074.431	206.33333
2077.118	194
2079.804	179.33333
2082.487	193.33333
2085.169	206.66667
2087.849	219.66667
2090.527	188.33333
2093.203	195
2095.877	197.33333
2098.55	201.33333
2101.22	201.33333
2103.889	206.33333
2106.556	199.66667
2109.221	215.66667
2111.884	209.33333
2114.546	231
2117.205	236.33333
2119.863	268.66667
2122.519	260
2125.173	270.33333
2127.825	301
2130.475	304
2133.124	285.66667
2135.771	256
2138.416	280.33333
2141.059	247.66667
2143.7	246.33333
2146.339	231
2148.977	205
2151.613	221.33333
2154.247	215.66667
2156.879	207.33333
2159.51	193
2162.138	199
2164.765	193
2167.39	183.33333
2170.013	203.66667
2172.634	196.33333
2175.254	190.33333
2177.872	222
2180.488	177.66667
2183.102	181.66667
2185.714	183.66667
2188.325	173
2190.934	187
2193.541	191.66667
2196.146	181.33333
2198.75	173.33333
2201.351	172.66667
2203.951	158
2206.549	173.66667
2209.146	171.66667
2211.74	162.66667
2214.333	177.66667
2216.924	161.33333
2219.514	170
2222.101	160
2224.687	180.33333
2227.271	154
2229.853	158.66667
2232.433	150.66667
2235.012	171
2237.589	171
2240.164	180.66667
2242.738	160.66667
2245.309	154.33333
2247.879	171.66667
2250.448	171.66667
2253.014	158.66667
2255.579	148
2258.142	154.33333
2260.703	156
2263.262	154.33333
2265.82	143
2268.376	169.33333
2270.93	151.66667
2273.483	146.33333
2276.033	156.33333
2278.583	146.33333
2281.13	144
2283.675	140
2286.219	150.33333
2288.761	153
2291.302	157
2293.841	160.33333
2296.377	138.33333
2298.913	156.66667
2301.446	159
2303.978	155.66667
2306.508	155.66667
2309.037	156
2311.563	151.66667
2314.088	148.33333
2316.612	141.33333
2319.133	149.66667
2321.653	152.33333
2324.171	140.66667
2326.688	152.33333
2329.202	143.66667
2331.715	149
2334.227	146.66667
2336.736	141.33333
2339.244	136.33333
2341.751	129.66667
2344.255	150
2346.758	147.33333
2349.259	137.66667
2351.759	146
2354.257	137
2356.753	133.33333
2359.247	128.66667
2361.74	141.66667
2364.231	133.33333
2366.721	146.66667
2369.209	133.33333
2371.695	140.33333
2374.179	130.66667
2376.662	125.33333
2379.143	147.66667
2381.622	135.66667
2384.1	146.33333
2386.576	134
2389.051	147.33333
2391.524	147.33333
2393.995	144.33333
2396.464	131.33333
2398.932	129.33333
2401.398	136
2403.863	130.66667
2406.325	134.33333
2408.787	139
2411.246	133.66667
2413.704	130
2416.16	131
2418.615	128.66667
2421.068	137.33333
2423.519	133
2425.969	122.66667
2428.417	139
2430.863	153.33333
2433.308	139
2435.751	138.66667
2438.193	134
2440.633	138.33333
2443.071	142.66667
2445.508	122.33333
2447.943	134
2450.376	126.33333
2452.808	133.33333
2455.238	118.66667
2457.667	149.66667
2460.093	124
2462.519	121.33333
2464.942	122
2467.365	134
2469.785	131
2472.204	127
2474.621	122.66667
2477.037	141.33333
2479.451	116.33333
2481.863	118
2484.274	125.33333
2486.683	125.33333
2489.091	131.66667
2491.497	131.33333
2493.901	130.66667
2496.304	129
2498.705	135.33333
2501.105	122.66667
2503.503	143.33333
2505.899	121
2508.294	140.33333
2510.687	124.33333
2513.079	123.66667
2515.469	119
2517.858	115
2520.245	135.66667
2522.63	120.33333
2525.014	118.66667
2527.396	116.33333
2529.776	118.66667
2532.156	129
2534.533	112
2536.909	113.66667
2539.283	103.33333
2541.656	112
2544.027	134.33333
2546.397	121
2548.765	119
2551.131	119.33333
2553.496	119.33333
2555.86	125.33333
2558.221	125
2560.582	116.66667
2562.94	109.33333
2565.298	118.33333
2567.653	132
2570.007	111.33333
2572.36	127.66667
2574.711	108.66667
2577.06	127
2579.408	122.33333
2581.754	116.66667
2584.099	116.66667
2586.442	116.33333
2588.784	122.66667
2591.124	113.66667
2593.463	110.33333
2595.8	122.66667
2598.135	104
2600.469	105.66667
2602.802	128
2605.133	130
2607.462	110.33333
2609.79	105
2612.116	120
2614.441	115
2616.764	118
2619.086	123
2621.406	112.33333
2623.725	123
2626.042	115.33333
2628.358	107.66667
2630.672	115
2632.985	122
2635.296	119.33333
2637.606	112
2639.914	107.66667
2642.22	113
2644.525	111.33333
2646.829	118.33333
2649.131	123.66667
2651.432	121
2653.731	112
2656.028	126.33333
2658.324	117.66667
2660.619	107
2662.912	128.66667
2665.204	104.33333
2667.494	125
2669.782	114
2672.07	126
2674.355	125.66667
2676.639	116.66667
2678.922	109.66667
2681.203	118
2683.483	110.33333
2685.761	105.66667
2688.038	120.33333
2690.313	133
2692.587	117.33333
2694.859	113.66667
2697.13	116.33333
2699.399	117.66667
2701.667	122
2703.933	116.66667
2706.198	130
2708.461	127
2710.723	131.33333
2712.984	122.33333
2715.243	126
2717.5	123.33333
2719.757	132.33333
2722.011	125
2724.264	133
2726.516	127.33333
2728.766	112
2731.015	124.66667
2733.262	120.33333
2735.508	116.33333
2737.753	126
2739.996	110.33333
2742.237	112.33333
2744.477	126.33333
2746.716	133.66667
2748.953	130.66667
2751.189	129.66667
2753.423	124.33333
2755.656	112
2757.887	113
2760.117	117.33333
2762.346	114.33333
2764.573	105
2766.798	113
2769.022	118
2771.245	112.66667
2773.467	116.33333
2775.686	112.33333
2777.905	120.66667
2780.122	114.33333
2782.337	120.33333
2784.552	109
2786.764	121.33333
2788.976	110.66667
2791.186	120.33333
2793.394	112.66667
2795.601	125
2797.807	129.33333
2800.011	125.33333
2802.214	130
2804.415	125.66667
2806.615	122
2808.814	124.33333
2811.011	133
2813.206	131
2815.401	139.66667
2817.594	141.33333
2819.785	146
2821.975	121.33333
2824.164	135.33333
2826.351	125
2828.537	144
2830.722	146.33333
2832.905	139.33333
2835.086	142
2837.267	161.33333
2839.445	152.66667
2841.623	157.33333
2843.799	156.33333
2845.974	162.66667
2848.147	159
2850.319	174.33333
2852.489	187.33333
2854.659	184.33333
2856.826	178.66667
2858.993	195
2861.158	177.66667
2863.321	184.66667
2865.483	202.33333
2867.644	198.33333
2869.804	199
2871.962	192
2874.118	197
2876.274	205
2878.428	205.66667
2880.58	203.33333
2882.731	186
2884.881	195.33333
2887.03	198.66667
2889.177	191.33333
2891.322	199.66667
2893.467	193
2895.61	187.66667
2897.751	206.33333
2899.892	188.66667
2902.03	195.66667
2904.168	187
2906.304	186.33333
2908.439	206.33333
2910.572	186.33333
2912.704	194.33333
2914.835	205.33333
2916.965	202
2919.093	215
2921.219	182
2923.345	217
2925.469	197.33333
2927.591	191
2929.712	177
2931.832	196.66667
2933.951	183.33333
2936.068	186
2938.184	182.33333
2940.299	177.33333
2942.412	176.33333
2944.524	157.66667
2946.634	170
2948.744	146
2950.851	181.66667
2952.958	153.66667
2955.063	163.66667
2957.167	152
2959.269	141
2961.371	175.33333
2963.471	143.66667
2965.569	166.33333
2967.666	134
2969.762	140.33333
2971.857	134.33333
2973.95	130.66667
2976.042	144
2978.133	134.66667
2980.222	132.33333
2982.31	123.66667
2984.396	103.66667
2986.482	114.66667
2988.566	116
2990.648	120.66667
2992.73	115
2994.81	103.33333
2996.889	124.33333
2998.966	114
3001.042	122.66667
3003.117	106
3005.191	114
3007.263	120.66667
3009.334	108
3011.403	114.66667
3013.472	109
3015.539	117.33333
3017.604	125
3019.669	99.66667
3021.732	106
3023.794	105.33333
3025.854	101
3027.914	91
3029.971	99.33333
3032.028	98.66667
3034.083	107
3036.137	105.33333
3038.19	96
3040.242	86
3042.292	90.66667
3044.341	88.33333
3046.388	108.33333
3048.435	83
3050.48	104.33333
3052.524	93
3054.566	81.66667
3056.607	87
3058.647	87.33333
3060.686	74
3062.723	70.66667
3064.759	72.33333
3066.794	0.33333
3068.828	1.66667
3070.86	3
