-0.839	121.66667
3.438	138.66667
7.711	65
11.981	40.33333
16.247	33
20.509	39
24.768	36
29.024	43.33333
33.276	30
37.524	42.66667
41.769	29
46.01	29
50.247	41
54.481	48.33333
58.712	54.33333
62.939	34.66667
67.162	51
71.382	43.66667
75.599	34
79.812	39.66667
84.021	61
88.227	40.33333
92.429	47.66667
96.628	33.66667
100.823	48
105.015	48.66667
109.204	42.33333
113.388	53
117.57	37.66667
121.748	55
125.922	49
130.093	57.66667
134.261	60
138.425	51
142.585	77
146.742	56.33333
150.896	72.33333
155.046	61
159.193	85.66667
163.336	126
167.476	213.66667
171.613	375.33333
175.746	601.33333
179.875	870.66667
184.002	1112
188.124	1308
192.244	1364.66667
196.36	1362
200.472	1347
204.581	1350
208.687	1294.66667
212.79	1266
216.889	1283.66667
220.984	1295
225.077	1295.66667
229.165	1295.66667
233.251	1285
237.333	1286
241.412	1264.66667
245.487	1270
249.559	1234.66667
253.628	1238
257.694	1223
261.756	1222
265.814	1184
269.87	1163.33333
273.922	1119.66667
277.97	1116.66667
282.016	1135
286.058	1098.66667
290.097	1148.66667
294.132	1161
298.164	1164
302.193	1099.66667
306.219	1010
310.241	963
314.26	891.66667
318.276	835.33333
322.288	819.33333
326.297	777.33333
330.303	765.33333
334.305	735
338.305	734.66667
342.301	721.33333
346.294	732.33333
350.283	713
354.269	693.66667
358.252	691.33333
362.232	695.66667
366.209	696.33333
370.182	690.66667
374.152	686.33333
378.119	697
382.083	682.33333
386.043	689
390	679
393.954	691.33333
397.905	689.66667
401.852	688.33333
405.797	670
409.738	662.66667
413.676	674.33333
417.61	687.66667
421.542	665.66667
425.47	662.66667
429.396	645.33333
433.318	647.33333
437.236	642.66667
441.152	685.66667
445.065	634
448.974	654.33333
452.88	633
456.783	633.33333
460.683	626
464.58	643.33333
468.473	647.66667
472.364	651.66667
476.251	643
480.135	639.33333
484.016	644.33333
487.894	657.33333
491.769	655.66667
495.641	645.66667
499.509	664
503.375	660.66667
507.237	668.66667
511.096	666.33333
514.952	680
518.805	679.33333
522.655	687
526.502	671.66667
530.346	666.33333
534.187	656
538.024	655
541.859	644.33333
545.69	673.66667
549.519	651
553.344	654.33333
557.166	635
560.985	636
564.802	642.66667
568.615	620.33333
572.425	611.33333
576.232	621.33333
580.036	613.66667
583.836	626.33333
587.634	627.66667
591.429	616.66667
595.221	644.33333
599.01	637.66667
602.796	635
606.578	642.33333
610.358	636.33333
614.135	636.33333
617.909	648
621.679	618.66667
625.447	623
629.212	618.66667
632.973	622.33333
636.732	623.66667
640.488	615.66667
644.241	612.33333
647.991	609.66667
651.737	633.33333
655.481	597
659.222	623
662.96	609
666.695	623.33333
670.427	623.33333
674.156	634
677.882	621.66667
681.605	633.33333
685.325	607
689.043	626.66667
692.757	614.33333
696.468	611.33333
700.177	619
703.882	592.66667
707.585	599
711.284	614
714.981	597.66667
718.675	612
722.366	614.33333
726.054	599.33333
729.739	611.33333
733.421	611
737.1	601.33333
740.777	612
744.45	606
748.121	607.66667
751.789	635.66667
755.453	617.66667
759.115	618.33333
762.774	621
766.431	623.66667
770.084	643
773.734	632.66667
777.382	654.66667
781.027	658.66667
784.669	646.33333
788.308	642.33333
791.944	658
795.577	659.66667
799.208	662
802.835	663.33333
806.46	672.66667
810.082	672.66667
813.701	655
817.317	667
820.931	668.33333
824.542	674
828.149	664.66667
831.754	652
835.357	645.66667
838.956	673.33333
842.553	653.33333
846.146	651.33333
849.737	646.66667
853.326	659
856.911	633.33333
860.493	665.66667
864.073	665.66667
867.65	680.33333
871.225	685.33333
874.796	680.66667
878.365	674.33333
881.931	693
885.494	710.33333
889.054	708
892.612	728.33333
896.166	733.66667
899.719	725.66667
903.268	690.33333
906.814	691.33333
910.358	660.66667
913.899	641.33333
917.438	649.33333
920.973	628
924.506	645.33333
928.036	653.66667
931.564	671
935.088	685
938.61	657.66667
942.129	662.33333
945.646	682
949.16	684.33333
952.671	687.33333
956.179	712
959.685	692.66667
963.188	704.33333
966.688	680.66667
970.185	654.33333
973.68	647.66667
977.173	651.33333
980.662	626.33333
984.149	634
987.633	615.66667
991.114	635.66667
994.593	639.66667
998.069	648.33333
1001.542	670
1005.013	665.66667
1008.481	623
1011.947	613
1015.409	607.66667
1018.869	621.33333
1022.327	622.66667
1025.782	610.33333
1029.234	603.33333
1032.683	606.33333
1036.13	594.66667
1039.574	567.66667
1043.016	556.33333
1046.455	549.33333
1049.891	545
1053.325	546
1056.756	544.33333
1060.184	546.33333
1063.61	526.66667
1067.033	536.66667
1070.454	542
1073.872	557.33333
1077.287	536
1080.7	535
1084.11	539
1087.517	546.33333
1090.922	545.33333
1094.325	522.66667
1097.724	525.33333
1101.122	524.66667
1104.516	533.66667
1107.908	523.33333
1111.298	535.66667
1114.684	534.33333
1118.069	532
1121.45	561.33333
1124.83	546.33333
1128.206	547.66667
1131.58	555
1134.951	575
1138.32	581
1141.687	605.33333
1145.05	608.33333
1148.412	614
1151.77	604.33333
1155.126	610.33333
1158.48	600.66667
1161.831	614.66667
1165.18	606
1168.525	612.66667
1171.869	623
1175.21	628.33333
1178.548	635
1181.884	639.66667
1185.217	632.66667
1188.548	660.33333
1191.877	668.33333
1195.202	711
1198.526	719
1201.846	719.33333
1205.165	721
1208.48	721.66667
1211.794	719.66667
1215.104	720.66667
1218.413	707
1221.719	713
1225.022	696.66667
1228.323	685
1231.621	689.66667
1234.917	686
1238.21	713.33333
1241.501	685.33333
1244.79	668.66667
1248.076	662.33333
1251.359	679.33333
1254.64	723.33333
1257.919	688.33333
1261.195	704.66667
1264.468	700.33333
1267.74	718
1271.008	720
1274.275	725.33333
1277.538	713.66667
1280.8	725.33333
1284.059	700
1287.315	720.66667
1290.569	727
1293.821	739.33333
1297.07	748.33333
1300.317	740.33333
1303.562	756.33333
1306.803	735.33333
1310.043	748.33333
1313.28	751.66667
1316.515	741.33333
1319.747	748.66667
1322.977	734.66667
1326.204	738
1329.429	730.66667
1332.652	739.66667
1335.872	739.33333
1339.09	699
1342.306	707.33333
1345.519	692.66667
1348.729	682.66667
1351.938	676.33333
1355.144	666.66667
1358.347	657
1361.548	668.66667
1364.747	668.66667
1367.944	647.66667
1371.138	661
1374.329	668.33333
1377.518	662.33333
1380.705	665
1383.89	665.33333
1387.072	641.33333
1390.252	635.33333
1393.429	616
1396.605	613.66667
1399.777	581.33333
1402.948	579.33333
1406.116	592
1409.282	599.66667
1412.445	596
1415.606	608.33333
1418.765	599
1421.921	611
1425.075	606
1428.227	617.66667
1431.376	624
1434.524	662.66667
1437.668	671.33333
1440.811	676
1443.951	681
1447.089	704.33333
1450.224	687.66667
1453.357	673.66667
1456.488	662.66667
1459.617	662
1462.743	648.33333
1465.867	630.33333
1468.989	629.66667
1472.108	620.33333
1475.225	607.66667
1478.34	591.66667
1481.453	584.33333
1484.563	590.66667
1487.671	598.33333
1490.776	615.66667
1493.88	623.66667
1496.981	630.33333
1500.08	635.66667
1503.176	635.33333
1506.271	641.33333
1509.363	657
1512.452	641.66667
1515.54	659.66667
1518.625	649
1521.708	689
1524.789	701.33333
1527.867	716.66667
1530.944	744.66667
1534.018	765.33333
1537.089	816
1540.159	820.33333
1543.226	830
1546.291	798.33333
1549.354	780
1552.415	779.33333
1555.473	762.66667
1558.529	760.33333
1561.583	752.66667
1564.634	733.33333
1567.684	752
1570.731	743
1573.776	757.66667
1576.819	753.66667
1579.859	764
1582.898	768.33333
1585.934	785
1588.968	800.66667
1591.999	774
1595.029	782.66667
1598.056	783
1601.081	798.66667
1604.104	807.33333
1607.125	795
1610.144	761.66667
1613.16	738
1616.174	732.33333
1619.186	730.66667
1622.196	705.66667
1625.203	669.33333
1628.209	679.33333
1631.212	660.33333
1634.213	666.66667
1637.212	670
1640.209	645.66667
1643.203	615.33333
1646.196	610.33333
1649.186	594.66667
1652.174	594
1655.16	558.66667
1658.144	559.33333
1661.125	528.66667
1664.105	513
1667.082	498.66667
1670.057	463
1673.03	443
1676.001	429
1678.97	390
1681.937	380
1684.901	369
1687.863	364.66667
1690.824	334.33333
1693.782	346.66667
1696.738	321.33333
1699.692	320.66667
1702.643	308
1705.593	308
1708.54	308
1711.486	322
1714.429	290.66667
1717.37	300.66667
1720.309	288.66667
1723.246	298.33333
1726.181	281.33333
1729.113	279
1732.044	285.33333
1734.972	283
1737.899	287
1740.823	286
1743.745	302.33333
1746.665	268.66667
1749.583	270.66667
1752.499	265
1755.413	262
1758.325	248
1761.235	261
1764.142	245.66667
1767.048	243.33333
1769.951	251.33333
1772.852	247.66667
1775.752	251.33333
1778.649	248
1781.544	266
1784.437	236.33333
1787.328	252.66667
1790.217	242.33333
1793.104	221.66667
1795.989	226.33333
1798.872	220.33333
1801.753	251
1804.631	234
1807.508	239
1810.383	232.66667
1813.255	233.33333
1816.126	229
1818.994	224
1821.861	228
1824.725	232.33333
1827.587	237.33333
1830.448	233
1833.306	217.33333
1836.162	240
1839.017	221.66667
1841.869	231
1844.719	220
1847.567	211.66667
1850.414	207.33333
1853.258	205.66667
1856.1	220.66667
1858.94	226.66667
1861.778	218.33333
1864.614	211.33333
1867.448	218
1870.28	206
1873.111	228
1875.939	214.66667
1878.765	228.66667
1881.589	204.66667
1884.411	214.66667
1887.231	231.33333
1890.049	218.66667
1892.865	228.66667
1895.68	206
1898.492	216
1901.302	212
1904.11	206.33333
1906.916	208
1909.721	208.33333
1912.523	219.33333
1915.323	206.66667
1918.122	209.33333
1920.918	220.66667
1923.712	200.66667
1926.505	207.66667
1929.295	192.33333
1932.084	199.66667
1934.87	209.66667
1937.655	199
1940.438	193.33333
1943.218	199.66667
1945.997	201.66667
1948.774	213.66667
1951.549	206
1954.322	198
1957.093	199.33333
1959.862	196.33333
1962.629	199.66667
1965.394	194
1968.157	182.66667
1970.918	203.33333
1973.678	187.33333
1976.435	203
1979.19	192.33333
1981.944	188.33333
1984.696	189
1987.445	189
1990.193	197.33333
1992.939	205.66667
1995.683	192
1998.425	172
2001.165	205
2003.903	180
2006.639	192
2009.374	191
2012.106	189.33333
2014.837	169.33333
2017.566	200.33333
2020.292	185.33333
2023.017	183
2025.74	180.33333
2028.461	174.33333
2031.18	184.66667
2033.898	175
2036.613	181
2039.327	186
2042.038	177
2044.748	182.66667
2047.456	185.66667
2050.162	166
2052.866	174.66667
2055.568	191.33333
2058.268	182
2060.967	187
2063.663	169.33333
2066.358	169.66667
2069.051	172.33333
2071.742	176
2074.431	182.66667
2077.118	167.66667
2079.804	164.66667
2082.487	168.33333
2085.169	183.33333
2087.849	200
2090.527	162
2093.203	176.66667
2095.877	177
2098.55	173.33333
2101.22	186.33333
2103.889	187.66667
2106.556	178
2109.221	192.66667
2111.884	184.66667
2114.546	205.66667
2117.205	208.66667
2119.863	238.66667
2122.519	225.66667
2125.173	240.33333
2127.825	274.66667
2130.475	272.33333
2133.124	253
2135.771	241.33333
2138.416	255.33333
2141.059	227.33333
2143.7	225
2146.339	207.33333
2148.977	183.33333
2151.613	196.33333
2154.247	191.33333
2156.879	182.33333
2159.51	174.66667
2162.138	180.33333
2164.765	167.33333
2167.39	158
2170.013	192
2172.634	182.66667
2175.254	167.33333
2177.872	210.66667
2180.488	157.66667
2183.102	166.66667
2185.714	168
2188.325	158.33333
2190.934	170.66667
2193.541	168.33333
2196.146	167.66667
2198.75	157.33333
2201.351	152
2203.951	139.66667
2206.549	161
2209.146	157
2211.74	151
2214.333	168.33333
2216.924	139.33333
2219.514	159.66667
2222.101	150.66667
2224.687	169
2227.271	143
2229.853	147
2232.433	131.66667
2235.012	152.66667
2237.589	146.66667
2240.164	165
2242.738	147.66667
2245.309	137.66667
2247.879	164
2250.448	153.33333
2253.014	142
2255.579	132.66667
2258.142	135.33333
2260.703	137.66667
2263.262	140.33333
2265.82	129.33333
2268.376	150.66667
2270.93	140.33333
2273.483	125.66667
2276.033	143.66667
2278.583	131.66667
2281.13	132
2283.675	129.66667
2286.219	132.66667
2288.761	139.66667
2291.302	139.66667
2293.841	147.33333
2296.377	132.33333
2298.913	134
2301.446	151.33333
2303.978	138.66667
2306.508	137
2309.037	135
2311.563	138.33333
2314.088	141.66667
2316.612	125.66667
2319.133	143
2321.653	136
2324.171	125.33333
2326.688	145.66667
2329.202	132.33333
2331.715	136.66667
2334.227	134.66667
2336.736	130.66667
2339.244	126
2341.751	117.33333
2344.255	135
2346.758	131.33333
2349.259	128.33333
2351.759	131.66667
2354.257	125.33333
2356.753	127
2359.247	126.33333
2361.74	126
2364.231	125.33333
2366.721	138.33333
2369.209	120
2371.695	125
2374.179	124.33333
2376.662	116
2379.143	137.66667
2381.622	119.66667
2384.1	130
2386.576	124.33333
2389.051	135.33333
2391.524	142.66667
2393.995	134
2396.464	122.33333
2398.932	119.33333
2401.398	128
2403.863	121.66667
2406.325	123.66667
2408.787	126.33333
2411.246	122.66667
2413.704	122
2416.16	119.33333
2418.615	121
2421.068	127
2423.519	121
2425.969	111
2428.417	136
2430.863	143
2433.308	128.33333
2435.751	125
2438.193	126.66667
2440.633	124.33333
2443.071	126
2445.508	115.66667
2447.943	123.33333
2450.376	118.33333
2452.808	123
2455.238	115
2457.667	140.33333
2460.093	113
2462.519	109.66667
2464.942	106
2467.365	125.33333
2469.785	120
2472.204	114.33333
2474.621	118.33333
2477.037	138.33333
2479.451	106.33333
2481.863	110
2484.274	111.66667
2486.683	119.66667
2489.091	126.66667
2491.497	124.33333
2493.901	126
2496.304	114.66667
2498.705	127.33333
2501.105	120.33333
2503.503	134.66667
2505.899	108
2508.294	131.66667
2510.687	113.66667
2513.079	118
2515.469	115.33333
2517.858	113.33333
2520.245	131.66667
2522.63	116.33333
2525.014	111.66667
2527.396	108.33333
2529.776	112.33333
2532.156	119.33333
2534.533	108
2536.909	110.33333
2539.283	101.66667
2541.656	108.66667
2544.027	127
2546.397	113.33333
2548.765	112.66667
2551.131	113.66667
2553.496	116.33333
2555.86	117.66667
2558.221	122.66667
2560.582	107.66667
2562.94	105.33333
2565.298	113.33333
2567.653	118.33333
2570.007	100.33333
2572.36	115
2574.711	107
2577.06	124.66667
2579.408	111.33333
2581.754	105.33333
2584.099	106.66667
2586.442	107.33333
2588.784	115
2591.124	108.33333
2593.463	109.33333
2595.8	119
2598.135	97.66667
2600.469	108
2602.802	117
2605.133	126.33333
2607.462	104.66667
2609.79	99.33333
2612.116	115.66667
2614.441	110
2616.764	113.33333
2619.086	106.66667
2621.406	104
2623.725	123.66667
2626.042	109
2628.358	104.66667
2630.672	110.33333
2632.985	122
2635.296	112.33333
2637.606	107.33333
2639.914	104
2642.22	104.33333
2644.525	110.33333
2646.829	105.66667
2649.131	123.66667
2651.432	117
2653.731	105.33333
2656.028	120
2658.324	111.66667
2660.619	100.33333
2662.912	119
2665.204	97.66667
2667.494	116.33333
2669.782	103.66667
2672.07	121.66667
2674.355	123
2676.639	112.33333
2678.922	107.33333
2681.203	117.33333
2683.483	104.66667
2685.761	100.66667
2688.038	120
2690.313	121.66667
2692.587	114.33333
2694.859	108
2697.13	108
2699.399	112.66667
2701.667	121.33333
2703.933	115.33333
2706.198	125.33333
2708.461	119
2710.723	121
2712.984	114.33333
2715.243	123.33333
2717.5	114
2719.757	122.66667
2722.011	116
2724.264	127.66667
2726.516	131
2728.766	110
2731.015	117
2733.262	119.66667
2735.508	111
2737.753	127.33333
2739.996	99.33333
2742.237	109
2744.477	122.33333
2746.716	135.33333
2748.953	123.33333
2751.189	128.66667
2753.423	120.66667
2755.656	108
2757.887	102.66667
2760.117	110
2762.346	107
2764.573	98.66667
2766.798	107.33333
2769.022	112.33333
2771.245	107
2773.467	109.66667
2775.686	106.33333
2777.905	118.66667
2780.122	112
2782.337	118
2784.552	103.66667
2786.764	116.66667
2788.976	106.66667
2791.186	113.33333
2793.394	114.66667
2795.601	123.33333
2797.807	123.66667
2800.011	116.33333
2802.214	125
2804.415	116.66667
2806.615	116.66667
2808.814	124.33333
2811.011	127
2813.206	124.33333
2815.401	133
2817.594	127.66667
2819.785	135.33333
2821.975	120.33333
2824.164	126.66667
2826.351	121.33333
2828.537	138
2830.722	138.66667
2832.905	132
2835.086	142
2837.267	156.66667
2839.445	149.33333
2841.623	153.66667
2843.799	151.33333
2845.974	158
2848.147	156.33333
2850.319	167.66667
2852.489	180.66667
2854.659	179.33333
2856.826	174.66667
2858.993	191
2861.158	170.66667
2863.321	176.66667
2865.483	190.33333
2867.644	187.66667
2869.804	185.66667
2871.962	184
2874.118	184.66667
2876.274	190
2878.428	182.66667
2880.58	189.33333
2882.731	177.33333
2884.881	187.33333
2887.03	190
2889.177	187.66667
2891.322	192.33333
2893.467	185.33333
2895.61	177.33333
2897.751	198
2899.892	180.33333
2902.03	193.33333
2904.168	186
2906.304	187.33333
2908.439	207
2910.572	190.33333
2912.704	192
2914.835	200.33333
2916.965	191.66667
2919.093	213
2921.219	186
2923.345	208.33333
2925.469	200.33333
2927.591	189.66667
2929.712	179.33333
2931.832	191.66667
2933.951	182
2936.068	184
2938.184	175.66667
2940.299	171.33333
2942.412	171
2944.524	159.66667
2946.634	167
2948.744	148
2950.851	176.66667
2952.958	151.33333
2955.063	158.66667
2957.167	150.33333
2959.269	140
2961.371	166.33333
2963.471	139.33333
2965.569	162.33333
2967.666	139
2969.762	138
2971.857	134
2973.95	130.33333
2976.042	143
2978.133	131.33333
2980.222	126.66667
2982.31	123.33333
2984.396	109.33333
2986.482	117.66667
2988.566	118
2990.648	116.66667
2992.73	115
2994.81	108.66667
2996.889	122
2998.966	112
3001.042	125.66667
3003.117	110.66667
3005.191	112
3007.263	118.66667
3009.334	112
3011.403	109.33333
3013.472	108
3015.539	120
3017.604	132
3019.669	98.66667
3021.732	103.66667
3023.794	112.33333
3025.854	100
3027.914	96.66667
3029.971	101.33333
3032.028	102.66667
3034.083	113.33333
3036.137	107.66667
3038.19	91
3040.242	86.66667
3042.292	88
3044.341	92.66667
3046.388	111.66667
3048.435	88.33333
3050.48	99.66667
3052.524	93
3054.566	81
3056.607	91.66667
3058.647	91.33333
3060.686	78.66667
3062.723	72
3064.759	77
3066.794	1
3068.828	0.66667
3070.86	2.33333
