-0.839	125.83333
3.438	139.83333
7.711	56.5
11.981	38.83333
16.247	33.5
20.509	35.5
24.768	33.5
29.024	40.83333
33.276	30.5
37.524	41.83333
41.769	27.5
46.01	24.83333
50.247	45.16667
54.481	50.83333
58.712	56.5
62.939	33.83333
67.162	54.16667
71.382	46.16667
75.599	34.83333
79.812	40.83333
84.021	60.83333
88.227	41.16667
92.429	46.83333
96.628	35.16667
100.823	48.83333
105.015	48.83333
109.204	42.83333
113.388	52.16667
117.57	42.16667
121.748	57.83333
125.922	45.16667
130.093	62.5
134.261	61.16667
138.425	49.83333
142.585	79.16667
146.742	59.16667
150.896	68.83333
155.046	61.5
159.193	97.83333
163.336	130.83333
167.476	224.83333
171.613	395.83333
175.746	624.83333
179.875	927.5
184.002	1188.83333
188.124	1406.5
192.244	1462.16667
196.36	1460.83333
200.472	1448.16667
204.581	1427.16667
208.687	1371.5
212.79	1380.83333
216.889	1407.5
220.984	1397.16667
225.077	1415.83333
229.165	1400.16667
233.251	1396.83333
237.333	1398.16667
241.412	1379.5
245.487	1372.83333
249.559	1354.16667
253.628	1359.83333
257.694	1347.83333
261.756	1356.5
265.814	1301.5
269.87	1279.5
273.922	1224.83333
277.97	1229.16667
282.016	1223.16667
286.058	1223.5
290.097	1247.83333
294.132	1247.83333
298.164	1236.16667
302.193	1206.16667
306.219	1125.16667
310.241	1048.5
314.26	995.16667
318.276	936.83333
322.288	911.5
326.297	880.5
330.303	865.16667
334.305	853.5
338.305	834.83333
342.301	838.83333
346.294	830.16667
350.283	818.5
354.269	805.5
358.252	801.83333
362.232	812.16667
366.209	807.5
370.182	797.83333
374.152	786.5
378.119	794.5
382.083	786.83333
386.043	806.83333
390	793.83333
393.954	802.83333
397.905	808.83333
401.852	829.16667
405.797	792.83333
409.738	808.5
413.676	834.16667
417.61	868.83333
421.542	811.16667
425.47	779.16667
429.396	777.5
433.318	763.83333
437.236	764.5
441.152	792.5
445.065	746.16667
448.974	768.5
452.88	751.5
456.783	737.83333
460.683	745.5
464.58	742.83333
468.473	749.16667
472.364	760.5
476.251	752.83333
480.135	757.5
484.016	768.83333
487.894	777.83333
491.769	786.5
495.641	768.83333
499.509	789.5
503.375	781.5
507.237	794.16667
511.096	775.5
514.952	786.16667
518.805	785.16667
522.655	781.5
526.502	762.5
530.346	775.83333
534.187	772.16667
538.024	768.5
541.859	769.16667
545.69	780.83333
549.519	777.83333
553.344	773.83333
557.166	755.5
560.985	751.83333
564.802	757.83333
568.615	737.5
572.425	722.5
576.232	727.83333
580.036	733.83333
583.836	749.5
587.634	737.83333
591.429	733.83333
595.221	769.83333
599.01	754.83333
602.796	740.5
606.578	742.5
610.358	740.83333
614.135	735.16667
617.909	752.5
621.679	727.16667
625.447	732.83333
629.212	733.16667
632.973	738.83333
636.732	739.16667
640.488	742.83333
644.241	723.16667
647.991	715.5
651.737	751.83333
655.481	722.83333
659.222	721.16667
662.96	711.5
666.695	734.83333
670.427	727.83333
674.156	735.16667
677.882	741.83333
681.605	737.16667
685.325	720.5
689.043	743.83333
692.757	721.16667
696.468	720.16667
700.177	731.83333
703.882	716.16667
707.585	716.83333
711.284	708.83333
714.981	703.5
718.675	708.16667
722.366	732.16667
726.054	713.16667
729.739	702.83333
733.421	716.16667
737.1	702.5
740.777	712.16667
744.45	709.83333
748.121	717.5
751.789	738.16667
755.453	720.5
759.115	727.83333
762.774	729.83333
766.431	729.16667
770.084	736.83333
773.734	731.83333
777.382	754.16667
781.027	753.16667
784.669	750.5
788.308	732.83333
791.944	777.16667
795.577	772.16667
799.208	764.83333
802.835	757.83333
806.46	768.16667
810.082	770.16667
813.701	757.83333
817.317	776.16667
820.931	776.5
824.542	783.5
828.149	769.16667
831.754	752.83333
835.357	756.5
838.956	774.5
842.553	775.83333
846.146	763.83333
849.737	742.83333
853.326	753.83333
856.911	737.5
860.493	772.5
864.073	771.5
867.65	799.16667
871.225	802.5
874.796	783.16667
878.365	783.16667
881.931	788.5
885.494	818.5
889.054	811.5
892.612	822.16667
896.166	822.5
899.719	819.5
903.268	796.5
906.814	785.16667
910.358	757.83333
913.899	747.83333
917.438	736.83333
920.973	721.16667
924.506	736.5
928.036	741.5
931.564	757.83333
935.088	768.16667
938.61	758.16667
942.129	754.16667
945.646	769.5
949.16	771.5
952.671	775.83333
956.179	784.5
959.685	775.16667
963.188	782.83333
966.688	767.83333
970.185	740.16667
973.68	730.83333
977.173	732.83333
980.662	718.5
984.149	729.83333
987.633	708.83333
991.114	719.16667
994.593	731.16667
998.069	743.5
1001.542	772.16667
1005.013	770.5
1008.481	707.83333
1011.947	717.83333
1015.409	701.5
1018.869	696.5
1022.327	710.83333
1025.782	694.16667
1029.234	679.83333
1032.683	691.16667
1036.13	675.5
1039.574	647.83333
1043.016	637.5
1046.455	634.5
1049.891	613.16667
1053.325	624.5
1056.756	612.5
1060.184	620.83333
1063.61	607.5
1067.033	616.5
1070.454	623.83333
1073.872	639.16667
1077.287	616.83333
1080.7	622.16667
1084.11	618.16667
1087.517	617.5
1090.922	616.83333
1094.325	606.83333
1097.724	605.83333
1101.122	601.5
1104.516	611.16667
1107.908	585.5
1111.298	608.5
1114.684	621.16667
1118.069	607.83333
1121.45	630.5
1124.83	612.83333
1128.206	623.5
1131.58	633.83333
1134.951	646.83333
1138.32	657.83333
1141.687	676.83333
1145.05	686.83333
1148.412	688.5
1151.77	687.83333
1155.126	681.16667
1158.48	674.83333
1161.831	680.16667
1165.18	682.5
1168.525	687.83333
1171.869	697.83333
1175.21	691.16667
1178.548	715.16667
1181.884	714.83333
1185.217	714.5
1188.548	734.16667
1191.877	743.83333
1195.202	782.16667
1198.526	800.83333
1201.846	783.16667
1205.165	786.5
1208.48	791.16667
1211.794	797.83333
1215.104	790.16667
1218.413	787.83333
1221.719	794.5
1225.022	774.5
1228.323	757.5
1231.621	764.16667
1234.917	749.83333
1238.21	777.5
1241.501	757.5
1244.79	749.83333
1248.076	728.83333
1251.359	751.16667
1254.64	800.83333
1257.919	770.5
1261.195	778.5
1264.468	797.5
1267.74	803.5
1271.008	812.83333
1274.275	798.83333
1277.538	795.5
1280.8	783.83333
1284.059	789.83333
1287.315	806.5
1290.569	801.83333
1293.821	816.5
1297.07	825.16667
1300.317	817.16667
1303.562	819.5
1306.803	826.83333
1310.043	822.16667
1313.28	815.16667
1316.515	798.83333
1319.747	822.83333
1322.977	805.16667
1326.204	806.16667
1329.429	798.83333
1332.652	804.5
1335.872	812.16667
1339.09	777.5
1342.306	774.83333
1345.519	765.83333
1348.729	759.5
1351.938	743.16667
1355.144	740.83333
1358.347	740.5
1361.548	737.5
1364.747	737.83333
1367.944	713.83333
1371.138	731.5
1374.329	732.16667
1377.518	732.83333
1380.705	729.5
1383.89	733.83333
1387.072	718.16667
1390.252	711.83333
1393.429	689.5
1396.605	667.5
1399.777	653.5
1402.948	650.16667
1406.116	653.16667
1409.282	661.83333
1412.445	662.5
1415.606	661.83333
1418.765	665.5
1421.921	672.5
1425.075	663.16667
1428.227	686.83333
1431.376	703.83333
1434.524	721.16667
1437.668	733.83333
1440.811	745.16667
1443.951	756.16667
1447.089	745.5
1450.224	749.16667
1453.357	751.16667
1456.488	725.16667
1459.617	730.16667
1462.743	699.83333
1465.867	694.5
1468.989	688.5
1472.108	676.16667
1475.225	669.16667
1478.34	648.83333
1481.453	644.83333
1484.563	648.16667
1487.671	660.16667
1490.776	669.5
1493.88	678.83333
1496.981	696.5
1500.08	701.16667
1503.176	686.5
1506.271	702.16667
1509.363	725.83333
1512.452	719.5
1515.54	717.16667
1518.625	725.16667
1521.708	751.5
1524.789	760.16667
1527.867	777.83333
1530.944	832.5
1534.018	843.83333
1537.089	894.16667
1540.159	898.5
1543.226	900.5
1546.291	876.83333
1549.354	868.5
1552.415	861.16667
1555.473	834.83333
1558.529	824.5
1561.583	819.5
1564.634	800.16667
1567.684	813.5
1570.731	805.16667
1573.776	813.5
1576.819	814.16667
1579.859	835.83333
1582.898	835.5
1585.934	846.16667
1588.968	858.5
1591.999	841.16667
1595.029	833.16667
1598.056	862.16667
1601.081	863.83333
1604.104	854.16667
1607.125	845.5
1610.144	823.83333
1613.16	807.83333
1616.174	776.83333
1619.186	774.83333
1622.196	765.16667
1625.203	729.83333
1628.209	732.83333
1631.212	717.83333
1634.213	715.5
1637.212	722.16667
1640.209	706.16667
1643.203	680.5
1646.196	666.83333
1649.186	652.5
1652.174	650.5
1655.16	615.83333
1658.144	612.5
1661.125	590.83333
1664.105	576.16667
1667.082	542.5
1670.057	524.16667
1673.03	493.16667
1676.001	477.83333
1678.97	443.83333
1681.937	423.16667
1684.901	400.83333
1687.863	396.5
1690.824	373.5
1693.782	388.83333
1696.738	353.83333
1699.692	348.83333
1702.643	339.5
1705.593	343.83333
1708.54	336.83333
1711.486	349.83333
1714.429	326.16667
1717.37	337.16667
1720.309	319.5
1723.246	331.83333
1726.181	318.16667
1729.113	317.83333
1732.044	315.16667
1734.972	317.5
1737.899	322.5
1740.823	327.5
1743.745	346.5
1746.665	300.83333
1749.583	300.16667
1752.499	290.83333
1755.413	291.16667
1758.325	278.5
1761.235	294.16667
1764.142	275.83333
1767.048	282.5
1769.951	274.16667
1772.852	280.16667
1775.752	300.16667
1778.649	309.5
1781.544	308.16667
1784.437	270.5
1787.328	278.5
1790.217	272.16667
1793.104	264.16667
1795.989	257.16667
1798.872	250.5
1801.753	274.16667
1804.631	270.16667
1807.508	272.83333
1810.383	266.5
1813.255	264.16667
1816.126	257.83333
1818.994	255.16667
1821.861	254.5
1824.725	262.5
1827.587	266.83333
1830.448	258.83333
1833.306	246.83333
1836.162	265.83333
1839.017	255.83333
1841.869	257.5
1844.719	252.83333
1847.567	235.83333
1850.414	230.16667
1853.258	237.5
1856.1	249.5
1858.94	250.16667
1861.778	247.5
1864.614	236.16667
1867.448	246.16667
1870.28	230.83333
1873.111	258.16667
1875.939	239.83333
1878.765	259.83333
1881.589	239.5
1884.411	243.83333
1887.231	246.83333
1890.049	241.16667
1892.865	252.5
1895.68	237.83333
1898.492	242.5
1901.302	239.16667
1904.11	238.83333
1906.916	239.5
1909.721	227.5
1912.523	240.16667
1915.323	236.83333
1918.122	226.16667
1920.918	243.16667
1923.712	225.83333
1926.505	238.16667
1929.295	214.83333
1932.084	231.16667
1934.87	236.16667
1937.655	226.83333
1940.438	218.83333
1943.218	222.83333
1945.997	235.5
1948.774	227.5
1951.549	231.83333
1954.322	227.16667
1957.093	224.83333
1959.862	216.5
1962.629	222.16667
1965.394	218.16667
1968.157	206.5
1970.918	232.83333
1973.678	205.5
1976.435	221.16667
1979.19	211.5
1981.944	204.16667
1984.696	211.5
1987.445	203.83333
1990.193	210.16667
1992.939	226.16667
1995.683	217.16667
1998.425	198.83333
2001.165	233.16667
2003.903	194.16667
2006.639	211.5
2009.374	213.83333
2012.106	218.16667
2014.837	191.16667
2017.566	223.16667
2020.292	213.83333
2023.017	199.83333
2025.74	198.16667
2028.461	198.5
2031.18	209.16667
2033.898	195.16667
2036.613	209.16667
2039.327	204.5
2042.038	196.16667
2044.748	202.5
2047.456	205.5
2050.162	193.5
2052.866	198.83333
2055.568	207.83333
2058.268	192.83333
2060.967	212.5
2063.663	188.83333
2066.358	190.16667
2069.051	188.16667
2071.742	199.83333
2074.431	199.83333
2077.118	197.83333
2079.804	183.5
2082.487	191.5
2085.169	205.16667
2087.849	217.83333
2090.527	188.16667
2093.203	196.16667
2095.877	200.16667
2098.55	203.5
2101.22	202.5
2103.889	209.83333
2106.556	199.16667
2109.221	211.83333
2111.884	204.83333
2114.546	228.83333
2117.205	234.5
2119.863	268.16667
2122.519	255.5
2125.173	272.16667
2127.825	304.5
2130.475	307.16667
2133.124	284.83333
2135.771	263.83333
2138.416	278.16667
2141.059	256.16667
2143.7	252.5
2146.339	233.5
2148.977	204.83333
2151.613	218.16667
2154.247	218.83333
2156.879	204.5
2159.51	191.83333
2162.138	200.5
2164.765	194.16667
2167.39	179.83333
2170.013	204.5
2172.634	203.5
2175.254	187.83333
2177.872	223.83333
2180.488	185.16667
2183.102	187.83333
2185.714	185.5
2188.325	176.16667
2190.934	191.5
2193.541	186.83333
2196.146	183.16667
2198.75	172.5
2201.351	172.5
2203.951	161.83333
2206.549	179.83333
2209.146	170.83333
2211.74	162.16667
2214.333	179.5
2216.924	155.83333
2219.514	167.16667
2222.101	163.83333
2224.687	183.83333
2227.271	162.5
2229.853	167.16667
2232.433	146.83333
2235.012	167.5
2237.589	167.5
2240.164	180.16667
2242.738	154.83333
2245.309	154.16667
2247.879	175.83333
2250.448	170.83333
2253.014	153.83333
2255.579	149.16667
2258.142	156.83333
2260.703	153.5
2263.262	150.5
2265.82	143.5
2268.376	167.5
2270.93	154.83333
2273.483	146.16667
2276.033	156.83333
2278.583	147.16667
2281.13	143.83333
2283.675	137.16667
2286.219	146.5
2288.761	157.16667
2291.302	156.16667
2293.841	159.83333
2296.377	142.5
2298.913	155.83333
2301.446	161.5
2303.978	148.16667
2306.508	146.83333
2309.037	152.83333
2311.563	155.83333
2314.088	156.5
2316.612	129.5
2319.133	153.83333
2321.653	150.83333
2324.171	141.16667
2326.688	159.83333
2329.202	151.83333
2331.715	147.16667
2334.227	145.83333
2336.736	144.83333
2339.244	139.83333
2341.751	131.5
2344.255	151.5
2346.758	146.83333
2349.259	133.16667
2351.759	142.5
2354.257	130.16667
2356.753	132.16667
2359.247	139.5
2361.74	143.83333
2364.231	139.5
2366.721	144.5
2369.209	135.16667
2371.695	140.16667
2374.179	131.5
2376.662	127.5
2379.143	148.83333
2381.622	133.16667
2384.1	139.83333
2386.576	137.16667
2389.051	144.16667
2391.524	143.5
2393.995	142.83333
2396.464	137.16667
2398.932	132.5
2401.398	140.5
2403.863	124.16667
2406.325	134.16667
2408.787	136.16667
2411.246	131.5
2413.704	133.5
2416.16	131.16667
2418.615	131.83333
2421.068	136.5
2423.519	130.5
2425.969	118.83333
2428.417	132.5
2430.863	152.83333
2433.308	142.5
2435.751	134.83333
2438.193	133.16667
2440.633	134.16667
2443.071	138.5
2445.508	126.83333
2447.943	135.16667
2450.376	128.83333
2452.808	133.5
2455.238	123.16667
2457.667	156.5
2460.093	123.83333
2462.519	110.16667
2464.942	125.16667
2467.365	131.83333
2469.785	128.5
2472.204	120.83333
2474.621	125.16667
2477.037	145.83333
2479.451	117.16667
2481.863	116.5
2484.274	117.5
2486.683	121.83333
2489.091	138.83333
2491.497	126.16667
2493.901	126.83333
2496.304	123.16667
2498.705	133.83333
2501.105	127.83333
2503.503	139.83333
2505.899	119.5
2508.294	133.83333
2510.687	119.83333
2513.079	121.5
2515.469	113.83333
2517.858	124.83333
2520.245	134.5
2522.63	120.5
2525.014	120.5
2527.396	113.16667
2529.776	118.83333
2532.156	124.83333
2534.533	112.5
2536.909	111.16667
2539.283	107.5
2541.656	118.5
2544.027	132.5
2546.397	123.83333
2548.765	118.83333
2551.131	127.16667
2553.496	124.16667
2555.86	123.5
2558.221	128.83333
2560.582	117.83333
2562.94	110.5
2565.298	122.16667
2567.653	130.16667
2570.007	103.16667
2572.36	127.16667
2574.711	113.16667
2577.06	129.16667
2579.408	118.16667
2581.754	117.16667
2584.099	118.83333
2586.442	116.16667
2588.784	122.5
2591.124	117.5
2593.463	109.83333
2595.8	123.16667
2598.135	101.83333
2600.469	111.16667
2602.802	122.83333
2605.133	125.16667
2607.462	108.5
2609.79	106.5
2612.116	121.83333
2614.441	113.83333
2616.764	121.16667
2619.086	117.83333
2621.406	114.16667
2623.725	122.5
2626.042	113.5
2628.358	109.83333
2630.672	114.83333
2632.985	121.83333
2635.296	116.83333
2637.606	120.5
2639.914	108.83333
2642.22	111.5
2644.525	115.83333
2646.829	113.16667
2649.131	130.83333
2651.432	122.5
2653.731	112.16667
2656.028	122.5
2658.324	121.83333
2660.619	103.16667
2662.912	122.5
2665.204	103.5
2667.494	122.5
2669.782	104.83333
2672.07	131.16667
2674.355	124.5
2676.639	121.5
2678.922	111.16667
2681.203	123.83333
2683.483	112.5
2685.761	104.5
2688.038	122.83333
2690.313	126.16667
2692.587	118.16667
2694.859	114.16667
2697.13	109.83333
2699.399	116.83333
2701.667	119.16667
2703.933	124.16667
2706.198	129.16667
2708.461	127.83333
2710.723	124.5
2712.984	122.5
2715.243	126.5
2717.5	115.16667
2719.757	125.83333
2722.011	119.16667
2724.264	129.83333
2726.516	136.16667
2728.766	114.83333
2731.015	123.83333
2733.262	123.5
2735.508	117.16667
2737.753	123.83333
2739.996	113.5
2742.237	112.83333
2744.477	124.83333
2746.716	128.83333
2748.953	131.5
2751.189	129.83333
2753.423	124.83333
2755.656	117.83333
2757.887	114.83333
2760.117	116.83333
2762.346	111.5
2764.573	103.5
2766.798	113.16667
2769.022	115.83333
2771.245	108.83333
2773.467	116.16667
2775.686	108.5
2777.905	118.16667
2780.122	116.5
2782.337	120.5
2784.552	112.5
2786.764	114.83333
2788.976	111.5
2791.186	117.83333
2793.394	118.5
2795.601	119.83333
2797.807	123.16667
2800.011	121.5
2802.214	128.16667
2804.415	124.5
2806.615	119.5
2808.814	127.83333
2811.011	128.16667
2813.206	125.16667
2815.401	138.83333
2817.594	138.83333
2819.785	143.83333
2821.975	124.5
2824.164	131.5
2826.351	128.83333
2828.537	143.5
2830.722	145.5
2832.905	140.16667
2835.086	141.5
2837.267	161.16667
2839.445	156.83333
2841.623	154.16667
2843.799	154.5
2845.974	162.16667
2848.147	164.16667
2850.319	175.16667
2852.489	172.83333
2854.659	181.5
2856.826	180.83333
2858.993	202.5
2861.158	173.5
2863.321	184.16667
2865.483	196.16667
2867.644	200.83333
2869.804	190.83333
2871.962	187.16667
2874.118	192.16667
2876.274	204.83333
2878.428	204.16667
2880.58	202.83333
2882.731	181.83333
2884.881	197.16667
2887.03	204.16667
2889.177	195.5
2891.322	200.5
2893.467	190.5
2895.61	184.5
2897.751	208.83333
2899.892	189.16667
2902.03	190.16667
2904.168	189.5
2906.304	191.83333
2908.439	215.5
2910.572	189.5
2912.704	195.5
2914.835	200.83333
2916.965	200.16667
2919.093	217.83333
2921.219	192.16667
2923.345	214.83333
2925.469	193.16667
2927.591	191.5
2929.712	183.5
2931.832	196.83333
2933.951	191.83333
2936.068	184.16667
2938.184	184.83333
2940.299	179.16667
2942.412	174.5
2944.524	159.83333
2946.634	166.16667
2948.744	146.83333
2950.851	181.83333
2952.958	145.83333
2955.063	160.83333
2957.167	152.5
2959.269	141.16667
2961.371	174.5
2963.471	140.5
2965.569	162.5
2967.666	138.16667
2969.762	138.5
2971.857	130.83333
2973.95	135.5
2976.042	138.83333
2978.133	133.16667
2980.222	124.16667
2982.31	119.5
2984.396	105.83333
2986.482	109.5
2988.566	117.16667
2990.648	117.16667
2992.73	116.5
2994.81	101.16667
2996.889	116.16667
2998.966	108.16667
3001.042	117.83333
3003.117	108.83333
3005.191	111.5
3007.263	116.16667
3009.334	107.5
3011.403	112.16667
3013.472	101.83333
3015.539	118.83333
3017.604	129.16667
3019.669	98.83333
3021.732	102.83333
3023.794	106.16667
3025.854	97.83333
3027.914	98.83333
3029.971	92.83333
3032.028	101.83333
3034.083	109.16667
3036.137	104.5
3038.19	91.5
3040.242	85.83333
3042.292	83.83333
3044.341	91.5
3046.388	101.83333
3048.435	85.16667
3050.48	102.16667
3052.524	92.83333
3054.566	79.16667
3056.607	90.83333
3058.647	87.5
3060.686	76.83333
3062.723	73.16667
3064.759	77.5
3066.794	1.16667
3068.828	0.5
3070.86	4.16667
