-0.839	523.04167
3.438	636.04167
7.711	190.375
11.981	62.375
16.247	48.04167
20.509	51.375
24.768	46.04167
29.024	56.04167
33.276	50.70833
37.524	50.375
41.769	49.375
46.01	39.70833
50.247	49.70833
54.481	60.70833
58.712	62.70833
62.939	48.375
67.162	71.70833
71.382	59.04167
75.599	48.70833
79.812	65.04167
84.021	81.375
88.227	64.70833
92.429	65.04167
96.628	60.70833
100.823	75.70833
105.015	76.375
109.204	72.375
113.388	78.70833
117.57	80.70833
121.748	91.70833
125.922	86.375
130.093	105.375
134.261	108.375
138.425	101.04167
142.585	145.04167
146.742	140.70833
150.896	172.375
155.046	221.375
159.193	344.70833
163.336	581.04167
167.476	1052.375
171.613	1947.04167
175.746	3227.375
179.875	4791.375
184.002	6245.375
188.124	7224.375
192.244	7625.375
196.36	7499.70833
200.472	7289.70833
204.581	7086.04167
208.687	6908.70833
212.79	6727.375
216.889	6754.04167
220.984	6746.04167
225.077	6725.375
229.165	6750.04167
233.251	6737.70833
237.333	6676.375
241.412	6618.70833
245.487	6540.70833
249.559	6493.70833
253.628	6443.375
257.694	6405.04167
261.756	6334.70833
265.814	6195.70833
269.87	6026.04167
273.922	5827.375
277.97	5737.04167
282.016	5661.70833
286.058	5675.375
290.097	5827.70833
294.132	5908.70833
298.164	5853.04167
302.193	5580.375
306.219	5181.04167
310.241	4770.70833
314.26	4389.70833
318.276	4054.04167
322.288	3824.375
326.297	3666.04167
330.303	3534.70833
334.305	3450.375
338.305	3405.04167
342.301	3342.04167
346.294	3286.04167
350.283	3272.04167
354.269	3252.375
358.252	3218.375
362.232	3188.70833
366.209	3152.375
370.182	3135.70833
374.152	3106.70833
378.119	3145.70833
382.083	3137.70833
386.043	3147.04167
390	3104.375
393.954	3101.04167
397.905	3078.70833
401.852	3080.04167
405.797	3005.70833
409.738	3005.04167
413.676	3008.375
417.61	2983.70833
421.542	2973.70833
425.47	2931.375
429.396	2930.04167
433.318	2900.375
437.236	2902.04167
441.152	2918.04167
445.065	2849.70833
448.974	2867.375
452.88	2810.04167
456.783	2796.70833
460.683	2819.04167
464.58	2788.04167
468.473	2822.70833
472.364	2794.04167
476.251	2824.375
480.135	2837.70833
484.016	2872.375
487.894	2897.375
491.769	2908.70833
495.641	2948.375
499.509	2959.04167
503.375	2974.70833
507.237	2965.70833
511.096	2944.70833
514.952	2938.375
518.805	2957.375
522.655	2956.04167
526.502	2919.70833
530.346	2922.04167
534.187	2936.375
538.024	2923.04167
541.859	2963.04167
545.69	2967.375
549.519	2947.04167
553.344	2948.375
557.166	2864.375
560.985	2843.04167
564.802	2777.70833
568.615	2732.70833
572.425	2693.04167
576.232	2685.04167
580.036	2682.375
583.836	2691.375
587.634	2701.04167
591.429	2721.70833
595.221	2793.375
599.01	2812.04167
602.796	2833.375
606.578	2836.375
610.358	2841.04167
614.135	2811.70833
617.909	2776.70833
621.679	2760.70833
625.447	2759.04167
629.212	2745.04167
632.973	2751.70833
636.732	2747.04167
640.488	2750.04167
644.241	2711.04167
647.991	2714.70833
651.737	2732.70833
655.481	2692.70833
659.222	2711.375
662.96	2704.70833
666.695	2712.375
670.427	2745.70833
674.156	2775.04167
677.882	2773.375
681.605	2717.375
685.325	2696.375
689.043	2695.70833
692.757	2676.375
696.468	2671.70833
700.177	2678.375
703.882	2671.375
707.585	2612.70833
711.284	2633.70833
714.981	2627.04167
718.675	2649.375
722.366	2651.04167
726.054	2634.04167
729.739	2621.70833
733.421	2647.70833
737.1	2623.375
740.777	2674.70833
744.45	2660.70833
748.121	2701.04167
751.789	2760.70833
755.453	2732.04167
759.115	2751.04167
762.774	2796.04167
766.431	2793.70833
770.084	2845.70833
773.734	2842.70833
777.382	2896.375
781.027	2937.70833
784.669	2948.04167
788.308	2938.70833
791.944	2980.70833
795.577	2993.375
799.208	2995.375
802.835	3028.70833
806.46	3025.375
810.082	3026.375
813.701	3000.375
817.317	3033.375
820.931	3050.70833
824.542	3059.375
828.149	3028.70833
831.754	3018.04167
835.357	3003.70833
838.956	3020.375
842.553	3044.04167
846.146	3005.70833
849.737	2997.04167
853.326	3018.70833
856.911	2994.04167
860.493	3067.70833
864.073	3106.04167
867.65	3133.04167
871.225	3153.70833
874.796	3177.04167
878.365	3196.04167
881.931	3232.375
885.494	3282.375
889.054	3328.04167
892.612	3420.375
896.166	3434.04167
899.719	3423.04167
903.268	3352.375
906.814	3273.375
910.358	3166.04167
913.899	3106.375
917.438	3101.04167
920.973	3076.375
924.506	3103.375
928.036	3156.04167
931.564	3192.375
935.088	3224.375
938.61	3226.375
942.129	3295.375
945.646	3374.04167
949.16	3425.04167
952.671	3466.04167
956.179	3457.375
959.685	3399.70833
963.188	3379.04167
966.688	3306.70833
970.185	3212.375
973.68	3199.70833
977.173	3132.70833
980.662	3048.70833
984.149	3072.375
987.633	3047.375
991.114	3098.04167
994.593	3158.375
998.069	3232.04167
1001.542	3334.70833
1005.013	3267.04167
1008.481	3112.04167
1011.947	3099.70833
1015.409	3071.04167
1018.869	3076.70833
1022.327	3079.70833
1025.782	3048.70833
1029.234	3051.375
1032.683	2991.70833
1036.13	2908.04167
1039.574	2812.70833
1043.016	2740.70833
1046.455	2658.04167
1049.891	2630.70833
1053.325	2660.04167
1056.756	2646.70833
1060.184	2654.70833
1063.61	2686.375
1067.033	2684.04167
1070.454	2680.375
1073.872	2717.04167
1077.287	2709.375
1080.7	2713.70833
1084.11	2700.375
1087.517	2691.70833
1090.922	2653.375
1094.325	2649.375
1097.724	2635.04167
1101.122	2645.04167
1104.516	2650.375
1107.908	2634.70833
1111.298	2687.70833
1114.684	2717.04167
1118.069	2769.70833
1121.45	2800.04167
1124.83	2799.375
1128.206	2847.04167
1131.58	2898.04167
1134.951	2964.04167
1138.32	3081.375
1141.687	3191.04167
1145.05	3272.375
1148.412	3242.04167
1151.77	3275.04167
1155.126	3245.375
1158.48	3254.70833
1161.831	3283.375
1165.18	3287.70833
1168.525	3343.375
1171.869	3377.04167
1175.21	3381.70833
1178.548	3411.70833
1181.884	3474.70833
1185.217	3512.04167
1188.548	3555.04167
1191.877	3624.375
1195.202	3724.70833
1198.526	3789.04167
1201.846	3813.04167
1205.165	3790.375
1208.48	3754.375
1211.794	3729.375
1215.104	3698.70833
1218.413	3710.70833
1221.719	3725.70833
1225.022	3664.70833
1228.323	3587.70833
1231.621	3553.04167
1234.917	3535.04167
1238.21	3552.375
1241.501	3534.04167
1244.79	3520.375
1248.076	3531.70833
1251.359	3561.375
1254.64	3633.04167
1257.919	3667.375
1261.195	3725.04167
1264.468	3794.04167
1267.74	3830.375
1271.008	3857.70833
1274.275	3843.375
1277.538	3829.70833
1280.8	3811.70833
1284.059	3789.70833
1287.315	3837.375
1290.569	3875.04167
1293.821	3886.04167
1297.07	3915.70833
1300.317	3935.04167
1303.562	3932.70833
1306.803	3888.04167
1310.043	3896.375
1313.28	3865.375
1316.515	3862.04167
1319.747	3844.04167
1322.977	3811.70833
1326.204	3768.70833
1329.429	3758.70833
1332.652	3739.70833
1335.872	3684.375
1339.09	3625.04167
1342.306	3587.04167
1345.519	3502.70833
1348.729	3444.04167
1351.938	3378.04167
1355.144	3344.375
1358.347	3279.375
1361.548	3282.70833
1364.747	3293.70833
1367.944	3248.70833
1371.138	3274.04167
1374.329	3329.375
1377.518	3343.04167
1380.705	3388.70833
1383.89	3349.70833
1387.072	3242.375
1390.252	3147.375
1393.429	3019.70833
1396.605	2960.04167
1399.777	2893.04167
1402.948	2910.04167
1406.116	2881.04167
1409.282	2908.375
1412.445	2912.375
1415.606	2927.375
1418.765	2969.375
1421.921	3001.70833
1425.075	3036.70833
1428.227	3122.70833
1431.376	3216.04167
1434.524	3338.70833
1437.668	3416.04167
1440.811	3447.375
1443.951	3489.04167
1447.089	3521.70833
1450.224	3520.04167
1453.357	3442.375
1456.488	3422.70833
1459.617	3370.375
1462.743	3323.375
1465.867	3255.70833
1468.989	3215.375
1472.108	3162.375
1475.225	3117.70833
1478.34	3061.04167
1481.453	3056.70833
1484.563	3073.04167
1487.671	3134.70833
1490.776	3200.375
1493.88	3237.375
1496.981	3292.375
1500.08	3366.04167
1503.176	3427.375
1506.271	3463.375
1509.363	3512.04167
1512.452	3540.04167
1515.54	3600.375
1518.625	3636.375
1521.708	3735.70833
1524.789	3824.375
1527.867	3968.70833
1530.944	4144.70833
1534.018	4337.70833
1537.089	4453.04167
1540.159	4531.375
1543.226	4529.70833
1546.291	4446.375
1549.354	4331.04167
1552.415	4242.04167
1555.473	4179.70833
1558.529	4109.04167
1561.583	4106.70833
1564.634	4060.375
1567.684	4095.70833
1570.731	4103.375
1573.776	4144.04167
1576.819	4217.04167
1579.859	4243.375
1582.898	4312.04167
1585.934	4330.04167
1588.968	4370.70833
1591.999	4377.70833
1595.029	4371.375
1598.056	4400.375
1601.081	4415.70833
1604.104	4396.04167
1607.125	4348.70833
1610.144	4218.04167
1613.16	4138.04167
1616.174	4049.375
1619.186	3916.04167
1622.196	3801.70833
1625.203	3672.04167
1628.209	3617.04167
1631.212	3527.375
1634.213	3468.70833
1637.212	3427.375
1640.209	3346.375
1643.203	3230.04167
1646.196	3152.70833
1649.186	3014.70833
1652.174	2919.375
1655.16	2809.70833
1658.144	2713.70833
1661.125	2581.70833
1664.105	2496.70833
1667.082	2391.04167
1670.057	2281.04167
1673.03	2144.04167
1676.001	1986.70833
1678.97	1881.04167
1681.937	1768.70833
1684.901	1674.04167
1687.863	1617.04167
1690.824	1539.375
1693.782	1496.04167
1696.738	1437.04167
1699.692	1403.70833
1702.643	1381.04167
1705.593	1358.04167
1708.54	1343.375
1711.486	1349.70833
1714.429	1291.375
1717.37	1282.04167
1720.309	1252.70833
1723.246	1266.04167
1726.181	1234.70833
1729.113	1229.375
1732.044	1222.70833
1734.972	1195.70833
1737.899	1205.70833
1740.823	1191.70833
1743.745	1156.04167
1746.665	1143.375
1749.583	1106.70833
1752.499	1102.375
1755.413	1097.04167
1758.325	1068.375
1761.235	1073.04167
1764.142	1045.70833
1767.048	1024.70833
1769.951	1032.70833
1772.852	1025.70833
1775.752	1016.04167
1778.649	1000.70833
1781.544	1009.04167
1784.437	974.04167
1787.328	988.04167
1790.217	980.70833
1793.104	975.375
1795.989	969.70833
1798.872	958.375
1801.753	962.04167
1804.631	944.375
1807.508	953.375
1810.383	956.04167
1813.255	942.375
1816.126	947.375
1818.994	945.04167
1821.861	934.70833
1824.725	925.70833
1827.587	928.70833
1830.448	919.375
1833.306	899.375
1836.162	910.70833
1839.017	892.04167
1841.869	892.70833
1844.719	888.04167
1847.567	881.04167
1850.414	876.375
1853.258	867.70833
1856.1	886.375
1858.94	885.70833
1861.778	874.04167
1864.614	859.375
1867.448	862.375
1870.28	867.70833
1873.111	871.70833
1875.939	873.70833
1878.765	889.70833
1881.589	857.70833
1884.411	867.04167
1887.231	867.375
1890.049	854.70833
1892.865	857.375
1895.68	842.70833
1898.492	848.04167
1901.302	832.375
1904.11	843.375
1906.916	831.70833
1909.721	822.375
1912.523	827.70833
1915.323	808.375
1918.122	814.04167
1920.918	823.375
1923.712	811.04167
1926.505	804.04167
1929.295	800.375
1932.084	817.04167
1934.87	805.70833
1937.655	795.375
1940.438	792.04167
1943.218	799.04167
1945.997	808.04167
1948.774	814.375
1951.549	803.04167
1954.322	798.04167
1957.093	795.375
1959.862	783.375
1962.629	773.04167
1965.394	778.70833
1968.157	766.04167
1970.918	775.375
1973.678	769.375
1976.435	769.375
1979.19	755.70833
1981.944	752.375
1984.696	765.04167
1987.445	734.375
1990.193	741.375
1992.939	761.04167
1995.683	750.04167
1998.425	730.70833
2001.165	764.375
2003.903	742.04167
2006.639	740.375
2009.374	746.375
2012.106	743.375
2014.837	723.70833
2017.566	726.375
2020.292	733.375
2023.017	737.375
2025.74	731.04167
2028.461	717.04167
2031.18	727.70833
2033.898	707.70833
2036.613	724.70833
2039.327	721.70833
2042.038	701.375
2044.748	703.70833
2047.456	707.70833
2050.162	697.375
2052.866	702.04167
2055.568	706.04167
2058.268	703.04167
2060.967	703.70833
2063.663	683.04167
2066.358	687.70833
2069.051	691.375
2071.742	696.04167
2074.431	698.04167
2077.118	694.375
2079.804	678.04167
2082.487	686.375
2085.169	704.04167
2087.849	709.375
2090.527	685.70833
2093.203	688.375
2095.877	705.70833
2098.55	695.70833
2101.22	713.375
2103.889	723.04167
2106.556	704.375
2109.221	734.70833
2111.884	743.04167
2114.546	803.375
2117.205	863.375
2119.863	929.375
2122.519	988.70833
2125.173	1056.375
2127.825	1106.375
2130.475	1100.375
2133.124	1075.70833
2135.771	1020.375
2138.416	979.70833
2141.059	903.375
2143.7	857.04167
2146.339	819.375
2148.977	756.375
2151.613	749.70833
2154.247	727.04167
2156.879	711.375
2159.51	700.70833
2162.138	686.375
2164.765	679.70833
2167.39	674.70833
2170.013	679.375
2172.634	670.375
2175.254	661.04167
2177.872	687.70833
2180.488	640.04167
2183.102	658.70833
2185.714	635.70833
2188.325	612.70833
2190.934	629.04167
2193.541	629.04167
2196.146	621.04167
2198.75	615.375
2201.351	618.375
2203.951	599.70833
2206.549	620.70833
2209.146	607.375
2211.74	606.375
2214.333	598.375
2216.924	594.04167
2219.514	587.04167
2222.101	581.04167
2224.687	609.375
2227.271	586.70833
2229.853	572.70833
2232.433	557.375
2235.012	583.375
2237.589	576.70833
2240.164	590.04167
2242.738	568.375
2245.309	564.375
2247.879	562.70833
2250.448	567.70833
2253.014	538.70833
2255.579	528.375
2258.142	545.70833
2260.703	528.375
2263.262	537.375
2265.82	524.375
2268.376	533.70833
2270.93	517.04167
2273.483	513.70833
2276.033	524.375
2278.583	524.375
2281.13	507.375
2283.675	502.375
2286.219	501.04167
2288.761	506.375
2291.302	513.375
2293.841	519.04167
2296.377	491.375
2298.913	502.375
2301.446	515.04167
2303.978	501.375
2306.508	483.70833
2309.037	492.375
2311.563	497.70833
2314.088	503.375
2316.612	474.04167
2319.133	494.70833
2321.653	489.04167
2324.171	476.04167
2326.688	496.70833
2329.202	478.04167
2331.715	476.375
2334.227	473.04167
2336.736	480.375
2339.244	467.04167
2341.751	462.04167
2344.255	475.375
2346.758	472.70833
2349.259	461.375
2351.759	465.04167
2354.257	459.04167
2356.753	450.70833
2359.247	458.70833
2361.74	468.375
2364.231	465.04167
2366.721	464.04167
2369.209	445.375
2371.695	451.04167
2374.179	450.70833
2376.662	443.04167
2379.143	459.375
2381.622	443.70833
2384.1	449.04167
2386.576	450.375
2389.051	456.04167
2391.524	459.70833
2393.995	450.04167
2396.464	439.375
2398.932	440.70833
2401.398	433.70833
2403.863	429.04167
2406.325	432.04167
2408.787	438.04167
2411.246	436.70833
2413.704	426.375
2416.16	431.04167
2418.615	426.04167
2421.068	440.04167
2423.519	438.70833
2425.969	425.70833
2428.417	432.70833
2430.863	448.70833
2433.308	433.375
2435.751	425.70833
2438.193	426.70833
2440.633	429.04167
2443.071	427.375
2445.508	427.70833
2447.943	423.04167
2450.376	412.04167
2452.808	409.70833
2455.238	410.04167
2457.667	448.04167
2460.093	418.04167
2462.519	405.375
2464.942	411.70833
2467.365	420.70833
2469.785	416.375
2472.204	410.70833
2474.621	394.375
2477.037	427.70833
2479.451	394.70833
2481.863	399.70833
2484.274	400.04167
2486.683	403.70833
2489.091	411.375
2491.497	406.04167
2493.901	398.375
2496.304	397.70833
2498.705	412.375
2501.105	399.375
2503.503	428.04167
2505.899	383.70833
2508.294	413.04167
2510.687	390.70833
2513.079	394.70833
2515.469	383.04167
2517.858	391.04167
2520.245	395.70833
2522.63	385.70833
2525.014	381.04167
2527.396	379.375
2529.776	369.70833
2532.156	399.04167
2534.533	377.375
2536.909	380.04167
2539.283	356.04167
2541.656	379.70833
2544.027	400.70833
2546.397	386.04167
2548.765	369.375
2551.131	385.04167
2553.496	377.04167
2555.86	384.375
2558.221	374.70833
2560.582	368.375
2562.94	373.70833
2565.298	377.04167
2567.653	395.375
2570.007	355.375
2572.36	385.04167
2574.711	360.04167
2577.06	380.70833
2579.408	368.375
2581.754	368.04167
2584.099	378.375
2586.442	366.375
2588.784	369.375
2591.124	367.375
2593.463	361.375
2595.8	377.04167
2598.135	359.70833
2600.469	361.04167
2602.802	379.04167
2605.133	375.70833
2607.462	356.70833
2609.79	357.70833
2612.116	376.04167
2614.441	366.70833
2616.764	365.04167
2619.086	355.375
2621.406	350.70833
2623.725	376.70833
2626.042	372.04167
2628.358	362.04167
2630.672	351.375
2632.985	375.70833
2635.296	366.70833
2637.606	361.70833
2639.914	349.70833
2642.22	356.375
2644.525	358.375
2646.829	367.04167
2649.131	374.04167
2651.432	369.70833
2653.731	360.375
2656.028	370.04167
2658.324	381.375
2660.619	362.04167
2662.912	375.375
2665.204	352.04167
2667.494	379.70833
2669.782	360.70833
2672.07	377.70833
2674.355	366.04167
2676.639	363.70833
2678.922	351.70833
2681.203	367.375
2683.483	363.04167
2685.761	362.70833
2688.038	365.70833
2690.313	383.04167
2692.587	371.375
2694.859	365.70833
2697.13	376.04167
2699.399	382.70833
2701.667	387.70833
2703.933	385.375
2706.198	378.70833
2708.461	391.70833
2710.723	392.375
2712.984	391.70833
2715.243	397.70833
2717.5	383.70833
2719.757	397.375
2722.011	390.04167
2724.264	394.375
2726.516	412.375
2728.766	395.375
2731.015	401.04167
2733.262	393.70833
2735.508	395.70833
2737.753	389.375
2739.996	379.375
2742.237	376.70833
2744.477	390.70833
2746.716	389.375
2748.953	386.04167
2751.189	392.70833
2753.423	379.04167
2755.656	377.70833
2757.887	370.375
2760.117	365.70833
2762.346	369.70833
2764.573	363.70833
2766.798	368.375
2769.022	364.04167
2771.245	380.04167
2773.467	379.70833
2775.686	374.04167
2777.905	374.04167
2780.122	385.70833
2782.337	385.70833
2784.552	385.04167
2786.764	381.04167
2788.976	389.375
2791.186	391.04167
2793.394	406.375
2795.601	393.70833
2797.807	415.04167
2800.011	413.70833
2802.214	417.375
2804.415	420.375
2806.615	423.375
2808.814	430.04167
2811.011	444.70833
2813.206	434.70833
2815.401	455.70833
2817.594	456.375
2819.785	470.70833
2821.975	467.70833
2824.164	468.375
2826.351	492.04167
2828.537	494.70833
2830.722	506.375
2832.905	511.375
2835.086	541.375
2837.267	571.70833
2839.445	581.04167
2841.623	605.04167
2843.799	632.70833
2845.974	661.375
2848.147	688.70833
2850.319	719.375
2852.489	750.04167
2854.659	751.04167
2856.826	769.375
2858.993	791.04167
2861.158	785.375
2863.321	775.04167
2865.483	788.04167
2867.644	797.70833
2869.804	812.375
2871.962	789.70833
2874.118	803.04167
2876.274	791.04167
2878.428	787.375
2880.58	796.375
2882.731	782.70833
2884.881	793.375
2887.03	802.375
2889.177	791.375
2891.322	803.04167
2893.467	804.70833
2895.61	797.70833
2897.751	823.375
2899.892	815.70833
2902.03	832.04167
2904.168	828.375
2906.304	818.70833
2908.439	845.04167
2910.572	837.04167
2912.704	848.04167
2914.835	854.04167
2916.965	850.375
2919.093	876.04167
2921.219	837.70833
2923.345	851.70833
2925.469	825.375
2927.591	836.04167
2929.712	806.70833
2931.832	809.70833
2933.951	785.375
2936.068	771.70833
2938.184	751.04167
2940.299	731.04167
2942.412	715.70833
2944.524	668.70833
2946.634	663.375
2948.744	617.375
2950.851	634.70833
2952.958	602.04167
2955.063	598.70833
2957.167	582.04167
2959.269	559.04167
2961.371	579.375
2963.471	547.375
2965.569	553.70833
2967.666	522.375
2969.762	515.04167
2971.857	515.04167
2973.95	496.375
2976.042	481.375
2978.133	487.375
2980.222	455.375
2982.31	439.375
2984.396	427.70833
2986.482	419.375
2988.566	402.70833
2990.648	405.375
2992.73	394.04167
2994.81	378.04167
2996.889	380.70833
2998.966	379.70833
3001.042	384.04167
3003.117	374.04167
3005.191	365.04167
3007.263	372.375
3009.334	347.04167
3011.403	363.70833
3013.472	351.70833
3015.539	353.04167
3017.604	362.375
3019.669	315.04167
3021.732	326.375
3023.794	322.70833
3025.854	313.375
3027.914	314.70833
3029.971	322.70833
3032.028	305.375
3034.083	307.70833
3036.137	311.04167
3038.19	299.70833
3040.242	286.375
3042.292	280.70833
3044.341	275.70833
3046.388	299.70833
3048.435	267.04167
3050.48	290.04167
3052.524	278.04167
3054.566	260.70833
3056.607	277.70833
3058.647	265.375
3060.686	254.375
3062.723	242.70833
3064.759	227.04167
3066.794	-0.95833
3068.828	3.375
3070.86	1.375
