-0.839	499.45833
3.438	591.45833
7.711	175.125
11.981	62.79167
16.247	44.45833
20.509	48.45833
24.768	46.79167
29.024	53.79167
33.276	44.45833
37.524	46.45833
41.769	45.79167
46.01	36.125
50.247	45.79167
54.481	61.79167
58.712	62.79167
62.939	48.125
67.162	62.125
71.382	53.125
75.599	44.45833
79.812	64.79167
84.021	79.45833
88.227	59.79167
92.429	59.125
96.628	55.125
100.823	75.125
105.015	78.125
109.204	66.125
113.388	76.125
117.57	75.79167
121.748	89.45833
125.922	79.45833
130.093	97.125
134.261	96.45833
138.425	96.79167
142.585	139.45833
146.742	126.125
150.896	161.125
155.046	207.125
159.193	315.125
163.336	548.79167
167.476	1003.45833
171.613	1832.79167
175.746	3002.125
179.875	4441.79167
184.002	5760.45833
188.124	6637.125
192.244	6952.125
196.36	6858.45833
200.472	6562.79167
204.581	6391.79167
208.687	6141.125
212.79	6081.79167
216.889	6021.45833
220.984	5945.125
225.077	5955.125
229.165	5919.45833
233.251	5914.45833
237.333	5877.125
241.412	5798.79167
245.487	5727.45833
249.559	5652.79167
253.628	5632.125
257.694	5560.79167
261.756	5490.45833
265.814	5404.79167
269.87	5240.125
273.922	5069.45833
277.97	4987.45833
282.016	4958.125
286.058	4984.79167
290.097	5088.125
294.132	5208.125
298.164	5181.45833
302.193	4954.45833
306.219	4607.45833
310.241	4225.79167
314.26	3849.125
318.276	3604.79167
322.288	3424.79167
326.297	3249.79167
330.303	3164.45833
334.305	3072.79167
338.305	3034.125
342.301	2971.125
346.294	2931.79167
350.283	2910.79167
354.269	2886.79167
358.252	2864.45833
362.232	2861.45833
366.209	2843.79167
370.182	2805.125
374.152	2792.45833
378.119	2813.79167
382.083	2806.79167
386.043	2815.125
390	2769.125
393.954	2797.45833
397.905	2774.125
401.852	2759.125
405.797	2733.45833
409.738	2712.125
413.676	2746.125
417.61	2713.79167
421.542	2700.79167
425.47	2683.45833
429.396	2643.125
433.318	2615.45833
437.236	2637.45833
441.152	2663.45833
445.065	2610.79167
448.974	2602.79167
452.88	2556.125
456.783	2542.45833
460.683	2514.45833
464.58	2529.125
468.473	2523.79167
472.364	2563.125
476.251	2577.125
480.135	2597.79167
484.016	2648.79167
487.894	2647.79167
491.769	2683.79167
495.641	2721.45833
499.509	2719.125
503.375	2719.125
507.237	2718.125
511.096	2676.79167
514.952	2671.79167
518.805	2724.125
522.655	2713.125
526.502	2668.45833
530.346	2640.125
534.187	2653.79167
538.024	2680.45833
541.859	2688.125
545.69	2709.45833
549.519	2678.45833
553.344	2654.79167
557.166	2624.79167
560.985	2570.125
564.802	2545.125
568.615	2499.79167
572.425	2454.45833
576.232	2443.45833
580.036	2448.45833
583.836	2463.45833
587.634	2465.79167
591.429	2489.125
595.221	2525.45833
599.01	2550.125
602.796	2578.125
606.578	2586.79167
610.358	2558.45833
614.135	2570.45833
617.909	2532.125
621.679	2516.45833
625.447	2501.45833
629.212	2480.79167
632.973	2508.45833
636.732	2488.79167
640.488	2504.125
644.241	2469.125
647.991	2463.79167
651.737	2491.45833
655.481	2445.45833
659.222	2456.125
662.96	2459.45833
666.695	2461.79167
670.427	2509.79167
674.156	2498.125
677.882	2493.45833
681.605	2510.45833
685.325	2437.125
689.043	2460.125
692.757	2438.125
696.468	2436.125
700.177	2433.125
703.882	2418.125
707.585	2398.79167
711.284	2398.79167
714.981	2395.125
718.675	2402.79167
722.366	2401.79167
726.054	2373.125
729.739	2392.45833
733.421	2404.45833
737.1	2388.125
740.777	2415.45833
744.45	2427.45833
748.121	2443.45833
751.789	2494.125
755.453	2478.45833
759.115	2482.79167
762.774	2486.125
766.431	2522.79167
770.084	2540.125
773.734	2555.45833
777.382	2611.45833
781.027	2605.125
784.669	2642.45833
788.308	2658.79167
791.944	2654.79167
795.577	2672.125
799.208	2675.45833
802.835	2695.45833
806.46	2707.79167
810.082	2721.79167
813.701	2749.45833
817.317	2760.125
820.931	2741.79167
824.542	2742.125
828.149	2721.79167
831.754	2689.125
835.357	2704.45833
838.956	2690.45833
842.553	2685.45833
846.146	2669.79167
849.737	2663.79167
853.326	2646.79167
856.911	2656.45833
860.493	2698.79167
864.073	2699.45833
867.65	2732.45833
871.225	2803.79167
874.796	2770.125
878.365	2791.45833
881.931	2828.79167
885.494	2903.79167
889.054	2934.125
892.612	2996.125
896.166	3014.125
899.719	3025.125
903.268	2920.45833
906.814	2843.45833
910.358	2783.45833
913.899	2716.79167
917.438	2706.125
920.973	2686.79167
924.506	2696.125
928.036	2770.45833
931.564	2793.125
935.088	2815.79167
938.61	2810.125
942.129	2840.79167
945.646	2925.45833
949.16	2984.45833
952.671	2997.45833
956.179	2997.79167
959.685	2959.125
963.188	2961.79167
966.688	2922.79167
970.185	2834.45833
973.68	2773.45833
977.173	2770.45833
980.662	2727.79167
984.149	2690.79167
987.633	2698.79167
991.114	2725.125
994.593	2782.79167
998.069	2845.125
1001.542	2937.125
1005.013	2884.45833
1008.481	2748.125
1011.947	2717.45833
1015.409	2693.79167
1018.869	2693.79167
1022.327	2701.45833
1025.782	2693.45833
1029.234	2703.79167
1032.683	2682.79167
1036.13	2571.79167
1039.574	2481.125
1043.016	2406.45833
1046.455	2368.79167
1049.891	2343.45833
1053.325	2334.45833
1056.756	2345.125
1060.184	2379.125
1063.61	2367.45833
1067.033	2391.45833
1070.454	2380.79167
1073.872	2420.79167
1077.287	2410.79167
1080.7	2400.125
1084.11	2416.79167
1087.517	2388.45833
1090.922	2367.125
1094.325	2340.45833
1097.724	2315.125
1101.122	2334.79167
1104.516	2337.79167
1107.908	2335.45833
1111.298	2361.125
1114.684	2398.79167
1118.069	2421.79167
1121.45	2441.125
1124.83	2458.125
1128.206	2473.79167
1131.58	2509.79167
1134.951	2601.125
1138.32	2661.79167
1141.687	2749.45833
1145.05	2798.125
1148.412	2788.79167
1151.77	2769.45833
1155.126	2770.79167
1158.48	2729.45833
1161.831	2730.79167
1165.18	2764.125
1168.525	2798.125
1171.869	2822.125
1175.21	2843.125
1178.548	2867.45833
1181.884	2905.45833
1185.217	2927.79167
1188.548	3005.79167
1191.877	3045.79167
1195.202	3152.45833
1198.526	3223.45833
1201.846	3231.79167
1205.165	3213.79167
1208.48	3205.125
1211.794	3202.45833
1215.104	3202.45833
1218.413	3202.45833
1221.719	3202.45833
1225.022	3139.79167
1228.323	3103.79167
1231.621	3077.125
1234.917	3053.45833
1238.21	3069.79167
1241.501	3051.125
1244.79	3044.125
1248.076	3036.79167
1251.359	3075.125
1254.64	3130.79167
1257.919	3143.79167
1261.195	3211.79167
1264.468	3261.125
1267.74	3316.45833
1271.008	3336.45833
1274.275	3321.79167
1277.538	3289.125
1280.8	3278.79167
1284.059	3268.125
1287.315	3313.125
1290.569	3345.79167
1293.821	3345.45833
1297.07	3362.125
1300.317	3398.125
1303.562	3378.79167
1306.803	3350.45833
1310.043	3371.45833
1313.28	3334.45833
1316.515	3324.45833
1319.747	3338.125
1322.977	3311.125
1326.204	3323.125
1329.429	3286.79167
1332.652	3314.79167
1335.872	3249.79167
1339.09	3186.45833
1342.306	3116.79167
1345.519	3044.45833
1348.729	2985.79167
1351.938	2988.45833
1355.144	2929.79167
1358.347	2882.79167
1361.548	2890.45833
1364.747	2881.125
1367.944	2827.45833
1371.138	2861.125
1374.329	2852.125
1377.518	2883.79167
1380.705	2923.79167
1383.89	2923.45833
1387.072	2827.125
1390.252	2733.125
1393.429	2642.79167
1396.605	2591.45833
1399.777	2530.125
1402.948	2517.125
1406.116	2512.125
1409.282	2539.125
1412.445	2544.79167
1415.606	2584.45833
1418.765	2627.125
1421.921	2628.125
1425.075	2634.45833
1428.227	2722.45833
1431.376	2825.125
1434.524	2906.125
1437.668	3018.125
1440.811	3029.125
1443.951	3071.79167
1447.089	3131.125
1450.224	3088.125
1453.357	3073.79167
1456.488	3038.125
1459.617	2961.45833
1462.743	2909.125
1465.867	2813.79167
1468.989	2781.79167
1472.108	2727.45833
1475.225	2679.45833
1478.34	2631.45833
1481.453	2628.79167
1484.563	2629.45833
1487.671	2636.125
1490.776	2697.45833
1493.88	2751.125
1496.981	2757.125
1500.08	2814.79167
1503.176	2844.45833
1506.271	2891.45833
1509.363	2918.79167
1512.452	2942.79167
1515.54	2983.79167
1518.625	3004.125
1521.708	3095.125
1524.789	3171.125
1527.867	3291.79167
1530.944	3474.79167
1534.018	3609.45833
1537.089	3721.45833
1540.159	3782.79167
1543.226	3765.45833
1546.291	3694.125
1549.354	3621.79167
1552.415	3527.125
1555.473	3442.125
1558.529	3395.125
1561.583	3343.125
1564.634	3326.125
1567.684	3337.125
1570.731	3367.125
1573.776	3399.45833
1576.819	3446.45833
1579.859	3477.79167
1582.898	3493.79167
1585.934	3535.125
1588.968	3545.45833
1591.999	3547.45833
1595.029	3576.125
1598.056	3597.125
1601.081	3643.45833
1604.104	3612.45833
1607.125	3561.45833
1610.144	3505.125
1613.16	3415.79167
1616.174	3382.125
1619.186	3307.125
1622.196	3194.79167
1625.203	3123.79167
1628.209	3050.45833
1631.212	3018.45833
1634.213	3010.45833
1637.212	2981.45833
1640.209	2948.125
1643.203	2855.45833
1646.196	2766.45833
1649.186	2645.45833
1652.174	2590.125
1655.16	2504.79167
1658.144	2440.79167
1661.125	2352.79167
1664.105	2243.125
1667.082	2125.79167
1670.057	2037.45833
1673.03	1910.79167
1676.001	1771.45833
1678.97	1662.125
1681.937	1572.125
1684.901	1458.79167
1687.863	1416.45833
1690.824	1365.125
1693.782	1336.45833
1696.738	1270.45833
1699.692	1257.125
1702.643	1228.125
1705.593	1189.45833
1708.54	1173.125
1711.486	1192.79167
1714.429	1142.45833
1717.37	1151.79167
1720.309	1129.125
1723.246	1133.45833
1726.181	1087.79167
1729.113	1092.79167
1732.044	1084.125
1734.972	1073.79167
1737.899	1084.45833
1740.823	1079.125
1743.745	1032.45833
1746.665	1033.125
1749.583	1013.79167
1752.499	1006.125
1755.413	985.125
1758.325	962.125
1761.235	958.79167
1764.142	953.79167
1767.048	919.45833
1769.951	935.125
1772.852	940.125
1775.752	922.79167
1778.649	925.45833
1781.544	930.79167
1784.437	897.45833
1787.328	898.45833
1790.217	896.125
1793.104	882.79167
1795.989	881.45833
1798.872	865.125
1801.753	883.125
1804.631	871.79167
1807.508	882.125
1810.383	876.125
1813.255	858.79167
1816.126	864.79167
1818.994	853.79167
1821.861	848.45833
1824.725	859.45833
1827.587	864.125
1830.448	846.79167
1833.306	818.45833
1836.162	832.45833
1839.017	834.125
1841.869	822.125
1844.719	813.125
1847.567	804.125
1850.414	794.79167
1853.258	805.79167
1856.1	819.79167
1858.94	814.125
1861.778	805.125
1864.614	796.45833
1867.448	806.45833
1870.28	794.125
1873.111	813.125
1875.939	799.125
1878.765	812.79167
1881.589	779.45833
1884.411	792.79167
1887.231	795.125
1890.049	777.79167
1892.865	794.125
1895.68	775.125
1898.492	797.125
1901.302	783.125
1904.11	772.79167
1906.916	768.45833
1909.721	764.45833
1912.523	759.125
1915.323	751.79167
1918.122	749.45833
1920.918	747.125
1923.712	749.79167
1926.505	737.45833
1929.295	740.45833
1932.084	744.45833
1934.87	740.125
1937.655	739.45833
1940.438	736.45833
1943.218	730.79167
1945.997	748.79167
1948.774	752.79167
1951.549	743.45833
1954.322	736.125
1957.093	718.125
1959.862	718.79167
1962.629	715.79167
1965.394	719.45833
1968.157	695.79167
1970.918	703.125
1973.678	704.45833
1976.435	722.79167
1979.19	702.125
1981.944	694.45833
1984.696	691.125
1987.445	683.125
1990.193	698.79167
1992.939	711.125
1995.683	690.45833
1998.425	681.45833
2001.165	699.79167
2003.903	682.125
2006.639	682.45833
2009.374	681.79167
2012.106	676.45833
2014.837	671.79167
2017.566	675.125
2020.292	683.125
2023.017	680.79167
2025.74	668.125
2028.461	661.45833
2031.18	665.125
2033.898	662.125
2036.613	663.45833
2039.327	654.45833
2042.038	668.125
2044.748	659.45833
2047.456	662.45833
2050.162	649.79167
2052.866	650.79167
2055.568	652.79167
2058.268	643.125
2060.967	648.125
2063.663	632.125
2066.358	636.45833
2069.051	632.125
2071.742	645.79167
2074.431	641.45833
2077.118	639.79167
2079.804	617.125
2082.487	638.125
2085.169	638.79167
2087.849	660.45833
2090.527	619.79167
2093.203	640.79167
2095.877	644.79167
2098.55	648.125
2101.22	651.79167
2103.889	658.45833
2106.556	649.45833
2109.221	670.125
2111.884	673.125
2114.546	726.79167
2117.205	754.125
2119.863	811.45833
2122.519	850.79167
2125.173	904.125
2127.825	952.125
2130.475	963.79167
2133.124	912.125
2135.771	879.125
2138.416	857.79167
2141.059	794.45833
2143.7	761.45833
2146.339	721.45833
2148.977	679.125
2151.613	680.125
2154.247	655.45833
2156.879	647.125
2159.51	630.125
2162.138	606.45833
2164.765	615.45833
2167.39	595.79167
2170.013	624.45833
2172.634	608.45833
2175.254	599.79167
2177.872	631.79167
2180.488	587.125
2183.102	602.79167
2185.714	582.125
2188.325	560.79167
2190.934	573.79167
2193.541	594.45833
2196.146	566.125
2198.75	556.45833
2201.351	573.79167
2203.951	541.45833
2206.549	558.79167
2209.146	556.45833
2211.74	555.79167
2214.333	552.45833
2216.924	535.45833
2219.514	541.79167
2222.101	540.79167
2224.687	557.45833
2227.271	531.125
2229.853	535.79167
2232.433	517.125
2235.012	549.79167
2237.589	534.125
2240.164	546.79167
2242.738	528.125
2245.309	530.125
2247.879	532.79167
2250.448	542.79167
2253.014	509.79167
2255.579	498.125
2258.142	510.125
2260.703	502.79167
2263.262	508.125
2265.82	503.125
2268.376	507.79167
2270.93	484.45833
2273.483	485.79167
2276.033	499.125
2278.583	496.125
2281.13	495.125
2283.675	485.79167
2286.219	485.79167
2288.761	485.45833
2291.302	493.125
2293.841	490.79167
2296.377	474.79167
2298.913	476.125
2301.446	491.79167
2303.978	479.79167
2306.508	475.79167
2309.037	464.45833
2311.563	481.125
2314.088	479.79167
2316.612	464.79167
2319.133	466.125
2321.653	474.125
2324.171	462.79167
2326.688	475.45833
2329.202	464.79167
2331.715	459.79167
2334.227	465.79167
2336.736	463.125
2339.244	454.45833
2341.751	450.125
2344.255	469.45833
2346.758	454.125
2349.259	447.79167
2351.759	447.45833
2354.257	451.79167
2356.753	447.125
2359.247	449.125
2361.74	455.79167
2364.231	454.125
2366.721	466.125
2369.209	442.79167
2371.695	450.79167
2374.179	441.45833
2376.662	436.79167
2379.143	452.79167
2381.622	441.79167
2384.1	454.79167
2386.576	432.45833
2389.051	454.45833
2391.524	456.45833
2393.995	444.45833
2396.464	436.125
2398.932	434.45833
2401.398	428.125
2403.863	430.125
2406.325	421.125
2408.787	437.79167
2411.246	433.45833
2413.704	437.79167
2416.16	431.125
2418.615	423.125
2421.068	439.79167
2423.519	434.45833
2425.969	423.45833
2428.417	434.79167
2430.863	445.45833
2433.308	443.125
2435.751	433.45833
2438.193	433.79167
2440.633	432.79167
2443.071	434.79167
2445.508	423.125
2447.943	426.45833
2450.376	424.125
2452.808	423.79167
2455.238	409.125
2457.667	450.79167
2460.093	421.79167
2462.519	412.45833
2464.942	422.125
2467.365	420.45833
2469.785	426.45833
2472.204	417.45833
2474.621	416.125
2477.037	430.79167
2479.451	403.79167
2481.863	404.125
2484.274	411.45833
2486.683	416.125
2489.091	423.45833
2491.497	420.79167
2493.901	413.79167
2496.304	408.79167
2498.705	427.79167
2501.105	403.45833
2503.503	440.45833
2505.899	404.79167
2508.294	431.125
2510.687	416.79167
2513.079	407.79167
2515.469	399.45833
2517.858	406.125
2520.245	414.125
2522.63	405.79167
2525.014	407.45833
2527.396	409.45833
2529.776	401.125
2532.156	415.79167
2534.533	402.45833
2536.909	396.125
2539.283	391.125
2541.656	401.45833
2544.027	412.45833
2546.397	403.125
2548.765	396.125
2551.131	403.125
2553.496	399.45833
2555.86	411.79167
2558.221	408.79167
2560.582	400.125
2562.94	388.79167
2565.298	404.125
2567.653	419.45833
2570.007	393.79167
2572.36	410.125
2574.711	390.79167
2577.06	413.79167
2579.408	404.79167
2581.754	391.79167
2584.099	406.79167
2586.442	392.45833
2588.784	404.125
2591.124	412.79167
2593.463	406.125
2595.8	411.45833
2598.135	396.125
2600.469	397.125
2602.802	412.125
2605.133	402.79167
2607.462	396.125
2609.79	389.125
2612.116	407.79167
2614.441	402.125
2616.764	401.79167
2619.086	398.79167
2621.406	396.125
2623.725	411.45833
2626.042	412.125
2628.358	387.125
2630.672	404.125
2632.985	415.79167
2635.296	401.79167
2637.606	405.125
2639.914	395.45833
2642.22	405.45833
2644.525	404.45833
2646.829	411.125
2649.131	418.79167
2651.432	421.45833
2653.731	412.45833
2656.028	429.45833
2658.324	424.125
2660.619	404.45833
2662.912	425.45833
2665.204	407.45833
2667.494	422.45833
2669.782	401.45833
2672.07	419.125
2674.355	422.125
2676.639	419.125
2678.922	404.79167
2681.203	412.79167
2683.483	406.79167
2685.761	407.79167
2688.038	423.125
2690.313	429.79167
2692.587	424.79167
2694.859	406.45833
2697.13	422.79167
2699.399	427.125
2701.667	435.45833
2703.933	417.45833
2706.198	441.125
2708.461	445.79167
2710.723	445.45833
2712.984	437.125
2715.243	439.79167
2717.5	432.125
2719.757	460.125
2722.011	438.79167
2724.264	459.45833
2726.516	470.125
2728.766	440.79167
2731.015	455.125
2733.262	451.45833
2735.508	453.125
2737.753	459.125
2739.996	445.125
2742.237	445.45833
2744.477	450.125
2746.716	451.125
2748.953	442.125
2751.189	453.79167
2753.423	432.125
2755.656	430.125
2757.887	427.45833
2760.117	423.125
2762.346	421.79167
2764.573	413.125
2766.798	428.45833
2769.022	427.125
2771.245	433.45833
2773.467	434.45833
2775.686	446.125
2777.905	440.79167
2780.122	441.125
2782.337	449.79167
2784.552	437.45833
2786.764	444.45833
2788.976	451.79167
2791.186	451.45833
2793.394	458.45833
2795.601	466.45833
2797.807	477.45833
2800.011	477.45833
2802.214	482.45833
2804.415	475.45833
2806.615	486.45833
2808.814	482.79167
2811.011	490.125
2813.206	495.79167
2815.401	506.79167
2817.594	501.125
2819.785	528.45833
2821.975	518.45833
2824.164	525.125
2826.351	535.79167
2828.537	554.125
2830.722	555.79167
2832.905	550.125
2835.086	587.125
2837.267	608.125
2839.445	628.125
2841.623	641.125
2843.799	668.79167
2845.974	708.45833
2848.147	728.125
2850.319	756.45833
2852.489	783.125
2854.659	783.45833
2856.826	796.79167
2858.993	831.125
2861.158	809.125
2863.321	816.79167
2865.483	826.45833
2867.644	823.45833
2869.804	827.125
2871.962	818.45833
2874.118	825.125
2876.274	829.45833
2878.428	825.45833
2880.58	824.125
2882.731	816.45833
2884.881	822.125
2887.03	831.79167
2889.177	822.125
2891.322	835.45833
2893.467	831.45833
2895.61	831.79167
2897.751	853.45833
2899.892	851.125
2902.03	846.125
2904.168	866.125
2906.304	853.45833
2908.439	890.125
2910.572	853.125
2912.704	889.79167
2914.835	885.79167
2916.965	879.125
2919.093	888.79167
2921.219	870.79167
2923.345	891.79167
2925.469	859.79167
2927.591	858.79167
2929.712	828.79167
2931.832	839.79167
2933.951	821.79167
2936.068	804.79167
2938.184	785.125
2940.299	775.125
2942.412	760.45833
2944.524	724.45833
2946.634	723.45833
2948.744	675.79167
2950.851	698.45833
2952.958	666.125
2955.063	668.125
2957.167	657.125
2959.269	640.125
2961.371	654.45833
2963.471	618.125
2965.569	625.125
2967.666	604.79167
2969.762	603.125
2971.857	595.125
2973.95	578.79167
2976.042	572.79167
2978.133	559.125
2980.222	543.79167
2982.31	528.45833
2984.396	504.45833
2986.482	510.79167
2988.566	501.125
2990.648	494.45833
2992.73	486.79167
2994.81	476.125
2996.889	477.125
2998.966	484.45833
3001.042	477.79167
3003.117	474.79167
3005.191	475.45833
3007.263	464.125
3009.334	452.79167
3011.403	453.125
3013.472	455.45833
3015.539	448.125
3017.604	458.125
3019.669	420.45833
3021.732	418.79167
3023.794	423.125
3025.854	410.125
3027.914	414.45833
3029.971	427.125
3032.028	411.45833
3034.083	416.79167
3036.137	407.45833
3038.19	385.45833
3040.242	381.125
3042.292	370.79167
3044.341	371.125
3046.388	388.45833
3048.435	361.79167
3050.48	383.45833
3052.524	367.125
3054.566	349.79167
3056.607	362.45833
3058.647	352.125
3060.686	343.125
3062.723	335.79167
3064.759	310.79167
3066.794	-1.20833
3068.828	4.79167
3070.86	2.45833
