-0.839	550.125
3.438	628.125
7.711	176.125
11.981	64.125
16.247	42.45833
20.509	48.45833
24.768	46.125
29.024	49.45833
33.276	45.45833
37.524	46.79167
41.769	47.125
46.01	33.125
50.247	47.45833
54.481	60.79167
58.712	59.125
62.939	48.125
67.162	62.79167
71.382	58.45833
75.599	46.45833
79.812	63.125
84.021	83.125
88.227	59.45833
92.429	59.45833
96.628	53.125
100.823	70.79167
105.015	74.45833
109.204	68.125
113.388	73.45833
117.57	71.45833
121.748	87.45833
125.922	79.45833
130.093	97.125
134.261	98.125
138.425	98.45833
142.585	138.125
146.742	132.79167
150.896	158.79167
155.046	192.125
159.193	314.79167
163.336	536.125
167.476	980.125
171.613	1804.125
175.746	3001.125
179.875	4450.125
184.002	5752.79167
188.124	6668.125
192.244	6960.45833
196.36	6861.79167
200.472	6597.79167
204.581	6368.45833
208.687	6136.125
212.79	6016.125
216.889	5960.125
220.984	5896.79167
225.077	5892.125
229.165	5841.45833
233.251	5838.45833
237.333	5757.125
241.412	5645.79167
245.487	5587.125
249.559	5513.45833
253.628	5438.79167
257.694	5396.45833
261.756	5367.125
265.814	5255.125
269.87	5128.79167
273.922	4987.125
277.97	4898.45833
282.016	4859.79167
286.058	4907.79167
290.097	5040.45833
294.132	5117.45833
298.164	5116.45833
302.193	4871.79167
306.219	4508.125
310.241	4137.125
314.26	3851.125
318.276	3586.79167
322.288	3400.79167
326.297	3269.45833
330.303	3162.45833
334.305	3071.45833
338.305	3023.45833
342.301	2983.45833
346.294	2978.79167
350.283	2940.125
354.269	2900.79167
358.252	2896.45833
362.232	2881.45833
366.209	2846.125
370.182	2834.125
374.152	2831.125
378.119	2847.125
382.083	2899.125
386.043	2846.79167
390	2795.79167
393.954	2792.79167
397.905	2778.125
401.852	2774.125
405.797	2749.79167
409.738	2755.79167
413.676	2768.45833
417.61	2739.45833
421.542	2724.125
425.47	2707.79167
429.396	2703.45833
433.318	2668.79167
437.236	2672.79167
441.152	2678.79167
445.065	2621.45833
448.974	2645.79167
452.88	2591.79167
456.783	2602.125
460.683	2579.45833
464.58	2583.125
468.473	2573.79167
472.364	2588.79167
476.251	2594.79167
480.135	2633.125
484.016	2681.79167
487.894	2712.125
491.769	2700.125
495.641	2712.79167
499.509	2754.125
503.375	2760.45833
507.237	2746.125
511.096	2733.45833
514.952	2749.45833
518.805	2779.79167
522.655	2787.79167
526.502	2698.45833
530.346	2705.79167
534.187	2664.45833
538.024	2694.45833
541.859	2695.79167
545.69	2714.125
549.519	2691.45833
553.344	2671.45833
557.166	2649.79167
560.985	2589.125
564.802	2572.45833
568.615	2540.125
572.425	2498.79167
576.232	2503.45833
580.036	2491.79167
583.836	2506.125
587.634	2492.45833
591.429	2483.125
595.221	2560.79167
599.01	2573.125
602.796	2597.125
606.578	2612.79167
610.358	2622.125
614.135	2587.125
617.909	2554.125
621.679	2549.45833
625.447	2515.125
629.212	2511.79167
632.973	2545.79167
636.732	2517.125
640.488	2519.125
644.241	2498.45833
647.991	2476.79167
651.737	2524.79167
655.481	2489.79167
659.222	2495.79167
662.96	2492.79167
666.695	2528.79167
670.427	2541.45833
674.156	2565.45833
677.882	2521.79167
681.605	2512.125
685.325	2476.79167
689.043	2488.125
692.757	2463.125
696.468	2457.79167
700.177	2447.125
703.882	2437.79167
707.585	2421.45833
711.284	2421.125
714.981	2428.79167
718.675	2409.45833
722.366	2437.125
726.054	2397.125
729.739	2408.125
733.421	2425.79167
737.1	2411.79167
740.777	2448.45833
744.45	2465.79167
748.121	2481.125
751.789	2498.45833
755.453	2502.125
759.115	2496.79167
762.774	2515.125
766.431	2527.125
770.084	2575.125
773.734	2578.45833
777.382	2614.45833
781.027	2611.45833
784.669	2653.45833
788.308	2659.125
791.944	2665.79167
795.577	2678.125
799.208	2699.125
802.835	2743.45833
806.46	2724.45833
810.082	2743.79167
813.701	2736.79167
817.317	2781.125
820.931	2782.45833
824.542	2782.45833
828.149	2746.45833
831.754	2707.45833
835.357	2684.125
838.956	2709.45833
842.553	2721.79167
846.146	2695.125
849.737	2649.79167
853.326	2659.79167
856.911	2668.45833
860.493	2695.79167
864.073	2707.45833
867.65	2759.79167
871.225	2777.79167
874.796	2781.125
878.365	2799.79167
881.931	2837.125
885.494	2868.125
889.054	2897.79167
892.612	2971.45833
896.166	3001.79167
899.719	3014.125
903.268	2930.125
906.814	2833.79167
910.358	2780.125
913.899	2718.45833
917.438	2689.79167
920.973	2687.79167
924.506	2719.79167
928.036	2777.79167
931.564	2787.125
935.088	2814.79167
938.61	2861.79167
942.129	3159.125
945.646	3038.45833
949.16	2978.125
952.671	2999.125
956.179	2988.125
959.685	2957.125
963.188	2958.125
966.688	2926.125
970.185	2833.79167
973.68	2792.125
977.173	2729.45833
980.662	2720.79167
984.149	2722.79167
987.633	2686.79167
991.114	2751.79167
994.593	2789.79167
998.069	2873.125
1001.542	2965.45833
1005.013	2904.79167
1008.481	2729.45833
1011.947	2694.45833
1015.409	2689.125
1018.869	2697.45833
1022.327	2703.125
1025.782	2711.79167
1029.234	2707.45833
1032.683	2670.45833
1036.13	2605.45833
1039.574	2491.45833
1043.016	2420.45833
1046.455	2369.45833
1049.891	2347.79167
1053.325	2357.79167
1056.756	2360.79167
1060.184	2378.45833
1063.61	2362.79167
1067.033	2396.45833
1070.454	2379.125
1073.872	2414.79167
1077.287	2403.45833
1080.7	2405.45833
1084.11	2399.79167
1087.517	2402.79167
1090.922	2352.79167
1094.325	2354.79167
1097.724	2313.79167
1101.122	2310.125
1104.516	2316.125
1107.908	2314.125
1111.298	2365.79167
1114.684	2385.79167
1118.069	2423.125
1121.45	2448.79167
1124.83	2444.79167
1128.206	2460.79167
1131.58	2516.45833
1134.951	2543.125
1138.32	2619.79167
1141.687	2717.125
1145.05	2762.45833
1148.412	2747.45833
1151.77	2728.45833
1155.126	2722.45833
1158.48	2681.45833
1161.831	2678.125
1165.18	2712.45833
1168.525	2757.125
1171.869	2764.125
1175.21	2778.125
1178.548	2807.125
1181.884	2821.125
1185.217	2863.45833
1188.548	2912.125
1191.877	2959.79167
1195.202	3082.45833
1198.526	3139.125
1201.846	3147.79167
1205.165	3157.45833
1208.48	3146.79167
1211.794	3153.45833
1215.104	3169.79167
1218.413	3149.125
1221.719	3182.45833
1225.022	3128.79167
1228.323	3055.45833
1231.621	3049.125
1234.917	3005.45833
1238.21	3035.125
1241.501	3010.125
1244.79	2991.125
1248.076	3003.125
1251.359	3029.79167
1254.64	3090.79167
1257.919	3104.45833
1261.195	3152.125
1264.468	3184.125
1267.74	3255.125
1271.008	3235.45833
1274.275	3253.125
1277.538	3225.79167
1280.8	3222.45833
1284.059	3232.79167
1287.315	3261.125
1290.569	3274.125
1293.821	3305.125
1297.07	3331.45833
1300.317	3332.79167
1303.562	3338.45833
1306.803	3287.79167
1310.043	3302.125
1313.28	3265.79167
1316.515	3268.79167
1319.747	3235.45833
1322.977	3266.45833
1326.204	3262.45833
1329.429	3250.125
1332.652	3244.79167
1335.872	3215.125
1339.09	3119.45833
1342.306	3087.45833
1345.519	3031.45833
1348.729	2992.125
1351.938	2951.45833
1355.144	2931.45833
1358.347	2873.125
1361.548	2885.125
1364.747	2862.125
1367.944	2839.45833
1371.138	2848.79167
1374.329	2873.45833
1377.518	2927.79167
1380.705	2934.79167
1383.89	2898.125
1387.072	2841.45833
1390.252	2720.79167
1393.429	2643.45833
1396.605	2571.125
1399.777	2532.45833
1402.948	2507.125
1406.116	2520.125
1409.282	2536.125
1412.445	2548.125
1415.606	2585.79167
1418.765	2605.45833
1421.921	2615.79167
1425.075	2647.125
1428.227	2707.125
1431.376	2824.79167
1434.524	2897.45833
1437.668	2984.79167
1440.811	3015.79167
1443.951	3074.125
1447.089	3065.79167
1450.224	3049.45833
1453.357	2993.125
1456.488	2985.79167
1459.617	2915.125
1462.743	2847.125
1465.867	2774.125
1468.989	2721.79167
1472.108	2686.125
1475.225	2626.79167
1478.34	2576.45833
1481.453	2595.79167
1484.563	2587.79167
1487.671	2614.79167
1490.776	2636.45833
1493.88	2689.125
1496.981	2729.45833
1500.08	2775.125
1503.176	2788.79167
1506.271	2824.125
1509.363	2883.45833
1512.452	2888.79167
1515.54	2934.79167
1518.625	2959.45833
1521.708	3039.45833
1524.789	3088.125
1527.867	3212.45833
1530.944	3348.45833
1534.018	3505.45833
1537.089	3639.79167
1540.159	3675.125
1543.226	3683.45833
1546.291	3616.45833
1549.354	3571.45833
1552.415	3474.125
1555.473	3388.45833
1558.529	3309.45833
1561.583	3278.45833
1564.634	3273.79167
1567.684	3261.79167
1570.731	3278.79167
1573.776	3315.125
1576.819	3341.125
1579.859	3398.125
1582.898	3413.79167
1585.934	3481.125
1588.968	3462.79167
1591.999	3455.125
1595.029	3484.45833
1598.056	3493.79167
1601.081	3492.125
1604.104	3526.79167
1607.125	3510.125
1610.144	3411.125
1613.16	3314.79167
1616.174	3262.45833
1619.186	3191.79167
1622.196	3100.125
1625.203	3043.79167
1628.209	2977.125
1631.212	2971.79167
1634.213	2958.125
1637.212	2967.79167
1640.209	2915.79167
1643.203	2865.79167
1646.196	2755.45833
1649.186	2677.79167
1652.174	2594.45833
1655.16	2506.45833
1658.144	2454.79167
1661.125	2345.79167
1664.105	2265.125
1667.082	2150.125
1670.057	2039.125
1673.03	1906.79167
1676.001	1781.125
1678.97	1697.45833
1681.937	1570.79167
1684.901	1505.125
1687.863	1447.125
1690.824	1379.45833
1693.782	1348.45833
1696.738	1303.45833
1699.692	1283.125
1702.643	1239.125
1705.593	1220.79167
1708.54	1212.79167
1711.486	1197.79167
1714.429	1181.125
1717.37	1181.79167
1720.309	1157.79167
1723.246	1153.79167
1726.181	1137.45833
1729.113	1144.45833
1732.044	1125.45833
1734.972	1103.125
1737.899	1115.125
1740.823	1118.79167
1743.745	1068.125
1746.665	1059.125
1749.583	1044.125
1752.499	1036.45833
1755.413	1031.79167
1758.325	1015.45833
1761.235	999.45833
1764.142	994.45833
1767.048	962.125
1769.951	980.125
1772.852	967.125
1775.752	954.45833
1778.649	963.45833
1781.544	972.45833
1784.437	929.79167
1787.328	954.79167
1790.217	930.125
1793.104	913.45833
1795.989	928.45833
1798.872	911.45833
1801.753	921.125
1804.631	920.125
1807.508	928.125
1810.383	918.125
1813.255	899.79167
1816.126	918.45833
1818.994	912.79167
1821.861	877.125
1824.725	898.79167
1827.587	887.45833
1830.448	887.79167
1833.306	862.125
1836.162	873.45833
1839.017	865.45833
1841.869	859.45833
1844.719	869.45833
1847.567	838.125
1850.414	839.79167
1853.258	855.45833
1856.1	868.45833
1858.94	859.45833
1861.778	849.125
1864.614	841.45833
1867.448	835.79167
1870.28	823.45833
1873.111	851.125
1875.939	841.79167
1878.765	856.45833
1881.589	842.45833
1884.411	833.125
1887.231	841.45833
1890.049	825.45833
1892.865	834.45833
1895.68	814.45833
1898.492	836.79167
1901.302	825.45833
1904.11	805.79167
1906.916	803.79167
1909.721	798.79167
1912.523	797.45833
1915.323	783.125
1918.122	783.125
1920.918	789.45833
1923.712	777.79167
1926.505	792.125
1929.295	770.79167
1932.084	797.45833
1934.87	790.125
1937.655	780.125
1940.438	773.79167
1943.218	794.45833
1945.997	789.45833
1948.774	798.45833
1951.549	791.79167
1954.322	779.79167
1957.093	781.79167
1959.862	775.79167
1962.629	762.79167
1965.394	759.45833
1968.157	749.45833
1970.918	756.79167
1973.678	740.79167
1976.435	770.125
1979.19	742.79167
1981.944	747.45833
1984.696	741.45833
1987.445	731.125
1990.193	732.45833
1992.939	749.79167
1995.683	728.79167
1998.425	718.79167
2001.165	752.125
2003.903	730.125
2006.639	729.79167
2009.374	732.79167
2012.106	730.45833
2014.837	709.125
2017.566	733.125
2020.292	716.45833
2023.017	718.79167
2025.74	717.45833
2028.461	706.45833
2031.18	718.45833
2033.898	705.125
2036.613	723.79167
2039.327	714.45833
2042.038	697.79167
2044.748	694.79167
2047.456	704.45833
2050.162	688.125
2052.866	696.45833
2055.568	706.79167
2058.268	696.79167
2060.967	685.79167
2063.663	676.79167
2066.358	685.125
2069.051	686.45833
2071.742	687.79167
2074.431	702.79167
2077.118	676.45833
2079.804	685.45833
2082.487	686.125
2085.169	684.125
2087.849	714.45833
2090.527	682.125
2093.203	695.79167
2095.877	695.79167
2098.55	697.125
2101.22	694.45833
2103.889	705.45833
2106.556	709.79167
2109.221	732.79167
2111.884	746.125
2114.546	791.79167
2117.205	827.79167
2119.863	890.125
2122.519	927.45833
2125.173	972.45833
2127.825	1023.79167
2130.475	1021.79167
2133.124	978.79167
2135.771	947.45833
2138.416	914.45833
2141.059	855.79167
2143.7	820.45833
2146.339	763.125
2148.977	729.79167
2151.613	730.45833
2154.247	725.79167
2156.879	695.125
2159.51	683.79167
2162.138	669.79167
2164.765	676.79167
2167.39	647.125
2170.013	672.125
2172.634	664.79167
2175.254	641.125
2177.872	682.45833
2180.488	623.45833
2183.102	644.79167
2185.714	632.125
2188.325	622.45833
2190.934	621.125
2193.541	623.45833
2196.146	616.45833
2198.75	602.79167
2201.351	617.125
2203.951	595.125
2206.549	609.125
2209.146	607.125
2211.74	605.45833
2214.333	605.79167
2216.924	576.125
2219.514	591.125
2222.101	588.79167
2224.687	599.125
2227.271	586.125
2229.853	579.125
2232.433	575.79167
2235.012	591.79167
2237.589	583.79167
2240.164	582.45833
2242.738	577.45833
2245.309	575.45833
2247.879	579.45833
2250.448	582.125
2253.014	567.45833
2255.579	542.45833
2258.142	563.45833
2260.703	544.79167
2263.262	548.45833
2265.82	539.125
2268.376	553.125
2270.93	538.45833
2273.483	529.79167
2276.033	545.79167
2278.583	545.125
2281.13	538.125
2283.675	531.125
2286.219	532.125
2288.761	536.125
2291.302	539.45833
2293.841	544.79167
2296.377	521.79167
2298.913	531.79167
2301.446	540.125
2303.978	532.45833
2306.508	527.45833
2309.037	530.125
2311.563	535.125
2314.088	530.45833
2316.612	498.79167
2319.133	521.125
2321.653	514.125
2324.171	502.79167
2326.688	527.125
2329.202	519.45833
2331.715	526.125
2334.227	505.125
2336.736	521.125
2339.244	506.79167
2341.751	501.45833
2344.255	513.125
2346.758	511.45833
2349.259	496.79167
2351.759	510.125
2354.257	493.79167
2356.753	493.125
2359.247	507.45833
2361.74	499.125
2364.231	504.45833
2366.721	514.125
2369.209	507.125
2371.695	507.125
2374.179	494.79167
2376.662	485.79167
2379.143	510.45833
2381.622	494.79167
2384.1	505.79167
2386.576	497.125
2389.051	506.125
2391.524	511.125
2393.995	504.79167
2396.464	495.79167
2398.932	492.79167
2401.398	503.125
2403.863	492.45833
2406.325	486.45833
2408.787	497.79167
2411.246	490.45833
2413.704	484.45833
2416.16	489.45833
2418.615	485.79167
2421.068	494.79167
2423.519	500.125
2425.969	487.125
2428.417	493.125
2430.863	512.125
2433.308	499.79167
2435.751	495.125
2438.193	497.125
2440.633	498.125
2443.071	497.45833
2445.508	486.79167
2447.943	485.45833
2450.376	485.45833
2452.808	473.45833
2455.238	487.125
2457.667	511.125
2460.093	475.45833
2462.519	480.79167
2464.942	488.125
2467.365	487.45833
2469.785	486.79167
2472.204	486.45833
2474.621	480.79167
2477.037	491.79167
2479.451	472.125
2481.863	463.79167
2484.274	481.125
2486.683	485.79167
2489.091	483.45833
2491.497	479.45833
2493.901	476.79167
2496.304	487.125
2498.705	488.125
2501.105	473.125
2503.503	510.45833
2505.899	474.45833
2508.294	502.79167
2510.687	487.125
2513.079	473.45833
2515.469	474.79167
2517.858	469.45833
2520.245	487.125
2522.63	478.79167
2525.014	475.125
2527.396	474.125
2529.776	465.45833
2532.156	480.79167
2534.533	476.45833
2536.909	466.79167
2539.283	455.45833
2541.656	474.45833
2544.027	494.45833
2546.397	477.79167
2548.765	471.79167
2551.131	475.79167
2553.496	477.125
2555.86	483.45833
2558.221	473.79167
2560.582	475.125
2562.94	463.45833
2565.298	475.79167
2567.653	487.79167
2570.007	458.125
2572.36	482.45833
2574.711	472.125
2577.06	496.125
2579.408	489.45833
2581.754	473.45833
2584.099	487.125
2586.442	478.45833
2588.784	477.79167
2591.124	485.125
2593.463	478.45833
2595.8	479.125
2598.135	461.125
2600.469	476.125
2602.802	485.125
2605.133	484.45833
2607.462	473.125
2609.79	469.45833
2612.116	477.79167
2614.441	488.125
2616.764	477.125
2619.086	492.79167
2621.406	460.79167
2623.725	495.45833
2626.042	489.45833
2628.358	469.45833
2630.672	478.79167
2632.985	504.125
2635.296	487.45833
2637.606	486.125
2639.914	476.45833
2642.22	485.125
2644.525	481.79167
2646.829	496.45833
2649.131	496.45833
2651.432	503.45833
2653.731	496.79167
2656.028	513.125
2658.324	514.125
2660.619	497.79167
2662.912	503.45833
2665.204	493.125
2667.494	513.125
2669.782	495.125
2672.07	505.79167
2674.355	507.125
2676.639	509.79167
2678.922	494.79167
2681.203	502.79167
2683.483	495.45833
2685.761	497.79167
2688.038	510.79167
2690.313	522.125
2692.587	518.79167
2694.859	506.45833
2697.13	521.125
2699.399	524.125
2701.667	527.45833
2703.933	517.79167
2706.198	526.45833
2708.461	530.79167
2710.723	542.45833
2712.984	537.45833
2715.243	539.45833
2717.5	531.125
2719.757	541.125
2722.011	522.45833
2724.264	545.79167
2726.516	563.79167
2728.766	543.45833
2731.015	550.125
2733.262	557.125
2735.508	546.45833
2737.753	547.125
2739.996	537.125
2742.237	535.45833
2744.477	548.45833
2746.716	560.125
2748.953	545.125
2751.189	542.45833
2753.423	540.45833
2755.656	527.45833
2757.887	527.45833
2760.117	528.79167
2762.346	531.45833
2764.573	517.125
2766.798	527.125
2769.022	531.79167
2771.245	543.45833
2773.467	535.79167
2775.686	548.125
2777.905	540.79167
2780.122	545.45833
2782.337	546.79167
2784.552	551.125
2786.764	550.79167
2788.976	559.45833
2791.186	566.125
2793.394	570.79167
2795.601	571.45833
2797.807	579.79167
2800.011	590.45833
2802.214	597.125
2804.415	588.45833
2806.615	588.125
2808.814	593.45833
2811.011	606.79167
2813.206	597.125
2815.401	614.125
2817.594	627.125
2819.785	633.45833
2821.975	622.79167
2824.164	626.125
2826.351	645.125
2828.537	644.45833
2830.722	673.79167
2832.905	658.79167
2835.086	700.45833
2837.267	722.79167
2839.445	725.79167
2841.623	748.45833
2843.799	773.125
2845.974	786.45833
2848.147	825.79167
2850.319	843.79167
2852.489	870.45833
2854.659	885.125
2856.826	886.79167
2858.993	923.79167
2861.158	903.125
2863.321	914.45833
2865.483	916.45833
2867.644	912.45833
2869.804	921.79167
2871.962	911.79167
2874.118	913.125
2876.274	909.79167
2878.428	905.45833
2880.58	899.45833
2882.731	906.45833
2884.881	897.79167
2887.03	917.125
2889.177	901.79167
2891.322	930.125
2893.467	915.45833
2895.61	918.79167
2897.751	936.45833
2899.892	917.45833
2902.03	926.45833
2904.168	938.45833
2906.304	947.125
2908.439	958.45833
2910.572	952.125
2912.704	966.45833
2914.835	972.125
2916.965	957.125
2919.093	977.45833
2921.219	933.79167
2923.345	963.79167
2925.469	947.45833
2927.591	945.79167
2929.712	908.79167
2931.832	902.45833
2933.951	885.79167
2936.068	882.125
2938.184	867.45833
2940.299	862.125
2942.412	838.125
2944.524	813.125
2946.634	804.79167
2948.744	762.45833
2950.851	794.79167
2952.958	761.79167
2955.063	763.45833
2957.167	749.79167
2959.269	724.45833
2961.371	759.125
2963.471	728.79167
2965.569	715.45833
2967.666	704.45833
2969.762	701.79167
2971.857	690.45833
2973.95	675.45833
2976.042	674.45833
2978.133	662.125
2980.222	647.125
2982.31	619.125
2984.396	603.79167
2986.482	611.45833
2988.566	607.79167
2990.648	605.125
2992.73	597.125
2994.81	579.125
2996.889	575.125
2998.966	595.125
3001.042	584.79167
3003.117	577.125
3005.191	583.79167
3007.263	576.79167
3009.334	564.79167
3011.403	573.79167
3013.472	552.45833
3015.539	553.45833
3017.604	557.79167
3019.669	522.125
3021.732	523.45833
3023.794	526.45833
3025.854	519.79167
3027.914	519.45833
3029.971	530.125
3032.028	515.79167
3034.083	520.79167
3036.137	510.125
3038.19	486.79167
3040.242	487.125
3042.292	467.45833
3044.341	475.79167
3046.388	485.125
3048.435	471.125
3050.48	470.45833
3052.524	473.45833
3054.566	454.79167
3056.607	462.125
3058.647	455.45833
3060.686	433.125
3062.723	415.79167
3064.759	410.45833
3066.794	-0.20833
3068.828	2.79167
3070.86	1.125
