-0.839	549.5
3.438	658.83333
7.711	196.16667
11.981	63.5
16.247	44.5
20.509	52.16667
24.768	46.16667
29.024	58.16667
33.276	43.83333
37.524	50.5
41.769	47.83333
46.01	34.16667
50.247	45.83333
54.481	59.5
58.712	61.16667
62.939	48.16667
67.162	65.83333
71.382	57.16667
75.599	46.16667
79.812	65.83333
84.021	84.83333
88.227	64.83333
92.429	63.83333
96.628	55.5
100.823	74.83333
105.015	74.5
109.204	71.83333
113.388	76.16667
117.57	83.16667
121.748	93.83333
125.922	85.16667
130.093	107.16667
134.261	107.16667
138.425	108.16667
142.585	144.83333
146.742	142.16667
150.896	175.16667
155.046	214.16667
159.193	336.83333
163.336	573.5
167.476	1069.83333
171.613	1934.5
175.746	3235.5
179.875	4793.5
184.002	6278.83333
188.124	7279.83333
192.244	7608.16667
196.36	7568.5
200.472	7386.16667
204.581	7144.5
208.687	6951.16667
212.79	6879.83333
216.889	6802.5
220.984	6843.5
225.077	6843.5
229.165	6850.5
233.251	6860.5
237.333	6817.16667
241.412	6730.16667
245.487	6650.83333
249.559	6590.5
253.628	6571.5
257.694	6519.16667
261.756	6442.5
265.814	6323.83333
269.87	6179.83333
273.922	5958.16667
277.97	5845.5
282.016	5780.16667
286.058	5818.83333
290.097	5946.5
294.132	6034.83333
298.164	5986.16667
302.193	5711.5
306.219	5314.83333
310.241	4891.16667
314.26	4494.5
318.276	4161.83333
322.288	3958.83333
326.297	3763.5
330.303	3633.5
334.305	3559.5
338.305	3454.83333
342.301	3430.16667
346.294	3372.5
350.283	3362.5
354.269	3342.83333
358.252	3303.83333
362.232	3290.83333
366.209	3264.83333
370.182	3223.16667
374.152	3200.83333
378.119	3228.83333
382.083	3209.5
386.043	3231.5
390	3174.16667
393.954	3204.5
397.905	3167.16667
401.852	3160.5
405.797	3143.83333
409.738	3121.5
413.676	3098.83333
417.61	3077.83333
421.542	3042.5
425.47	3031.83333
429.396	3020.5
433.318	3001.5
437.236	2988.16667
441.152	2989.5
445.065	2941.16667
448.974	2925.5
452.88	2909.83333
456.783	2885.83333
460.683	2888.83333
464.58	2872.5
468.473	2902.16667
472.364	2898.5
476.251	2912.16667
480.135	2945.5
484.016	2990.5
487.894	3022.5
491.769	3033.83333
495.641	3038.5
499.509	3039.16667
503.375	3068.5
507.237	3046.5
511.096	3054.83333
514.952	3035.5
518.805	3052.83333
522.655	3047.83333
526.502	2989.5
530.346	3007.16667
534.187	3034.5
538.024	3010.5
541.859	3043.83333
545.69	3067.83333
549.519	3048.16667
553.344	3031.16667
557.166	2984.83333
560.985	2925.83333
564.802	2884.83333
568.615	2813.83333
572.425	2783.16667
576.232	2777.5
580.036	2780.83333
583.836	2795.83333
587.634	2791.5
591.429	2811.16667
595.221	2866.16667
599.01	2904.83333
602.796	2931.16667
606.578	2954.16667
610.358	2931.5
614.135	2901.83333
617.909	2885.16667
621.679	2843.16667
625.447	2833.5
629.212	2829.83333
632.973	2848.5
636.732	2859.16667
640.488	2823.5
644.241	2809.83333
647.991	2803.5
651.737	2794.5
655.481	2769.83333
659.222	2803.5
662.96	2788.16667
666.695	2809.5
670.427	2844.83333
674.156	2854.83333
677.882	2831.83333
681.605	2814.5
685.325	2786.5
689.043	2774.16667
692.757	2760.5
696.468	2757.16667
700.177	2771.83333
703.882	2726.83333
707.585	2725.16667
711.284	2717.83333
714.981	2728.5
718.675	2716.83333
722.366	2723.5
726.054	2701.5
729.739	2728.5
733.421	2720.5
737.1	2727.16667
740.777	2747.16667
744.45	2749.16667
748.121	2759.5
751.789	2841.16667
755.453	2797.16667
759.115	2826.83333
762.774	2841.5
766.431	2858.83333
770.084	2905.16667
773.734	2936.83333
777.382	3010.83333
781.027	3035.16667
784.669	3036.5
788.308	3049.16667
791.944	3074.16667
795.577	3065.83333
799.208	3111.83333
802.835	3092.5
806.46	3106.83333
810.082	3110.83333
813.701	3110.83333
817.317	3142.83333
820.931	3157.83333
824.542	3154.16667
828.149	3108.83333
831.754	3103.16667
835.357	3107.16667
838.956	3116.83333
842.553	3115.83333
846.146	3110.83333
849.737	3084.83333
853.326	3092.16667
856.911	3085.83333
860.493	3137.16667
864.073	3171.5
867.65	3210.16667
871.225	3260.83333
874.796	3254.83333
878.365	3281.83333
881.931	3332.5
885.494	3347.5
889.054	3404.83333
892.612	3501.16667
896.166	3492.83333
899.719	3504.5
903.268	3404.16667
906.814	3343.16667
910.358	3271.5
913.899	3208.16667
917.438	3182.5
920.973	3169.83333
924.506	3209.16667
928.036	3258.16667
931.564	3292.16667
935.088	3299.16667
938.61	3321.5
942.129	3356.5
945.646	3451.5
949.16	3529.83333
952.671	3566.16667
956.179	3557.83333
959.685	3518.16667
963.188	3473.5
966.688	3435.16667
970.185	3329.16667
973.68	3285.83333
977.173	3205.5
980.662	3142.16667
984.149	3142.5
987.633	3114.16667
991.114	3153.5
994.593	3251.5
998.069	3318.83333
1001.542	3402.5
1005.013	3374.16667
1008.481	3182.83333
1011.947	3154.83333
1015.409	3145.5
1018.869	3157.83333
1022.327	3140.16667
1025.782	3139.16667
1029.234	3121.5
1032.683	3066.16667
1036.13	2966.83333
1039.574	2873.5
1043.016	2799.5
1046.455	2724.16667
1049.891	2700.5
1053.325	2708.5
1056.756	2744.5
1060.184	2734.16667
1063.61	2719.16667
1067.033	2757.83333
1070.454	2758.83333
1073.872	2790.83333
1077.287	2795.5
1080.7	2769.83333
1084.11	2764.5
1087.517	2732.83333
1090.922	2711.5
1094.325	2705.83333
1097.724	2704.16667
1101.122	2716.16667
1104.516	2695.16667
1107.908	2717.5
1111.298	2751.5
1114.684	2794.16667
1118.069	2815.83333
1121.45	2877.16667
1124.83	2887.16667
1128.206	2941.16667
1131.58	2972.5
1134.951	3031.5
1138.32	3156.83333
1141.687	3265.16667
1145.05	3333.16667
1148.412	3350.83333
1151.77	3345.16667
1155.126	3343.83333
1158.48	3314.83333
1161.831	3350.5
1165.18	3360.83333
1168.525	3382.16667
1171.869	3417.16667
1175.21	3418.5
1178.548	3480.83333
1181.884	3501.16667
1185.217	3555.5
1188.548	3619.5
1191.877	3705.5
1195.202	3786.83333
1198.526	3876.83333
1201.846	3880.83333
1205.165	3866.83333
1208.48	3836.16667
1211.794	3801.16667
1215.104	3803.16667
1218.413	3809.16667
1221.719	3807.5
1225.022	3736.5
1228.323	3666.16667
1231.621	3630.16667
1234.917	3610.83333
1238.21	3643.83333
1241.501	3615.83333
1244.79	3617.83333
1248.076	3604.83333
1251.359	3656.16667
1254.64	3711.83333
1257.919	3738.83333
1261.195	3783.83333
1264.468	3856.5
1267.74	3899.5
1271.008	3943.5
1274.275	3934.5
1277.538	3889.5
1280.8	3908.16667
1284.059	3872.16667
1287.315	3928.83333
1290.569	3920.83333
1293.821	3960.83333
1297.07	3991.16667
1300.317	4003.83333
1303.562	4021.5
1306.803	3975.83333
1310.043	3946.5
1313.28	3929.83333
1316.515	3916.83333
1319.747	3917.16667
1322.977	3880.16667
1326.204	3873.83333
1329.429	3814.5
1332.652	3781.83333
1335.872	3756.83333
1339.09	3706.5
1342.306	3645.83333
1345.519	3541.16667
1348.729	3498.16667
1351.938	3427.83333
1355.144	3405.16667
1358.347	3356.16667
1361.548	3355.83333
1364.747	3335.83333
1367.944	3323.83333
1371.138	3331.16667
1374.329	3380.83333
1377.518	3429.5
1380.705	3431.16667
1383.89	3426.5
1387.072	3321.83333
1390.252	3197.16667
1393.429	3099.5
1396.605	3009.83333
1399.777	2952.83333
1402.948	2946.5
1406.116	2942.16667
1409.282	2942.83333
1412.445	2969.5
1415.606	3005.16667
1418.765	3002.5
1421.921	3070.16667
1425.075	3092.5
1428.227	3183.16667
1431.376	3263.5
1434.524	3362.5
1437.668	3468.16667
1440.811	3499.16667
1443.951	3569.5
1447.089	3600.16667
1450.224	3569.16667
1453.357	3535.5
1456.488	3511.83333
1459.617	3446.83333
1462.743	3380.5
1465.867	3315.5
1468.989	3281.5
1472.108	3209.83333
1475.225	3162.83333
1478.34	3131.16667
1481.453	3113.5
1484.563	3142.5
1487.671	3180.5
1490.776	3226.16667
1493.88	3288.16667
1496.981	3378.83333
1500.08	3444.83333
1503.176	3481.5
1506.271	3530.16667
1509.363	3597.83333
1512.452	3624.5
1515.54	3678.83333
1518.625	3718.16667
1521.708	3814.16667
1524.789	3906.5
1527.867	4010.83333
1530.944	4219.16667
1534.018	4397.5
1537.089	4554.5
1540.159	4592.83333
1543.226	4564.16667
1546.291	4532.16667
1549.354	4410.5
1552.415	4334.16667
1555.473	4216.5
1558.529	4181.16667
1561.583	4161.83333
1564.634	4122.5
1567.684	4165.5
1570.731	4193.83333
1573.776	4224.16667
1576.819	4297.16667
1579.859	4328.5
1582.898	4367.83333
1585.934	4436.5
1588.968	4428.83333
1591.999	4431.16667
1595.029	4431.16667
1598.056	4462.5
1601.081	4490.5
1604.104	4446.16667
1607.125	4379.5
1610.144	4291.83333
1613.16	4174.83333
1616.174	4093.16667
1619.186	3985.16667
1622.196	3870.16667
1625.203	3747.16667
1628.209	3678.5
1631.212	3601.16667
1634.213	3545.16667
1637.212	3517.5
1640.209	3428.16667
1643.203	3314.5
1646.196	3219.5
1649.186	3085.83333
1652.174	2973.16667
1655.16	2855.16667
1658.144	2774.16667
1661.125	2649.83333
1664.105	2535.16667
1667.082	2416.16667
1670.057	2311.5
1673.03	2162.16667
1676.001	2043.16667
1678.97	1925.83333
1681.937	1792.16667
1684.901	1720.16667
1687.863	1643.83333
1690.824	1567.5
1693.782	1553.83333
1696.738	1473.16667
1699.692	1437.5
1702.643	1403.16667
1705.593	1392.16667
1708.54	1360.16667
1711.486	1360.5
1714.429	1309.16667
1717.37	1311.83333
1720.309	1283.5
1723.246	1283.83333
1726.181	1254.5
1729.113	1265.83333
1732.044	1247.5
1734.972	1212.83333
1737.899	1224.5
1740.823	1230.16667
1743.745	1172.83333
1746.665	1181.83333
1749.583	1144.83333
1752.499	1129.5
1755.413	1125.5
1758.325	1090.83333
1761.235	1086.83333
1764.142	1065.5
1767.048	1048.83333
1769.951	1044.83333
1772.852	1061.16667
1775.752	1038.5
1778.649	1030.83333
1781.544	1037.83333
1784.437	1006.16667
1787.328	1007.83333
1790.217	1010.83333
1793.104	982.83333
1795.989	989.16667
1798.872	981.16667
1801.753	989.83333
1804.631	988.16667
1807.508	989.5
1810.383	975.83333
1813.255	979.16667
1816.126	963.16667
1818.994	967.16667
1821.861	947.16667
1824.725	952.16667
1827.587	942.16667
1830.448	928.5
1833.306	920.5
1836.162	913.16667
1839.017	922.83333
1841.869	923.5
1844.719	913.16667
1847.567	896.83333
1850.414	905.16667
1853.258	892.5
1856.1	909.16667
1858.94	902.83333
1861.778	901.5
1864.614	890.83333
1867.448	894.5
1870.28	877.16667
1873.111	909.5
1875.939	884.5
1878.765	898.5
1881.589	879.5
1884.411	890.16667
1887.231	878.5
1890.049	875.83333
1892.865	877.16667
1895.68	863.83333
1898.492	869.5
1901.302	849.83333
1904.11	863.5
1906.916	849.16667
1909.721	845.83333
1912.523	844.83333
1915.323	830.83333
1918.122	821.16667
1920.918	831.83333
1923.712	831.16667
1926.505	834.83333
1929.295	820.16667
1932.084	829.16667
1934.87	827.16667
1937.655	826.83333
1940.438	814.83333
1943.218	826.16667
1945.997	822.16667
1948.774	823.5
1951.549	828.16667
1954.322	807.5
1957.093	819.83333
1959.862	807.16667
1962.629	798.16667
1965.394	793.83333
1968.157	778.16667
1970.918	791.16667
1973.678	773.5
1976.435	790.16667
1979.19	774.16667
1981.944	773.83333
1984.696	764.83333
1987.445	752.5
1990.193	765.83333
1992.939	787.16667
1995.683	765.16667
1998.425	744.5
2001.165	774.16667
2003.903	750.83333
2006.639	755.5
2009.374	765.16667
2012.106	762.5
2014.837	742.16667
2017.566	747.5
2020.292	744.83333
2023.017	751.16667
2025.74	746.16667
2028.461	733.83333
2031.18	735.5
2033.898	728.5
2036.613	739.5
2039.327	737.16667
2042.038	729.16667
2044.748	727.5
2047.456	733.83333
2050.162	713.5
2052.866	716.16667
2055.568	732.5
2058.268	712.5
2060.967	722.83333
2063.663	708.83333
2066.358	709.16667
2069.051	704.83333
2071.742	713.16667
2074.431	716.83333
2077.118	700.5
2079.804	701.83333
2082.487	703.83333
2085.169	703.83333
2087.849	726.83333
2090.527	704.5
2093.203	704.83333
2095.877	715.16667
2098.55	715.16667
2101.22	719.5
2103.889	732.16667
2106.556	727.83333
2109.221	754.16667
2111.884	762.16667
2114.546	820.16667
2117.205	868.5
2119.863	944.16667
2122.519	994.5
2125.173	1053.5
2127.825	1126.16667
2130.475	1112.16667
2133.124	1087.83333
2135.771	1038.83333
2138.416	988.83333
2141.059	922.16667
2143.7	879.83333
2146.339	824.83333
2148.977	779.16667
2151.613	758.5
2154.247	732.83333
2156.879	715.83333
2159.51	705.16667
2162.138	691.83333
2164.765	692.16667
2167.39	665.5
2170.013	698.16667
2172.634	686.16667
2175.254	662.5
2177.872	698.16667
2180.488	651.5
2183.102	662.5
2185.714	662.16667
2188.325	625.5
2190.934	646.83333
2193.541	642.83333
2196.146	637.16667
2198.75	612.16667
2201.351	618.16667
2203.951	611.83333
2206.549	629.5
2209.146	624.83333
2211.74	610.83333
2214.333	611.16667
2216.924	599.16667
2219.514	598.16667
2222.101	598.16667
2224.687	600.5
2227.271	591.5
2229.853	587.5
2232.433	574.5
2235.012	593.16667
2237.589	590.5
2240.164	596.16667
2242.738	584.83333
2245.309	557.83333
2247.879	579.5
2250.448	586.16667
2253.014	559.5
2255.579	540.16667
2258.142	547.16667
2260.703	541.16667
2263.262	546.5
2265.82	543.16667
2268.376	541.83333
2270.93	529.5
2273.483	514.5
2276.033	529.83333
2278.583	522.5
2281.13	516.5
2283.675	515.83333
2286.219	515.5
2288.761	516.83333
2291.302	520.83333
2293.841	518.83333
2296.377	502.16667
2298.913	502.83333
2301.446	517.16667
2303.978	513.5
2306.508	502.5
2309.037	505.5
2311.563	513.16667
2314.088	511.83333
2316.612	486.16667
2319.133	495.5
2321.653	493.5
2324.171	482.16667
2326.688	507.5
2329.202	481.5
2331.715	487.16667
2334.227	482.83333
2336.736	490.16667
2339.244	484.16667
2341.751	462.16667
2344.255	482.5
2346.758	479.16667
2349.259	459.16667
2351.759	476.5
2354.257	460.16667
2356.753	462.5
2359.247	467.83333
2361.74	479.83333
2364.231	466.16667
2366.721	474.83333
2369.209	455.16667
2371.695	467.83333
2374.179	453.5
2376.662	451.83333
2379.143	456.16667
2381.622	446.83333
2384.1	462.5
2386.576	457.83333
2389.051	465.16667
2391.524	457.16667
2393.995	458.16667
2396.464	448.5
2398.932	450.5
2401.398	450.16667
2403.863	443.16667
2406.325	432.16667
2408.787	440.5
2411.246	439.5
2413.704	445.5
2416.16	433.83333
2418.615	429.5
2421.068	453.5
2423.519	450.5
2425.969	433.83333
2428.417	438.5
2430.863	454.16667
2433.308	447.16667
2435.751	429.5
2438.193	430.16667
2440.633	433.5
2443.071	435.5
2445.508	431.16667
2447.943	430.5
2450.376	426.16667
2452.808	423.16667
2455.238	409.83333
2457.667	465.16667
2460.093	418.5
2462.519	409.16667
2464.942	414.16667
2467.365	420.83333
2469.785	426.5
2472.204	416.16667
2474.621	406.5
2477.037	434.16667
2479.451	406.16667
2481.863	404.83333
2484.274	418.16667
2486.683	417.83333
2489.091	419.83333
2491.497	410.5
2493.901	411.5
2496.304	410.5
2498.705	412.83333
2501.105	403.83333
2503.503	426.83333
2505.899	394.83333
2508.294	417.16667
2510.687	398.5
2513.079	400.5
2515.469	390.5
2517.858	399.16667
2520.245	403.5
2522.63	386.16667
2525.014	385.16667
2527.396	382.16667
2529.776	389.16667
2532.156	398.83333
2534.533	386.83333
2536.909	381.83333
2539.283	373.83333
2541.656	375.16667
2544.027	403.5
2546.397	387.5
2548.765	381.83333
2551.131	387.16667
2553.496	378.16667
2555.86	387.5
2558.221	377.16667
2560.582	375.16667
2562.94	369.16667
2565.298	380.83333
2567.653	399.5
2570.007	361.5
2572.36	388.16667
2574.711	371.16667
2577.06	401.16667
2579.408	383.5
2581.754	379.83333
2584.099	383.83333
2586.442	370.5
2588.784	377.16667
2591.124	378.5
2593.463	374.16667
2595.8	370.5
2598.135	359.5
2600.469	366.5
2602.802	377.5
2605.133	388.5
2607.462	365.5
2609.79	357.5
2612.116	373.83333
2614.441	369.5
2616.764	371.5
2619.086	370.16667
2621.406	354.5
2623.725	383.83333
2626.042	368.83333
2628.358	364.5
2630.672	362.83333
2632.985	382.83333
2635.296	368.5
2637.606	364.5
2639.914	361.83333
2642.22	365.16667
2644.525	368.83333
2646.829	371.83333
2649.131	386.16667
2651.432	382.5
2653.731	370.83333
2656.028	377.83333
2658.324	380.83333
2660.619	367.16667
2662.912	383.16667
2665.204	362.5
2667.494	373.83333
2669.782	363.16667
2672.07	378.16667
2674.355	382.16667
2676.639	375.83333
2678.922	360.5
2681.203	365.5
2683.483	363.83333
2685.761	370.16667
2688.038	375.5
2690.313	388.5
2692.587	373.16667
2694.859	380.16667
2697.13	376.83333
2699.399	376.16667
2701.667	388.83333
2703.933	377.16667
2706.198	385.83333
2708.461	393.83333
2710.723	401.16667
2712.984	395.16667
2715.243	395.83333
2717.5	380.83333
2719.757	408.16667
2722.011	396.16667
2724.264	409.5
2726.516	415.16667
2728.766	404.5
2731.015	401.5
2733.262	407.16667
2735.508	398.83333
2737.753	393.83333
2739.996	382.83333
2742.237	385.83333
2744.477	398.5
2746.716	399.16667
2748.953	388.83333
2751.189	386.83333
2753.423	383.83333
2755.656	374.5
2757.887	372.16667
2760.117	382.83333
2762.346	361.83333
2764.573	363.5
2766.798	365.83333
2769.022	371.5
2771.245	376.83333
2773.467	373.5
2775.686	381.83333
2777.905	382.83333
2780.122	388.83333
2782.337	388.83333
2784.552	385.5
2786.764	388.5
2788.976	386.83333
2791.186	394.16667
2793.394	402.5
2795.601	412.5
2797.807	416.5
2800.011	419.16667
2802.214	426.5
2804.415	420.83333
2806.615	425.16667
2808.814	421.83333
2811.011	430.16667
2813.206	439.5
2815.401	457.16667
2817.594	454.16667
2819.785	469.5
2821.975	463.83333
2824.164	458.5
2826.351	484.5
2828.537	498.83333
2830.722	504.16667
2832.905	515.83333
2835.086	538.83333
2837.267	571.83333
2839.445	582.16667
2841.623	601.16667
2843.799	618.16667
2845.974	667.5
2848.147	698.16667
2850.319	719.5
2852.489	749.16667
2854.659	759.83333
2856.826	775.5
2858.993	799.5
2861.158	772.5
2863.321	784.16667
2865.483	804.83333
2867.644	805.16667
2869.804	804.5
2871.962	787.5
2874.118	799.16667
2876.274	803.83333
2878.428	795.5
2880.58	794.5
2882.731	783.16667
2884.881	782.83333
2887.03	784.83333
2889.177	796.83333
2891.322	796.16667
2893.467	793.83333
2895.61	810.5
2897.751	825.16667
2899.892	811.83333
2902.03	826.5
2904.168	834.16667
2906.304	837.83333
2908.439	851.83333
2910.572	843.83333
2912.704	864.16667
2914.835	860.83333
2916.965	855.16667
2919.093	872.83333
2921.219	834.5
2923.345	862.5
2925.469	833.5
2927.591	819.83333
2929.712	795.16667
2931.832	793.83333
2933.951	777.16667
2936.068	770.16667
2938.184	754.83333
2940.299	711.83333
2942.412	707.16667
2944.524	682.16667
2946.634	675.5
2948.744	623.5
2950.851	644.16667
2952.958	599.83333
2955.063	598.83333
2957.167	602.83333
2959.269	569.83333
2961.371	580.5
2963.471	544.83333
2965.569	550.83333
2967.666	529.16667
2969.762	519.16667
2971.857	514.83333
2973.95	503.5
2976.042	493.5
2978.133	477.16667
2980.222	461.83333
2982.31	447.16667
2984.396	430.16667
2986.482	423.16667
2988.566	406.5
2990.648	408.83333
2992.73	403.5
2994.81	386.5
2996.889	395.16667
2998.966	380.5
3001.042	381.5
3003.117	374.16667
3005.191	379.5
3007.263	374.16667
3009.334	352.83333
3011.403	365.16667
3013.472	348.16667
3015.539	351.16667
3017.604	359.16667
3019.669	323.16667
3021.732	326.16667
3023.794	326.83333
3025.854	321.5
3027.914	308.83333
3029.971	330.5
3032.028	312.83333
3034.083	310.5
3036.137	307.5
3038.19	297.16667
3040.242	288.16667
3042.292	282.5
3044.341	276.5
3046.388	290.5
3048.435	272.16667
3050.48	291.16667
3052.524	281.16667
3054.566	260.83333
3056.607	270.83333
3058.647	261.16667
3060.686	251.16667
3062.723	254.5
3064.759	229.5
3066.794	-0.83333
3068.828	1.16667
3070.86	1.83333
