-0.839	553.08333
3.438	619.08333
7.711	182.75
11.981	63.41667
16.247	47.08333
20.509	53.08333
24.768	47.41667
29.024	53.41667
33.276	45.08333
37.524	49.41667
41.769	47.08333
46.01	33.75
50.247	44.08333
54.481	60.41667
58.712	62.75
62.939	44.75
67.162	62.08333
71.382	62.75
75.599	45.08333
79.812	55.41667
84.021	79.08333
88.227	60.08333
92.429	58.75
96.628	50.75
100.823	70.08333
105.015	74.08333
109.204	69.08333
113.388	72.75
117.57	75.41667
121.748	80.75
125.922	78.08333
130.093	95.08333
134.261	97.75
138.425	94.08333
142.585	134.08333
146.742	125.75
150.896	159.41667
155.046	199.41667
159.193	311.75
163.336	531.41667
167.476	976.41667
171.613	1775.75
175.746	2962.41667
179.875	4351.75
184.002	5637.75
188.124	6527.75
192.244	6785.41667
196.36	6712.08333
200.472	6431.41667
204.581	6223.75
208.687	5978.08333
212.79	5825.41667
216.889	5778.08333
220.984	5731.41667
225.077	5691.08333
229.165	5639.75
233.251	5612.41667
237.333	5550.08333
241.412	5436.08333
245.487	5360.08333
249.559	5275.08333
253.628	5256.08333
257.694	5190.08333
261.756	5160.41667
265.814	5051.75
269.87	4893.08333
273.922	4776.08333
277.97	4696.08333
282.016	4677.08333
286.058	4743.41667
290.097	4832.75
294.132	4923.75
298.164	4863.41667
302.193	4634.41667
306.219	4303.08333
310.241	3950.41667
314.26	3640.75
318.276	3391.41667
322.288	3217.75
326.297	3066.41667
330.303	2938.75
334.305	2890.08333
338.305	2827.75
342.301	2788.08333
346.294	2777.75
350.283	2759.08333
354.269	2718.41667
358.252	2684.08333
362.232	2667.41667
366.209	2653.75
370.182	2607.75
374.152	2609.41667
378.119	2611.08333
382.083	2608.08333
386.043	2619.75
390	2583.41667
393.954	2579.08333
397.905	2588.41667
401.852	2568.75
405.797	2534.08333
409.738	2518.41667
413.676	2518.41667
417.61	2533.75
421.542	2498.41667
425.47	2484.41667
429.396	2445.08333
433.318	2447.08333
437.236	2452.75
441.152	2469.75
445.065	2402.75
448.974	2405.08333
452.88	2367.41667
456.783	2382.08333
460.683	2339.41667
464.58	2348.75
468.473	2348.41667
472.364	2364.41667
476.251	2360.75
480.135	2402.08333
484.016	2434.75
487.894	2457.08333
491.769	2477.75
495.641	2493.75
499.509	2501.08333
503.375	2524.75
507.237	2519.41667
511.096	2503.75
514.952	2529.08333
518.805	2563.41667
522.655	2558.75
526.502	2487.08333
530.346	2471.41667
534.187	2441.75
538.024	2467.75
541.859	2458.08333
545.69	2472.41667
549.519	2455.41667
553.344	2442.75
557.166	2401.41667
560.985	2386.41667
564.802	2366.08333
568.615	2312.08333
572.425	2271.08333
576.232	2262.08333
580.036	2245.41667
583.836	2268.75
587.634	2290.41667
591.429	2272.75
595.221	2332.41667
599.01	2360.41667
602.796	2384.41667
606.578	2372.08333
610.358	2397.75
614.135	2351.08333
617.909	2323.75
621.679	2319.41667
625.447	2296.41667
629.212	2301.41667
632.973	2296.08333
636.732	2301.41667
640.488	2313.41667
644.241	2284.75
647.991	2281.75
651.737	2279.41667
655.481	2264.75
659.222	2262.75
662.96	2251.75
666.695	2294.75
670.427	2298.75
674.156	2320.75
677.882	2306.41667
681.605	2290.41667
685.325	2250.41667
689.043	2275.75
692.757	2225.08333
696.468	2247.08333
700.177	2247.75
703.882	2226.08333
707.585	2210.08333
711.284	2211.08333
714.981	2202.41667
718.675	2216.75
722.366	2230.41667
726.054	2216.41667
729.739	2196.75
733.421	2224.08333
737.1	2230.08333
740.777	2241.41667
744.45	2247.75
748.121	2275.75
751.789	2308.41667
755.453	2297.75
759.115	2306.75
762.774	2306.75
766.431	2329.41667
770.084	2377.08333
773.734	2380.41667
777.382	2410.08333
781.027	2414.41667
784.669	2442.75
788.308	2466.41667
791.944	2479.08333
795.577	2480.75
799.208	2508.08333
802.835	2518.08333
806.46	2535.41667
810.082	2539.41667
813.701	2533.08333
817.317	2557.08333
820.931	2543.75
824.542	2566.08333
828.149	2550.41667
831.754	2524.41667
835.357	2505.08333
838.956	2498.41667
842.553	2520.75
846.146	2478.08333
849.737	2475.41667
853.326	2489.75
856.911	2479.75
860.493	2534.41667
864.073	2520.75
867.65	2553.08333
871.225	2599.41667
874.796	2605.75
878.365	2643.75
881.931	2660.75
885.494	2702.41667
889.054	2737.75
892.612	2819.41667
896.166	2834.08333
899.719	2834.75
903.268	2740.41667
906.814	2672.41667
910.358	2606.75
913.899	2552.41667
917.438	2551.41667
920.973	2526.41667
924.506	2543.08333
928.036	2568.08333
931.564	2622.08333
935.088	2657.41667
938.61	2666.75
942.129	2719.41667
945.646	2725.08333
949.16	2792.08333
952.671	2832.75
956.179	2830.08333
959.685	2783.08333
963.188	2760.75
966.688	2733.75
970.185	2662.08333
973.68	2607.75
977.173	2564.41667
980.662	2537.41667
984.149	2559.41667
987.633	2529.08333
991.114	2576.41667
994.593	2627.41667
998.069	2686.08333
1001.542	2772.41667
1005.013	2738.41667
1008.481	2583.08333
1011.947	2523.75
1015.409	2518.41667
1018.869	2529.08333
1022.327	2548.08333
1025.782	2546.75
1029.234	2512.41667
1032.683	2511.41667
1036.13	2430.41667
1039.574	2327.41667
1043.016	2265.41667
1046.455	2209.75
1049.891	2177.41667
1053.325	2187.75
1056.756	2206.08333
1060.184	2212.08333
1063.61	2230.41667
1067.033	2235.75
1070.454	2222.08333
1073.872	2261.75
1077.287	2249.08333
1080.7	2262.08333
1084.11	2250.75
1087.517	2236.08333
1090.922	2203.08333
1094.325	2195.08333
1097.724	2175.75
1101.122	2175.41667
1104.516	2176.41667
1107.908	2184.75
1111.298	2204.75
1114.684	2260.41667
1118.069	2290.08333
1121.45	2310.08333
1124.83	2285.41667
1128.206	2349.41667
1131.58	2375.08333
1134.951	2423.75
1138.32	2498.08333
1141.687	2577.41667
1145.05	2612.08333
1148.412	2629.75
1151.77	2605.75
1155.126	2593.75
1158.48	2554.75
1161.831	2593.08333
1165.18	2591.08333
1168.525	2613.08333
1171.869	2633.75
1175.21	2664.08333
1178.548	2678.75
1181.884	2720.41667
1185.217	2746.08333
1188.548	2812.75
1191.877	2857.75
1195.202	2939.75
1198.526	3019.08333
1201.846	3028.75
1205.165	3008.75
1208.48	3040.75
1211.794	2980.41667
1215.104	3021.41667
1218.413	3015.41667
1221.719	3021.41667
1225.022	2982.41667
1228.323	2939.08333
1231.621	2882.75
1234.917	2864.41667
1238.21	2908.41667
1241.501	2865.08333
1244.79	2862.08333
1248.076	2870.41667
1251.359	2894.75
1254.64	2941.41667
1257.919	3000.08333
1261.195	3008.75
1264.468	3059.41667
1267.74	3106.41667
1271.008	3117.75
1274.275	3111.75
1277.538	3099.08333
1280.8	3075.08333
1284.059	3078.41667
1287.315	3137.41667
1290.569	3132.75
1293.821	3163.08333
1297.07	3185.41667
1300.317	3205.08333
1303.562	3195.75
1306.803	3169.08333
1310.043	3182.41667
1313.28	3164.08333
1316.515	3143.08333
1319.747	3137.08333
1322.977	3122.08333
1326.204	3119.75
1329.429	3090.08333
1332.652	3082.75
1335.872	3051.75
1339.09	2993.08333
1342.306	2953.41667
1345.519	2897.41667
1348.729	2836.75
1351.938	2828.08333
1355.144	2780.75
1358.347	2747.41667
1361.548	2728.41667
1364.747	2746.41667
1367.944	2718.08333
1371.138	2732.08333
1374.329	2756.75
1377.518	2783.41667
1380.705	2778.41667
1383.89	2789.41667
1387.072	2686.41667
1390.252	2598.41667
1393.429	2491.08333
1396.605	2462.08333
1399.777	2407.41667
1402.948	2397.75
1406.116	2417.75
1409.282	2431.75
1412.445	2424.08333
1415.606	2478.75
1418.765	2489.08333
1421.921	2509.41667
1425.075	2553.08333
1428.227	2592.08333
1431.376	2705.08333
1434.524	2775.41667
1437.668	2862.75
1440.811	2896.08333
1443.951	2954.75
1447.089	2954.08333
1450.224	2924.08333
1453.357	2891.75
1456.488	2866.08333
1459.617	2800.08333
1462.743	2714.75
1465.867	2660.08333
1468.989	2639.75
1472.108	2561.41667
1475.225	2518.08333
1478.34	2468.08333
1481.453	2484.08333
1484.563	2501.41667
1487.671	2533.08333
1490.776	2543.75
1493.88	2581.75
1496.981	2637.75
1500.08	2658.75
1503.176	2700.08333
1506.271	2729.41667
1509.363	2778.75
1512.452	2794.08333
1515.54	2811.08333
1518.625	2875.75
1521.708	2927.41667
1524.789	2991.08333
1527.867	3123.41667
1530.944	3261.08333
1534.018	3402.08333
1537.089	3521.75
1540.159	3577.41667
1543.226	3556.08333
1546.291	3522.75
1549.354	3456.75
1552.415	3375.41667
1555.473	3293.08333
1558.529	3238.08333
1561.583	3198.75
1564.634	3185.75
1567.684	3187.41667
1570.731	3185.75
1573.776	3236.75
1576.819	3279.75
1579.859	3328.41667
1582.898	3349.08333
1585.934	3380.75
1588.968	3375.08333
1591.999	3366.41667
1595.029	3376.08333
1598.056	3395.41667
1601.081	3458.41667
1604.104	3432.08333
1607.125	3411.41667
1610.144	3315.41667
1613.16	3236.08333
1616.174	3176.41667
1619.186	3096.41667
1622.196	3016.75
1625.203	2920.08333
1628.209	2896.08333
1631.212	2847.41667
1634.213	2813.75
1637.212	2825.41667
1640.209	2784.08333
1643.203	2701.08333
1646.196	2626.75
1649.186	2548.08333
1652.174	2466.75
1655.16	2386.41667
1658.144	2302.75
1661.125	2234.41667
1664.105	2154.08333
1667.082	2041.08333
1670.057	1927.75
1673.03	1788.08333
1676.001	1694.08333
1678.97	1601.41667
1681.937	1481.41667
1684.901	1397.41667
1687.863	1367.08333
1690.824	1286.41667
1693.782	1281.08333
1696.738	1228.75
1699.692	1196.08333
1702.643	1168.75
1705.593	1152.75
1708.54	1131.41667
1711.486	1139.75
1714.429	1110.08333
1717.37	1095.75
1720.309	1075.41667
1723.246	1089.08333
1726.181	1057.41667
1729.113	1047.75
1732.044	1046.75
1734.972	1039.08333
1737.899	1044.75
1740.823	1028.75
1743.745	991.75
1746.665	990.08333
1749.583	978.75
1752.499	960.08333
1755.413	955.41667
1758.325	933.75
1761.235	917.75
1764.142	915.08333
1767.048	911.41667
1769.951	901.75
1772.852	890.41667
1775.752	881.08333
1778.649	892.75
1781.544	892.75
1784.437	855.75
1787.328	885.75
1790.217	865.08333
1793.104	841.08333
1795.989	850.41667
1798.872	844.41667
1801.753	843.08333
1804.631	838.08333
1807.508	847.41667
1810.383	845.08333
1813.255	825.41667
1816.126	836.41667
1818.994	835.75
1821.861	812.41667
1824.725	829.08333
1827.587	812.75
1830.448	810.75
1833.306	792.75
1836.162	808.41667
1839.017	801.41667
1841.869	793.41667
1844.719	795.08333
1847.567	772.41667
1850.414	773.41667
1853.258	787.41667
1856.1	784.75
1858.94	793.75
1861.778	781.41667
1864.614	775.41667
1867.448	774.08333
1870.28	756.75
1873.111	792.75
1875.939	778.75
1878.765	792.08333
1881.589	762.08333
1884.411	764.75
1887.231	770.75
1890.049	769.41667
1892.865	766.75
1895.68	746.41667
1898.492	754.75
1901.302	758.08333
1904.11	748.75
1906.916	745.08333
1909.721	732.41667
1912.523	738.75
1915.323	723.41667
1918.122	732.75
1920.918	734.41667
1923.712	715.75
1926.505	718.08333
1929.295	719.75
1932.084	734.75
1934.87	726.08333
1937.655	727.41667
1940.438	712.08333
1943.218	720.75
1945.997	726.08333
1948.774	727.41667
1951.549	722.08333
1954.322	720.75
1957.093	717.08333
1959.862	706.41667
1962.629	713.08333
1965.394	714.75
1968.157	687.41667
1970.918	691.08333
1973.678	690.41667
1976.435	701.08333
1979.19	694.75
1981.944	688.08333
1984.696	690.41667
1987.445	672.08333
1990.193	683.75
1992.939	689.41667
1995.683	675.41667
1998.425	663.41667
2001.165	704.08333
2003.903	669.75
2006.639	669.41667
2009.374	684.08333
2012.106	672.08333
2014.837	647.75
2017.566	681.75
2020.292	668.08333
2023.017	669.75
2025.74	669.08333
2028.461	652.08333
2031.18	663.41667
2033.898	643.41667
2036.613	657.08333
2039.327	660.75
2042.038	647.41667
2044.748	642.75
2047.456	651.08333
2050.162	635.75
2052.866	648.41667
2055.568	648.75
2058.268	638.75
2060.967	641.08333
2063.663	633.41667
2066.358	637.75
2069.051	631.41667
2071.742	635.41667
2074.431	642.41667
2077.118	626.75
2079.804	633.08333
2082.487	629.75
2085.169	652.41667
2087.849	658.08333
2090.527	632.41667
2093.203	644.41667
2095.877	652.08333
2098.55	650.08333
2101.22	655.75
2103.889	660.75
2106.556	666.08333
2109.221	686.41667
2111.884	702.08333
2114.546	740.08333
2117.205	783.75
2119.863	854.75
2122.519	880.08333
2125.173	936.75
2127.825	971.41667
2130.475	988.08333
2133.124	938.41667
2135.771	893.41667
2138.416	860.08333
2141.059	806.75
2143.7	781.41667
2146.339	729.08333
2148.977	696.75
2151.613	687.41667
2154.247	673.08333
2156.879	653.75
2159.51	646.08333
2162.138	634.75
2164.765	623.41667
2167.39	618.75
2170.013	627.41667
2172.634	617.75
2175.254	613.75
2177.872	646.08333
2180.488	588.41667
2183.102	601.41667
2185.714	605.08333
2188.325	580.08333
2190.934	590.75
2193.541	593.08333
2196.146	585.41667
2198.75	572.41667
2201.351	582.08333
2203.951	564.41667
2206.549	576.08333
2209.146	576.41667
2211.74	568.08333
2214.333	562.41667
2216.924	543.08333
2219.514	555.75
2222.101	550.41667
2224.687	564.41667
2227.271	553.08333
2229.853	535.41667
2232.433	541.08333
2235.012	555.75
2237.589	533.75
2240.164	553.41667
2242.738	551.08333
2245.309	530.75
2247.879	545.41667
2250.448	543.08333
2253.014	521.08333
2255.579	522.75
2258.142	528.08333
2260.703	524.75
2263.262	514.75
2265.82	512.41667
2268.376	517.08333
2270.93	505.41667
2273.483	504.75
2276.033	507.08333
2278.583	513.41667
2281.13	504.08333
2283.675	500.75
2286.219	507.75
2288.761	502.75
2291.302	504.08333
2293.841	511.08333
2296.377	492.75
2298.913	492.08333
2301.446	515.08333
2303.978	494.75
2306.508	494.41667
2309.037	494.41667
2311.563	494.08333
2314.088	501.41667
2316.612	482.75
2319.133	495.41667
2321.653	498.41667
2324.171	477.75
2326.688	499.08333
2329.202	487.75
2331.715	495.08333
2334.227	484.08333
2336.736	485.75
2339.244	483.41667
2341.751	469.41667
2344.255	492.75
2346.758	482.75
2349.259	474.75
2351.759	475.41667
2354.257	471.08333
2356.753	463.08333
2359.247	478.41667
2361.74	480.08333
2364.231	482.41667
2366.721	477.41667
2369.209	476.08333
2371.695	485.08333
2374.179	470.08333
2376.662	459.41667
2379.143	483.75
2381.622	471.75
2384.1	473.08333
2386.576	468.41667
2389.051	481.75
2391.524	486.75
2393.995	480.08333
2396.464	478.75
2398.932	465.41667
2401.398	465.75
2403.863	466.75
2406.325	467.41667
2408.787	462.08333
2411.246	469.41667
2413.704	461.41667
2416.16	467.08333
2418.615	466.75
2421.068	476.75
2423.519	466.41667
2425.969	460.75
2428.417	468.41667
2430.863	483.75
2433.308	475.08333
2435.751	473.08333
2438.193	460.41667
2440.633	473.08333
2443.071	475.08333
2445.508	471.08333
2447.943	457.41667
2450.376	454.75
2452.808	460.75
2455.238	460.41667
2457.667	495.41667
2460.093	461.08333
2462.519	465.75
2464.942	457.75
2467.365	463.08333
2469.785	466.08333
2472.204	466.41667
2474.621	453.41667
2477.037	474.08333
2479.451	452.75
2481.863	448.08333
2484.274	451.08333
2486.683	471.08333
2489.091	457.41667
2491.497	458.41667
2493.901	465.75
2496.304	460.08333
2498.705	466.41667
2501.105	454.75
2503.503	481.41667
2505.899	440.75
2508.294	465.41667
2510.687	451.75
2513.079	454.75
2515.469	451.08333
2517.858	463.75
2520.245	460.41667
2522.63	449.41667
2525.014	455.41667
2527.396	449.08333
2529.776	453.41667
2532.156	469.75
2534.533	455.08333
2536.909	449.75
2539.283	434.75
2541.656	442.41667
2544.027	465.75
2546.397	453.41667
2548.765	449.41667
2551.131	452.41667
2553.496	449.75
2555.86	465.41667
2558.221	462.08333
2560.582	447.08333
2562.94	453.08333
2565.298	467.75
2567.653	456.75
2570.007	446.75
2572.36	457.75
2574.711	446.08333
2577.06	474.75
2579.408	470.08333
2581.754	462.41667
2584.099	464.08333
2586.442	457.08333
2588.784	471.75
2591.124	459.75
2593.463	464.41667
2595.8	462.41667
2598.135	448.41667
2600.469	460.41667
2602.802	468.41667
2605.133	467.41667
2607.462	455.75
2609.79	453.41667
2612.116	465.08333
2614.441	463.41667
2616.764	463.08333
2619.086	468.08333
2621.406	464.41667
2623.725	480.08333
2626.042	470.41667
2628.358	464.08333
2630.672	462.41667
2632.985	483.41667
2635.296	480.08333
2637.606	467.41667
2639.914	463.41667
2642.22	463.08333
2644.525	467.75
2646.829	477.41667
2649.131	485.41667
2651.432	481.08333
2653.731	481.08333
2656.028	481.41667
2658.324	488.41667
2660.619	474.75
2662.912	484.41667
2665.204	479.75
2667.494	494.08333
2669.782	471.75
2672.07	486.75
2674.355	498.75
2676.639	491.08333
2678.922	485.41667
2681.203	482.75
2683.483	476.41667
2685.761	487.41667
2688.038	495.08333
2690.313	505.41667
2692.587	492.08333
2694.859	488.08333
2697.13	508.08333
2699.399	501.75
2701.667	514.41667
2703.933	518.08333
2706.198	510.08333
2708.461	514.75
2710.723	525.08333
2712.984	525.08333
2715.243	514.75
2717.5	515.08333
2719.757	530.41667
2722.011	534.08333
2724.264	542.41667
2726.516	539.75
2728.766	523.08333
2731.015	539.75
2733.262	537.75
2735.508	532.75
2737.753	538.41667
2739.996	527.75
2742.237	525.08333
2744.477	533.08333
2746.716	547.08333
2748.953	531.08333
2751.189	538.41667
2753.423	525.08333
2755.656	523.08333
2757.887	516.41667
2760.117	530.75
2762.346	516.75
2764.573	506.08333
2766.798	516.75
2769.022	520.41667
2771.245	529.08333
2773.467	530.41667
2775.686	533.75
2777.905	531.41667
2780.122	540.41667
2782.337	546.08333
2784.552	533.08333
2786.764	534.08333
2788.976	549.08333
2791.186	547.41667
2793.394	556.41667
2795.601	563.41667
2797.807	575.75
2800.011	576.41667
2802.214	584.08333
2804.415	592.08333
2806.615	577.75
2808.814	588.41667
2811.011	594.75
2813.206	596.08333
2815.401	611.41667
2817.594	608.75
2819.785	613.75
2821.975	616.08333
2824.164	614.08333
2826.351	636.41667
2828.537	656.41667
2830.722	658.41667
2832.905	652.75
2835.086	684.08333
2837.267	717.08333
2839.445	723.75
2841.623	736.08333
2843.799	754.08333
2845.974	785.75
2848.147	814.75
2850.319	847.75
2852.489	867.41667
2854.659	877.41667
2856.826	880.75
2858.993	907.75
2861.158	894.41667
2863.321	889.75
2865.483	916.08333
2867.644	917.41667
2869.804	904.41667
2871.962	898.08333
2874.118	895.08333
2876.274	899.08333
2878.428	903.75
2880.58	902.41667
2882.731	886.08333
2884.881	888.41667
2887.03	889.41667
2889.177	891.41667
2891.322	908.75
2893.467	899.75
2895.61	911.41667
2897.751	934.41667
2899.892	918.75
2902.03	914.41667
2904.168	924.08333
2906.304	931.75
2908.439	949.08333
2910.572	933.08333
2912.704	950.41667
2914.835	954.08333
2916.965	953.41667
2919.093	963.08333
2921.219	940.75
2923.345	961.41667
2925.469	935.75
2927.591	939.75
2929.712	907.75
2931.832	906.75
2933.951	897.08333
2936.068	878.08333
2938.184	869.08333
2940.299	834.08333
2942.412	830.41667
2944.524	792.41667
2946.634	809.41667
2948.744	758.41667
2950.851	786.08333
2952.958	738.08333
2955.063	750.41667
2957.167	745.41667
2959.269	725.08333
2961.371	745.41667
2963.471	711.08333
2965.569	716.75
2967.666	702.08333
2969.762	692.41667
2971.857	689.08333
2973.95	675.75
2976.042	675.41667
2978.133	659.08333
2980.222	642.75
2982.31	628.41667
2984.396	606.41667
2986.482	610.41667
2988.566	604.41667
2990.648	582.41667
2992.73	598.08333
2994.81	580.41667
2996.889	588.08333
2998.966	585.41667
3001.042	589.41667
3003.117	578.41667
3005.191	568.75
3007.263	569.75
3009.334	561.41667
3011.403	566.75
3013.472	541.75
3015.539	552.08333
3017.604	558.75
3019.669	514.08333
3021.732	517.41667
3023.794	518.75
3025.854	519.41667
3027.914	520.41667
3029.971	521.41667
3032.028	519.41667
3034.083	517.75
3036.137	517.75
3038.19	493.08333
3040.242	478.75
3042.292	474.41667
3044.341	471.08333
3046.388	481.75
3048.435	453.75
3050.48	475.41667
3052.524	463.75
3054.566	446.75
3056.607	463.75
3058.647	433.41667
3060.686	421.41667
3062.723	410.41667
3064.759	396.08333
3066.794	-1.58333
3068.828	3.08333
3070.86	3.41667
