-0.839	502.75
3.438	589.08333
7.711	174.08333
11.981	62.08333
16.247	95.41667
20.509	65.75
24.768	46.75
29.024	53.75
33.276	48.75
37.524	48.75
41.769	46.75
46.01	31.41667
50.247	45.08333
54.481	57.41667
58.712	63.41667
62.939	46.41667
67.162	61.41667
71.382	54.75
75.599	48.08333
79.812	60.75
84.021	82.75
88.227	60.08333
92.429	61.08333
96.628	56.41667
100.823	71.75
105.015	75.75
109.204	70.08333
113.388	78.75
117.57	73.75
121.748	84.41667
125.922	77.08333
130.093	94.08333
134.261	99.75
138.425	96.08333
142.585	139.75
146.742	127.41667
150.896	161.08333
155.046	208.75
159.193	313.75
163.336	543.41667
167.476	998.41667
171.613	1815.41667
175.746	3006.41667
179.875	4414.41667
184.002	5715.75
188.124	6625.08333
192.244	6934.08333
196.36	6801.75
200.472	6600.41667
204.581	6321.08333
208.687	6098.08333
212.79	6021.75
216.889	5972.41667
220.984	5925.08333
225.077	5933.41667
229.165	5925.08333
233.251	5856.75
237.333	5811.41667
241.412	5750.41667
245.487	5702.41667
249.559	5603.08333
253.628	5559.08333
257.694	5485.75
261.756	5443.75
265.814	5349.41667
269.87	5222.75
273.922	5021.75
277.97	4944.75
282.016	4919.41667
286.058	4931.41667
290.097	5029.75
294.132	5160.08333
298.164	5109.75
302.193	4909.75
306.219	4556.08333
310.241	4167.08333
314.26	3820.08333
318.276	3538.75
322.288	3375.41667
326.297	3212.75
330.303	3094.75
334.305	3007.08333
338.305	2971.08333
342.301	2890.08333
346.294	2895.08333
350.283	2852.75
354.269	2837.08333
358.252	2814.41667
362.232	2822.41667
366.209	2799.75
370.182	2754.41667
374.152	2741.41667
378.119	2741.41667
382.083	2756.75
386.043	2760.08333
390	2703.41667
393.954	2713.41667
397.905	2690.08333
401.852	2719.08333
405.797	2654.75
409.738	2659.41667
413.676	2656.75
417.61	2662.75
421.542	2632.41667
425.47	2606.08333
429.396	2595.75
433.318	2542.41667
437.236	2561.08333
441.152	2599.41667
445.065	2513.75
448.974	2534.41667
452.88	2484.41667
456.783	2497.41667
460.683	2468.75
464.58	2469.08333
468.473	2476.75
472.364	2482.75
476.251	2485.75
480.135	2512.41667
484.016	2577.08333
487.894	2603.08333
491.769	2617.41667
495.641	2616.41667
499.509	2644.08333
503.375	2650.75
507.237	2628.75
511.096	2612.08333
514.952	2627.08333
518.805	2647.08333
522.655	2652.75
526.502	2595.08333
530.346	2575.75
534.187	2593.08333
538.024	2600.41667
541.859	2609.75
545.69	2632.41667
549.519	2595.75
553.344	2596.08333
557.166	2543.41667
560.985	2515.75
564.802	2467.41667
568.615	2456.41667
572.425	2412.75
576.232	2368.75
580.036	2383.41667
583.836	2397.75
587.634	2407.08333
591.429	2399.75
595.221	2457.41667
599.01	2477.41667
602.796	2496.08333
606.578	2495.41667
610.358	2518.75
614.135	2500.08333
617.909	2482.75
621.679	2431.75
625.447	2412.75
629.212	2442.75
632.973	2419.41667
636.732	2421.41667
640.488	2438.08333
644.241	2406.75
647.991	2399.41667
651.737	2430.75
655.481	2376.75
659.222	2381.75
662.96	2378.08333
666.695	2416.41667
670.427	2426.41667
674.156	2458.08333
677.882	2425.41667
681.605	2410.41667
685.325	2375.41667
689.043	2378.75
692.757	2372.75
696.468	2357.41667
700.177	2352.75
703.882	2330.08333
707.585	2333.41667
711.284	2349.75
714.981	2334.41667
718.675	2330.08333
722.366	2343.41667
726.054	2325.08333
729.739	2315.75
733.421	2322.75
737.1	2324.08333
740.777	2340.08333
744.45	2340.41667
748.121	2368.08333
751.789	2411.41667
755.453	2419.41667
759.115	2411.08333
762.774	2441.75
766.431	2444.75
770.084	2462.41667
773.734	2490.08333
777.382	2537.41667
781.027	2551.75
784.669	2597.08333
788.308	2584.75
791.944	2583.08333
795.577	2619.41667
799.208	2623.75
802.835	2637.08333
806.46	2637.41667
810.082	2655.08333
813.701	2669.75
817.317	2684.41667
820.931	2693.75
824.542	2681.41667
828.149	2638.75
831.754	2634.08333
835.357	2632.08333
838.956	2624.08333
842.553	2630.08333
846.146	2623.41667
849.737	2595.75
853.326	2600.41667
856.911	2608.75
860.493	2629.75
864.073	2653.08333
867.65	2687.08333
871.225	2724.41667
874.796	2728.75
878.365	2732.75
881.931	2775.08333
885.494	2806.08333
889.054	2858.75
892.612	2933.08333
896.166	2958.08333
899.719	2957.41667
903.268	2872.75
906.814	2796.08333
910.358	2726.75
913.899	2666.41667
917.438	2664.75
920.973	2638.08333
924.506	2672.41667
928.036	2704.41667
931.564	2712.75
935.088	2759.08333
938.61	2790.41667
942.129	2803.75
945.646	2872.41667
949.16	2929.41667
952.671	2993.08333
956.179	2957.75
959.685	2931.08333
963.188	2902.41667
966.688	2861.41667
970.185	2805.08333
973.68	2725.08333
977.173	2686.08333
980.662	2643.08333
984.149	2643.75
987.633	2638.08333
991.114	2683.75
994.593	2726.41667
998.069	2808.08333
1001.542	2887.08333
1005.013	2828.08333
1008.481	2698.41667
1011.947	2639.75
1015.409	2628.41667
1018.869	2642.75
1022.327	2634.41667
1025.782	2650.08333
1029.234	2657.41667
1032.683	2613.75
1036.13	2539.41667
1039.574	2448.08333
1043.016	2374.75
1046.455	2309.08333
1049.891	2294.08333
1053.325	2299.75
1056.756	2296.08333
1060.184	2318.08333
1063.61	2319.08333
1067.033	2339.41667
1070.454	2340.75
1073.872	2365.08333
1077.287	2354.08333
1080.7	2343.75
1084.11	2370.41667
1087.517	2359.08333
1090.922	2307.41667
1094.325	2294.41667
1097.724	2279.41667
1101.122	2288.75
1104.516	2277.08333
1107.908	2279.41667
1111.298	2346.08333
1114.684	2353.08333
1118.069	2384.75
1121.45	2404.75
1124.83	2404.08333
1128.206	2421.08333
1131.58	2481.41667
1134.951	2522.08333
1138.32	2624.75
1141.687	2720.08333
1145.05	2749.08333
1148.412	2745.41667
1151.77	2727.08333
1155.126	2733.41667
1158.48	2694.75
1161.831	2704.75
1165.18	2709.41667
1168.525	2763.75
1171.869	2815.41667
1175.21	2808.75
1178.548	2835.08333
1181.884	2867.08333
1185.217	2896.08333
1188.548	2983.08333
1191.877	3005.41667
1195.202	3101.41667
1198.526	3162.41667
1201.846	3178.75
1205.165	3152.08333
1208.48	3163.75
1211.794	3165.41667
1215.104	3181.75
1218.413	3169.08333
1221.719	3161.41667
1225.022	3123.75
1228.323	3073.08333
1231.621	3041.41667
1234.917	3007.75
1238.21	3037.75
1241.501	3013.41667
1244.79	2999.08333
1248.076	3003.75
1251.359	3014.41667
1254.64	3105.08333
1257.919	3117.08333
1261.195	3184.41667
1264.468	3213.08333
1267.74	3245.75
1271.008	3273.41667
1274.275	3285.75
1277.538	3232.41667
1280.8	3246.75
1284.059	3243.75
1287.315	3275.75
1290.569	3293.08333
1293.821	3307.41667
1297.07	3325.41667
1300.317	3369.75
1303.562	3372.41667
1306.803	3325.08333
1310.043	3317.08333
1313.28	3305.41667
1316.515	3308.75
1319.747	3297.08333
1322.977	3293.08333
1326.204	3255.75
1329.429	3246.08333
1332.652	3230.08333
1335.872	3200.75
1339.09	3136.08333
1342.306	3099.75
1345.519	3016.08333
1348.729	2929.08333
1351.938	2922.08333
1355.144	2859.08333
1358.347	2846.75
1361.548	2838.08333
1364.747	2837.41667
1367.944	2784.75
1371.138	2789.41667
1374.329	2812.75
1377.518	2879.75
1380.705	2874.75
1383.89	2866.75
1387.072	2789.08333
1390.252	2684.08333
1393.429	2604.41667
1396.605	2530.75
1399.777	2486.75
1402.948	2449.75
1406.116	2471.75
1409.282	2504.08333
1412.445	2525.08333
1415.606	2564.41667
1418.765	2560.75
1421.921	2597.41667
1425.075	2634.08333
1428.227	2683.75
1431.376	2782.75
1434.524	2879.08333
1437.668	2954.08333
1440.811	3005.41667
1443.951	3054.08333
1447.089	3074.08333
1450.224	3060.75
1453.357	3020.41667
1456.488	2970.08333
1459.617	2925.41667
1462.743	2852.08333
1465.867	2793.41667
1468.989	2763.08333
1472.108	2674.41667
1475.225	2641.08333
1478.34	2607.41667
1481.453	2600.08333
1484.563	2588.75
1487.671	2615.75
1490.776	2680.75
1493.88	2711.41667
1496.981	2769.41667
1500.08	2813.75
1503.176	2820.75
1506.271	2866.08333
1509.363	2906.75
1512.452	2893.75
1515.54	2950.41667
1518.625	2993.41667
1521.708	3042.75
1524.789	3143.41667
1527.867	3270.41667
1530.944	3408.41667
1534.018	3560.75
1537.089	3697.08333
1540.159	3760.08333
1543.226	3749.08333
1546.291	3668.75
1549.354	3554.41667
1552.415	3508.41667
1555.473	3443.08333
1558.529	3350.41667
1561.583	3348.08333
1564.634	3306.08333
1567.684	3317.41667
1570.731	3362.08333
1573.776	3373.41667
1576.819	3404.75
1579.859	3434.41667
1582.898	3484.08333
1585.934	3522.75
1588.968	3559.41667
1591.999	3548.75
1595.029	3569.08333
1598.056	3574.41667
1601.081	3598.75
1604.104	3586.08333
1607.125	3570.08333
1610.144	3506.75
1613.16	3419.08333
1616.174	3349.41667
1619.186	3271.41667
1622.196	3170.41667
1625.203	3093.41667
1628.209	3029.75
1631.212	3000.41667
1634.213	2957.75
1637.212	2956.41667
1640.209	2901.75
1643.203	2799.41667
1646.196	2727.08333
1649.186	2617.75
1652.174	2545.41667
1655.16	2439.08333
1658.144	2404.75
1661.125	2279.41667
1664.105	2208.41667
1667.082	2087.08333
1670.057	2002.41667
1673.03	1868.41667
1676.001	1746.08333
1678.97	1625.41667
1681.937	1527.75
1684.901	1444.75
1687.863	1398.75
1690.824	1340.75
1693.782	1305.75
1696.738	1254.41667
1699.692	1233.08333
1702.643	1190.41667
1705.593	1172.75
1708.54	1153.75
1711.486	1167.75
1714.429	1103.08333
1717.37	1115.41667
1720.309	1082.41667
1723.246	1101.08333
1726.181	1076.41667
1729.113	1078.75
1732.044	1066.08333
1734.972	1042.41667
1737.899	1052.75
1740.823	1050.75
1743.745	1020.08333
1746.665	996.41667
1749.583	994.75
1752.499	964.41667
1755.413	981.08333
1758.325	952.08333
1761.235	932.41667
1764.142	927.41667
1767.048	911.08333
1769.951	914.41667
1772.852	903.75
1775.752	899.75
1778.649	907.08333
1781.544	901.08333
1784.437	871.75
1787.328	884.75
1790.217	874.41667
1793.104	843.75
1795.989	855.08333
1798.872	845.75
1801.753	869.41667
1804.631	856.75
1807.508	860.08333
1810.383	845.41667
1813.255	834.41667
1816.126	840.08333
1818.994	839.08333
1821.861	823.41667
1824.725	828.08333
1827.587	822.08333
1830.448	827.41667
1833.306	801.75
1836.162	815.41667
1839.017	802.41667
1841.869	796.75
1844.719	786.08333
1847.567	787.75
1850.414	779.41667
1853.258	778.08333
1856.1	801.75
1858.94	790.08333
1861.778	788.75
1864.614	770.08333
1867.448	769.75
1870.28	764.08333
1873.111	789.75
1875.939	781.41667
1878.765	798.41667
1881.589	767.41667
1884.411	762.08333
1887.231	767.75
1890.049	772.75
1892.865	773.75
1895.68	748.41667
1898.492	757.41667
1901.302	760.41667
1904.11	754.08333
1906.916	732.08333
1909.721	732.75
1912.523	743.41667
1915.323	731.08333
1918.122	735.75
1920.918	734.08333
1923.712	727.08333
1926.505	726.75
1929.295	702.75
1932.084	721.75
1934.87	737.75
1937.655	713.41667
1940.438	723.08333
1943.218	722.75
1945.997	721.75
1948.774	729.08333
1951.549	728.75
1954.322	720.41667
1957.093	716.75
1959.862	704.08333
1962.629	696.08333
1965.394	697.08333
1968.157	688.08333
1970.918	683.75
1973.678	678.41667
1976.435	697.75
1979.19	686.75
1981.944	662.41667
1984.696	677.41667
1987.445	667.08333
1990.193	662.75
1992.939	690.75
1995.683	680.41667
1998.425	662.75
2001.165	694.08333
2003.903	656.75
2006.639	672.08333
2009.374	674.41667
2012.106	671.41667
2014.837	647.08333
2017.566	660.41667
2020.292	665.08333
2023.017	654.41667
2025.74	654.08333
2028.461	650.41667
2031.18	645.08333
2033.898	637.41667
2036.613	645.41667
2039.327	641.08333
2042.038	628.41667
2044.748	630.75
2047.456	637.75
2050.162	631.41667
2052.866	629.75
2055.568	638.08333
2058.268	629.41667
2060.967	632.75
2063.663	622.08333
2066.358	636.41667
2069.051	623.08333
2071.742	631.41667
2074.431	620.75
2077.118	624.08333
2079.804	608.08333
2082.487	620.41667
2085.169	632.41667
2087.849	648.08333
2090.527	609.08333
2093.203	618.08333
2095.877	631.75
2098.55	634.41667
2101.22	633.41667
2103.889	642.75
2106.556	647.08333
2109.221	659.75
2111.884	650.41667
2114.546	698.75
2117.205	742.41667
2119.863	799.75
2122.519	835.08333
2125.173	895.75
2127.825	941.08333
2130.475	945.08333
2133.124	916.75
2135.771	870.08333
2138.416	848.75
2141.059	780.75
2143.7	751.08333
2146.339	710.08333
2148.977	668.75
2151.613	663.75
2154.247	645.41667
2156.879	633.41667
2159.51	608.41667
2162.138	601.75
2164.765	593.75
2167.39	587.75
2170.013	602.41667
2172.634	597.75
2175.254	583.41667
2177.872	616.41667
2180.488	574.41667
2183.102	579.75
2185.714	570.41667
2188.325	557.41667
2190.934	568.08333
2193.541	573.08333
2196.146	559.41667
2198.75	546.08333
2201.351	548.41667
2203.951	536.75
2206.549	555.08333
2209.146	541.41667
2211.74	536.75
2214.333	546.08333
2216.924	526.75
2219.514	543.08333
2222.101	526.41667
2224.687	543.41667
2227.271	533.08333
2229.853	520.41667
2232.433	511.75
2235.012	529.75
2237.589	528.08333
2240.164	531.08333
2242.738	526.41667
2245.309	510.41667
2247.879	524.41667
2250.448	514.41667
2253.014	505.41667
2255.579	488.75
2258.142	493.08333
2260.703	496.41667
2263.262	501.08333
2265.82	487.75
2268.376	497.41667
2270.93	471.08333
2273.483	482.41667
2276.033	484.41667
2278.583	473.08333
2281.13	472.75
2283.675	469.41667
2286.219	465.41667
2288.761	472.41667
2291.302	480.08333
2293.841	485.41667
2296.377	455.41667
2298.913	467.41667
2301.446	477.08333
2303.978	473.75
2306.508	461.41667
2309.037	472.41667
2311.563	466.75
2314.088	468.08333
2316.612	452.41667
2319.133	455.75
2321.653	458.41667
2324.171	454.41667
2326.688	469.08333
2329.202	453.08333
2331.715	453.08333
2334.227	448.41667
2336.736	458.08333
2339.244	451.41667
2341.751	432.41667
2344.255	459.08333
2346.758	450.75
2349.259	428.08333
2351.759	446.41667
2354.257	435.08333
2356.753	426.75
2359.247	439.08333
2361.74	450.08333
2364.231	439.08333
2366.721	444.75
2369.209	427.41667
2371.695	443.08333
2374.179	440.08333
2376.662	422.75
2379.143	445.75
2381.622	431.08333
2384.1	438.75
2386.576	416.75
2389.051	446.41667
2391.524	451.75
2393.995	445.08333
2396.464	431.75
2398.932	420.41667
2401.398	425.75
2403.863	420.08333
2406.325	422.08333
2408.787	435.41667
2411.246	417.75
2413.704	417.08333
2416.16	418.08333
2418.615	420.08333
2421.068	435.41667
2423.519	426.75
2425.969	419.41667
2428.417	422.08333
2430.863	439.41667
2433.308	430.08333
2435.751	415.08333
2438.193	429.75
2440.633	433.75
2443.071	430.08333
2445.508	419.08333
2447.943	413.41667
2450.376	407.75
2452.808	416.41667
2455.238	411.08333
2457.667	447.08333
2460.093	408.41667
2462.519	413.41667
2464.942	416.41667
2467.365	424.75
2469.785	413.08333
2472.204	411.41667
2474.621	408.41667
2477.037	436.08333
2479.451	397.08333
2481.863	398.08333
2484.274	403.75
2486.683	406.08333
2489.091	419.41667
2491.497	406.75
2493.901	408.75
2496.304	407.08333
2498.705	423.41667
2501.105	396.75
2503.503	429.41667
2505.899	391.08333
2508.294	414.75
2510.687	405.08333
2513.079	409.08333
2515.469	396.08333
2517.858	405.75
2520.245	415.75
2522.63	391.75
2525.014	397.08333
2527.396	397.75
2529.776	387.41667
2532.156	407.08333
2534.533	397.08333
2536.909	385.75
2539.283	379.08333
2541.656	398.08333
2544.027	410.41667
2546.397	393.41667
2548.765	388.41667
2551.131	407.75
2553.496	400.08333
2555.86	402.08333
2558.221	394.41667
2560.582	396.41667
2562.94	377.75
2565.298	402.08333
2567.653	412.41667
2570.007	390.08333
2572.36	408.41667
2574.711	392.75
2577.06	399.08333
2579.408	399.41667
2581.754	395.08333
2584.099	399.75
2586.442	388.41667
2588.784	402.41667
2591.124	396.08333
2593.463	395.75
2595.8	395.75
2598.135	388.08333
2600.469	386.08333
2602.802	394.75
2605.133	403.08333
2607.462	383.75
2609.79	384.41667
2612.116	398.41667
2614.441	398.08333
2616.764	397.08333
2619.086	396.08333
2621.406	389.08333
2623.725	402.08333
2626.042	405.08333
2628.358	395.75
2630.672	388.08333
2632.985	414.41667
2635.296	398.08333
2637.606	399.75
2639.914	385.08333
2642.22	400.75
2644.525	401.08333
2646.829	406.41667
2649.131	409.75
2651.432	417.08333
2653.731	406.75
2656.028	413.08333
2658.324	412.08333
2660.619	403.08333
2662.912	424.75
2665.204	403.75
2667.494	410.41667
2669.782	397.75
2672.07	416.08333
2674.355	409.08333
2676.639	415.08333
2678.922	398.08333
2681.203	409.75
2683.483	397.41667
2685.761	395.75
2688.038	411.75
2690.313	436.41667
2692.587	409.41667
2694.859	404.41667
2697.13	416.41667
2699.399	418.08333
2701.667	430.75
2703.933	429.08333
2706.198	431.08333
2708.461	440.75
2710.723	436.08333
2712.984	439.41667
2715.243	441.41667
2717.5	427.75
2719.757	448.75
2722.011	433.41667
2724.264	448.75
2726.516	460.41667
2728.766	442.08333
2731.015	450.08333
2733.262	450.08333
2735.508	445.08333
2737.753	445.75
2739.996	435.08333
2742.237	433.08333
2744.477	452.75
2746.716	454.41667
2748.953	431.75
2751.189	440.75
2753.423	425.75
2755.656	428.75
2757.887	422.08333
2760.117	421.08333
2762.346	414.08333
2764.573	417.75
2766.798	426.41667
2769.022	424.08333
2771.245	435.75
2773.467	438.75
2775.686	439.08333
2777.905	440.41667
2780.122	446.08333
2782.337	443.41667
2784.552	438.41667
2786.764	446.08333
2788.976	446.41667
2791.186	445.75
2793.394	452.75
2795.601	460.08333
2797.807	471.75
2800.011	475.41667
2802.214	475.75
2804.415	483.08333
2806.615	476.41667
2808.814	484.75
2811.011	497.08333
2813.206	489.41667
2815.401	510.08333
2817.594	502.08333
2819.785	514.41667
2821.975	513.08333
2824.164	513.08333
2826.351	527.41667
2828.537	540.08333
2830.722	540.41667
2832.905	555.41667
2835.086	578.08333
2837.267	613.08333
2839.445	624.08333
2841.623	635.41667
2843.799	660.75
2845.974	692.75
2848.147	720.08333
2850.319	741.75
2852.489	771.75
2854.659	785.41667
2856.826	798.41667
2858.993	824.75
2861.158	806.08333
2863.321	809.08333
2865.483	830.41667
2867.644	821.75
2869.804	821.75
2871.962	818.41667
2874.118	817.41667
2876.274	831.41667
2878.428	829.08333
2880.58	816.41667
2882.731	811.41667
2884.881	810.75
2887.03	815.75
2889.177	834.75
2891.322	826.08333
2893.467	829.41667
2895.61	833.75
2897.751	845.75
2899.892	841.41667
2902.03	849.75
2904.168	856.41667
2906.304	861.41667
2908.439	877.08333
2910.572	854.41667
2912.704	877.08333
2914.835	869.08333
2916.965	870.08333
2919.093	881.08333
2921.219	856.41667
2923.345	880.08333
2925.469	863.75
2927.591	846.41667
2929.712	822.41667
2931.832	816.75
2933.951	811.41667
2936.068	791.08333
2938.184	778.41667
2940.299	764.75
2942.412	749.75
2944.524	722.08333
2946.634	715.08333
2948.744	667.08333
2950.851	701.08333
2952.958	667.08333
2955.063	657.41667
2957.167	652.41667
2959.269	622.08333
2961.371	657.75
2963.471	611.75
2965.569	613.75
2967.666	597.08333
2969.762	605.41667
2971.857	590.41667
2973.95	574.41667
2976.042	566.75
2978.133	551.41667
2980.222	543.08333
2982.31	532.08333
2984.396	503.41667
2986.482	509.08333
2988.566	499.41667
2990.648	488.41667
2992.73	490.08333
2994.81	466.41667
2996.889	474.41667
2998.966	471.75
3001.042	472.41667
3003.117	464.75
3005.191	456.41667
3007.263	462.41667
3009.334	450.41667
3011.403	455.75
3013.472	437.08333
3015.539	440.41667
3017.604	451.08333
3019.669	404.08333
3021.732	424.08333
3023.794	421.08333
3025.854	413.41667
3027.914	409.75
3029.971	419.08333
3032.028	408.75
3034.083	405.41667
3036.137	403.41667
3038.19	389.08333
3040.242	379.75
3042.292	367.41667
3044.341	373.75
3046.388	384.08333
3048.435	359.08333
3050.48	370.08333
3052.524	371.08333
3054.566	357.75
3056.607	355.41667
3058.647	347.41667
3060.686	339.41667
3062.723	329.08333
3064.759	319.08333
3066.794	-1.25
3068.828	4.08333
3070.86	3.41667
