-0.839	544.95833
3.438	623.625
7.711	176.95833
11.981	58.29167
16.247	45.95833
20.509	50.95833
24.768	46.625
29.024	54.95833
33.276	43.625
37.524	49.29167
41.769	44.29167
46.01	32.625
50.247	48.625
54.481	60.29167
58.712	58.29167
62.939	46.625
67.162	64.29167
71.382	53.95833
75.599	44.625
79.812	56.95833
84.021	77.625
88.227	60.625
92.429	58.625
96.628	51.29167
100.823	65.29167
105.015	75.29167
109.204	65.625
113.388	70.29167
117.57	75.95833
121.748	84.95833
125.922	79.29167
130.093	93.625
134.261	90.29167
138.425	96.95833
142.585	133.625
146.742	127.29167
150.896	152.29167
155.046	200.625
159.193	310.625
163.336	528.95833
167.476	969.29167
171.613	1783.625
175.746	2953.625
179.875	4338.29167
184.002	5611.29167
188.124	6482.625
192.244	6775.95833
196.36	6649.95833
200.472	6406.29167
204.581	6157.95833
208.687	5929.625
212.79	5795.95833
216.889	5750.95833
220.984	5706.29167
225.077	5657.625
229.165	5641.29167
233.251	5570.29167
237.333	5475.29167
241.412	5413.625
245.487	5323.625
249.559	5245.625
253.628	5218.29167
257.694	5167.625
261.756	5110.95833
265.814	5015.625
269.87	4836.95833
273.922	4715.625
277.97	4647.95833
282.016	4641.625
286.058	4695.29167
290.097	4795.95833
294.132	4887.29167
298.164	4835.95833
302.193	4588.95833
306.219	4250.95833
310.241	3904.95833
314.26	3617.29167
318.276	3351.29167
322.288	3177.29167
326.297	3048.625
330.303	2908.95833
334.305	2834.29167
338.305	2774.29167
342.301	2744.95833
346.294	2698.29167
350.283	2681.29167
354.269	2663.95833
358.252	2611.95833
362.232	2624.95833
366.209	2603.625
370.182	2560.29167
374.152	2552.95833
378.119	2560.625
382.083	2556.29167
386.043	2560.95833
390	2523.625
393.954	2546.95833
397.905	2526.625
401.852	2515.29167
405.797	2486.625
409.738	2465.625
413.676	2468.625
417.61	2458.29167
421.542	2438.29167
425.47	2402.95833
429.396	2418.29167
433.318	2401.95833
437.236	2402.29167
441.152	2410.95833
445.065	2355.95833
448.974	2351.95833
452.88	2313.29167
456.783	2316.29167
460.683	2285.95833
464.58	2298.625
468.473	2298.625
472.364	2311.29167
476.251	2337.625
480.135	2361.29167
484.016	2387.625
487.894	2407.29167
491.769	2419.29167
495.641	2423.625
499.509	2450.29167
503.375	2460.29167
507.237	2454.29167
511.096	2452.29167
514.952	2472.29167
518.805	2504.29167
522.655	2495.29167
526.502	2441.95833
530.346	2407.29167
534.187	2408.95833
538.024	2390.95833
541.859	2427.625
545.69	2436.625
549.519	2424.625
553.344	2410.29167
557.166	2367.625
560.985	2323.29167
564.802	2278.625
568.615	2256.625
572.425	2210.29167
576.232	2221.625
580.036	2227.625
583.836	2219.29167
587.634	2238.29167
591.429	2211.95833
595.221	2284.29167
599.01	2287.29167
602.796	2323.95833
606.578	2340.625
610.358	2329.95833
614.135	2308.625
617.909	2293.95833
621.679	2250.625
625.447	2254.95833
629.212	2245.95833
632.973	2265.29167
636.732	2253.29167
640.488	2256.95833
644.241	2229.29167
647.991	2207.625
651.737	2230.95833
655.481	2215.625
659.222	2217.95833
662.96	2212.95833
666.695	2228.95833
670.427	2263.29167
674.156	2283.95833
677.882	2249.625
681.605	2247.95833
685.325	2209.29167
689.043	2198.29167
692.757	2189.95833
696.468	2211.95833
700.177	2199.625
703.882	2170.95833
707.585	2150.29167
711.284	2179.625
714.981	2157.625
718.675	2168.625
722.366	2168.95833
726.054	2163.29167
729.739	2166.625
733.421	2174.95833
737.1	2176.95833
740.777	2204.625
744.45	2192.625
748.121	2215.29167
751.789	2249.29167
755.453	2243.95833
759.115	2237.625
762.774	2278.95833
766.431	2269.625
770.084	2325.95833
773.734	2317.625
777.382	2354.625
781.027	2382.29167
784.669	2386.625
788.308	2408.29167
791.944	2428.625
795.577	2436.95833
799.208	2453.95833
802.835	2469.29167
806.46	2482.625
810.082	2503.29167
813.701	2489.625
817.317	2518.29167
820.931	2518.29167
824.542	2497.29167
828.149	2487.29167
831.754	2456.625
835.357	2458.29167
838.956	2486.95833
842.553	2476.625
846.146	2470.95833
849.737	2450.95833
853.326	2441.625
856.911	2435.29167
860.493	2482.625
864.073	2508.95833
867.65	2546.29167
871.225	2590.625
874.796	2572.95833
878.365	2568.625
881.931	2598.29167
885.494	2668.95833
889.054	2709.95833
892.612	2778.95833
896.166	2786.95833
899.719	2776.95833
903.268	2702.95833
906.814	2630.95833
910.358	2572.625
913.899	2526.95833
917.438	2517.29167
920.973	2478.95833
924.506	2521.95833
928.036	2536.29167
931.564	2586.95833
935.088	2605.625
938.61	2626.29167
942.129	2673.625
945.646	2725.29167
949.16	2745.95833
952.671	2777.625
956.179	2784.29167
959.685	2737.625
963.188	2702.29167
966.688	2686.625
970.185	2632.29167
973.68	2576.625
977.173	2537.29167
980.662	2496.625
984.149	2505.625
987.633	2480.625
991.114	2542.29167
994.593	2606.625
998.069	2653.29167
1001.542	2735.625
1005.013	2693.95833
1008.481	2546.29167
1011.947	2478.95833
1015.409	2497.29167
1018.869	2481.95833
1022.327	2505.29167
1025.782	2486.29167
1029.234	2493.29167
1032.683	2484.29167
1036.13	2383.625
1039.574	2302.95833
1043.016	2215.95833
1046.455	2200.29167
1049.891	2161.625
1053.325	2164.625
1056.756	2192.29167
1060.184	2176.95833
1063.61	2196.29167
1067.033	2202.625
1070.454	2200.29167
1073.872	2237.625
1077.287	2223.29167
1080.7	2223.29167
1084.11	2239.29167
1087.517	2210.625
1090.922	2188.29167
1094.325	2164.625
1097.724	2142.29167
1101.122	2152.29167
1104.516	2132.29167
1107.908	2142.29167
1111.298	2197.95833
1114.684	2199.625
1118.069	2258.625
1121.45	2288.625
1124.83	2271.95833
1128.206	2304.29167
1131.58	2341.95833
1134.951	2414.625
1138.32	2455.95833
1141.687	2541.29167
1145.05	2617.625
1148.412	2568.625
1151.77	2567.95833
1155.126	2544.29167
1158.48	2508.29167
1161.831	2546.625
1165.18	2560.29167
1168.525	2591.625
1171.869	2618.625
1175.21	2638.95833
1178.548	2675.29167
1181.884	2680.29167
1185.217	2736.29167
1188.548	2789.29167
1191.877	2846.625
1195.202	2904.29167
1198.526	2996.95833
1201.846	3006.29167
1205.165	2997.625
1208.48	3003.95833
1211.794	2969.95833
1215.104	3003.29167
1218.413	2996.95833
1221.719	2987.625
1225.022	2970.625
1228.323	2914.625
1231.621	2881.95833
1234.917	2862.625
1238.21	2874.29167
1241.501	2860.95833
1244.79	2859.95833
1248.076	2851.29167
1251.359	2868.625
1254.64	2931.29167
1257.919	2968.625
1261.195	2986.625
1264.468	3080.625
1267.74	3117.29167
1271.008	3083.95833
1274.275	3103.29167
1277.538	3074.95833
1280.8	3081.625
1284.059	3049.95833
1287.315	3101.29167
1290.569	3135.625
1293.821	3155.29167
1297.07	3169.95833
1300.317	3199.95833
1303.562	3185.625
1306.803	3158.29167
1310.043	3134.95833
1313.28	3123.625
1316.515	3122.95833
1319.747	3133.95833
1322.977	3092.95833
1326.204	3114.95833
1329.429	3062.95833
1332.652	3085.95833
1335.872	3046.625
1339.09	2969.95833
1342.306	2926.625
1345.519	2874.625
1348.729	2800.625
1351.938	2809.95833
1355.144	2736.625
1358.347	2719.95833
1361.548	2710.29167
1364.747	2713.29167
1367.944	2667.29167
1371.138	2689.95833
1374.329	2736.29167
1377.518	2757.625
1380.705	2776.95833
1383.89	2748.95833
1387.072	2651.29167
1390.252	2563.29167
1393.429	2477.95833
1396.605	2423.95833
1399.777	2384.29167
1402.948	2379.29167
1406.116	2392.29167
1409.282	2398.625
1412.445	2423.95833
1415.606	2450.29167
1418.765	2474.625
1421.921	2478.625
1425.075	2525.95833
1428.227	2592.95833
1431.376	2684.95833
1434.524	2756.95833
1437.668	2838.29167
1440.811	2862.29167
1443.951	2894.625
1447.089	2926.95833
1450.224	2910.625
1453.357	2860.29167
1456.488	2824.625
1459.617	2778.29167
1462.743	2713.29167
1465.867	2620.625
1468.989	2601.29167
1472.108	2530.95833
1475.225	2479.29167
1478.34	2463.29167
1481.453	2465.95833
1484.563	2468.29167
1487.671	2506.29167
1490.776	2522.95833
1493.88	2580.625
1496.981	2627.29167
1500.08	2650.95833
1503.176	2686.29167
1506.271	2701.625
1509.363	2761.29167
1512.452	2777.625
1515.54	2817.625
1518.625	2842.95833
1521.708	2902.29167
1524.789	2970.625
1527.867	3099.625
1530.944	3249.625
1534.018	3382.95833
1537.089	3536.95833
1540.159	3585.29167
1543.226	3574.29167
1546.291	3504.29167
1549.354	3411.29167
1552.415	3354.29167
1555.473	3286.625
1558.529	3230.95833
1561.583	3187.29167
1564.634	3172.625
1567.684	3154.95833
1570.731	3214.625
1573.776	3226.95833
1576.819	3257.29167
1579.859	3292.95833
1582.898	3324.29167
1585.934	3362.625
1588.968	3383.29167
1591.999	3373.95833
1595.029	3378.625
1598.056	3419.95833
1601.081	3424.625
1604.104	3407.625
1607.125	3392.95833
1610.144	3310.625
1613.16	3251.29167
1616.174	3154.29167
1619.186	3102.95833
1622.196	3018.625
1625.203	2922.29167
1628.209	2865.29167
1631.212	2816.95833
1634.213	2795.95833
1637.212	2780.625
1640.209	2726.29167
1643.203	2670.29167
1646.196	2581.625
1649.186	2494.625
1652.174	2419.95833
1655.16	2352.95833
1658.144	2308.29167
1661.125	2177.95833
1664.105	2103.29167
1667.082	2019.625
1670.057	1928.625
1673.03	1805.625
1676.001	1674.625
1678.97	1559.95833
1681.937	1459.625
1684.901	1406.29167
1687.863	1347.29167
1690.824	1279.29167
1693.782	1261.95833
1696.738	1202.95833
1699.692	1176.29167
1702.643	1148.95833
1705.593	1136.29167
1708.54	1121.95833
1711.486	1125.29167
1714.429	1092.95833
1717.37	1084.625
1720.309	1067.95833
1723.246	1070.95833
1726.181	1052.625
1729.113	1044.95833
1732.044	1030.625
1734.972	1021.95833
1737.899	1036.95833
1740.823	1017.625
1743.745	999.29167
1746.665	971.95833
1749.583	965.29167
1752.499	953.625
1755.413	951.29167
1758.325	921.95833
1761.235	907.29167
1764.142	897.29167
1767.048	888.29167
1769.951	881.29167
1772.852	881.29167
1775.752	881.29167
1778.649	873.29167
1781.544	877.95833
1784.437	862.29167
1787.328	857.95833
1790.217	846.95833
1793.104	830.29167
1795.989	824.625
1798.872	817.95833
1801.753	842.95833
1804.631	829.95833
1807.508	828.625
1810.383	834.29167
1813.255	818.625
1816.126	826.625
1818.994	810.95833
1821.861	804.29167
1824.725	819.95833
1827.587	814.95833
1830.448	807.29167
1833.306	780.95833
1836.162	791.625
1839.017	785.625
1841.869	792.95833
1844.719	782.625
1847.567	770.29167
1850.414	759.29167
1853.258	760.29167
1856.1	793.625
1858.94	769.95833
1861.778	769.29167
1864.614	766.625
1867.448	764.95833
1870.28	754.29167
1873.111	778.625
1875.939	753.625
1878.765	776.625
1881.589	755.29167
1884.411	746.29167
1887.231	761.625
1890.049	749.95833
1892.865	753.29167
1895.68	753.29167
1898.492	750.95833
1901.302	734.29167
1904.11	722.625
1906.916	737.95833
1909.721	716.29167
1912.523	745.95833
1915.323	715.625
1918.122	717.625
1920.918	720.625
1923.712	700.625
1926.505	712.95833
1929.295	701.625
1932.084	723.625
1934.87	721.625
1937.655	711.95833
1940.438	700.625
1943.218	701.29167
1945.997	712.29167
1948.774	718.625
1951.549	722.29167
1954.322	699.29167
1957.093	695.29167
1959.862	690.95833
1962.629	693.29167
1965.394	685.29167
1968.157	684.95833
1970.918	689.625
1973.678	677.29167
1976.435	687.95833
1979.19	671.625
1981.944	674.95833
1984.696	670.625
1987.445	651.625
1990.193	675.625
1992.939	689.29167
1995.683	663.95833
1998.425	648.625
2001.165	677.29167
2003.903	661.29167
2006.639	661.95833
2009.374	661.95833
2012.106	675.95833
2014.837	641.625
2017.566	661.29167
2020.292	662.95833
2023.017	662.625
2025.74	656.95833
2028.461	649.625
2031.18	652.29167
2033.898	630.95833
2036.613	648.29167
2039.327	643.95833
2042.038	634.29167
2044.748	631.95833
2047.456	632.95833
2050.162	622.625
2052.866	633.95833
2055.568	643.29167
2058.268	633.95833
2060.967	639.29167
2063.663	617.625
2066.358	628.625
2069.051	623.29167
2071.742	614.95833
2074.431	635.95833
2077.118	629.95833
2079.804	614.95833
2082.487	626.625
2085.169	634.95833
2087.849	643.625
2090.527	618.625
2093.203	621.95833
2095.877	643.625
2098.55	637.29167
2101.22	648.625
2103.889	660.95833
2106.556	648.625
2109.221	674.625
2111.884	685.95833
2114.546	737.95833
2117.205	768.29167
2119.863	837.95833
2122.519	882.95833
2125.173	921.29167
2127.825	974.95833
2130.475	977.625
2133.124	921.95833
2135.771	882.29167
2138.416	856.95833
2141.059	801.29167
2143.7	763.95833
2146.339	732.29167
2148.977	686.95833
2151.613	690.29167
2154.247	670.95833
2156.879	652.29167
2159.51	637.625
2162.138	627.29167
2164.765	622.625
2167.39	596.625
2170.013	623.95833
2172.634	608.625
2175.254	598.95833
2177.872	638.625
2180.488	598.95833
2183.102	594.625
2185.714	576.625
2188.325	569.95833
2190.934	581.95833
2193.541	586.29167
2196.146	581.29167
2198.75	558.29167
2201.351	565.625
2203.951	550.95833
2206.549	572.625
2209.146	559.29167
2211.74	553.95833
2214.333	557.29167
2216.924	540.625
2219.514	550.625
2222.101	543.95833
2224.687	552.625
2227.271	540.625
2229.853	547.29167
2232.433	539.95833
2235.012	531.95833
2237.589	540.95833
2240.164	549.29167
2242.738	541.95833
2245.309	525.625
2247.879	542.29167
2250.448	541.95833
2253.014	519.95833
2255.579	506.625
2258.142	520.625
2260.703	508.29167
2263.262	509.95833
2265.82	511.29167
2268.376	506.29167
2270.93	498.95833
2273.483	502.29167
2276.033	510.95833
2278.583	503.29167
2281.13	489.29167
2283.675	488.29167
2286.219	497.29167
2288.761	493.625
2291.302	501.29167
2293.841	503.95833
2296.377	479.29167
2298.913	482.95833
2301.446	511.29167
2303.978	491.95833
2306.508	478.95833
2309.037	496.29167
2311.563	488.95833
2314.088	494.95833
2316.612	484.625
2319.133	487.95833
2321.653	486.95833
2324.171	478.625
2326.688	497.95833
2329.202	482.625
2331.715	476.625
2334.227	481.29167
2336.736	491.625
2339.244	477.29167
2341.751	466.95833
2344.255	484.95833
2346.758	479.625
2349.259	469.625
2351.759	464.29167
2354.257	468.625
2356.753	453.29167
2359.247	466.95833
2361.74	469.95833
2364.231	475.95833
2366.721	476.625
2369.209	474.625
2371.695	469.29167
2374.179	464.625
2376.662	456.95833
2379.143	469.625
2381.622	459.29167
2384.1	467.625
2386.576	468.95833
2389.051	477.95833
2391.524	468.625
2393.995	473.625
2396.464	457.95833
2398.932	464.29167
2401.398	457.95833
2403.863	462.625
2406.325	456.95833
2408.787	465.29167
2411.246	462.29167
2413.704	450.625
2416.16	459.95833
2418.615	449.29167
2421.068	460.625
2423.519	459.625
2425.969	458.29167
2428.417	471.95833
2430.863	478.95833
2433.308	464.625
2435.751	468.29167
2438.193	457.625
2440.633	471.625
2443.071	464.625
2445.508	453.625
2447.943	454.29167
2450.376	449.625
2452.808	457.95833
2455.238	458.625
2457.667	497.95833
2460.093	455.95833
2462.519	446.95833
2464.942	453.625
2467.365	451.625
2469.785	466.625
2472.204	452.29167
2474.621	449.95833
2477.037	472.29167
2479.451	449.29167
2481.863	444.29167
2484.274	445.29167
2486.683	452.625
2489.091	470.29167
2491.497	456.625
2493.901	460.29167
2496.304	455.95833
2498.705	471.625
2501.105	454.625
2503.503	472.95833
2505.899	440.625
2508.294	474.29167
2510.687	455.95833
2513.079	448.625
2515.469	442.625
2517.858	449.625
2520.245	470.95833
2522.63	453.29167
2525.014	440.29167
2527.396	445.29167
2529.776	447.625
2532.156	467.95833
2534.533	441.625
2536.909	450.625
2539.283	442.29167
2541.656	440.625
2544.027	463.29167
2546.397	451.29167
2548.765	450.29167
2551.131	445.95833
2553.496	451.29167
2555.86	453.95833
2558.221	451.95833
2560.582	444.95833
2562.94	435.625
2565.298	454.625
2567.653	474.95833
2570.007	438.29167
2572.36	468.625
2574.711	441.625
2577.06	452.29167
2579.408	466.29167
2581.754	457.29167
2584.099	457.29167
2586.442	455.29167
2588.784	464.625
2591.124	461.625
2593.463	459.625
2595.8	459.95833
2598.135	452.625
2600.469	460.95833
2602.802	463.625
2605.133	479.625
2607.462	444.95833
2609.79	437.625
2612.116	473.29167
2614.441	461.29167
2616.764	454.95833
2619.086	449.29167
2621.406	451.625
2623.725	473.29167
2626.042	468.625
2628.358	462.625
2630.672	453.29167
2632.985	476.625
2635.296	470.625
2637.606	465.625
2639.914	456.29167
2642.22	466.625
2644.525	473.95833
2646.829	472.625
2649.131	494.625
2651.432	479.95833
2653.731	481.625
2656.028	497.95833
2658.324	492.29167
2660.619	488.625
2662.912	485.625
2665.204	469.95833
2667.494	490.29167
2669.782	482.95833
2672.07	494.29167
2674.355	497.95833
2676.639	483.625
2678.922	481.625
2681.203	487.95833
2683.483	474.29167
2685.761	469.625
2688.038	487.29167
2690.313	507.625
2692.587	502.95833
2694.859	495.29167
2697.13	499.95833
2699.399	514.625
2701.667	510.95833
2703.933	501.625
2706.198	518.29167
2708.461	516.95833
2710.723	521.95833
2712.984	520.29167
2715.243	523.29167
2717.5	515.29167
2719.757	535.95833
2722.011	516.625
2724.264	533.95833
2726.516	546.29167
2728.766	523.95833
2731.015	537.29167
2733.262	535.29167
2735.508	542.95833
2737.753	536.95833
2739.996	528.29167
2742.237	525.29167
2744.477	535.95833
2746.716	540.29167
2748.953	532.625
2751.189	534.29167
2753.423	523.29167
2755.656	516.95833
2757.887	511.625
2760.117	512.95833
2762.346	515.29167
2764.573	506.625
2766.798	509.625
2769.022	508.29167
2771.245	521.29167
2773.467	532.625
2775.686	540.29167
2777.905	535.29167
2780.122	530.625
2782.337	543.29167
2784.552	537.95833
2786.764	540.29167
2788.976	543.95833
2791.186	551.625
2793.394	557.625
2795.601	556.29167
2797.807	578.95833
2800.011	578.29167
2802.214	587.29167
2804.415	587.95833
2806.615	578.29167
2808.814	588.625
2811.011	602.95833
2813.206	601.625
2815.401	609.95833
2817.594	593.29167
2819.785	627.29167
2821.975	611.625
2824.164	619.95833
2826.351	635.95833
2828.537	659.95833
2830.722	651.29167
2832.905	655.95833
2835.086	684.29167
2837.267	713.625
2839.445	722.625
2841.623	730.29167
2843.799	768.29167
2845.974	790.625
2848.147	829.625
2850.319	830.29167
2852.489	868.29167
2854.659	873.95833
2856.826	884.29167
2858.993	911.625
2861.158	900.625
2863.321	905.29167
2865.483	914.95833
2867.644	904.625
2869.804	893.95833
2871.962	901.95833
2874.118	894.95833
2876.274	897.29167
2878.428	896.625
2880.58	892.95833
2882.731	898.29167
2884.881	867.625
2887.03	899.625
2889.177	890.625
2891.322	900.29167
2893.467	899.95833
2895.61	901.95833
2897.751	923.29167
2899.892	910.625
2902.03	927.625
2904.168	934.95833
2906.304	936.95833
2908.439	941.29167
2910.572	932.95833
2912.704	951.95833
2914.835	946.95833
2916.965	943.29167
2919.093	959.625
2921.219	939.95833
2923.345	962.95833
2925.469	934.95833
2927.591	932.95833
2929.712	908.95833
2931.832	905.29167
2933.951	890.625
2936.068	871.29167
2938.184	854.625
2940.299	841.95833
2942.412	839.625
2944.524	794.625
2946.634	799.29167
2948.744	747.29167
2950.851	785.625
2952.958	743.625
2955.063	756.29167
2957.167	751.29167
2959.269	717.95833
2961.371	748.29167
2963.471	711.625
2965.569	719.29167
2967.666	698.625
2969.762	701.95833
2971.857	688.95833
2973.95	666.625
2976.042	675.625
2978.133	656.625
2980.222	643.95833
2982.31	628.625
2984.396	602.625
2986.482	606.95833
2988.566	595.625
2990.648	597.95833
2992.73	590.95833
2994.81	581.95833
2996.889	579.625
2998.966	569.625
3001.042	590.625
3003.117	571.95833
3005.191	571.625
3007.263	571.29167
3009.334	556.95833
3011.403	553.29167
3013.472	538.625
3015.539	544.95833
3017.604	552.95833
3019.669	509.95833
3021.732	522.95833
3023.794	527.29167
3025.854	517.29167
3027.914	511.625
3029.971	521.29167
3032.028	504.29167
3034.083	514.29167
3036.137	509.95833
3038.19	487.29167
3040.242	472.95833
3042.292	473.625
3044.341	457.625
3046.388	482.95833
3048.435	461.29167
3050.48	469.95833
3052.524	459.29167
3054.566	447.95833
3056.607	458.29167
3058.647	441.29167
3060.686	432.625
3062.723	417.625
3064.759	397.625
3066.794	1.625
3068.828	1.95833
3070.86	2.625
