-0.839	580.375
3.438	668.375
7.711	197.70833
11.981	70.04167
16.247	49.375
20.509	53.70833
24.768	49.04167
29.024	57.70833
33.276	46.375
37.524	53.70833
41.769	51.04167
46.01	34.70833
50.247	47.70833
54.481	56.375
58.712	66.70833
62.939	52.375
67.162	67.04167
71.382	58.04167
75.599	51.375
79.812	62.70833
84.021	84.70833
88.227	63.375
92.429	64.70833
96.628	56.04167
100.823	73.70833
105.015	85.70833
109.204	72.375
113.388	79.70833
117.57	84.04167
121.748	93.70833
125.922	91.375
130.093	109.04167
134.261	105.04167
138.425	107.04167
142.585	150.04167
146.742	144.375
150.896	175.375
155.046	218.04167
159.193	339.04167
163.336	569.70833
167.476	1061.04167
171.613	1950.375
175.746	3254.70833
179.875	4871.04167
184.002	6385.70833
188.124	7466.04167
192.244	7815.04167
196.36	7778.375
200.472	7604.375
204.581	7379.70833
208.687	7217.375
212.79	7120.70833
216.889	7136.375
220.984	7122.70833
225.077	7178.375
229.165	7187.70833
233.251	7215.04167
237.333	7195.70833
241.412	7104.70833
245.487	7050.375
249.559	6982.375
253.628	6924.375
257.694	6905.70833
261.756	6816.375
265.814	6706.04167
269.87	6482.70833
273.922	6325.04167
277.97	6179.04167
282.016	6086.70833
286.058	6153.70833
290.097	6265.70833
294.132	6338.375
298.164	6313.04167
302.193	6013.70833
306.219	5592.375
310.241	5158.70833
314.26	4720.70833
318.276	4384.375
322.288	4155.04167
326.297	3967.375
330.303	3838.04167
334.305	3736.375
338.305	3666.04167
342.301	3609.70833
346.294	3593.04167
350.283	3532.70833
354.269	3516.70833
358.252	3504.04167
362.232	3467.70833
366.209	3438.375
370.182	3428.375
374.152	3404.375
378.119	3433.375
382.083	3393.70833
386.043	3393.70833
390	3372.70833
393.954	3381.04167
397.905	3353.375
401.852	3343.70833
405.797	3318.375
409.738	3307.70833
413.676	3308.375
417.61	3275.375
421.542	3244.375
425.47	3245.375
429.396	3178.04167
433.318	3182.04167
437.236	3195.70833
441.152	3197.70833
445.065	3156.375
448.974	3142.04167
452.88	3098.04167
456.783	3089.70833
460.683	3068.375
464.58	3073.70833
468.473	3081.04167
472.364	3111.375
476.251	3097.70833
480.135	3126.375
484.016	3174.70833
487.894	3203.70833
491.769	3227.375
495.641	3238.70833
499.509	3260.04167
503.375	3278.04167
507.237	3283.04167
511.096	3238.70833
514.952	3216.375
518.805	3240.375
522.655	3212.70833
526.502	3203.70833
530.346	3187.04167
534.187	3193.04167
538.024	3203.04167
541.859	3221.04167
545.69	3241.04167
549.519	3227.04167
553.344	3219.04167
557.166	3149.70833
560.985	3117.70833
564.802	3065.04167
568.615	2998.70833
572.425	2959.375
576.232	2938.04167
580.036	2943.04167
583.836	2978.375
587.634	2993.04167
591.429	2965.04167
595.221	3045.04167
599.01	3066.70833
602.796	3108.70833
606.578	3114.70833
610.358	3109.04167
614.135	3085.04167
617.909	3069.375
621.679	3032.70833
625.447	3020.04167
629.212	3005.04167
632.973	3036.04167
636.732	2992.70833
640.488	3020.04167
644.241	2980.375
647.991	2975.04167
651.737	3001.375
655.481	2967.04167
659.222	2973.375
662.96	2973.70833
666.695	2985.04167
670.427	3031.70833
674.156	3056.375
677.882	3008.70833
681.605	2997.70833
685.325	2949.375
689.043	2980.04167
692.757	2953.70833
696.468	2928.04167
700.177	2908.04167
703.882	2907.04167
707.585	2894.04167
711.284	2894.04167
714.981	2892.04167
718.675	2899.04167
722.366	2892.375
726.054	2890.70833
729.739	2905.70833
733.421	2890.04167
737.1	2892.04167
740.777	2910.04167
744.45	2935.375
748.121	2939.70833
751.789	3009.375
755.453	2994.70833
759.115	3002.04167
762.774	3042.375
766.431	3056.375
770.084	3118.70833
773.734	3122.04167
777.382	3184.70833
781.027	3192.70833
784.669	3258.70833
788.308	3226.04167
791.944	3250.04167
795.577	3245.375
799.208	3259.70833
802.835	3302.04167
806.46	3307.04167
810.082	3325.70833
813.701	3337.375
817.317	3360.04167
820.931	3370.70833
824.542	3357.70833
828.149	3323.70833
831.754	3316.70833
835.357	3278.375
838.956	3309.70833
842.553	3307.04167
846.146	3270.375
849.737	3270.70833
853.326	3262.04167
856.911	3286.375
860.493	3338.70833
864.073	3336.70833
867.65	3370.375
871.225	3427.375
874.796	3457.70833
878.365	3481.70833
881.931	3518.04167
885.494	3562.70833
889.054	3612.70833
892.612	3659.70833
896.166	3696.375
899.719	3672.70833
903.268	3599.70833
906.814	3528.04167
910.358	3462.70833
913.899	3368.04167
917.438	3367.70833
920.973	3339.70833
924.506	3365.04167
928.036	3407.70833
931.564	3469.70833
935.088	3497.04167
938.61	3492.375
942.129	3574.70833
945.646	3675.04167
949.16	3715.375
952.671	3757.04167
956.179	3752.70833
959.685	3711.70833
963.188	3681.70833
966.688	3643.375
970.185	3533.04167
973.68	3459.04167
977.173	3417.375
980.662	3337.70833
984.149	3343.70833
987.633	3339.375
991.114	3359.375
994.593	3443.375
998.069	3513.70833
1001.542	3633.375
1005.013	3573.375
1008.481	3398.04167
1011.947	3361.375
1015.409	3359.04167
1018.869	3340.70833
1022.327	3338.70833
1025.782	3305.04167
1029.234	3302.70833
1032.683	3262.04167
1036.13	3179.04167
1039.574	3069.04167
1043.016	2968.375
1046.455	2895.375
1049.891	2866.04167
1053.325	2882.04167
1056.756	2874.04167
1060.184	2901.375
1063.61	2903.375
1067.033	2957.375
1070.454	2907.70833
1073.872	2964.04167
1077.287	2957.04167
1080.7	2941.375
1084.11	2939.04167
1087.517	2915.375
1090.922	2863.375
1094.325	2858.04167
1097.724	2841.375
1101.122	2838.375
1104.516	2851.375
1107.908	2876.70833
1111.298	2910.70833
1114.684	2948.375
1118.069	2980.04167
1121.45	3021.70833
1124.83	3015.04167
1128.206	3061.375
1131.58	3105.70833
1134.951	3178.04167
1138.32	3289.70833
1141.687	3394.70833
1145.05	3496.70833
1148.412	3502.04167
1151.77	3466.375
1155.126	3497.70833
1158.48	3461.375
1161.831	3478.70833
1165.18	3501.70833
1168.525	3552.375
1171.869	3582.375
1175.21	3614.375
1178.548	3641.375
1181.884	3678.375
1185.217	3723.375
1188.548	3813.70833
1191.877	3894.04167
1195.202	3983.04167
1198.526	4081.70833
1201.846	4083.04167
1205.165	4042.70833
1208.48	4034.375
1211.794	4017.04167
1215.104	4027.04167
1218.413	4000.04167
1221.719	4017.04167
1225.022	3922.70833
1228.323	3894.70833
1231.621	3858.375
1234.917	3810.70833
1238.21	3839.70833
1241.501	3791.04167
1244.79	3793.375
1248.076	3797.70833
1251.359	3832.70833
1254.64	3920.04167
1257.919	3946.70833
1261.195	3987.04167
1264.468	4100.375
1267.74	4099.04167
1271.008	4162.70833
1274.275	4092.70833
1277.538	4101.04167
1280.8	4099.04167
1284.059	4081.375
1287.315	4102.375
1290.569	4171.70833
1293.821	4177.375
1297.07	4177.04167
1300.317	4237.04167
1303.562	4187.70833
1306.803	4204.375
1310.043	4190.375
1313.28	4153.70833
1316.515	4137.70833
1319.747	4091.04167
1322.977	4091.70833
1326.204	4051.375
1329.429	4005.70833
1332.652	4012.70833
1335.872	3942.375
1339.09	3904.04167
1342.306	3840.70833
1345.519	3772.04167
1348.729	3707.04167
1351.938	3679.04167
1355.144	3595.375
1358.347	3564.375
1361.548	3548.375
1364.747	3554.04167
1367.944	3506.70833
1371.138	3550.375
1374.329	3566.04167
1377.518	3629.70833
1380.705	3629.375
1383.89	3624.375
1387.072	3515.375
1390.252	3370.04167
1393.429	3278.70833
1396.605	3184.04167
1399.777	3118.375
1402.948	3096.70833
1406.116	3093.375
1409.282	3098.375
1412.445	3111.375
1415.606	3151.04167
1418.765	3179.04167
1421.921	3224.04167
1425.075	3268.70833
1428.227	3330.04167
1431.376	3477.04167
1434.524	3568.375
1437.668	3648.70833
1440.811	3703.70833
1443.951	3770.70833
1447.089	3792.70833
1450.224	3770.04167
1453.357	3731.375
1456.488	3649.70833
1459.617	3626.04167
1462.743	3554.04167
1465.867	3473.04167
1468.989	3408.70833
1472.108	3383.04167
1475.225	3304.70833
1478.34	3294.375
1481.453	3284.04167
1484.563	3298.04167
1487.671	3368.04167
1490.776	3385.375
1493.88	3473.375
1496.981	3515.375
1500.08	3593.70833
1503.176	3612.70833
1506.271	3694.04167
1509.363	3734.375
1512.452	3779.375
1515.54	3827.70833
1518.625	3873.375
1521.708	4006.04167
1524.789	4078.04167
1527.867	4237.375
1530.944	4443.70833
1534.018	4604.375
1537.089	4802.375
1540.159	4816.70833
1543.226	4812.04167
1546.291	4715.04167
1549.354	4640.375
1552.415	4540.04167
1555.473	4453.70833
1558.529	4392.70833
1561.583	4349.70833
1564.634	4371.70833
1567.684	4335.04167
1570.731	4377.70833
1573.776	4425.70833
1576.819	4459.375
1579.859	4542.375
1582.898	4572.375
1585.934	4631.04167
1588.968	4663.04167
1591.999	4648.04167
1595.029	4660.375
1598.056	4644.375
1601.081	4679.70833
1604.104	4652.04167
1607.125	4584.70833
1610.144	4494.375
1613.16	4378.04167
1616.174	4276.375
1619.186	4178.70833
1622.196	4029.70833
1625.203	3925.04167
1628.209	3861.375
1631.212	3828.70833
1634.213	3757.375
1637.212	3760.70833
1640.209	3641.04167
1643.203	3547.70833
1646.196	3402.70833
1649.186	3271.70833
1652.174	3160.375
1655.16	3058.70833
1658.144	2935.375
1661.125	2810.70833
1664.105	2688.375
1667.082	2574.70833
1670.057	2448.70833
1673.03	2298.70833
1676.001	2158.70833
1678.97	2034.375
1681.937	1910.375
1684.901	1793.70833
1687.863	1753.70833
1690.824	1649.375
1693.782	1620.375
1696.738	1567.375
1699.692	1522.70833
1702.643	1477.04167
1705.593	1467.70833
1708.54	1445.70833
1711.486	1446.375
1714.429	1406.375
1717.37	1403.04167
1720.309	1364.375
1723.246	1373.04167
1726.181	1327.375
1729.113	1331.375
1732.044	1310.375
1734.972	1296.04167
1737.899	1288.70833
1740.823	1281.04167
1743.745	1247.70833
1746.665	1241.04167
1749.583	1227.70833
1752.499	1207.70833
1755.413	1197.04167
1758.325	1181.70833
1761.235	1158.70833
1764.142	1135.70833
1767.048	1125.375
1769.951	1112.70833
1772.852	1114.04167
1775.752	1106.04167
1778.649	1101.04167
1781.544	1107.375
1784.437	1071.04167
1787.328	1086.375
1790.217	1075.70833
1793.104	1051.375
1795.989	1046.375
1798.872	1045.04167
1801.753	1047.70833
1804.631	1046.04167
1807.508	1048.375
1810.383	1039.04167
1813.255	1032.375
1816.126	1017.04167
1818.994	1036.70833
1821.861	1009.375
1824.725	1021.04167
1827.587	1004.04167
1830.448	1003.375
1833.306	980.04167
1836.162	991.04167
1839.017	987.375
1841.869	972.375
1844.719	965.04167
1847.567	964.04167
1850.414	959.375
1853.258	960.70833
1856.1	967.70833
1858.94	968.70833
1861.778	952.70833
1864.614	944.70833
1867.448	950.04167
1870.28	938.04167
1873.111	964.70833
1875.939	958.70833
1878.765	960.375
1881.589	942.70833
1884.411	938.04167
1887.231	942.04167
1890.049	928.375
1892.865	943.70833
1895.68	916.70833
1898.492	924.04167
1901.302	921.04167
1904.11	925.70833
1906.916	893.70833
1909.721	892.375
1912.523	911.375
1915.323	893.375
1918.122	882.04167
1920.918	889.70833
1923.712	894.70833
1926.505	880.04167
1929.295	862.375
1932.084	892.70833
1934.87	880.04167
1937.655	873.04167
1940.438	863.04167
1943.218	865.375
1945.997	873.04167
1948.774	876.04167
1951.549	869.04167
1954.322	864.70833
1957.093	871.375
1959.862	860.375
1962.629	849.04167
1965.394	839.70833
1968.157	836.70833
1970.918	836.375
1973.678	831.04167
1976.435	836.70833
1979.19	830.04167
1981.944	831.375
1984.696	827.375
1987.445	803.04167
1990.193	825.375
1992.939	839.70833
1995.683	815.04167
1998.425	786.375
2001.165	829.70833
2003.903	802.04167
2006.639	809.70833
2009.374	818.04167
2012.106	805.70833
2014.837	794.04167
2017.566	803.70833
2020.292	815.375
2023.017	807.375
2025.74	806.375
2028.461	787.70833
2031.18	779.70833
2033.898	773.04167
2036.613	775.70833
2039.327	788.375
2042.038	776.70833
2044.748	770.04167
2047.456	780.375
2050.162	752.04167
2052.866	766.70833
2055.568	780.70833
2058.268	756.375
2060.967	756.70833
2063.663	751.375
2066.358	753.04167
2069.051	750.375
2071.742	749.375
2074.431	758.04167
2077.118	746.70833
2079.804	733.70833
2082.487	751.375
2085.169	747.375
2087.849	767.375
2090.527	747.04167
2093.203	748.375
2095.877	761.70833
2098.55	748.04167
2101.22	769.04167
2103.889	779.70833
2106.556	770.04167
2109.221	798.04167
2111.884	805.375
2114.546	878.04167
2117.205	934.70833
2119.863	997.04167
2122.519	1045.70833
2125.173	1137.375
2127.825	1186.70833
2130.475	1214.04167
2133.124	1151.70833
2135.771	1109.375
2138.416	1060.04167
2141.059	988.04167
2143.7	927.70833
2146.339	878.375
2148.977	816.70833
2151.613	813.04167
2154.247	799.70833
2156.879	780.04167
2159.51	746.375
2162.138	729.04167
2164.765	740.70833
2167.39	722.70833
2170.013	728.70833
2172.634	723.04167
2175.254	713.04167
2177.872	735.70833
2180.488	692.70833
2183.102	706.04167
2185.714	702.70833
2188.325	663.04167
2190.934	681.375
2193.541	679.70833
2196.146	666.70833
2198.75	659.70833
2201.351	659.04167
2203.951	651.70833
2206.549	664.70833
2209.146	658.04167
2211.74	641.70833
2214.333	655.375
2216.924	644.70833
2219.514	635.70833
2222.101	628.70833
2224.687	643.375
2227.271	627.70833
2229.853	618.70833
2232.433	604.375
2235.012	636.04167
2237.589	616.70833
2240.164	634.375
2242.738	618.04167
2245.309	605.70833
2247.879	619.04167
2250.448	608.04167
2253.014	585.375
2255.579	574.375
2258.142	582.375
2260.703	564.04167
2263.262	583.375
2265.82	566.375
2268.376	574.375
2270.93	552.04167
2273.483	553.04167
2276.033	552.04167
2278.583	558.70833
2281.13	555.04167
2283.675	543.04167
2286.219	546.04167
2288.761	546.04167
2291.302	548.04167
2293.841	548.70833
2296.377	532.04167
2298.913	534.04167
2301.446	549.375
2303.978	540.04167
2306.508	523.70833
2309.037	533.04167
2311.563	541.70833
2314.088	534.04167
2316.612	512.04167
2319.133	530.375
2321.653	524.04167
2324.171	510.70833
2326.688	530.70833
2329.202	514.04167
2331.715	522.375
2334.227	514.04167
2336.736	516.70833
2339.244	502.70833
2341.751	487.04167
2344.255	513.70833
2346.758	506.375
2349.259	486.375
2351.759	510.375
2354.257	492.04167
2356.753	482.375
2359.247	489.04167
2361.74	496.70833
2364.231	486.375
2366.721	496.70833
2369.209	488.04167
2371.695	492.375
2374.179	484.375
2376.662	484.375
2379.143	486.04167
2381.622	473.04167
2384.1	479.375
2386.576	472.375
2389.051	489.04167
2391.524	498.375
2393.995	486.70833
2396.464	473.70833
2398.932	467.70833
2401.398	462.70833
2403.863	465.04167
2406.325	467.04167
2408.787	465.70833
2411.246	469.375
2413.704	473.04167
2416.16	455.375
2418.615	454.04167
2421.068	461.04167
2423.519	476.70833
2425.969	451.70833
2428.417	463.375
2430.863	474.04167
2433.308	465.04167
2435.751	463.70833
2438.193	457.70833
2440.633	465.375
2443.071	456.70833
2445.508	448.70833
2447.943	446.70833
2450.376	444.04167
2452.808	436.375
2455.238	428.375
2457.667	472.70833
2460.093	443.04167
2462.519	436.04167
2464.942	432.04167
2467.365	441.70833
2469.785	438.04167
2472.204	437.04167
2474.621	422.70833
2477.037	452.375
2479.451	421.375
2481.863	419.04167
2484.274	428.70833
2486.683	429.375
2489.091	431.70833
2491.497	432.375
2493.901	428.375
2496.304	425.04167
2498.705	420.04167
2501.105	422.70833
2503.503	449.70833
2505.899	418.04167
2508.294	435.375
2510.687	415.375
2513.079	417.04167
2515.469	410.04167
2517.858	417.70833
2520.245	425.04167
2522.63	409.375
2525.014	406.70833
2527.396	399.04167
2529.776	401.375
2532.156	418.375
2534.533	399.375
2536.909	402.375
2539.283	386.375
2541.656	403.04167
2544.027	415.04167
2546.397	407.375
2548.765	399.70833
2551.131	402.04167
2553.496	396.70833
2555.86	405.04167
2558.221	399.04167
2560.582	396.375
2562.94	388.375
2565.298	391.375
2567.653	403.04167
2570.007	394.375
2572.36	396.375
2574.711	385.70833
2577.06	404.04167
2579.408	393.70833
2581.754	391.04167
2584.099	398.04167
2586.442	390.375
2588.784	390.70833
2591.124	397.70833
2593.463	386.04167
2595.8	390.04167
2598.135	379.04167
2600.469	375.70833
2602.802	403.70833
2605.133	397.04167
2607.462	374.04167
2609.79	375.70833
2612.116	392.375
2614.441	389.70833
2616.764	390.375
2619.086	381.04167
2621.406	370.04167
2623.725	399.70833
2626.042	384.375
2628.358	374.375
2630.672	371.375
2632.985	392.04167
2635.296	389.04167
2637.606	382.04167
2639.914	366.04167
2642.22	377.70833
2644.525	379.375
2646.829	377.70833
2649.131	396.70833
2651.432	399.375
2653.731	371.375
2656.028	396.375
2658.324	391.375
2660.619	379.70833
2662.912	389.70833
2665.204	370.70833
2667.494	396.04167
2669.782	378.04167
2672.07	393.04167
2674.355	385.375
2676.639	377.70833
2678.922	377.375
2681.203	380.04167
2683.483	368.70833
2685.761	376.70833
2688.038	391.375
2690.313	400.04167
2692.587	383.70833
2694.859	374.04167
2697.13	390.70833
2699.399	401.04167
2701.667	409.04167
2703.933	395.04167
2706.198	391.375
2708.461	399.70833
2710.723	406.375
2712.984	404.70833
2715.243	412.04167
2717.5	397.04167
2719.757	423.04167
2722.011	403.04167
2724.264	416.375
2726.516	433.70833
2728.766	413.70833
2731.015	412.70833
2733.262	414.04167
2735.508	415.70833
2737.753	408.70833
2739.996	399.04167
2742.237	402.04167
2744.477	404.70833
2746.716	403.70833
2748.953	395.70833
2751.189	399.70833
2753.423	390.375
2755.656	389.70833
2757.887	384.375
2760.117	388.04167
2762.346	378.375
2764.573	368.04167
2766.798	380.375
2769.022	382.70833
2771.245	388.70833
2773.467	381.04167
2775.686	399.04167
2777.905	394.375
2780.122	397.70833
2782.337	399.375
2784.552	396.375
2786.764	406.04167
2788.976	395.70833
2791.186	407.04167
2793.394	415.04167
2795.601	425.04167
2797.807	428.70833
2800.011	432.375
2802.214	430.04167
2804.415	432.04167
2806.615	432.04167
2808.814	442.04167
2811.011	448.70833
2813.206	445.04167
2815.401	471.70833
2817.594	466.70833
2819.785	485.70833
2821.975	473.70833
2824.164	483.04167
2826.351	492.375
2828.537	507.04167
2830.722	510.375
2832.905	523.04167
2835.086	564.70833
2837.267	584.70833
2839.445	602.04167
2841.623	613.375
2843.799	647.375
2845.974	683.375
2848.147	706.375
2850.319	737.70833
2852.489	763.70833
2854.659	784.70833
2856.826	790.375
2858.993	824.70833
2861.158	803.04167
2863.321	808.375
2865.483	823.375
2867.644	831.375
2869.804	825.375
2871.962	817.70833
2874.118	809.04167
2876.274	814.70833
2878.428	819.70833
2880.58	813.375
2882.731	801.70833
2884.881	808.04167
2887.03	823.04167
2889.177	815.70833
2891.322	843.04167
2893.467	822.04167
2895.61	830.70833
2897.751	848.04167
2899.892	843.70833
2902.03	852.04167
2904.168	859.04167
2906.304	872.375
2908.439	880.375
2910.572	865.375
2912.704	892.70833
2914.835	874.70833
2916.965	875.04167
2919.093	887.04167
2921.219	863.375
2923.345	881.375
2925.469	856.04167
2927.591	861.375
2929.712	827.70833
2931.832	833.04167
2933.951	805.04167
2936.068	789.70833
2938.184	769.70833
2940.299	751.70833
2942.412	721.375
2944.524	690.375
2946.634	683.375
2948.744	641.70833
2950.851	654.70833
2952.958	621.375
2955.063	616.70833
2957.167	590.70833
2959.269	565.70833
2961.371	602.70833
2963.471	562.70833
2965.569	563.375
2967.666	533.04167
2969.762	534.04167
2971.857	516.70833
2973.95	505.04167
2976.042	500.04167
2978.133	483.375
2980.222	467.70833
2982.31	448.04167
2984.396	426.375
2986.482	429.70833
2988.566	417.375
2990.648	402.04167
2992.73	402.04167
2994.81	397.70833
2996.889	388.04167
2998.966	378.04167
3001.042	392.375
3003.117	383.70833
3005.191	378.04167
3007.263	373.04167
3009.334	359.375
3011.403	365.70833
3013.472	359.04167
3015.539	350.70833
3017.604	354.375
3019.669	325.70833
3021.732	326.375
3023.794	334.04167
3025.854	318.04167
3027.914	316.70833
3029.971	326.375
3032.028	314.375
3034.083	309.04167
3036.137	306.70833
3038.19	297.04167
3040.242	289.375
3042.292	283.70833
3044.341	282.04167
3046.388	293.04167
3048.435	276.375
3050.48	287.375
3052.524	276.04167
3054.566	266.375
3056.607	277.70833
3058.647	262.70833
3060.686	248.70833
3062.723	250.70833
3064.759	234.70833
3066.794	-0.625
3068.828	2.375
3070.86	3.04167
