-0.839	545.83333
3.438	645.16667
7.711	197.5
11.981	62.16667
16.247	47.5
20.509	47.16667
24.768	41.83333
29.024	52.83333
33.276	44.16667
37.524	48.16667
41.769	44.83333
46.01	28.16667
50.247	46.5
54.481	58.16667
58.712	60.5
62.939	46.16667
67.162	62.5
71.382	54.83333
75.599	43.16667
79.812	61.5
84.021	73.16667
88.227	57.16667
92.429	56.83333
96.628	51.83333
100.823	63.5
105.015	70.83333
109.204	62.5
113.388	71.16667
117.57	71.5
121.748	84.83333
125.922	74.5
130.093	89.83333
134.261	95.5
138.425	91.16667
142.585	133.16667
146.742	122.83333
150.896	150.16667
155.046	185.83333
159.193	288.5
163.336	505.16667
167.476	924.83333
171.613	1679.5
175.746	2802.83333
179.875	4046.83333
184.002	5293.83333
188.124	6083.83333
192.244	6304.16667
196.36	6233.5
200.472	5986.83333
204.581	5782.83333
208.687	5602.16667
212.79	5446.16667
216.889	5405.16667
220.984	5333.16667
225.077	5311.5
229.165	5286.83333
233.251	5252.5
237.333	5186.5
241.412	5094.5
245.487	5009.83333
249.559	4917.16667
253.628	4886.83333
257.694	4816.5
261.756	4778.83333
265.814	4654.5
269.87	4539.83333
273.922	4401.5
277.97	4325.5
282.016	4304.5
286.058	4356.16667
290.097	4436.5
294.132	4480.5
298.164	4454.5
302.193	4255.16667
306.219	3973.83333
310.241	3680.5
314.26	3418.5
318.276	3215.83333
322.288	3050.83333
326.297	2937.16667
330.303	2850.5
334.305	2800.83333
338.305	2755.83333
342.301	2717.83333
346.294	2716.5
350.283	2668.16667
354.269	2655.83333
358.252	2635.83333
362.232	2647.16667
366.209	2596.83333
370.182	2560.5
374.152	2571.83333
378.119	2591.5
382.083	2561.5
386.043	2582.5
390	2543.83333
393.954	2561.16667
397.905	2541.16667
401.852	2530.5
405.797	2510.5
409.738	2490.83333
413.676	2499.16667
417.61	2513.16667
421.542	2478.16667
425.47	2443.16667
429.396	2436.83333
433.318	2445.83333
437.236	2438.5
441.152	2454.5
445.065	2407.5
448.974	2411.5
452.88	2370.83333
456.783	2371.16667
460.683	2369.16667
464.58	2366.16667
468.473	2365.83333
472.364	2383.83333
476.251	2378.16667
480.135	2395.16667
484.016	2470.5
487.894	2482.16667
491.769	2514.5
495.641	2523.16667
499.509	2542.83333
503.375	2565.16667
507.237	2552.83333
511.096	2617.16667
514.952	2789.5
518.805	2979.5
522.655	3031.5
526.502	2740.5
530.346	2530.83333
534.187	2470.16667
538.024	2470.16667
541.859	2477.83333
545.69	2515.16667
549.519	2467.5
553.344	2444.5
557.166	2419.83333
560.985	2386.83333
564.802	2359.5
568.615	2320.5
572.425	2282.83333
576.232	2262.16667
580.036	2270.5
583.836	2277.83333
587.634	2306.16667
591.429	2283.5
595.221	2335.5
599.01	2345.5
602.796	2385.5
606.578	2396.16667
610.358	2389.16667
614.135	2362.16667
617.909	2356.16667
621.679	2321.83333
625.447	2311.16667
629.212	2325.5
632.973	2317.16667
636.732	2297.5
640.488	2299.83333
644.241	2314.16667
647.991	2287.16667
651.737	2307.83333
655.481	2283.5
659.222	2272.5
662.96	2262.83333
666.695	2279.16667
670.427	2311.5
674.156	2322.16667
677.882	2281.83333
681.605	2288.5
685.325	2274.16667
689.043	2278.16667
692.757	2247.5
696.468	2232.16667
700.177	2277.83333
703.882	2216.83333
707.585	2206.5
711.284	2212.83333
714.981	2216.83333
718.675	2223.83333
722.366	2219.5
726.054	2189.83333
729.739	2202.16667
733.421	2219.5
737.1	2194.83333
740.777	2221.16667
744.45	2238.5
748.121	2262.5
751.789	2286.5
755.453	2262.16667
759.115	2285.5
762.774	2292.83333
766.431	2296.16667
770.084	2331.5
773.734	2345.16667
777.382	2371.83333
781.027	2399.16667
784.669	2415.5
788.308	2428.83333
791.944	2425.83333
795.577	2441.83333
799.208	2432.16667
802.835	2479.83333
806.46	2474.83333
810.082	2476.5
813.701	2467.5
817.317	2495.5
820.931	2492.83333
824.542	2505.83333
828.149	2464.5
831.754	2444.83333
835.357	2430.83333
838.956	2448.83333
842.553	2447.16667
846.146	2441.16667
849.737	2423.16667
853.326	2405.16667
856.911	2413.5
860.493	2452.83333
864.073	2464.5
867.65	2493.83333
871.225	2533.5
874.796	2535.16667
878.365	2524.16667
881.931	2569.83333
885.494	2622.16667
889.054	2655.16667
892.612	2708.83333
896.166	2741.5
899.719	2752.5
903.268	2675.5
906.814	2608.83333
910.358	2517.83333
913.899	2476.16667
917.438	2457.5
920.973	2430.5
924.506	2451.16667
928.036	2501.16667
931.564	2525.83333
935.088	2542.16667
938.61	2574.5
942.129	2590.5
945.646	2646.16667
949.16	2683.5
952.671	2713.5
956.179	2726.16667
959.685	2681.5
963.188	2637.83333
966.688	2628.16667
970.185	2551.16667
973.68	2508.5
977.173	2468.83333
980.662	2451.83333
984.149	2448.5
987.633	2424.16667
991.114	2455.5
994.593	2500.5
998.069	2558.83333
1001.542	2619.5
1005.013	2586.5
1008.481	2448.83333
1011.947	2422.5
1015.409	2385.16667
1018.869	2394.83333
1022.327	2409.83333
1025.782	2394.83333
1029.234	2417.5
1032.683	2375.16667
1036.13	2309.16667
1039.574	2237.16667
1043.016	2166.16667
1046.455	2117.83333
1049.891	2092.16667
1053.325	2115.16667
1056.756	2098.5
1060.184	2101.16667
1063.61	2104.83333
1067.033	2134.5
1070.454	2150.16667
1073.872	2169.5
1077.287	2122.5
1080.7	2150.16667
1084.11	2133.16667
1087.517	2128.83333
1090.922	2099.5
1094.325	2100.16667
1097.724	2064.83333
1101.122	2064.16667
1104.516	2102.83333
1107.908	2069.5
1111.298	2127.5
1114.684	2145.5
1118.069	2171.5
1121.45	2208.83333
1124.83	2177.83333
1128.206	2209.5
1131.58	2230.16667
1134.951	2273.83333
1138.32	2357.5
1141.687	2408.5
1145.05	2466.5
1148.412	2460.16667
1151.77	2424.83333
1155.126	2440.5
1158.48	2374.5
1161.831	2414.83333
1165.18	2424.83333
1168.525	2452.16667
1171.869	2465.83333
1175.21	2505.5
1178.548	2517.83333
1181.884	2553.5
1185.217	2585.5
1188.548	2625.16667
1191.877	2679.5
1195.202	2764.83333
1198.526	2816.16667
1201.846	2841.16667
1205.165	2822.5
1208.48	2844.5
1211.794	2823.83333
1215.104	2827.5
1218.413	2829.16667
1221.719	2838.5
1225.022	2803.5
1228.323	2759.5
1231.621	2733.83333
1234.917	2708.16667
1238.21	2730.83333
1241.501	2710.5
1244.79	2703.83333
1248.076	2714.16667
1251.359	2743.16667
1254.64	2757.5
1257.919	2778.5
1261.195	2826.83333
1264.468	2876.5
1267.74	2908.16667
1271.008	2903.16667
1274.275	2919.5
1277.538	2887.83333
1280.8	2892.83333
1284.059	2894.83333
1287.315	2936.83333
1290.569	2939.16667
1293.821	2941.16667
1297.07	2966.16667
1300.317	3014.5
1303.562	2993.16667
1306.803	2961.5
1310.043	2960.16667
1313.28	2932.83333
1316.515	2925.83333
1319.747	2925.83333
1322.977	2943.83333
1326.204	2917.16667
1329.429	2906.5
1332.652	2935.16667
1335.872	2901.16667
1339.09	2841.83333
1342.306	2777.83333
1345.519	2728.16667
1348.729	2669.16667
1351.938	2638.83333
1355.144	2605.83333
1358.347	2553.83333
1361.548	2586.16667
1364.747	2547.83333
1367.944	2515.5
1371.138	2512.5
1374.329	2533.5
1377.518	2569.16667
1380.705	2588.16667
1383.89	2560.16667
1387.072	2492.83333
1390.252	2423.83333
1393.429	2346.16667
1396.605	2298.16667
1399.777	2265.83333
1402.948	2252.5
1406.116	2253.83333
1409.282	2268.83333
1412.445	2288.5
1415.606	2322.83333
1418.765	2333.16667
1421.921	2371.83333
1425.075	2372.83333
1428.227	2412.83333
1431.376	2496.16667
1434.524	2570.83333
1437.668	2646.16667
1440.811	2690.5
1443.951	2715.5
1447.089	2738.5
1450.224	2732.83333
1453.357	2684.83333
1456.488	2663.5
1459.617	2600.5
1462.743	2552.16667
1465.867	2461.83333
1468.989	2469.5
1472.108	2390.16667
1475.225	2344.83333
1478.34	2334.16667
1481.453	2308.5
1484.563	2330.83333
1487.671	2340.5
1490.776	2369.16667
1493.88	2401.83333
1496.981	2444.5
1500.08	2466.5
1503.176	2487.16667
1506.271	2518.5
1509.363	2543.83333
1512.452	2575.16667
1515.54	2596.16667
1518.625	2647.5
1521.708	2701.5
1524.789	2771.5
1527.867	2850.16667
1530.944	2983.83333
1534.018	3117.16667
1537.089	3269.5
1540.159	3294.16667
1543.226	3313.5
1546.291	3241.5
1549.354	3172.5
1552.415	3135.5
1555.473	3029.5
1558.529	2992.16667
1561.583	2959.16667
1564.634	2948.5
1567.684	2932.16667
1570.731	2945.5
1573.776	2975.5
1576.819	3002.5
1579.859	3016.83333
1582.898	3053.83333
1585.934	3083.83333
1588.968	3114.5
1591.999	3097.16667
1595.029	3114.16667
1598.056	3150.5
1601.081	3162.16667
1604.104	3187.83333
1607.125	3131.16667
1610.144	3068.5
1613.16	2994.83333
1616.174	2930.16667
1619.186	2869.16667
1622.196	2809.16667
1625.203	2743.83333
1628.209	2705.16667
1631.212	2684.83333
1634.213	2655.16667
1637.212	2643.83333
1640.209	2609.83333
1643.203	2555.5
1646.196	2456.5
1649.186	2378.5
1652.174	2294.5
1655.16	2221.83333
1658.144	2187.5
1661.125	2068.5
1664.105	1995.5
1667.082	1913.16667
1670.057	1827.16667
1673.03	1731.83333
1676.001	1622.83333
1678.97	1540.16667
1681.937	1444.16667
1684.901	1354.83333
1687.863	1322.83333
1690.824	1268.16667
1693.782	1247.5
1696.738	1176.5
1699.692	1175.83333
1702.643	1141.83333
1705.593	1124.83333
1708.54	1120.5
1711.486	1120.16667
1714.429	1081.16667
1717.37	1083.83333
1720.309	1054.5
1723.246	1068.16667
1726.181	1023.83333
1729.113	1045.83333
1732.044	1015.83333
1734.972	1004.16667
1737.899	1036.83333
1740.823	1030.16667
1743.745	985.5
1746.665	958.83333
1749.583	981.83333
1752.499	952.5
1755.413	949.5
1758.325	921.83333
1761.235	927.83333
1764.142	922.83333
1767.048	900.83333
1769.951	891.5
1772.852	893.83333
1775.752	893.5
1778.649	889.83333
1781.544	898.5
1784.437	873.83333
1787.328	888.16667
1790.217	872.5
1793.104	840.5
1795.989	850.5
1798.872	852.16667
1801.753	868.5
1804.631	848.83333
1807.508	873.83333
1810.383	852.16667
1813.255	847.5
1816.126	843.5
1818.994	847.83333
1821.861	840.83333
1824.725	834.83333
1827.587	839.16667
1830.448	828.16667
1833.306	803.5
1836.162	824.5
1839.017	809.83333
1841.869	826.83333
1844.719	810.83333
1847.567	797.83333
1850.414	792.83333
1853.258	792.5
1856.1	816.83333
1858.94	819.16667
1861.778	804.16667
1864.614	799.16667
1867.448	803.16667
1870.28	790.83333
1873.111	818.5
1875.939	802.83333
1878.765	812.16667
1881.589	796.83333
1884.411	808.16667
1887.231	805.16667
1890.049	798.16667
1892.865	796.16667
1895.68	783.16667
1898.492	793.16667
1901.302	796.5
1904.11	783.83333
1906.916	762.16667
1909.721	778.83333
1912.523	775.16667
1915.323	767.16667
1918.122	775.83333
1920.918	776.16667
1923.712	761.83333
1926.505	759.5
1929.295	761.83333
1932.084	778.83333
1934.87	770.16667
1937.655	772.16667
1940.438	769.16667
1943.218	772.16667
1945.997	778.5
1948.774	780.83333
1951.549	775.16667
1954.322	775.16667
1957.093	766.5
1959.862	768.16667
1962.629	762.16667
1965.394	760.16667
1968.157	743.16667
1970.918	750.5
1973.678	740.5
1976.435	759.16667
1979.19	755.16667
1981.944	749.83333
1984.696	735.16667
1987.445	735.83333
1990.193	752.83333
1992.939	758.16667
1995.683	741.5
1998.425	726.5
2001.165	766.83333
2003.903	734.5
2006.639	737.83333
2009.374	758.16667
2012.106	746.83333
2014.837	737.83333
2017.566	748.16667
2020.292	752.5
2023.017	751.16667
2025.74	727.16667
2028.461	737.83333
2031.18	739.16667
2033.898	732.16667
2036.613	754.83333
2039.327	747.16667
2042.038	727.16667
2044.748	734.16667
2047.456	745.83333
2050.162	727.16667
2052.866	734.16667
2055.568	748.83333
2058.268	740.16667
2060.967	742.83333
2063.663	727.16667
2066.358	746.16667
2069.051	731.16667
2071.742	742.5
2074.431	735.16667
2077.118	736.16667
2079.804	732.5
2082.487	735.5
2085.169	756.83333
2087.849	767.83333
2090.527	734.83333
2093.203	761.5
2095.877	763.16667
2098.55	754.83333
2101.22	772.5
2103.889	769.5
2106.556	791.83333
2109.221	792.83333
2111.884	817.16667
2114.546	866.5
2117.205	894.83333
2119.863	968.16667
2122.519	1015.83333
2125.173	1065.16667
2127.825	1108.16667
2130.475	1114.83333
2133.124	1065.83333
2135.771	1023.16667
2138.416	999.5
2141.059	946.16667
2143.7	916.16667
2146.339	876.16667
2148.977	814.5
2151.613	836.16667
2154.247	812.83333
2156.879	811.5
2159.51	777.5
2162.138	781.16667
2164.765	775.5
2167.39	755.5
2170.013	776.5
2172.634	776.16667
2175.254	760.5
2177.872	788.83333
2180.488	740.83333
2183.102	768.16667
2185.714	752.83333
2188.325	735.5
2190.934	746.83333
2193.541	745.16667
2196.146	735.83333
2198.75	732.16667
2201.351	731.83333
2203.951	726.16667
2206.549	752.5
2209.146	727.83333
2211.74	734.16667
2214.333	742.5
2216.924	721.5
2219.514	746.16667
2222.101	724.5
2224.687	744.16667
2227.271	728.83333
2229.853	720.5
2232.433	729.16667
2235.012	748.83333
2237.589	730.16667
2240.164	748.5
2242.738	729.16667
2245.309	723.83333
2247.879	751.83333
2250.448	741.5
2253.014	724.5
2255.579	714.5
2258.142	729.16667
2260.703	727.16667
2263.262	728.16667
2265.82	728.5
2268.376	728.83333
2270.93	731.83333
2273.483	715.83333
2276.033	729.16667
2278.583	714.83333
2281.13	724.83333
2283.675	724.5
2286.219	719.5
2288.761	722.5
2291.302	737.5
2293.841	747.5
2296.377	714.16667
2298.913	723.16667
2301.446	755.5
2303.978	741.83333
2306.508	736.83333
2309.037	735.83333
2311.563	731.5
2314.088	746.16667
2316.612	723.5
2319.133	743.16667
2321.653	750.83333
2324.171	729.16667
2326.688	753.5
2329.202	743.16667
2331.715	742.83333
2334.227	736.5
2336.736	753.16667
2339.244	742.83333
2341.751	735.5
2344.255	745.83333
2346.758	760.16667
2349.259	740.5
2351.759	754.5
2354.257	748.83333
2356.753	743.5
2359.247	761.16667
2361.74	768.83333
2364.231	765.5
2366.721	772.16667
2369.209	759.5
2371.695	770.83333
2374.179	767.16667
2376.662	749.5
2379.143	778.5
2381.622	769.83333
2384.1	778.5
2386.576	773.5
2389.051	795.5
2391.524	791.5
2393.995	792.5
2396.464	783.5
2398.932	784.83333
2401.398	778.5
2403.863	787.83333
2406.325	772.83333
2408.787	791.16667
2411.246	789.5
2413.704	801.5
2416.16	797.83333
2418.615	793.16667
2421.068	802.5
2423.519	808.83333
2425.969	806.16667
2428.417	805.5
2430.863	828.16667
2433.308	829.5
2435.751	822.16667
2438.193	817.83333
2440.633	820.16667
2443.071	833.5
2445.508	814.5
2447.943	816.16667
2450.376	813.5
2452.808	822.5
2455.238	825.16667
2457.667	868.16667
2460.093	840.83333
2462.519	838.5
2464.942	836.83333
2467.365	842.83333
2469.785	851.83333
2472.204	843.16667
2474.621	842.16667
2477.037	864.5
2479.451	840.83333
2481.863	852.5
2484.274	860.5
2486.683	851.5
2489.091	866.5
2491.497	867.5
2493.901	867.83333
2496.304	865.83333
2498.705	887.16667
2501.105	877.5
2503.503	902.5
2505.899	871.5
2508.294	897.16667
2510.687	886.83333
2513.079	902.16667
2515.469	872.5
2517.858	883.83333
2520.245	899.16667
2522.63	885.83333
2525.014	889.16667
2527.396	884.5
2529.776	883.16667
2532.156	921.16667
2534.533	904.83333
2536.909	890.16667
2539.283	899.5
2541.656	902.16667
2544.027	926.16667
2546.397	912.16667
2548.765	920.83333
2551.131	917.5
2553.496	920.5
2555.86	946.5
2558.221	931.5
2560.582	928.83333
2562.94	927.5
2565.298	941.83333
2567.653	948.16667
2570.007	940.5
2572.36	957.5
2574.711	937.5
2577.06	969.83333
2579.408	967.5
2581.754	955.83333
2584.099	979.83333
2586.442	968.5
2588.784	980.83333
2591.124	978.16667
2593.463	978.83333
2595.8	984.5
2598.135	980.83333
2600.469	977.16667
2602.802	991.5
2605.133	1006.16667
2607.462	967.83333
2609.79	981.5
2612.116	1001.5
2614.441	999.5
2616.764	1023.83333
2619.086	1014.16667
2621.406	1017.83333
2623.725	1035.5
2626.042	1033.16667
2628.358	1027.83333
2630.672	1032.5
2632.985	1045.5
2635.296	1053.83333
2637.606	1055.83333
2639.914	1023.16667
2642.22	1056.16667
2644.525	1047.5
2646.829	1059.16667
2649.131	1085.16667
2651.432	1083.83333
2653.731	1084.83333
2656.028	1105.16667
2658.324	1107.16667
2660.619	1106.5
2662.912	1110.16667
2665.204	1076.16667
2667.494	1101.5
2669.782	1095.5
2672.07	1123.5
2674.355	1113.5
2676.639	1116.5
2678.922	1107.83333
2681.203	1114.5
2683.483	1108.5
2685.761	1121.5
2688.038	1113.16667
2690.313	1147.83333
2692.587	1137.16667
2694.859	1135.83333
2697.13	1141.5
2699.399	1155.16667
2701.667	1170.83333
2703.933	1169.5
2706.198	1155.16667
2708.461	1173.16667
2710.723	1173.83333
2712.984	1181.16667
2715.243	1184.83333
2717.5	1186.83333
2719.757	1205.5
2722.011	1206.5
2724.264	1213.83333
2726.516	1238.16667
2728.766	1217.83333
2731.015	1246.16667
2733.262	1225.5
2735.508	1235.83333
2737.753	1221.16667
2739.996	1219.16667
2742.237	1228.5
2744.477	1243.16667
2746.716	1233.83333
2748.953	1225.5
2751.189	1239.83333
2753.423	1226.5
2755.656	1224.83333
2757.887	1218.5
2760.117	1217.16667
2762.346	1216.16667
2764.573	1216.16667
2766.798	1222.16667
2769.022	1230.83333
2771.245	1251.5
2773.467	1242.16667
2775.686	1256.83333
2777.905	1272.16667
2780.122	1262.5
2782.337	1278.83333
2784.552	1276.5
2786.764	1276.83333
2788.976	1289.5
2791.186	1296.83333
2793.394	1315.83333
2795.601	1335.83333
2797.807	1346.83333
2800.011	1347.83333
2802.214	1339.5
2804.415	1348.83333
2806.615	1358.5
2808.814	1342.83333
2811.011	1354.5
2813.206	1351.5
2815.401	1372.83333
2817.594	1373.5
2819.785	1374.83333
2821.975	1363.5
2824.164	1388.16667
2826.351	1396.5
2828.537	1422.83333
2830.722	1412.83333
2832.905	1423.5
2835.086	1458.83333
2837.267	1480.16667
2839.445	1490.83333
2841.623	1488.83333
2843.799	1521.5
2845.974	1546.83333
2848.147	1577.16667
2850.319	1583.16667
2852.489	1639.5
2854.659	1653.5
2856.826	1656.83333
2858.993	1675.5
2861.158	1642.83333
2863.321	1667.83333
2865.483	1690.83333
2867.644	1686.16667
2869.804	1678.83333
2871.962	1670.16667
2874.118	1671.83333
2876.274	1671.5
2878.428	1653.83333
2880.58	1656.16667
2882.731	1642.16667
2884.881	1643.5
2887.03	1664.16667
2889.177	1657.83333
2891.322	1675.5
2893.467	1678.5
2895.61	1672.16667
2897.751	1690.5
2899.892	1708.83333
2902.03	1685.5
2904.168	1725.83333
2906.304	1728.16667
2908.439	1751.16667
2910.572	1743.5
2912.704	1774.83333
2914.835	1756.16667
2916.965	1757.16667
2919.093	1781.5
2921.219	1747.16667
2923.345	1771.16667
2925.469	1748.5
2927.591	1730.83333
2929.712	1706.5
2931.832	1698.5
2933.951	1693.83333
2936.068	1678.5
2938.184	1667.83333
2940.299	1638.16667
2942.412	1625.16667
2944.524	1603.16667
2946.634	1614.83333
2948.744	1573.83333
2950.851	1605.16667
2952.958	1583.83333
2955.063	1602.83333
2957.167	1574.16667
2959.269	1557.5
2961.371	1612.16667
2963.471	1561.16667
2965.569	1587.5
2967.666	1557.5
2969.762	1555.5
2971.857	1566.5
2973.95	1532.5
2976.042	1536.83333
2978.133	1504.83333
2980.222	1491.83333
2982.31	1468.5
2984.396	1446.5
2986.482	1457.5
2988.566	1429.83333
2990.648	1431.83333
2992.73	1419.83333
2994.81	1420.5
2996.889	1427.16667
2998.966	1421.5
3001.042	1438.83333
3003.117	1435.83333
3005.191	1435.83333
3007.263	1429.83333
3009.334	1420.83333
3011.403	1404.83333
3013.472	1384.83333
3015.539	1374.16667
3017.604	1375.83333
3019.669	1336.83333
3021.732	1335.16667
3023.794	1354.16667
3025.854	1329.16667
3027.914	1341.16667
3029.971	1347.5
3032.028	1333.83333
3034.083	1337.16667
3036.137	1320.83333
3038.19	1277.83333
3040.242	1257.16667
3042.292	1236.5
3044.341	1233.5
3046.388	1227.83333
3048.435	1189.83333
3050.48	1197.5
3052.524	1184.5
3054.566	1188.5
3056.607	1182.83333
3058.647	1151.16667
3060.686	1121.83333
3062.723	1087.16667
3064.759	1057.16667
3066.794	0.5
3068.828	1.5
3070.86	2.5
