-0.839	498.29167
3.438	579.29167
7.711	174.625
11.981	64.95833
16.247	44.29167
20.509	52.625
24.768	47.29167
29.024	54.625
33.276	43.29167
37.524	51.625
41.769	48.95833
46.01	35.95833
50.247	44.29167
54.481	62.29167
58.712	66.29167
62.939	43.95833
67.162	65.95833
71.382	56.95833
75.599	44.95833
79.812	62.625
84.021	75.625
88.227	61.95833
92.429	57.625
96.628	49.625
100.823	73.95833
105.015	76.29167
109.204	70.95833
113.388	74.29167
117.57	76.29167
121.748	86.625
125.922	78.95833
130.093	98.29167
134.261	95.29167
138.425	99.625
142.585	142.625
146.742	134.29167
150.896	165.625
155.046	208.625
159.193	322.95833
163.336	548.95833
167.476	1008.29167
171.613	1839.95833
175.746	3002.95833
179.875	4484.625
184.002	5779.29167
188.124	6721.29167
192.244	7007.625
196.36	6933.625
200.472	6712.95833
204.581	6473.29167
208.687	6264.29167
212.79	6139.29167
216.889	6097.95833
220.984	6087.95833
225.077	6073.29167
229.165	6017.625
233.251	6016.625
237.333	5974.95833
241.412	5894.29167
245.487	5825.29167
249.559	5760.625
253.628	5702.625
257.694	5649.625
261.756	5635.625
265.814	5541.625
269.87	5381.95833
273.922	5203.95833
277.97	5095.29167
282.016	5099.625
286.058	5071.95833
290.097	5162.29167
294.132	5300.29167
298.164	5309.29167
302.193	5075.625
306.219	4736.29167
310.241	4326.625
314.26	3967.625
318.276	3695.95833
322.288	3533.29167
326.297	3379.95833
330.303	3266.625
334.305	3185.95833
338.305	3135.625
342.301	3069.95833
346.294	3079.95833
350.283	3036.625
354.269	3002.95833
358.252	2999.95833
362.232	2985.95833
366.209	2958.625
370.182	2930.95833
374.152	2902.95833
378.119	2934.95833
382.083	2928.95833
386.043	2933.95833
390	2914.625
393.954	2921.95833
397.905	2897.29167
401.852	2885.95833
405.797	2848.29167
409.738	2853.625
413.676	2880.95833
417.61	2844.29167
421.542	2819.29167
425.47	2789.625
429.396	2786.625
433.318	2763.625
437.236	2751.95833
441.152	2799.95833
445.065	2732.625
448.974	2694.95833
452.88	2697.95833
456.783	2671.625
460.683	2656.29167
464.58	2670.95833
468.473	2681.625
472.364	2713.29167
476.251	2707.625
480.135	2735.625
484.016	2787.95833
487.894	2792.95833
491.769	2840.29167
495.641	2839.625
499.509	2866.95833
503.375	2887.625
507.237	2860.95833
511.096	2850.95833
514.952	2831.95833
518.805	2827.95833
522.655	2849.625
526.502	2781.625
530.346	2790.29167
534.187	2804.625
538.024	2792.625
541.859	2816.29167
545.69	2836.29167
549.519	2816.95833
553.344	2784.95833
557.166	2743.95833
560.985	2724.95833
564.802	2658.29167
568.615	2626.29167
572.425	2590.625
576.232	2560.625
580.036	2557.29167
583.836	2588.95833
587.634	2584.625
591.429	2592.95833
595.221	2662.625
599.01	2684.29167
602.796	2702.29167
606.578	2722.95833
610.358	2715.95833
614.135	2692.625
617.909	2668.29167
621.679	2656.95833
625.447	2603.29167
629.212	2618.29167
632.973	2610.625
636.732	2609.95833
640.488	2623.95833
644.241	2620.95833
647.991	2590.625
651.737	2609.29167
655.481	2585.625
659.222	2590.95833
662.96	2584.625
666.695	2620.29167
670.427	2626.29167
674.156	2657.625
677.882	2626.625
681.605	2611.95833
685.325	2580.95833
689.043	2583.29167
692.757	2572.625
696.468	2568.95833
700.177	2550.95833
703.882	2541.95833
707.585	2524.29167
711.284	2500.625
714.981	2523.625
718.675	2519.29167
722.366	2526.625
726.054	2503.29167
729.739	2497.625
733.421	2501.29167
737.1	2519.29167
740.777	2532.625
744.45	2546.625
748.121	2566.625
751.789	2583.95833
755.453	2603.29167
759.115	2604.625
762.774	2628.95833
766.431	2634.625
770.084	2654.625
773.734	2680.95833
777.382	2712.29167
781.027	2739.95833
784.669	2755.625
788.308	2758.95833
791.944	2770.625
795.577	2779.29167
799.208	2809.29167
802.835	2828.95833
806.46	2825.625
810.082	2844.29167
813.701	2863.95833
817.317	2879.625
820.931	2879.29167
824.542	2861.29167
828.149	2809.625
831.754	2809.625
835.357	2815.29167
838.956	2813.95833
842.553	2817.625
846.146	2781.625
849.737	2756.29167
853.326	2760.29167
856.911	2735.29167
860.493	2792.95833
864.073	2813.625
867.65	2850.95833
871.225	2876.95833
874.796	2881.29167
878.365	2904.29167
881.931	2941.29167
885.494	2984.95833
889.054	3029.95833
892.612	3074.95833
896.166	3111.625
899.719	3100.95833
903.268	3029.625
906.814	2962.29167
910.358	2859.625
913.899	2818.625
917.438	2806.625
920.973	2779.95833
924.506	2825.29167
928.036	2852.625
931.564	2896.29167
935.088	2938.29167
938.61	2926.625
942.129	2960.625
945.646	3025.29167
949.16	3064.29167
952.671	3124.625
956.179	3118.29167
959.685	3082.95833
963.188	3097.29167
966.688	3051.29167
970.185	2949.625
973.68	2894.29167
977.173	2830.95833
980.662	2813.95833
984.149	2804.95833
987.633	2781.95833
991.114	2823.95833
994.593	2881.625
998.069	2971.29167
1001.542	3019.95833
1005.013	2973.625
1008.481	2839.95833
1011.947	2803.29167
1015.409	2773.29167
1018.869	2771.29167
1022.327	2798.29167
1025.782	2772.625
1029.234	2804.29167
1032.683	2764.625
1036.13	2677.625
1039.574	2567.95833
1043.016	2512.95833
1046.455	2463.95833
1049.891	2425.625
1053.325	2428.625
1056.756	2431.29167
1060.184	2454.29167
1063.61	2462.29167
1067.033	2464.95833
1070.454	2481.625
1073.872	2499.95833
1077.287	2504.95833
1080.7	2503.625
1084.11	2496.29167
1087.517	2481.95833
1090.922	2437.625
1094.325	2438.95833
1097.724	2401.95833
1101.122	2415.625
1104.516	2409.625
1107.908	2411.29167
1111.298	2439.95833
1114.684	2493.29167
1118.069	2514.625
1121.45	2533.625
1124.83	2510.625
1128.206	2545.29167
1131.58	2582.29167
1134.951	2652.95833
1138.32	2728.625
1141.687	2819.29167
1145.05	2875.95833
1148.412	2863.95833
1151.77	2862.625
1155.126	2835.29167
1158.48	2810.95833
1161.831	2810.625
1165.18	2818.625
1168.525	2884.625
1171.869	2875.29167
1175.21	2895.95833
1178.548	2925.625
1181.884	2961.625
1185.217	2981.625
1188.548	3055.29167
1191.877	3112.95833
1195.202	3205.29167
1198.526	3261.95833
1201.846	3286.95833
1205.165	3307.625
1208.48	3283.29167
1211.794	3276.625
1215.104	3301.29167
1218.413	3279.95833
1221.719	3291.625
1225.022	3247.625
1228.323	3194.625
1231.621	3162.625
1234.917	3115.29167
1238.21	3124.29167
1241.501	3136.95833
1244.79	3115.29167
1248.076	3126.29167
1251.359	3155.29167
1254.64	3219.625
1257.919	3214.625
1261.195	3277.95833
1264.468	3320.29167
1267.74	3372.625
1271.008	3389.29167
1274.275	3385.95833
1277.538	3351.95833
1280.8	3347.625
1284.059	3368.625
1287.315	3399.95833
1290.569	3392.95833
1293.821	3440.29167
1297.07	3426.95833
1300.317	3464.95833
1303.562	3486.625
1306.803	3414.625
1310.043	3424.95833
1313.28	3397.95833
1316.515	3394.625
1319.747	3380.95833
1322.977	3390.625
1326.204	3388.625
1329.429	3363.29167
1332.652	3348.95833
1335.872	3318.29167
1339.09	3278.29167
1342.306	3194.95833
1345.519	3146.625
1348.729	3069.625
1351.938	3074.625
1355.144	3012.29167
1358.347	2969.625
1361.548	2965.95833
1364.747	2942.29167
1367.944	2892.625
1371.138	2929.29167
1374.329	2942.625
1377.518	2949.625
1380.705	2999.625
1383.89	2991.29167
1387.072	2904.95833
1390.252	2779.29167
1393.429	2697.625
1396.605	2646.29167
1399.777	2587.625
1402.948	2598.29167
1406.116	2587.625
1409.282	2599.95833
1412.445	2627.95833
1415.606	2655.625
1418.765	2654.29167
1421.921	2678.29167
1425.075	2683.29167
1428.227	2774.29167
1431.376	2877.95833
1434.524	2980.29167
1437.668	3064.29167
1440.811	3119.95833
1443.951	3149.625
1447.089	3172.625
1450.224	3171.625
1453.357	3119.625
1456.488	3072.95833
1459.617	3024.29167
1462.743	2962.29167
1465.867	2887.625
1468.989	2825.625
1472.108	2794.29167
1475.225	2755.625
1478.34	2697.29167
1481.453	2678.95833
1484.563	2694.29167
1487.671	2722.95833
1490.776	2770.95833
1493.88	2787.625
1496.981	2808.29167
1500.08	2850.29167
1503.176	2912.625
1506.271	2945.29167
1509.363	2978.625
1512.452	2990.29167
1515.54	3044.29167
1518.625	3080.625
1521.708	3147.95833
1524.789	3221.95833
1527.867	3346.625
1530.944	3525.95833
1534.018	3670.29167
1537.089	3781.95833
1540.159	3820.95833
1543.226	3819.29167
1546.291	3727.95833
1549.354	3648.625
1552.415	3560.95833
1555.473	3464.625
1558.529	3438.29167
1561.583	3389.95833
1564.634	3377.29167
1567.684	3379.29167
1570.731	3392.625
1573.776	3435.95833
1576.819	3454.29167
1579.859	3501.95833
1582.898	3578.95833
1585.934	3587.625
1588.968	3618.625
1591.999	3599.95833
1595.029	3606.625
1598.056	3648.29167
1601.081	3669.625
1604.104	3649.95833
1607.125	3630.95833
1610.144	3536.95833
1613.16	3496.29167
1616.174	3416.625
1619.186	3341.29167
1622.196	3270.95833
1625.203	3165.29167
1628.209	3140.29167
1631.212	3114.29167
1634.213	3078.95833
1637.212	3076.625
1640.209	3014.29167
1643.203	2941.29167
1646.196	2854.95833
1649.186	2733.29167
1652.174	2670.625
1655.16	2577.95833
1658.144	2501.29167
1661.125	2387.29167
1664.105	2310.625
1667.082	2197.95833
1670.057	2074.625
1673.03	1960.95833
1676.001	1818.625
1678.97	1703.625
1681.937	1595.95833
1684.901	1523.625
1687.863	1469.95833
1690.824	1403.625
1693.782	1381.29167
1696.738	1321.29167
1699.692	1287.29167
1702.643	1259.625
1705.593	1234.95833
1708.54	1242.625
1711.486	1225.29167
1714.429	1189.95833
1717.37	1193.29167
1720.309	1162.29167
1723.246	1166.29167
1726.181	1144.95833
1729.113	1138.29167
1732.044	1130.29167
1734.972	1119.29167
1737.899	1132.29167
1740.823	1125.625
1743.745	1088.95833
1746.665	1070.625
1749.583	1050.625
1752.499	1047.625
1755.413	1034.625
1758.325	998.95833
1761.235	1016.95833
1764.142	997.625
1767.048	966.625
1769.951	987.29167
1772.852	970.625
1775.752	969.625
1778.649	968.29167
1781.544	962.29167
1784.437	935.625
1787.328	945.625
1790.217	938.625
1793.104	910.29167
1795.989	927.625
1798.872	909.625
1801.753	919.95833
1804.631	918.95833
1807.508	924.29167
1810.383	918.29167
1813.255	899.29167
1816.126	906.29167
1818.994	898.29167
1821.861	895.625
1824.725	880.95833
1827.587	890.29167
1830.448	885.95833
1833.306	850.29167
1836.162	866.29167
1839.017	852.29167
1841.869	848.95833
1844.719	851.29167
1847.567	843.625
1850.414	833.29167
1853.258	854.95833
1856.1	857.29167
1858.94	860.625
1861.778	845.625
1864.614	828.625
1867.448	824.95833
1870.28	832.625
1873.111	853.625
1875.939	838.95833
1878.765	845.29167
1881.589	831.29167
1884.411	833.29167
1887.231	825.29167
1890.049	821.625
1892.865	825.625
1895.68	818.95833
1898.492	816.29167
1901.302	818.29167
1904.11	810.625
1906.916	794.625
1909.721	789.29167
1912.523	799.95833
1915.323	766.625
1918.122	795.29167
1920.918	800.625
1923.712	773.625
1926.505	780.29167
1929.295	771.625
1932.084	801.625
1934.87	779.29167
1937.655	775.625
1940.438	753.625
1943.218	770.29167
1945.997	770.625
1948.774	779.95833
1951.549	773.95833
1954.322	758.625
1957.093	761.29167
1959.862	764.29167
1962.629	748.625
1965.394	749.29167
1968.157	738.625
1970.918	739.29167
1973.678	726.625
1976.435	755.29167
1979.19	740.95833
1981.944	719.29167
1984.696	732.95833
1987.445	712.95833
1990.193	727.95833
1992.939	733.29167
1995.683	717.625
1998.425	708.625
2001.165	744.29167
2003.903	724.625
2006.639	710.95833
2009.374	730.95833
2012.106	716.625
2014.837	692.29167
2017.566	707.625
2020.292	711.95833
2023.017	711.625
2025.74	710.29167
2028.461	695.95833
2031.18	686.29167
2033.898	689.625
2036.613	689.625
2039.327	694.625
2042.038	687.625
2044.748	674.95833
2047.456	691.625
2050.162	675.95833
2052.866	675.95833
2055.568	689.95833
2058.268	680.29167
2060.967	676.625
2063.663	666.625
2066.358	670.625
2069.051	660.625
2071.742	668.29167
2074.431	664.95833
2077.118	662.625
2079.804	664.29167
2082.487	666.29167
2085.169	671.95833
2087.849	691.625
2090.527	656.625
2093.203	664.95833
2095.877	668.95833
2098.55	672.625
2101.22	674.95833
2103.889	687.625
2106.556	680.95833
2109.221	696.625
2111.884	691.95833
2114.546	745.625
2117.205	774.95833
2119.863	829.625
2122.519	864.29167
2125.173	934.29167
2127.825	967.95833
2130.475	990.625
2133.124	931.95833
2135.771	913.625
2138.416	882.29167
2141.059	824.625
2143.7	784.625
2146.339	743.29167
2148.977	698.95833
2151.613	700.95833
2154.247	686.29167
2156.879	671.625
2159.51	641.625
2162.138	634.625
2164.765	650.95833
2167.39	616.625
2170.013	643.625
2172.634	639.29167
2175.254	628.625
2177.872	645.95833
2180.488	599.625
2183.102	618.29167
2185.714	614.95833
2188.325	590.29167
2190.934	603.625
2193.541	603.625
2196.146	593.625
2198.75	577.95833
2201.351	584.95833
2203.951	561.95833
2206.549	589.625
2209.146	571.95833
2211.74	576.95833
2214.333	568.625
2216.924	558.95833
2219.514	569.29167
2222.101	560.625
2224.687	570.29167
2227.271	559.625
2229.853	547.95833
2232.433	542.29167
2235.012	565.29167
2237.589	558.625
2240.164	569.625
2242.738	550.29167
2245.309	546.95833
2247.879	545.95833
2250.448	553.95833
2253.014	528.625
2255.579	516.29167
2258.142	529.29167
2260.703	525.29167
2263.262	526.625
2265.82	519.95833
2268.376	517.95833
2270.93	506.29167
2273.483	514.625
2276.033	514.95833
2278.583	509.95833
2281.13	505.95833
2283.675	503.29167
2286.219	502.625
2288.761	505.625
2291.302	511.29167
2293.841	524.95833
2296.377	497.625
2298.913	495.625
2301.446	505.625
2303.978	496.625
2306.508	484.29167
2309.037	487.95833
2311.563	494.95833
2314.088	496.29167
2316.612	475.625
2319.133	482.29167
2321.653	489.95833
2324.171	481.625
2326.688	490.29167
2329.202	475.29167
2331.715	473.625
2334.227	471.29167
2336.736	489.625
2339.244	470.29167
2341.751	467.95833
2344.255	477.29167
2346.758	465.95833
2349.259	461.95833
2351.759	465.29167
2354.257	457.625
2356.753	456.625
2359.247	463.625
2361.74	469.625
2364.231	475.95833
2366.721	478.625
2369.209	465.95833
2371.695	468.625
2374.179	461.29167
2376.662	450.29167
2379.143	461.95833
2381.622	457.29167
2384.1	465.625
2386.576	451.625
2389.051	471.625
2391.524	473.29167
2393.995	460.29167
2396.464	453.29167
2398.932	447.95833
2401.398	460.29167
2403.863	454.29167
2406.325	444.95833
2408.787	451.95833
2411.246	448.95833
2413.704	436.95833
2416.16	433.625
2418.615	439.29167
2421.068	453.95833
2423.519	456.29167
2425.969	434.95833
2428.417	448.29167
2430.863	462.95833
2433.308	452.95833
2435.751	456.29167
2438.193	442.625
2440.633	445.625
2443.071	442.29167
2445.508	433.95833
2447.943	436.95833
2450.376	430.95833
2452.808	432.625
2455.238	435.95833
2457.667	469.29167
2460.093	433.95833
2462.519	425.625
2464.942	427.95833
2467.365	437.95833
2469.785	445.625
2472.204	435.29167
2474.621	418.29167
2477.037	452.95833
2479.451	422.29167
2481.863	414.625
2484.274	426.95833
2486.683	428.29167
2489.091	439.95833
2491.497	420.625
2493.901	435.29167
2496.304	420.625
2498.705	433.29167
2501.105	416.625
2503.503	451.29167
2505.899	418.95833
2508.294	443.95833
2510.687	425.29167
2513.079	429.29167
2515.469	412.95833
2517.858	428.95833
2520.245	426.95833
2522.63	420.95833
2525.014	420.29167
2527.396	408.29167
2529.776	412.625
2532.156	420.625
2534.533	417.29167
2536.909	404.625
2539.283	406.625
2541.656	414.29167
2544.027	430.95833
2546.397	413.29167
2548.765	405.625
2551.131	408.29167
2553.496	411.95833
2555.86	415.95833
2558.221	423.29167
2560.582	410.625
2562.94	395.95833
2565.298	415.95833
2567.653	424.95833
2570.007	401.29167
2572.36	424.625
2574.711	400.29167
2577.06	424.95833
2579.408	417.625
2581.754	415.95833
2584.099	425.95833
2586.442	414.625
2588.784	420.625
2591.124	415.95833
2593.463	408.29167
2595.8	414.95833
2598.135	398.625
2600.469	410.625
2602.802	416.29167
2605.133	432.29167
2607.462	404.625
2609.79	394.95833
2612.116	414.95833
2614.441	408.95833
2616.764	418.95833
2619.086	414.29167
2621.406	398.625
2623.725	431.29167
2626.042	417.95833
2628.358	413.95833
2630.672	404.95833
2632.985	437.29167
2635.296	419.625
2637.606	414.625
2639.914	404.29167
2642.22	418.29167
2644.525	413.95833
2646.829	417.95833
2649.131	431.625
2651.432	429.625
2653.731	416.625
2656.028	430.95833
2658.324	436.625
2660.619	418.29167
2662.912	433.625
2665.204	414.29167
2667.494	424.29167
2669.782	415.625
2672.07	435.625
2674.355	432.95833
2676.639	435.29167
2678.922	413.95833
2681.203	426.95833
2683.483	417.625
2685.761	422.29167
2688.038	431.625
2690.313	440.95833
2692.587	423.29167
2694.859	428.95833
2697.13	434.29167
2699.399	441.95833
2701.667	439.625
2703.933	444.95833
2706.198	451.625
2708.461	448.95833
2710.723	452.95833
2712.984	448.625
2715.243	459.29167
2717.5	440.29167
2719.757	471.625
2722.011	444.29167
2724.264	462.625
2726.516	478.95833
2728.766	451.95833
2731.015	469.95833
2733.262	463.29167
2735.508	473.29167
2737.753	462.29167
2739.996	453.29167
2742.237	446.95833
2744.477	465.95833
2746.716	470.29167
2748.953	455.625
2751.189	456.625
2753.423	441.625
2755.656	445.95833
2757.887	435.29167
2760.117	449.29167
2762.346	431.95833
2764.573	424.29167
2766.798	431.95833
2769.022	439.29167
2771.245	440.95833
2773.467	444.29167
2775.686	449.29167
2777.905	448.95833
2780.122	453.29167
2782.337	456.29167
2784.552	448.625
2786.764	454.95833
2788.976	466.625
2791.186	458.625
2793.394	470.625
2795.601	483.29167
2797.807	480.625
2800.011	494.95833
2802.214	483.625
2804.415	483.625
2806.615	494.625
2808.814	491.625
2811.011	505.29167
2813.206	494.29167
2815.401	519.625
2817.594	509.29167
2819.785	528.95833
2821.975	522.29167
2824.164	522.95833
2826.351	538.625
2828.537	556.29167
2830.722	562.29167
2832.905	567.95833
2835.086	594.625
2837.267	616.95833
2839.445	634.29167
2841.623	647.29167
2843.799	668.29167
2845.974	705.29167
2848.147	737.625
2850.319	759.95833
2852.489	774.625
2854.659	799.95833
2856.826	802.95833
2858.993	829.625
2861.158	815.29167
2863.321	822.625
2865.483	835.625
2867.644	840.29167
2869.804	814.625
2871.962	841.95833
2874.118	824.29167
2876.274	837.95833
2878.428	825.29167
2880.58	821.625
2882.731	808.625
2884.881	824.29167
2887.03	827.29167
2889.177	839.625
2891.322	842.625
2893.467	840.95833
2895.61	835.29167
2897.751	859.29167
2899.892	838.29167
2902.03	859.95833
2904.168	868.29167
2906.304	868.95833
2908.439	886.95833
2910.572	866.29167
2912.704	887.625
2914.835	888.29167
2916.965	886.625
2919.093	890.625
2921.219	869.29167
2923.345	899.95833
2925.469	863.625
2927.591	869.95833
2929.712	837.29167
2931.832	845.95833
2933.951	820.625
2936.068	812.29167
2938.184	791.95833
2940.299	772.95833
2942.412	756.95833
2944.524	722.95833
2946.634	735.95833
2948.744	693.95833
2950.851	703.29167
2952.958	669.29167
2955.063	676.95833
2957.167	666.625
2959.269	636.95833
2961.371	656.95833
2963.471	628.625
2965.569	628.29167
2967.666	597.625
2969.762	605.29167
2971.857	600.95833
2973.95	574.29167
2976.042	579.95833
2978.133	567.95833
2980.222	546.625
2982.31	535.95833
2984.396	515.29167
2986.482	525.29167
2988.566	511.625
2990.648	494.625
2992.73	493.29167
2994.81	479.625
2996.889	485.95833
2998.966	483.29167
3001.042	481.29167
3003.117	483.625
3005.191	479.29167
3007.263	470.625
3009.334	461.29167
3011.403	462.625
3013.472	452.95833
3015.539	455.625
3017.604	467.625
3019.669	419.625
3021.732	430.625
3023.794	425.29167
3025.854	427.29167
3027.914	426.95833
3029.971	428.625
3032.028	424.625
3034.083	429.95833
3036.137	417.29167
3038.19	401.29167
3040.242	387.29167
3042.292	377.95833
3044.341	387.29167
3046.388	388.29167
3048.435	368.29167
3050.48	392.95833
3052.524	370.625
3054.566	359.95833
3056.607	375.29167
3058.647	366.29167
3060.686	345.95833
3062.723	335.95833
3064.759	321.29167
3066.794	-3.04167
3068.828	3.625
3070.86	4.625
