-0.839	550.875
3.438	642.875
7.711	189.20833
11.981	64.20833
16.247	50.875
20.509	50.875
24.768	47.875
29.024	54.20833
33.276	47.875
37.524	51.875
41.769	49.20833
46.01	35.875
50.247	44.875
54.481	62.20833
58.712	63.20833
62.939	54.20833
67.162	63.54167
71.382	61.20833
75.599	47.54167
79.812	60.875
84.021	85.20833
88.227	62.54167
92.429	63.54167
96.628	50.875
100.823	75.54167
105.015	80.54167
109.204	72.54167
113.388	78.875
117.57	79.875
121.748	91.54167
125.922	87.54167
130.093	104.20833
134.261	109.20833
138.425	101.875
142.585	143.875
146.742	140.20833
150.896	170.20833
155.046	215.875
159.193	339.54167
163.336	581.20833
167.476	1072.875
171.613	1956.54167
175.746	3225.20833
179.875	4807.54167
184.002	6273.54167
188.124	7273.20833
192.244	7635.875
196.36	7556.875
200.472	7332.20833
204.581	7090.875
208.687	6900.875
212.79	6820.875
216.889	6774.875
220.984	6792.20833
225.077	6781.875
229.165	6777.54167
233.251	6795.54167
237.333	6776.875
241.412	6696.875
245.487	6605.875
249.559	6603.54167
253.628	6519.875
257.694	6466.20833
261.756	6426.20833
265.814	6280.875
269.87	6105.54167
273.922	5929.54167
277.97	5790.875
282.016	5720.20833
286.058	5761.54167
290.097	5866.20833
294.132	5962.54167
298.164	5936.54167
302.193	5663.875
306.219	5275.875
310.241	4834.875
314.26	4434.875
318.276	4121.20833
322.288	3905.54167
326.297	3721.54167
330.303	3600.20833
334.305	3499.54167
338.305	3433.54167
342.301	3403.875
346.294	3362.20833
350.283	3336.54167
354.269	3313.20833
358.252	3267.20833
362.232	3254.20833
366.209	3231.875
370.182	3208.54167
374.152	3176.20833
378.119	3180.875
382.083	3194.20833
386.043	3199.875
390	3168.54167
393.954	3144.20833
397.905	3096.875
401.852	3121.54167
405.797	3070.54167
409.738	3058.875
413.676	3055.875
417.61	3016.20833
421.542	3038.54167
425.47	2986.54167
429.396	2956.875
433.318	2958.875
437.236	2965.875
441.152	2970.20833
445.065	2931.875
448.974	2909.875
452.88	2863.54167
456.783	2871.20833
460.683	2838.20833
464.58	2840.54167
468.473	2837.54167
472.364	2885.54167
476.251	2872.54167
480.135	2903.875
484.016	2923.875
487.894	2956.20833
491.769	2967.54167
495.641	2997.20833
499.509	3006.20833
503.375	3029.54167
507.237	3028.54167
511.096	2981.54167
514.952	3008.20833
518.805	3018.54167
522.655	3003.875
526.502	2972.875
530.346	2964.875
534.187	2975.875
538.024	2999.20833
541.859	3010.54167
545.69	3020.54167
549.519	2995.875
553.344	2977.875
557.166	2923.54167
560.985	2916.20833
564.802	2843.20833
568.615	2786.875
572.425	2765.54167
576.232	2758.54167
580.036	2744.20833
583.836	2744.875
587.634	2758.875
591.429	2778.54167
595.221	2846.20833
599.01	2836.875
602.796	2883.20833
606.578	2917.20833
610.358	2888.875
614.135	2869.875
617.909	2850.54167
621.679	2815.20833
625.447	2813.875
629.212	2804.20833
632.973	2806.54167
636.732	2805.54167
640.488	2789.875
644.241	2773.20833
647.991	2762.20833
651.737	2793.20833
655.481	2773.54167
659.222	2751.20833
662.96	2755.54167
666.695	2793.20833
670.427	2795.20833
674.156	2827.20833
677.882	2798.54167
681.605	2784.875
685.325	2775.54167
689.043	2774.54167
692.757	2730.54167
696.468	2731.20833
700.177	2727.875
703.882	2691.54167
707.585	2702.54167
711.284	2681.54167
714.981	2675.875
718.675	2680.875
722.366	2688.875
726.054	2677.54167
729.739	2701.54167
733.421	2694.20833
737.1	2660.54167
740.777	2715.875
744.45	2723.54167
748.121	2722.875
751.789	2788.54167
755.453	2786.875
759.115	2757.875
762.774	2806.20833
766.431	2828.54167
770.084	2861.875
773.734	2901.875
777.382	2961.54167
781.027	2966.20833
784.669	2998.20833
788.308	2990.875
791.944	3005.875
795.577	3040.20833
799.208	3051.875
802.835	3036.54167
806.46	3074.54167
810.082	3065.54167
813.701	3071.54167
817.317	3098.54167
820.931	3123.20833
824.542	3106.875
828.149	3102.20833
831.754	3071.20833
835.357	3075.54167
838.956	3099.20833
842.553	3072.54167
846.146	3074.875
849.737	3048.54167
853.326	3068.875
856.911	3067.20833
860.493	3117.54167
864.073	3142.875
867.65	3170.54167
871.225	3224.54167
874.796	3244.54167
878.365	3244.875
881.931	3288.54167
885.494	3358.54167
889.054	3390.20833
892.612	3461.54167
896.166	3503.20833
899.719	3495.54167
903.268	3401.54167
906.814	3301.54167
910.358	3233.875
913.899	3168.875
917.438	3148.54167
920.973	3140.54167
924.506	3168.875
928.036	3195.20833
931.564	3236.54167
935.088	3279.20833
938.61	3290.875
942.129	3340.54167
945.646	3409.54167
949.16	3493.20833
952.671	3506.20833
956.179	3492.875
959.685	3459.20833
963.188	3410.875
966.688	3383.54167
970.185	3251.54167
973.68	3217.20833
977.173	3156.875
980.662	3103.54167
984.149	3088.875
987.633	3086.54167
991.114	3135.875
994.593	3199.20833
998.069	3288.20833
1001.542	3359.54167
1005.013	3329.20833
1008.481	3175.875
1011.947	3131.54167
1015.409	3110.54167
1018.869	3112.20833
1022.327	3100.20833
1025.782	3082.20833
1029.234	3078.875
1032.683	3037.20833
1036.13	2940.54167
1039.574	2862.54167
1043.016	2754.54167
1046.455	2711.54167
1049.891	2682.875
1053.325	2680.875
1056.756	2688.20833
1060.184	2724.20833
1063.61	2707.54167
1067.033	2745.54167
1070.454	2739.875
1073.872	2755.875
1077.287	2742.875
1080.7	2754.20833
1084.11	2745.54167
1087.517	2717.20833
1090.922	2701.20833
1094.325	2688.20833
1097.724	2659.20833
1101.122	2656.875
1104.516	2683.875
1107.908	2684.20833
1111.298	2722.875
1114.684	2769.54167
1118.069	2805.20833
1121.45	2844.54167
1124.83	2834.54167
1128.206	2879.20833
1131.58	2931.875
1134.951	2990.875
1138.32	3107.54167
1141.687	3238.20833
1145.05	3304.20833
1148.412	3304.875
1151.77	3312.54167
1155.126	3316.875
1158.48	3279.20833
1161.831	3305.54167
1165.18	3305.54167
1168.525	3346.875
1171.869	3366.20833
1175.21	3421.54167
1178.548	3436.54167
1181.884	3473.54167
1185.217	3537.875
1188.548	3593.20833
1191.877	3645.20833
1195.202	3765.20833
1198.526	3832.20833
1201.846	3853.20833
1205.165	3815.875
1208.48	3820.875
1211.794	3764.875
1215.104	3780.20833
1218.413	3740.20833
1221.719	3751.20833
1225.022	3734.875
1228.323	3645.54167
1231.621	3611.54167
1234.917	3579.20833
1238.21	3592.875
1241.501	3566.54167
1244.79	3563.875
1248.076	3571.20833
1251.359	3609.875
1254.64	3661.20833
1257.919	3703.20833
1261.195	3759.875
1264.468	3817.20833
1267.74	3871.875
1271.008	3887.20833
1274.275	3880.875
1277.538	3879.20833
1280.8	3848.20833
1284.059	3841.54167
1287.315	3863.875
1290.569	3910.20833
1293.821	3924.875
1297.07	3947.875
1300.317	3971.54167
1303.562	3974.54167
1306.803	3946.875
1310.043	3937.20833
1313.28	3898.20833
1316.515	3861.54167
1319.747	3876.875
1322.977	3847.20833
1326.204	3835.54167
1329.429	3795.54167
1332.652	3776.875
1335.872	3728.20833
1339.09	3654.20833
1342.306	3587.20833
1345.519	3547.20833
1348.729	3442.875
1351.938	3435.54167
1355.144	3392.875
1358.347	3314.20833
1361.548	3317.875
1364.747	3318.54167
1367.944	3284.875
1371.138	3301.20833
1374.329	3337.54167
1377.518	3391.54167
1380.705	3419.875
1383.89	3378.20833
1387.072	3290.875
1390.252	3168.54167
1393.429	3066.20833
1396.605	2993.875
1399.777	2934.20833
1402.948	2921.20833
1406.116	2917.20833
1409.282	2925.54167
1412.445	2947.54167
1415.606	2961.54167
1418.765	2991.20833
1421.921	3035.20833
1425.075	3054.875
1428.227	3132.20833
1431.376	3260.875
1434.524	3348.20833
1437.668	3431.20833
1440.811	3478.875
1443.951	3545.875
1447.089	3539.20833
1450.224	3530.54167
1453.357	3494.20833
1456.488	3467.54167
1459.617	3399.875
1462.743	3343.20833
1465.867	3265.54167
1468.989	3236.20833
1472.108	3179.875
1475.225	3136.20833
1478.34	3099.875
1481.453	3094.54167
1484.563	3117.875
1487.671	3162.875
1490.776	3184.875
1493.88	3254.20833
1496.981	3337.54167
1500.08	3384.20833
1503.176	3459.54167
1506.271	3485.54167
1509.363	3542.54167
1512.452	3588.875
1515.54	3640.20833
1518.625	3650.875
1521.708	3804.875
1524.789	3860.54167
1527.867	4013.875
1530.944	4169.20833
1534.018	4348.54167
1537.089	4496.54167
1540.159	4555.20833
1543.226	4548.875
1546.291	4473.20833
1549.354	4388.875
1552.415	4293.54167
1555.473	4205.875
1558.529	4158.20833
1561.583	4117.54167
1564.634	4098.54167
1567.684	4126.54167
1570.731	4160.20833
1573.776	4199.54167
1576.819	4245.875
1579.859	4274.20833
1582.898	4328.20833
1585.934	4402.20833
1588.968	4392.54167
1591.999	4411.875
1595.029	4404.20833
1598.056	4431.875
1601.081	4443.20833
1604.104	4448.54167
1607.125	4368.20833
1610.144	4276.54167
1613.16	4164.54167
1616.174	4042.20833
1619.186	3950.875
1622.196	3832.875
1625.203	3717.20833
1628.209	3616.20833
1631.212	3553.875
1634.213	3510.875
1637.212	3467.875
1640.209	3386.875
1643.203	3314.54167
1646.196	3163.54167
1649.186	3052.875
1652.174	2949.54167
1655.16	2837.20833
1658.144	2738.54167
1661.125	2612.20833
1664.105	2513.54167
1667.082	2402.875
1670.057	2288.875
1673.03	2161.20833
1676.001	2025.20833
1678.97	1896.54167
1681.937	1794.54167
1684.901	1695.875
1687.863	1631.20833
1690.824	1556.20833
1693.782	1515.20833
1696.738	1474.20833
1699.692	1421.875
1702.643	1387.20833
1705.593	1374.54167
1708.54	1346.875
1711.486	1355.54167
1714.429	1301.20833
1717.37	1303.20833
1720.309	1272.20833
1723.246	1279.20833
1726.181	1232.20833
1729.113	1240.54167
1732.044	1211.20833
1734.972	1213.54167
1737.899	1212.875
1740.823	1199.875
1743.745	1167.875
1746.665	1159.54167
1749.583	1127.54167
1752.499	1110.54167
1755.413	1105.20833
1758.325	1084.20833
1761.235	1078.54167
1764.142	1066.875
1767.048	1039.54167
1769.951	1035.20833
1772.852	1029.20833
1775.752	1020.875
1778.649	1016.875
1781.544	1026.54167
1784.437	992.20833
1787.328	1001.54167
1790.217	991.875
1793.104	952.20833
1795.989	976.20833
1798.872	962.20833
1801.753	988.54167
1804.631	972.54167
1807.508	977.54167
1810.383	975.20833
1813.255	970.54167
1816.126	956.20833
1818.994	952.54167
1821.861	934.875
1824.725	936.20833
1827.587	940.875
1830.448	929.54167
1833.306	902.20833
1836.162	924.54167
1839.017	918.875
1841.869	911.20833
1844.719	907.20833
1847.567	879.20833
1850.414	883.54167
1853.258	884.20833
1856.1	898.20833
1858.94	899.875
1861.778	887.54167
1864.614	876.20833
1867.448	882.875
1870.28	867.875
1873.111	903.875
1875.939	883.20833
1878.765	880.875
1881.589	863.54167
1884.411	871.20833
1887.231	865.875
1890.049	862.875
1892.865	865.875
1895.68	852.54167
1898.492	849.20833
1901.302	846.875
1904.11	854.20833
1906.916	839.54167
1909.721	845.875
1912.523	834.20833
1915.323	820.875
1918.122	820.54167
1920.918	837.54167
1923.712	813.54167
1926.505	816.875
1929.295	803.875
1932.084	821.54167
1934.87	814.54167
1937.655	808.875
1940.438	798.20833
1943.218	801.875
1945.997	814.20833
1948.774	820.875
1951.549	807.54167
1954.322	800.875
1957.093	803.875
1959.862	803.20833
1962.629	785.54167
1965.394	788.20833
1968.157	778.20833
1970.918	769.20833
1973.678	760.54167
1976.435	790.20833
1979.19	767.20833
1981.944	764.20833
1984.696	766.20833
1987.445	751.875
1990.193	758.54167
1992.939	780.54167
1995.683	753.20833
1998.425	726.54167
2001.165	784.20833
2003.903	745.875
2006.639	746.875
2009.374	751.54167
2012.106	744.54167
2014.837	737.875
2017.566	737.875
2020.292	742.54167
2023.017	738.54167
2025.74	729.20833
2028.461	728.875
2031.18	728.54167
2033.898	721.875
2036.613	722.20833
2039.327	728.20833
2042.038	713.875
2044.748	706.875
2047.456	722.54167
2050.162	705.20833
2052.866	714.875
2055.568	727.875
2058.268	701.875
2060.967	704.875
2063.663	694.875
2066.358	702.20833
2069.051	694.875
2071.742	705.20833
2074.431	709.20833
2077.118	695.54167
2079.804	688.20833
2082.487	705.54167
2085.169	702.54167
2087.849	720.20833
2090.527	688.20833
2093.203	703.20833
2095.877	702.875
2098.55	718.20833
2101.22	712.20833
2103.889	720.54167
2106.556	723.875
2109.221	749.54167
2111.884	752.20833
2114.546	807.20833
2117.205	859.54167
2119.863	927.875
2122.519	996.20833
2125.173	1063.54167
2127.825	1116.54167
2130.475	1106.875
2133.124	1073.54167
2135.771	1030.875
2138.416	987.54167
2141.059	909.54167
2143.7	861.20833
2146.339	810.20833
2148.977	763.875
2151.613	765.20833
2154.247	731.20833
2156.879	711.54167
2159.51	702.20833
2162.138	689.54167
2164.765	687.20833
2167.39	673.20833
2170.013	688.54167
2172.634	673.20833
2175.254	662.20833
2177.872	694.875
2180.488	641.875
2183.102	655.875
2185.714	649.875
2188.325	626.20833
2190.934	630.54167
2193.541	641.875
2196.146	623.20833
2198.75	613.54167
2201.351	604.20833
2203.951	606.875
2206.549	629.875
2209.146	620.54167
2211.74	598.20833
2214.333	609.875
2216.924	584.54167
2219.514	602.875
2222.101	579.54167
2224.687	606.54167
2227.271	592.20833
2229.853	568.54167
2232.433	567.875
2235.012	586.875
2237.589	582.875
2240.164	581.54167
2242.738	581.20833
2245.309	559.54167
2247.879	567.875
2250.448	571.20833
2253.014	548.20833
2255.579	535.54167
2258.142	542.20833
2260.703	535.20833
2263.262	533.54167
2265.82	530.20833
2268.376	529.20833
2270.93	515.875
2273.483	526.54167
2276.033	530.20833
2278.583	516.54167
2281.13	521.54167
2283.675	499.54167
2286.219	518.875
2288.761	505.54167
2291.302	508.875
2293.841	517.875
2296.377	489.20833
2298.913	506.54167
2301.446	511.54167
2303.978	509.54167
2306.508	485.875
2309.037	502.20833
2311.563	495.20833
2314.088	501.875
2316.612	485.875
2319.133	496.20833
2321.653	492.875
2324.171	482.54167
2326.688	497.54167
2329.202	485.20833
2331.715	479.54167
2334.227	480.875
2336.736	465.54167
2339.244	460.54167
2341.751	466.875
2344.255	480.20833
2346.758	472.875
2349.259	459.20833
2351.759	464.875
2354.257	460.875
2356.753	455.875
2359.247	464.54167
2361.74	479.54167
2364.231	461.54167
2366.721	467.54167
2369.209	461.875
2371.695	465.54167
2374.179	452.20833
2376.662	438.20833
2379.143	462.875
2381.622	449.875
2384.1	465.54167
2386.576	455.54167
2389.051	460.54167
2391.524	465.54167
2393.995	454.875
2396.464	444.54167
2398.932	442.875
2401.398	441.20833
2403.863	453.54167
2406.325	437.20833
2408.787	442.54167
2411.246	430.875
2413.704	433.54167
2416.16	430.54167
2418.615	441.54167
2421.068	447.20833
2423.519	440.20833
2425.969	422.54167
2428.417	431.54167
2430.863	459.20833
2433.308	440.875
2435.751	435.875
2438.193	432.54167
2440.633	434.54167
2443.071	432.54167
2445.508	422.20833
2447.943	420.54167
2450.376	418.875
2452.808	422.875
2455.238	422.875
2457.667	447.875
2460.093	414.20833
2462.519	406.54167
2464.942	417.20833
2467.365	414.20833
2469.785	427.875
2472.204	415.875
2474.621	401.875
2477.037	425.20833
2479.451	404.875
2481.863	397.54167
2484.274	400.875
2486.683	409.54167
2489.091	414.54167
2491.497	405.875
2493.901	399.875
2496.304	398.875
2498.705	420.20833
2501.105	386.54167
2503.503	421.54167
2505.899	396.54167
2508.294	412.875
2510.687	403.20833
2513.079	392.20833
2515.469	386.20833
2517.858	399.20833
2520.245	404.875
2522.63	384.20833
2525.014	378.20833
2527.396	375.20833
2529.776	378.54167
2532.156	392.20833
2534.533	383.54167
2536.909	382.20833
2539.283	362.875
2541.656	381.20833
2544.027	402.54167
2546.397	370.875
2548.765	385.20833
2551.131	380.875
2553.496	379.20833
2555.86	381.54167
2558.221	382.54167
2560.582	371.54167
2562.94	374.54167
2565.298	372.20833
2567.653	391.20833
2570.007	369.20833
2572.36	392.875
2574.711	371.875
2577.06	388.20833
2579.408	379.875
2581.754	377.20833
2584.099	385.54167
2586.442	365.20833
2588.784	379.20833
2591.124	371.20833
2593.463	362.54167
2595.8	378.20833
2598.135	362.54167
2600.469	363.54167
2602.802	378.20833
2605.133	377.54167
2607.462	369.20833
2609.79	358.54167
2612.116	372.54167
2614.441	369.875
2616.764	365.54167
2619.086	362.54167
2621.406	354.875
2623.725	376.54167
2626.042	369.20833
2628.358	360.54167
2630.672	360.875
2632.985	385.54167
2635.296	368.20833
2637.606	362.54167
2639.914	357.20833
2642.22	355.54167
2644.525	371.875
2646.829	367.54167
2649.131	382.54167
2651.432	382.875
2653.731	365.875
2656.028	371.54167
2658.324	383.875
2660.619	356.20833
2662.912	376.54167
2665.204	356.875
2667.494	369.54167
2669.782	361.54167
2672.07	376.54167
2674.355	376.20833
2676.639	365.54167
2678.922	352.20833
2681.203	368.20833
2683.483	362.20833
2685.761	366.20833
2688.038	370.875
2690.313	390.54167
2692.587	374.875
2694.859	366.20833
2697.13	374.20833
2699.399	384.875
2701.667	388.54167
2703.933	377.20833
2706.198	378.54167
2708.461	389.875
2710.723	396.20833
2712.984	389.875
2715.243	394.54167
2717.5	388.875
2719.757	406.54167
2722.011	399.54167
2724.264	403.875
2726.516	414.875
2728.766	393.20833
2731.015	400.54167
2733.262	395.875
2735.508	396.20833
2737.753	397.20833
2739.996	386.54167
2742.237	381.20833
2744.477	397.54167
2746.716	400.875
2748.953	382.20833
2751.189	393.54167
2753.423	378.54167
2755.656	370.20833
2757.887	376.20833
2760.117	370.875
2762.346	363.875
2764.573	361.20833
2766.798	369.20833
2769.022	367.875
2771.245	373.20833
2773.467	375.54167
2775.686	378.54167
2777.905	377.20833
2780.122	377.54167
2782.337	385.875
2784.552	387.875
2786.764	381.875
2788.976	388.54167
2791.186	395.875
2793.394	403.875
2795.601	402.54167
2797.807	411.20833
2800.011	421.54167
2802.214	421.54167
2804.415	418.20833
2806.615	427.54167
2808.814	426.20833
2811.011	444.20833
2813.206	437.54167
2815.401	453.20833
2817.594	459.875
2819.785	478.875
2821.975	462.54167
2824.164	466.54167
2826.351	489.20833
2828.537	492.875
2830.722	506.54167
2832.905	500.875
2835.086	532.20833
2837.267	566.20833
2839.445	578.875
2841.623	603.875
2843.799	624.20833
2845.974	647.875
2848.147	685.20833
2850.319	726.54167
2852.489	749.20833
2854.659	758.20833
2856.826	769.54167
2858.993	803.875
2861.158	764.20833
2863.321	790.20833
2865.483	804.20833
2867.644	789.20833
2869.804	790.20833
2871.962	789.875
2874.118	793.54167
2876.274	782.20833
2878.428	798.20833
2880.58	783.20833
2882.731	789.20833
2884.881	788.875
2887.03	795.54167
2889.177	799.54167
2891.322	810.875
2893.467	796.20833
2895.61	805.875
2897.751	821.875
2899.892	823.875
2902.03	818.20833
2904.168	816.54167
2906.304	832.875
2908.439	846.875
2910.572	833.875
2912.704	855.20833
2914.835	859.54167
2916.965	853.54167
2919.093	865.54167
2921.219	835.20833
2923.345	856.54167
2925.469	833.20833
2927.591	823.54167
2929.712	802.54167
2931.832	792.54167
2933.951	782.54167
2936.068	776.875
2938.184	750.20833
2940.299	729.875
2942.412	705.875
2944.524	667.875
2946.634	669.875
2948.744	615.875
2950.851	643.20833
2952.958	608.20833
2955.063	611.875
2957.167	584.54167
2959.269	564.20833
2961.371	583.54167
2963.471	547.54167
2965.569	550.875
2967.666	519.54167
2969.762	514.20833
2971.857	513.875
2973.95	500.54167
2976.042	491.20833
2978.133	473.875
2980.222	455.54167
2982.31	442.20833
2984.396	417.875
2986.482	415.20833
2988.566	412.54167
2990.648	405.20833
2992.73	400.20833
2994.81	387.20833
2996.889	389.875
2998.966	374.54167
3001.042	387.20833
3003.117	368.875
3005.191	374.875
3007.263	370.54167
3009.334	354.54167
3011.403	367.54167
3013.472	345.20833
3015.539	352.54167
3017.604	351.54167
3019.669	319.20833
3021.732	329.875
3023.794	323.20833
3025.854	313.875
3027.914	320.54167
3029.971	326.54167
3032.028	310.875
3034.083	313.54167
3036.137	304.54167
3038.19	295.54167
3040.242	280.20833
3042.292	277.54167
3044.341	275.875
3046.388	289.20833
3048.435	276.54167
3050.48	290.875
3052.524	274.20833
3054.566	258.20833
3056.607	274.20833
3058.647	263.54167
3060.686	251.20833
3062.723	246.54167
3064.759	232.54167
3066.794	-0.125
3068.828	5.875
3070.86	1.54167
