-0.839	552.70833
3.438	656.375
7.711	192.375
11.981	61.70833
16.247	46.70833
20.509	50.375
24.768	44.375
29.024	53.375
33.276	40.70833
37.524	48.70833
41.769	45.70833
46.01	33.375
50.247	48.04167
54.481	57.375
58.712	61.04167
62.939	48.375
67.162	63.04167
71.382	57.375
75.599	43.70833
79.812	64.70833
84.021	80.375
88.227	58.375
92.429	57.70833
96.628	50.04167
100.823	71.70833
105.015	73.04167
109.204	66.04167
113.388	72.04167
117.57	71.04167
121.748	84.375
125.922	78.70833
130.093	96.375
134.261	94.70833
138.425	92.70833
142.585	134.375
146.742	117.375
150.896	152.04167
155.046	190.04167
159.193	298.375
163.336	496.70833
167.476	909.375
171.613	1664.04167
175.746	2791.70833
179.875	4087.04167
184.002	5316.70833
188.124	6129.375
192.244	6340.70833
196.36	6227.04167
200.472	6021.04167
204.581	5806.375
208.687	5625.04167
212.79	5511.04167
216.889	5447.70833
220.984	5408.04167
225.077	5368.04167
229.165	5326.04167
233.251	5261.04167
237.333	5210.04167
241.412	5101.04167
245.487	5042.04167
249.559	4967.70833
253.628	4931.04167
257.694	4854.04167
261.756	4838.70833
265.814	4716.70833
269.87	4578.04167
273.922	4455.70833
277.97	4394.375
282.016	4370.70833
286.058	4403.375
290.097	4464.375
294.132	4553.04167
298.164	4500.04167
302.193	4289.04167
306.219	4002.70833
310.241	3738.70833
314.26	3457.04167
318.276	3257.70833
322.288	3126.04167
326.297	2980.70833
330.303	2922.04167
334.305	2840.04167
338.305	2819.70833
342.301	2765.375
346.294	2762.70833
350.283	2720.70833
354.269	2714.70833
358.252	2678.70833
362.232	2675.04167
366.209	2658.375
370.182	2620.70833
374.152	2614.375
378.119	2654.04167
382.083	2608.70833
386.043	2636.04167
390	2608.70833
393.954	2592.04167
397.905	2596.375
401.852	2607.375
405.797	2568.375
409.738	2566.375
413.676	2579.04167
417.61	2560.375
421.542	2548.04167
425.47	2524.375
429.396	2513.70833
433.318	2498.375
437.236	2482.70833
441.152	2508.04167
445.065	2467.04167
448.974	2459.375
452.88	2434.04167
456.783	2440.375
460.683	2421.04167
464.58	2424.04167
468.473	2426.375
472.364	2451.375
476.251	2443.04167
480.135	2497.375
484.016	2516.70833
487.894	2564.375
491.769	2559.70833
495.641	2586.375
499.509	2584.04167
503.375	2622.375
507.237	2635.70833
511.096	2668.70833
514.952	2866.70833
518.805	3047.04167
522.655	3114.375
526.502	2819.04167
530.346	2602.04167
534.187	2551.04167
538.024	2532.04167
541.859	2541.375
545.69	2557.04167
549.519	2539.04167
553.344	2510.375
557.166	2477.375
560.985	2435.04167
564.802	2426.375
568.615	2370.375
572.425	2350.04167
576.232	2346.04167
580.036	2324.375
583.836	2365.04167
587.634	2353.04167
591.429	2337.70833
595.221	2411.04167
599.01	2420.70833
602.796	2432.375
606.578	2441.04167
610.358	2443.04167
614.135	2431.04167
617.909	2399.375
621.679	2387.70833
625.447	2370.04167
629.212	2363.04167
632.973	2384.04167
636.732	2386.04167
640.488	2367.70833
644.241	2348.04167
647.991	2354.375
651.737	2350.70833
655.481	2327.70833
659.222	2318.04167
662.96	2342.70833
666.695	2385.04167
670.427	2377.04167
674.156	2389.375
677.882	2369.04167
681.605	2359.70833
685.325	2344.70833
689.043	2332.04167
692.757	2314.70833
696.468	2319.375
700.177	2303.04167
703.882	2288.04167
707.585	2275.375
711.284	2272.04167
714.981	2254.70833
718.675	2254.70833
722.366	2271.04167
726.054	2256.70833
729.739	2267.70833
733.421	2283.70833
737.1	2290.70833
740.777	2278.04167
744.45	2296.04167
748.121	2319.70833
751.789	2349.04167
755.453	2326.70833
759.115	2351.04167
762.774	2361.70833
766.431	2376.70833
770.084	2390.375
773.734	2410.375
777.382	2429.70833
781.027	2443.70833
784.669	2449.375
788.308	2453.70833
791.944	2484.04167
795.577	2488.70833
799.208	2516.04167
802.835	2514.04167
806.46	2539.375
810.082	2552.70833
813.701	2538.375
817.317	2554.70833
820.931	2560.04167
824.542	2552.375
828.149	2514.70833
831.754	2496.70833
835.357	2491.375
838.956	2500.375
842.553	2496.04167
846.146	2482.04167
849.737	2454.70833
853.326	2460.70833
856.911	2466.70833
860.493	2506.70833
864.073	2504.375
867.65	2559.04167
871.225	2582.70833
874.796	2569.70833
878.365	2578.375
881.931	2608.70833
885.494	2655.70833
889.054	2694.375
892.612	2771.375
896.166	2798.04167
899.719	2787.375
903.268	2732.04167
906.814	2655.375
910.358	2571.04167
913.899	2519.04167
917.438	2521.70833
920.973	2476.70833
924.506	2506.70833
928.036	2567.375
931.564	2566.04167
935.088	2613.70833
938.61	2607.375
942.129	2637.70833
945.646	2698.04167
949.16	2725.70833
952.671	2771.375
956.179	2738.375
959.685	2725.04167
963.188	2722.04167
966.688	2668.04167
970.185	2586.70833
973.68	2547.70833
977.173	2532.04167
980.662	2486.70833
984.149	2475.375
987.633	2456.04167
991.114	2510.70833
994.593	2547.375
998.069	2597.70833
1001.542	2692.04167
1005.013	2626.04167
1008.481	2521.04167
1011.947	2471.375
1015.409	2427.70833
1018.869	2457.70833
1022.327	2466.375
1025.782	2452.375
1029.234	2472.375
1032.683	2436.70833
1036.13	2374.70833
1039.574	2271.04167
1043.016	2213.375
1046.455	2158.375
1049.891	2151.375
1053.325	2138.375
1056.756	2134.375
1060.184	2152.375
1063.61	2160.375
1067.033	2163.70833
1070.454	2183.04167
1073.872	2192.375
1077.287	2187.70833
1080.7	2194.04167
1084.11	2180.70833
1087.517	2193.70833
1090.922	2144.375
1094.325	2136.375
1097.724	2113.04167
1101.122	2127.375
1104.516	2115.375
1107.908	2119.04167
1111.298	2136.04167
1114.684	2176.375
1118.069	2194.375
1121.45	2239.04167
1124.83	2216.04167
1128.206	2229.70833
1131.58	2278.04167
1134.951	2340.70833
1138.32	2403.04167
1141.687	2447.70833
1145.05	2495.70833
1148.412	2479.70833
1151.77	2473.04167
1155.126	2458.375
1158.48	2443.04167
1161.831	2467.375
1165.18	2465.375
1168.525	2522.04167
1171.869	2516.375
1175.21	2534.375
1178.548	2569.04167
1181.884	2597.04167
1185.217	2607.375
1188.548	2664.70833
1191.877	2714.375
1195.202	2793.70833
1198.526	2844.375
1201.846	2881.70833
1205.165	2870.70833
1208.48	2883.70833
1211.794	2856.70833
1215.104	2863.375
1218.413	2874.04167
1221.719	2890.375
1225.022	2842.70833
1228.323	2810.04167
1231.621	2782.04167
1234.917	2755.70833
1238.21	2771.70833
1241.501	2743.04167
1244.79	2745.375
1248.076	2752.04167
1251.359	2754.70833
1254.64	2832.70833
1257.919	2837.375
1261.195	2869.70833
1264.468	2929.375
1267.74	2940.04167
1271.008	2957.04167
1274.275	2963.04167
1277.538	2933.70833
1280.8	2948.375
1284.059	2924.375
1287.315	2963.04167
1290.569	2987.375
1293.821	2989.04167
1297.07	3011.70833
1300.317	3029.375
1303.562	2992.375
1306.803	3002.04167
1310.043	2996.70833
1313.28	2973.70833
1316.515	2960.04167
1319.747	2973.70833
1322.977	2951.70833
1326.204	2969.70833
1329.429	2958.04167
1332.652	2971.70833
1335.872	2925.04167
1339.09	2879.70833
1342.306	2813.70833
1345.519	2764.04167
1348.729	2721.04167
1351.938	2707.04167
1355.144	2627.375
1358.347	2627.70833
1361.548	2610.04167
1364.747	2595.375
1367.944	2561.375
1371.138	2564.70833
1374.329	2573.70833
1377.518	2618.70833
1380.705	2621.375
1383.89	2602.04167
1387.072	2531.70833
1390.252	2458.04167
1393.429	2389.375
1396.605	2327.04167
1399.777	2297.04167
1402.948	2306.375
1406.116	2307.04167
1409.282	2324.70833
1412.445	2343.04167
1415.606	2359.70833
1418.765	2382.70833
1421.921	2401.70833
1425.075	2406.04167
1428.227	2441.04167
1431.376	2531.375
1434.524	2611.70833
1437.668	2659.70833
1440.811	2721.375
1443.951	2751.375
1447.089	2764.375
1450.224	2765.70833
1453.357	2695.375
1456.488	2670.04167
1459.617	2627.70833
1462.743	2590.04167
1465.867	2502.70833
1468.989	2471.70833
1472.108	2418.70833
1475.225	2388.375
1478.34	2337.70833
1481.453	2342.70833
1484.563	2347.70833
1487.671	2388.04167
1490.776	2396.04167
1493.88	2439.04167
1496.981	2467.04167
1500.08	2506.70833
1503.176	2514.70833
1506.271	2550.04167
1509.363	2590.375
1512.452	2621.04167
1515.54	2644.375
1518.625	2661.70833
1521.708	2741.70833
1524.789	2807.375
1527.867	2901.04167
1530.944	3037.04167
1534.018	3157.70833
1537.089	3297.70833
1540.159	3341.70833
1543.226	3357.375
1546.291	3283.70833
1549.354	3199.375
1552.415	3150.70833
1555.473	3058.04167
1558.529	3007.375
1561.583	2984.70833
1564.634	2958.70833
1567.684	2958.375
1570.731	2947.70833
1573.776	2999.04167
1576.819	3035.70833
1579.859	3052.375
1582.898	3106.375
1585.934	3121.04167
1588.968	3112.375
1591.999	3130.70833
1595.029	3129.70833
1598.056	3178.375
1601.081	3213.375
1604.104	3189.375
1607.125	3153.04167
1610.144	3091.375
1613.16	3027.375
1616.174	2968.04167
1619.186	2889.375
1622.196	2815.70833
1625.203	2774.375
1628.209	2744.70833
1631.212	2733.70833
1634.213	2724.04167
1637.212	2723.375
1640.209	2687.70833
1643.203	2618.70833
1646.196	2496.375
1649.186	2421.04167
1652.174	2327.375
1655.16	2265.04167
1658.144	2207.70833
1661.125	2110.70833
1664.105	2035.04167
1667.082	1945.04167
1670.057	1839.04167
1673.03	1752.04167
1676.001	1636.04167
1678.97	1557.04167
1681.937	1472.04167
1684.901	1389.70833
1687.863	1340.70833
1690.824	1305.04167
1693.782	1269.375
1696.738	1204.04167
1699.692	1206.375
1702.643	1159.375
1705.593	1158.04167
1708.54	1135.70833
1711.486	1144.375
1714.429	1101.375
1717.37	1091.375
1720.309	1071.375
1723.246	1089.375
1726.181	1058.04167
1729.113	1083.375
1732.044	1057.04167
1734.972	1034.04167
1737.899	1049.04167
1740.823	1049.70833
1743.745	1008.04167
1746.665	1006.04167
1749.583	988.375
1752.499	982.70833
1755.413	965.70833
1758.325	945.70833
1761.235	946.375
1764.142	926.04167
1767.048	920.70833
1769.951	925.04167
1772.852	921.04167
1775.752	916.70833
1778.649	919.70833
1781.544	923.04167
1784.437	887.375
1787.328	899.04167
1790.217	890.04167
1793.104	871.04167
1795.989	883.375
1798.872	856.70833
1801.753	879.375
1804.631	873.375
1807.508	877.04167
1810.383	879.04167
1813.255	865.04167
1816.126	857.70833
1818.994	855.375
1821.861	853.375
1824.725	852.04167
1827.587	850.375
1830.448	861.04167
1833.306	831.375
1836.162	840.04167
1839.017	820.70833
1841.869	830.04167
1844.719	839.04167
1847.567	824.70833
1850.414	804.70833
1853.258	816.04167
1856.1	849.70833
1858.94	828.375
1861.778	814.70833
1864.614	815.375
1867.448	820.70833
1870.28	807.70833
1873.111	828.375
1875.939	818.375
1878.765	837.04167
1881.589	825.70833
1884.411	831.375
1887.231	823.04167
1890.049	823.70833
1892.865	816.04167
1895.68	807.70833
1898.492	825.70833
1901.302	802.70833
1904.11	808.375
1906.916	799.375
1909.721	791.375
1912.523	802.375
1915.323	786.04167
1918.122	785.375
1920.918	798.04167
1923.712	787.375
1926.505	781.70833
1929.295	781.70833
1932.084	791.375
1934.87	795.375
1937.655	789.70833
1940.438	776.375
1943.218	791.70833
1945.997	794.70833
1948.774	800.375
1951.549	801.04167
1954.322	781.04167
1957.093	787.70833
1959.862	770.70833
1962.629	777.04167
1965.394	775.04167
1968.157	774.04167
1970.918	761.70833
1973.678	755.04167
1976.435	783.04167
1979.19	762.04167
1981.944	761.375
1984.696	763.375
1987.445	746.375
1990.193	774.70833
1992.939	783.04167
1995.683	764.70833
1998.425	734.70833
2001.165	776.375
2003.903	751.04167
2006.639	756.375
2009.374	760.70833
2012.106	760.375
2014.837	751.70833
2017.566	765.375
2020.292	767.375
2023.017	759.70833
2025.74	759.375
2028.461	765.70833
2031.18	761.70833
2033.898	748.04167
2036.613	754.04167
2039.327	767.04167
2042.038	750.375
2044.748	733.375
2047.456	756.375
2050.162	735.375
2052.866	746.70833
2055.568	763.375
2058.268	750.375
2060.967	751.04167
2063.663	729.70833
2066.358	747.70833
2069.051	749.04167
2071.742	754.375
2074.431	748.70833
2077.118	744.70833
2079.804	744.375
2082.487	744.04167
2085.169	763.375
2087.849	773.04167
2090.527	747.04167
2093.203	766.375
2095.877	770.375
2098.55	777.70833
2101.22	793.70833
2103.889	791.70833
2106.556	797.375
2109.221	803.04167
2111.884	831.70833
2114.546	880.375
2117.205	921.375
2119.863	974.375
2122.519	1021.375
2125.173	1068.375
2127.825	1109.70833
2130.475	1116.70833
2133.124	1073.04167
2135.771	1018.70833
2138.416	1002.375
2141.059	947.375
2143.7	922.04167
2146.339	876.70833
2148.977	845.375
2151.613	844.375
2154.247	834.375
2156.879	825.70833
2159.51	794.04167
2162.138	783.375
2164.765	782.04167
2167.39	765.375
2170.013	795.70833
2172.634	781.04167
2175.254	771.70833
2177.872	807.04167
2180.488	769.04167
2183.102	764.70833
2185.714	758.375
2188.325	745.70833
2190.934	751.04167
2193.541	763.375
2196.146	755.70833
2198.75	739.375
2201.351	753.375
2203.951	735.04167
2206.549	751.04167
2209.146	744.70833
2211.74	730.04167
2214.333	742.375
2216.924	739.04167
2219.514	744.375
2222.101	736.375
2224.687	748.70833
2227.271	738.375
2229.853	731.70833
2232.433	724.04167
2235.012	737.375
2237.589	742.70833
2240.164	762.04167
2242.738	742.70833
2245.309	731.375
2247.879	746.70833
2250.448	747.70833
2253.014	733.375
2255.579	730.04167
2258.142	727.70833
2260.703	721.04167
2263.262	741.375
2265.82	723.70833
2268.376	728.04167
2270.93	723.70833
2273.483	732.04167
2276.033	739.70833
2278.583	724.70833
2281.13	719.70833
2283.675	724.70833
2286.219	720.04167
2288.761	740.70833
2291.302	741.04167
2293.841	748.70833
2296.377	731.375
2298.913	736.70833
2301.446	746.375
2303.978	735.70833
2306.508	732.375
2309.037	748.70833
2311.563	740.375
2314.088	750.04167
2316.612	735.04167
2319.133	747.04167
2321.653	747.375
2324.171	737.70833
2326.688	763.04167
2329.202	742.70833
2331.715	757.70833
2334.227	755.375
2336.736	762.375
2339.244	743.04167
2341.751	729.70833
2344.255	753.70833
2346.758	755.375
2349.259	747.04167
2351.759	760.70833
2354.257	748.04167
2356.753	747.375
2359.247	744.04167
2361.74	768.375
2364.231	752.70833
2366.721	758.70833
2369.209	762.70833
2371.695	778.04167
2374.179	767.04167
2376.662	752.04167
2379.143	786.375
2381.622	778.70833
2384.1	785.70833
2386.576	776.375
2389.051	803.375
2391.524	812.04167
2393.995	790.70833
2396.464	791.04167
2398.932	785.70833
2401.398	780.04167
2403.863	800.04167
2406.325	792.04167
2408.787	793.04167
2411.246	800.70833
2413.704	790.70833
2416.16	792.70833
2418.615	796.375
2421.068	820.375
2423.519	819.375
2425.969	798.375
2428.417	812.04167
2430.863	831.70833
2433.308	828.70833
2435.751	815.04167
2438.193	811.375
2440.633	829.375
2443.071	830.04167
2445.508	824.70833
2447.943	819.70833
2450.376	822.04167
2452.808	831.04167
2455.238	820.375
2457.667	866.04167
2460.093	832.04167
2462.519	824.70833
2464.942	847.375
2467.365	842.375
2469.785	851.04167
2472.204	852.04167
2474.621	843.70833
2477.037	854.04167
2479.451	841.70833
2481.863	842.70833
2484.274	851.70833
2486.683	862.375
2489.091	874.375
2491.497	871.70833
2493.901	868.04167
2496.304	866.375
2498.705	885.375
2501.105	879.04167
2503.503	909.70833
2505.899	868.375
2508.294	899.04167
2510.687	882.04167
2513.079	884.70833
2515.469	888.70833
2517.858	876.375
2520.245	896.375
2522.63	900.375
2525.014	888.70833
2527.396	886.375
2529.776	891.375
2532.156	899.04167
2534.533	886.375
2536.909	881.70833
2539.283	888.375
2541.656	909.70833
2544.027	921.04167
2546.397	917.04167
2548.765	920.70833
2551.131	920.04167
2553.496	920.375
2555.86	924.375
2558.221	918.70833
2560.582	922.375
2562.94	918.375
2565.298	945.70833
2567.653	952.375
2570.007	928.04167
2572.36	964.04167
2574.711	947.04167
2577.06	962.04167
2579.408	977.04167
2581.754	959.04167
2584.099	972.70833
2586.442	963.375
2588.784	965.04167
2591.124	975.70833
2593.463	978.04167
2595.8	974.04167
2598.135	966.375
2600.469	972.04167
2602.802	991.70833
2605.133	992.70833
2607.462	985.04167
2609.79	978.70833
2612.116	1000.70833
2614.441	997.375
2616.764	1000.04167
2619.086	1010.375
2621.406	1003.70833
2623.725	1021.375
2626.042	1022.70833
2628.358	1019.375
2630.672	1026.70833
2632.985	1033.04167
2635.296	1044.04167
2637.606	1045.375
2639.914	1038.375
2642.22	1044.70833
2644.525	1053.375
2646.829	1055.375
2649.131	1068.375
2651.432	1087.375
2653.731	1058.04167
2656.028	1073.70833
2658.324	1100.04167
2660.619	1087.04167
2662.912	1095.70833
2665.204	1090.375
2667.494	1099.04167
2669.782	1093.04167
2672.07	1113.04167
2674.355	1106.70833
2676.639	1107.70833
2678.922	1103.375
2681.203	1100.04167
2683.483	1099.70833
2685.761	1103.04167
2688.038	1120.04167
2690.313	1132.70833
2692.587	1130.70833
2694.859	1118.04167
2697.13	1138.375
2699.399	1157.70833
2701.667	1151.70833
2703.933	1155.04167
2706.198	1164.70833
2708.461	1160.04167
2710.723	1176.04167
2712.984	1168.04167
2715.243	1191.04167
2717.5	1175.70833
2719.757	1200.70833
2722.011	1192.70833
2724.264	1205.375
2726.516	1211.70833
2728.766	1210.375
2731.015	1217.375
2733.262	1225.70833
2735.508	1221.375
2737.753	1240.375
2739.996	1228.04167
2742.237	1220.04167
2744.477	1230.375
2746.716	1239.04167
2748.953	1219.375
2751.189	1235.04167
2753.423	1217.04167
2755.656	1212.70833
2757.887	1213.375
2760.117	1227.375
2762.346	1220.375
2764.573	1212.04167
2766.798	1221.375
2769.022	1234.04167
2771.245	1233.04167
2773.467	1230.70833
2775.686	1262.70833
2777.905	1248.04167
2780.122	1262.04167
2782.337	1264.04167
2784.552	1266.70833
2786.764	1281.375
2788.976	1261.04167
2791.186	1282.70833
2793.394	1301.04167
2795.601	1316.375
2797.807	1307.04167
2800.011	1329.70833
2802.214	1339.04167
2804.415	1329.04167
2806.615	1327.04167
2808.814	1320.375
2811.011	1338.375
2813.206	1346.375
2815.401	1366.04167
2817.594	1372.375
2819.785	1365.70833
2821.975	1363.70833
2824.164	1364.70833
2826.351	1387.70833
2828.537	1402.375
2830.722	1399.04167
2832.905	1407.70833
2835.086	1439.375
2837.267	1462.04167
2839.445	1473.04167
2841.623	1486.375
2843.799	1509.375
2845.974	1540.375
2848.147	1556.70833
2850.319	1567.375
2852.489	1621.375
2854.659	1626.04167
2856.826	1635.375
2858.993	1659.70833
2861.158	1644.375
2863.321	1665.375
2865.483	1662.04167
2867.644	1674.04167
2869.804	1641.375
2871.962	1665.04167
2874.118	1654.04167
2876.274	1656.04167
2878.428	1647.70833
2880.58	1634.04167
2882.731	1635.375
2884.881	1637.04167
2887.03	1662.04167
2889.177	1641.04167
2891.322	1658.375
2893.467	1659.04167
2895.61	1671.375
2897.751	1689.04167
2899.892	1667.70833
2902.03	1678.04167
2904.168	1688.04167
2906.304	1713.70833
2908.439	1740.375
2910.572	1715.70833
2912.704	1739.375
2914.835	1754.70833
2916.965	1743.375
2919.093	1762.04167
2921.219	1731.04167
2923.345	1753.70833
2925.469	1737.375
2927.591	1736.04167
2929.712	1693.04167
2931.832	1682.04167
2933.951	1677.04167
2936.068	1661.375
2938.184	1644.04167
2940.299	1625.70833
2942.412	1618.70833
2944.524	1600.375
2946.634	1600.70833
2948.744	1559.375
2950.851	1587.70833
2952.958	1566.70833
2955.063	1572.70833
2957.167	1563.375
2959.269	1551.04167
2961.371	1579.375
2963.471	1559.70833
2965.569	1571.70833
2967.666	1546.375
2969.762	1558.04167
2971.857	1533.70833
2973.95	1536.70833
2976.042	1514.375
2978.133	1495.04167
2980.222	1489.375
2982.31	1440.04167
2984.396	1424.375
2986.482	1424.70833
2988.566	1436.04167
2990.648	1422.04167
2992.73	1408.70833
2994.81	1417.375
2996.889	1415.04167
2998.966	1397.04167
3001.042	1446.04167
3003.117	1411.70833
3005.191	1415.375
3007.263	1406.70833
3009.334	1403.04167
3011.403	1402.375
3013.472	1386.375
3015.539	1360.70833
3017.604	1358.375
3019.669	1337.04167
3021.732	1345.375
3023.794	1336.70833
3025.854	1317.70833
3027.914	1317.70833
3029.971	1339.04167
3032.028	1326.70833
3034.083	1311.04167
3036.137	1302.70833
3038.19	1271.04167
3040.242	1227.70833
3042.292	1221.375
3044.341	1218.70833
3046.388	1205.70833
3048.435	1179.70833
3050.48	1198.04167
3052.524	1174.70833
3054.566	1163.70833
3056.607	1176.70833
3058.647	1145.04167
3060.686	1119.375
3062.723	1091.375
3064.759	1043.04167
3066.794	0.375
3068.828	2.70833
3070.86	2.375
