-0.839	540.29167
3.438	650.625
7.711	193.95833
11.981	61.625
16.247	43.625
20.509	50.95833
24.768	45.625
29.024	55.625
33.276	46.29167
37.524	46.95833
41.769	46.625
46.01	34.95833
50.247	45.95833
54.481	57.29167
58.712	59.29167
62.939	49.95833
67.162	63.29167
71.382	52.29167
75.599	47.29167
79.812	60.95833
84.021	78.95833
88.227	59.625
92.429	57.95833
96.628	49.29167
100.823	69.625
105.015	75.29167
109.204	64.625
113.388	75.95833
117.57	71.29167
121.748	86.29167
125.922	73.625
130.093	92.625
134.261	86.95833
138.425	92.625
142.585	137.29167
146.742	121.95833
150.896	148.625
155.046	184.95833
159.193	297.95833
163.336	501.625
167.476	918.625
171.613	1671.625
175.746	2760.95833
179.875	4062.625
184.002	5236.29167
188.124	6084.625
192.244	6304.29167
196.36	6207.95833
200.472	5985.95833
204.581	5748.95833
208.687	5567.95833
212.79	5455.95833
216.889	5391.95833
220.984	5313.95833
225.077	5289.625
229.165	5256.29167
233.251	5194.625
237.333	5157.95833
241.412	5034.95833
245.487	4959.625
249.559	4873.625
253.628	4869.95833
257.694	4812.95833
261.756	4760.29167
265.814	4648.95833
269.87	4503.625
273.922	4384.29167
277.97	4332.95833
282.016	4292.29167
286.058	4305.95833
290.097	4411.625
294.132	4497.95833
298.164	4396.95833
302.193	4236.625
306.219	3953.625
310.241	3651.29167
314.26	3402.95833
318.276	3193.95833
322.288	3044.29167
326.297	2907.95833
330.303	2824.95833
334.305	2772.29167
338.305	2720.625
342.301	2689.625
346.294	2668.29167
350.283	2626.95833
354.269	2627.95833
358.252	2623.625
362.232	2594.95833
366.209	2578.625
370.182	2554.625
374.152	2565.29167
378.119	2560.29167
382.083	2538.29167
386.043	2548.95833
390	2513.95833
393.954	2528.95833
397.905	2510.625
401.852	2498.95833
405.797	2478.29167
409.738	2460.95833
413.676	2498.625
417.61	2468.95833
421.542	2454.625
425.47	2416.625
429.396	2415.29167
433.318	2398.95833
437.236	2390.29167
441.152	2442.29167
445.065	2365.95833
448.974	2379.95833
452.88	2358.625
456.783	2353.95833
460.683	2315.29167
464.58	2323.95833
468.473	2322.29167
472.364	2364.625
476.251	2355.95833
480.135	2388.625
484.016	2421.625
487.894	2440.95833
491.769	2466.29167
495.641	2473.95833
499.509	2509.29167
503.375	2508.625
507.237	2526.625
511.096	2560.29167
514.952	2747.625
518.805	2934.625
522.655	3030.95833
526.502	2716.625
530.346	2516.29167
534.187	2456.95833
538.024	2440.29167
541.859	2448.95833
545.69	2460.625
549.519	2458.29167
553.344	2423.625
557.166	2385.95833
560.985	2331.95833
564.802	2336.95833
568.615	2282.625
572.425	2255.625
576.232	2257.625
580.036	2263.625
583.836	2255.29167
587.634	2247.625
591.429	2273.95833
595.221	2321.95833
599.01	2327.29167
602.796	2331.29167
606.578	2361.29167
610.358	2349.95833
614.135	2316.625
617.909	2320.95833
621.679	2276.95833
625.447	2282.625
629.212	2277.29167
632.973	2303.625
636.732	2286.625
640.488	2286.95833
644.241	2256.29167
647.991	2236.29167
651.737	2283.95833
655.481	2228.29167
659.222	2242.625
662.96	2240.29167
666.695	2289.625
670.427	2265.29167
674.156	2311.95833
677.882	2277.625
681.605	2261.95833
685.325	2236.95833
689.043	2254.625
692.757	2223.625
696.468	2217.29167
700.177	2207.95833
703.882	2193.625
707.585	2198.95833
711.284	2172.95833
714.981	2180.95833
718.675	2186.29167
722.366	2197.29167
726.054	2192.625
729.739	2192.29167
733.421	2204.625
737.1	2179.625
740.777	2204.625
744.45	2213.95833
748.121	2212.625
751.789	2259.95833
755.453	2258.29167
759.115	2242.95833
762.774	2257.625
766.431	2277.625
770.084	2288.625
773.734	2312.95833
777.382	2365.95833
781.027	2373.95833
784.669	2365.625
788.308	2387.95833
791.944	2397.95833
795.577	2418.625
799.208	2436.95833
802.835	2429.625
806.46	2443.625
810.082	2445.29167
813.701	2427.95833
817.317	2480.625
820.931	2483.95833
824.542	2457.29167
828.149	2428.625
831.754	2438.29167
835.357	2418.625
838.956	2440.625
842.553	2428.29167
846.146	2414.625
849.737	2393.625
853.326	2401.95833
856.911	2383.625
860.493	2424.625
864.073	2422.625
867.65	2468.625
871.225	2496.95833
874.796	2504.95833
878.365	2517.625
881.931	2524.625
885.494	2599.95833
889.054	2651.29167
892.612	2705.625
896.166	2743.29167
899.719	2726.95833
903.268	2656.95833
906.814	2566.29167
910.358	2511.29167
913.899	2458.625
917.438	2424.29167
920.973	2407.625
924.506	2449.95833
928.036	2453.95833
931.564	2500.29167
935.088	2542.625
938.61	2570.625
942.129	2579.625
945.646	2631.95833
949.16	2640.29167
952.671	2690.29167
956.179	2668.95833
959.685	2646.29167
963.188	2624.625
966.688	2587.95833
970.185	2542.29167
973.68	2506.95833
977.173	2457.29167
980.662	2414.29167
984.149	2416.625
987.633	2398.29167
991.114	2434.29167
994.593	2499.625
998.069	2536.625
1001.542	2611.625
1005.013	2572.29167
1008.481	2428.29167
1011.947	2392.29167
1015.409	2374.625
1018.869	2391.95833
1022.327	2394.29167
1025.782	2377.29167
1029.234	2388.29167
1032.683	2381.29167
1036.13	2318.29167
1039.574	2222.29167
1043.016	2157.95833
1046.455	2119.95833
1049.891	2064.625
1053.325	2085.625
1056.756	2073.95833
1060.184	2083.29167
1063.61	2104.625
1067.033	2117.625
1070.454	2127.29167
1073.872	2147.29167
1077.287	2132.29167
1080.7	2148.95833
1084.11	2135.625
1087.517	2120.95833
1090.922	2108.29167
1094.325	2074.95833
1097.724	2049.625
1101.122	2064.29167
1104.516	2065.29167
1107.908	2051.95833
1111.298	2111.29167
1114.684	2118.625
1118.069	2149.95833
1121.45	2177.625
1124.83	2163.95833
1128.206	2202.625
1131.58	2231.29167
1134.951	2286.95833
1138.32	2351.95833
1141.687	2417.625
1145.05	2441.95833
1148.412	2441.625
1151.77	2429.95833
1155.126	2419.29167
1158.48	2389.95833
1161.831	2417.29167
1165.18	2403.95833
1168.525	2462.29167
1171.869	2475.29167
1175.21	2488.625
1178.548	2514.29167
1181.884	2528.625
1185.217	2551.95833
1188.548	2627.29167
1191.877	2667.625
1195.202	2734.95833
1198.526	2797.29167
1201.846	2820.29167
1205.165	2821.95833
1208.48	2837.29167
1211.794	2821.95833
1215.104	2807.29167
1218.413	2820.95833
1221.719	2817.29167
1225.022	2805.95833
1228.323	2737.625
1231.621	2725.95833
1234.917	2702.29167
1238.21	2704.95833
1241.501	2681.29167
1244.79	2705.29167
1248.076	2716.29167
1251.359	2713.95833
1254.64	2790.625
1257.919	2794.95833
1261.195	2825.95833
1264.468	2871.95833
1267.74	2906.625
1271.008	2914.29167
1274.275	2879.29167
1277.538	2876.95833
1280.8	2882.95833
1284.059	2857.95833
1287.315	2903.625
1290.569	2934.625
1293.821	2939.625
1297.07	2954.29167
1300.317	2965.95833
1303.562	2971.625
1306.803	2959.29167
1310.043	2944.95833
1313.28	2918.95833
1316.515	2912.29167
1319.747	2930.29167
1322.977	2918.625
1326.204	2920.95833
1329.429	2890.29167
1332.652	2888.95833
1335.872	2882.95833
1339.09	2817.29167
1342.306	2759.625
1345.519	2706.95833
1348.729	2630.95833
1351.938	2643.625
1355.144	2606.625
1358.347	2548.625
1361.548	2554.95833
1364.747	2524.625
1367.944	2484.95833
1371.138	2524.625
1374.329	2508.95833
1377.518	2555.95833
1380.705	2550.29167
1383.89	2547.29167
1387.072	2468.95833
1390.252	2423.29167
1393.429	2348.29167
1396.605	2298.29167
1399.777	2242.29167
1402.948	2232.625
1406.116	2267.625
1409.282	2271.95833
1412.445	2307.29167
1415.606	2348.95833
1418.765	2335.625
1421.921	2374.625
1425.075	2345.95833
1428.227	2395.29167
1431.376	2493.625
1434.524	2562.95833
1437.668	2624.625
1440.811	2677.625
1443.951	2694.29167
1447.089	2735.29167
1450.224	2697.95833
1453.357	2648.625
1456.488	2634.95833
1459.617	2569.625
1462.743	2535.95833
1465.867	2479.29167
1468.989	2431.625
1472.108	2386.29167
1475.225	2327.29167
1478.34	2318.95833
1481.453	2290.625
1484.563	2282.29167
1487.671	2313.625
1490.776	2356.29167
1493.88	2403.29167
1496.981	2411.29167
1500.08	2470.29167
1503.176	2466.95833
1506.271	2497.29167
1509.363	2547.29167
1512.452	2544.625
1515.54	2593.95833
1518.625	2638.95833
1521.708	2705.625
1524.789	2764.95833
1527.867	2849.95833
1530.944	2997.95833
1534.018	3135.95833
1537.089	3256.29167
1540.159	3287.95833
1543.226	3291.625
1546.291	3206.95833
1549.354	3166.95833
1552.415	3105.625
1555.473	3027.95833
1558.529	2989.29167
1561.583	2936.95833
1564.634	2939.95833
1567.684	2922.625
1570.731	2927.625
1573.776	2951.29167
1576.819	2996.29167
1579.859	3009.95833
1582.898	3060.29167
1585.934	3085.29167
1588.968	3096.625
1591.999	3096.95833
1595.029	3087.625
1598.056	3141.625
1601.081	3143.29167
1604.104	3150.95833
1607.125	3141.29167
1610.144	3053.29167
1613.16	2993.29167
1616.174	2945.95833
1619.186	2865.625
1622.196	2797.625
1625.203	2717.95833
1628.209	2688.625
1631.212	2665.29167
1634.213	2662.95833
1637.212	2662.29167
1640.209	2621.95833
1643.203	2530.95833
1646.196	2458.95833
1649.186	2369.95833
1652.174	2298.625
1655.16	2211.29167
1658.144	2143.625
1661.125	2029.95833
1664.105	1998.625
1667.082	1892.625
1670.057	1790.29167
1673.03	1695.95833
1676.001	1615.95833
1678.97	1506.95833
1681.937	1423.29167
1684.901	1349.625
1687.863	1317.29167
1690.824	1259.625
1693.782	1234.95833
1696.738	1211.29167
1699.692	1149.95833
1702.643	1141.29167
1705.593	1114.29167
1708.54	1114.29167
1711.486	1110.29167
1714.429	1068.29167
1717.37	1076.29167
1720.309	1052.29167
1723.246	1057.625
1726.181	1028.625
1729.113	1028.29167
1732.044	1022.95833
1734.972	1012.95833
1737.899	1005.29167
1740.823	1008.625
1743.745	1001.29167
1746.665	972.95833
1749.583	952.95833
1752.499	938.95833
1755.413	944.29167
1758.325	917.95833
1761.235	919.625
1764.142	899.95833
1767.048	873.625
1769.951	895.95833
1772.852	893.29167
1775.752	880.29167
1778.649	895.29167
1781.544	888.29167
1784.437	851.29167
1787.328	865.625
1790.217	858.95833
1793.104	839.95833
1795.989	844.95833
1798.872	844.95833
1801.753	860.29167
1804.631	857.625
1807.508	858.625
1810.383	842.29167
1813.255	842.625
1816.126	838.29167
1818.994	822.95833
1821.861	828.95833
1824.725	834.29167
1827.587	831.95833
1830.448	821.95833
1833.306	814.29167
1836.162	817.625
1839.017	812.29167
1841.869	801.95833
1844.719	805.95833
1847.567	794.95833
1850.414	784.95833
1853.258	801.95833
1856.1	818.29167
1858.94	799.625
1861.778	798.95833
1864.614	796.95833
1867.448	801.29167
1870.28	781.29167
1873.111	809.625
1875.939	792.625
1878.765	819.625
1881.589	789.29167
1884.411	795.29167
1887.231	802.95833
1890.049	799.95833
1892.865	800.625
1895.68	782.29167
1898.492	789.95833
1901.302	792.29167
1904.11	777.29167
1906.916	765.625
1909.721	772.95833
1912.523	771.625
1915.323	765.95833
1918.122	771.95833
1920.918	771.625
1923.712	761.625
1926.505	760.29167
1929.295	771.95833
1932.084	772.625
1934.87	765.29167
1937.655	755.95833
1940.438	752.95833
1943.218	770.95833
1945.997	778.625
1948.774	773.625
1951.549	772.625
1954.322	762.29167
1957.093	770.95833
1959.862	755.29167
1962.629	746.95833
1965.394	756.625
1968.157	748.29167
1970.918	753.625
1973.678	748.625
1976.435	758.625
1979.19	748.29167
1981.944	737.95833
1984.696	745.95833
1987.445	733.95833
1990.193	749.29167
1992.939	755.95833
1995.683	742.29167
1998.425	732.29167
2001.165	763.625
2003.903	736.625
2006.639	747.29167
2009.374	745.29167
2012.106	757.95833
2014.837	723.29167
2017.566	743.95833
2020.292	742.95833
2023.017	741.625
2025.74	737.625
2028.461	729.29167
2031.18	726.29167
2033.898	732.95833
2036.613	734.29167
2039.327	740.625
2042.038	728.95833
2044.748	724.625
2047.456	742.95833
2050.162	740.625
2052.866	739.625
2055.568	748.29167
2058.268	737.29167
2060.967	734.625
2063.663	723.95833
2066.358	740.95833
2069.051	720.29167
2071.742	735.625
2074.431	744.625
2077.118	729.625
2079.804	726.625
2082.487	739.625
2085.169	747.625
2087.849	758.29167
2090.527	728.95833
2093.203	750.625
2095.877	765.29167
2098.55	755.95833
2101.22	745.95833
2103.889	773.95833
2106.556	774.95833
2109.221	805.95833
2111.884	816.95833
2114.546	870.95833
2117.205	899.29167
2119.863	960.29167
2122.519	1000.29167
2125.173	1050.95833
2127.825	1114.95833
2130.475	1094.29167
2133.124	1058.95833
2135.771	1012.625
2138.416	993.95833
2141.059	936.625
2143.7	908.29167
2146.339	858.29167
2148.977	828.625
2151.613	832.625
2154.247	808.95833
2156.879	807.95833
2159.51	779.95833
2162.138	773.29167
2164.765	768.29167
2167.39	760.95833
2170.013	775.95833
2172.634	778.29167
2175.254	764.625
2177.872	778.625
2180.488	755.29167
2183.102	756.625
2185.714	764.29167
2188.325	735.29167
2190.934	738.95833
2193.541	758.29167
2196.146	744.625
2198.75	740.95833
2201.351	740.95833
2203.951	724.95833
2206.549	743.625
2209.146	732.29167
2211.74	729.625
2214.333	749.625
2216.924	726.95833
2219.514	733.625
2222.101	720.625
2224.687	742.95833
2227.271	744.625
2229.853	732.95833
2232.433	716.95833
2235.012	749.625
2237.589	732.625
2240.164	750.95833
2242.738	742.625
2245.309	727.29167
2247.879	736.625
2250.448	753.95833
2253.014	739.625
2255.579	719.95833
2258.142	729.625
2260.703	725.625
2263.262	729.95833
2265.82	720.29167
2268.376	725.95833
2270.93	704.29167
2273.483	727.29167
2276.033	735.95833
2278.583	718.625
2281.13	729.625
2283.675	724.29167
2286.219	719.95833
2288.761	724.29167
2291.302	726.95833
2293.841	739.625
2296.377	716.29167
2298.913	732.95833
2301.446	736.95833
2303.978	735.95833
2306.508	735.625
2309.037	733.625
2311.563	742.95833
2314.088	745.625
2316.612	725.625
2319.133	743.95833
2321.653	728.29167
2324.171	726.625
2326.688	754.625
2329.202	737.29167
2331.715	737.625
2334.227	743.625
2336.736	750.625
2339.244	750.29167
2341.751	734.29167
2344.255	770.625
2346.758	746.95833
2349.259	739.625
2351.759	757.625
2354.257	746.625
2356.753	736.29167
2359.247	759.95833
2361.74	771.625
2364.231	758.95833
2366.721	776.29167
2369.209	764.29167
2371.695	767.29167
2374.179	759.625
2376.662	753.29167
2379.143	779.625
2381.622	769.95833
2384.1	779.625
2386.576	780.29167
2389.051	792.95833
2391.524	791.29167
2393.995	795.95833
2396.464	780.625
2398.932	790.95833
2401.398	787.95833
2403.863	785.625
2406.325	779.29167
2408.787	794.625
2411.246	798.95833
2413.704	790.29167
2416.16	794.29167
2418.615	805.95833
2421.068	816.625
2423.519	817.95833
2425.969	816.29167
2428.417	806.95833
2430.863	832.29167
2433.308	825.95833
2435.751	815.29167
2438.193	819.29167
2440.633	829.95833
2443.071	832.95833
2445.508	816.625
2447.943	816.95833
2450.376	821.29167
2452.808	822.625
2455.238	827.625
2457.667	870.29167
2460.093	838.95833
2462.519	833.625
2464.942	850.95833
2467.365	850.625
2469.785	852.625
2472.204	843.29167
2474.621	841.625
2477.037	875.625
2479.451	838.625
2481.863	851.95833
2484.274	846.95833
2486.683	856.625
2489.091	869.625
2491.497	859.95833
2493.901	878.95833
2496.304	864.29167
2498.705	869.625
2501.105	878.29167
2503.503	899.625
2505.899	863.625
2508.294	901.625
2510.687	895.95833
2513.079	892.625
2515.469	894.29167
2517.858	895.29167
2520.245	903.95833
2522.63	888.625
2525.014	899.95833
2527.396	896.625
2529.776	897.625
2532.156	915.29167
2534.533	899.29167
2536.909	903.29167
2539.283	897.95833
2541.656	912.29167
2544.027	929.29167
2546.397	932.625
2548.765	934.625
2551.131	932.95833
2553.496	923.625
2555.86	941.29167
2558.221	934.29167
2560.582	930.95833
2562.94	927.95833
2565.298	945.625
2567.653	960.29167
2570.007	943.95833
2572.36	961.625
2574.711	951.95833
2577.06	975.95833
2579.408	971.625
2581.754	980.95833
2584.099	976.625
2586.442	973.95833
2588.784	982.29167
2591.124	981.95833
2593.463	980.95833
2595.8	991.625
2598.135	975.29167
2600.469	995.29167
2602.802	1003.95833
2605.133	1003.625
2607.462	1003.625
2609.79	1002.625
2612.116	1004.625
2614.441	1011.95833
2616.764	1008.625
2619.086	1021.29167
2621.406	1011.625
2623.725	1040.29167
2626.042	1029.95833
2628.358	1024.625
2630.672	1034.95833
2632.985	1039.625
2635.296	1035.29167
2637.606	1041.625
2639.914	1045.29167
2642.22	1043.625
2644.525	1057.29167
2646.829	1068.95833
2649.131	1082.29167
2651.432	1081.29167
2653.731	1084.29167
2656.028	1097.95833
2658.324	1107.625
2660.619	1099.29167
2662.912	1112.95833
2665.204	1104.29167
2667.494	1112.625
2669.782	1112.29167
2672.07	1121.95833
2674.355	1119.29167
2676.639	1122.29167
2678.922	1111.95833
2681.203	1135.95833
2683.483	1108.29167
2685.761	1111.29167
2688.038	1137.29167
2690.313	1142.29167
2692.587	1142.29167
2694.859	1125.95833
2697.13	1146.95833
2699.399	1150.625
2701.667	1176.625
2703.933	1162.95833
2706.198	1181.95833
2708.461	1172.625
2710.723	1187.95833
2712.984	1187.95833
2715.243	1196.29167
2717.5	1191.29167
2719.757	1209.625
2722.011	1208.625
2724.264	1220.95833
2726.516	1235.29167
2728.766	1221.95833
2731.015	1239.95833
2733.262	1234.95833
2735.508	1251.95833
2737.753	1236.29167
2739.996	1234.625
2742.237	1238.95833
2744.477	1254.625
2746.716	1252.625
2748.953	1247.95833
2751.189	1247.625
2753.423	1227.625
2755.656	1237.625
2757.887	1231.29167
2760.117	1229.29167
2762.346	1235.95833
2764.573	1224.29167
2766.798	1245.29167
2769.022	1236.95833
2771.245	1242.625
2773.467	1254.95833
2775.686	1255.625
2777.905	1251.625
2780.122	1268.29167
2782.337	1284.29167
2784.552	1282.625
2786.764	1288.625
2788.976	1290.29167
2791.186	1299.29167
2793.394	1321.95833
2795.601	1331.95833
2797.807	1339.29167
2800.011	1346.625
2802.214	1352.29167
2804.415	1358.95833
2806.615	1344.29167
2808.814	1343.625
2811.011	1376.29167
2813.206	1358.95833
2815.401	1372.29167
2817.594	1370.95833
2819.785	1369.625
2821.975	1388.95833
2824.164	1383.625
2826.351	1399.625
2828.537	1417.29167
2830.722	1413.29167
2832.905	1440.29167
2835.086	1460.95833
2837.267	1475.95833
2839.445	1502.625
2841.623	1514.625
2843.799	1526.625
2845.974	1564.95833
2848.147	1578.95833
2850.319	1609.29167
2852.489	1649.625
2854.659	1630.29167
2856.826	1641.625
2858.993	1677.29167
2861.158	1667.29167
2863.321	1670.29167
2865.483	1698.95833
2867.644	1702.625
2869.804	1680.625
2871.962	1679.95833
2874.118	1670.95833
2876.274	1663.625
2878.428	1651.625
2880.58	1678.29167
2882.731	1638.625
2884.881	1647.625
2887.03	1660.95833
2889.177	1665.95833
2891.322	1680.625
2893.467	1678.95833
2895.61	1683.625
2897.751	1701.29167
2899.892	1703.95833
2902.03	1719.625
2904.168	1718.29167
2906.304	1720.625
2908.439	1751.625
2910.572	1753.625
2912.704	1759.29167
2914.835	1757.95833
2916.965	1755.29167
2919.093	1789.625
2921.219	1754.95833
2923.345	1773.625
2925.469	1749.625
2927.591	1743.29167
2929.712	1711.29167
2931.832	1718.29167
2933.951	1683.29167
2936.068	1679.625
2938.184	1659.29167
2940.299	1664.95833
2942.412	1639.95833
2944.524	1619.95833
2946.634	1626.95833
2948.744	1575.29167
2950.851	1600.29167
2952.958	1598.95833
2955.063	1599.29167
2957.167	1596.95833
2959.269	1567.29167
2961.371	1618.29167
2963.471	1572.95833
2965.569	1607.625
2967.666	1559.95833
2969.762	1569.29167
2971.857	1556.95833
2973.95	1549.625
2976.042	1527.625
2978.133	1510.95833
2980.222	1495.29167
2982.31	1479.29167
2984.396	1453.625
2986.482	1456.625
2988.566	1440.29167
2990.648	1440.95833
2992.73	1433.625
2994.81	1434.625
2996.889	1424.95833
2998.966	1449.625
3001.042	1439.29167
3003.117	1443.625
3005.191	1446.95833
3007.263	1415.95833
3009.334	1421.625
3011.403	1407.29167
3013.472	1401.625
3015.539	1379.625
3017.604	1391.29167
3019.669	1351.95833
3021.732	1347.29167
3023.794	1363.625
3025.854	1336.29167
3027.914	1351.625
3029.971	1356.29167
3032.028	1354.625
3034.083	1341.625
3036.137	1330.625
3038.19	1291.625
3040.242	1252.95833
3042.292	1242.95833
3044.341	1212.95833
3046.388	1223.29167
3048.435	1203.95833
3050.48	1217.625
3052.524	1209.29167
3054.566	1200.29167
3056.607	1190.95833
3058.647	1155.625
3060.686	1125.625
3062.723	1110.95833
3064.759	1048.95833
3066.794	-2.375
3068.828	5.29167
3070.86	3.625
