-0.839	546.16667
3.438	623.83333
7.711	176.5
11.981	61.16667
16.247	44.16667
20.509	48.16667
24.768	44.83333
29.024	55.83333
33.276	42.5
37.524	50.16667
41.769	48.5
46.01	29.83333
50.247	47.16667
54.481	54.5
58.712	62.5
62.939	47.5
67.162	59.83333
71.382	56.83333
75.599	43.16667
79.812	62.16667
84.021	82.16667
88.227	62.5
92.429	59.16667
96.628	52.83333
100.823	69.5
105.015	74.5
109.204	66.16667
113.388	71.83333
117.57	67.83333
121.748	83.16667
125.922	74.5
130.093	92.5
134.261	95.83333
138.425	95.5
142.585	133.83333
146.742	128.83333
150.896	157.5
155.046	199.83333
159.193	315.83333
163.336	532.16667
167.476	974.83333
171.613	1783.83333
175.746	2959.5
179.875	4349.5
184.002	5642.5
188.124	6495.83333
192.244	6797.83333
196.36	6671.16667
200.472	6429.5
204.581	6171.83333
208.687	5916.5
212.79	5788.5
216.889	5731.5
220.984	5738.83333
225.077	5675.16667
229.165	5608.5
233.251	5590.16667
237.333	5485.16667
241.412	5426.5
245.487	5336.83333
249.559	5243.5
253.628	5215.83333
257.694	5157.5
261.756	5122.5
265.814	5013.16667
269.87	4850.83333
273.922	4698.83333
277.97	4643.5
282.016	4626.83333
286.058	4685.16667
290.097	4816.16667
294.132	4886.16667
298.164	4837.5
302.193	4589.16667
306.219	4234.83333
310.241	3924.5
314.26	3600.83333
318.276	3362.83333
322.288	3169.16667
326.297	3035.16667
330.303	2930.5
334.305	2831.83333
338.305	2791.16667
342.301	2747.5
346.294	2729.16667
350.283	2688.16667
354.269	2677.83333
358.252	2654.5
362.232	2622.83333
366.209	2612.83333
370.182	2569.83333
374.152	2574.83333
378.119	2592.16667
382.083	2547.5
386.043	2560.5
390	2536.83333
393.954	2554.83333
397.905	2530.83333
401.852	2525.83333
405.797	2519.16667
409.738	2493.16667
413.676	2490.16667
417.61	2484.5
421.542	2461.16667
425.47	2435.16667
429.396	2420.16667
433.318	2401.83333
437.236	2392.83333
441.152	2417.16667
445.065	2355.16667
448.974	2357.5
452.88	2325.16667
456.783	2319.5
460.683	2298.16667
464.58	2307.5
468.473	2322.83333
472.364	2337.5
476.251	2322.16667
480.135	2363.16667
484.016	2384.16667
487.894	2426.83333
491.769	2429.16667
495.641	2465.16667
499.509	2475.83333
503.375	2451.83333
507.237	2455.83333
511.096	2454.83333
514.952	2498.83333
518.805	2521.5
522.655	2518.16667
526.502	2457.5
530.346	2412.83333
534.187	2397.83333
538.024	2390.83333
541.859	2423.5
545.69	2443.5
549.519	2413.5
553.344	2406.5
557.166	2363.5
560.985	2319.83333
564.802	2282.83333
568.615	2273.5
572.425	2233.16667
576.232	2211.16667
580.036	2232.16667
583.836	2208.16667
587.634	2243.5
591.429	2232.5
595.221	2299.16667
599.01	2311.5
602.796	2314.16667
606.578	2334.5
610.358	2356.16667
614.135	2323.16667
617.909	2318.16667
621.679	2296.16667
625.447	2266.16667
629.212	2267.16667
632.973	2265.16667
636.732	2265.5
640.488	2268.5
644.241	2240.16667
647.991	2230.5
651.737	2240.16667
655.481	2212.5
659.222	2226.16667
662.96	2204.5
666.695	2252.83333
670.427	2271.16667
674.156	2275.83333
677.882	2275.5
681.605	2242.5
685.325	2219.16667
689.043	2228.16667
692.757	2181.5
696.468	2209.16667
700.177	2192.83333
703.882	2175.5
707.585	2168.83333
711.284	2155.83333
714.981	2189.5
718.675	2176.83333
722.366	2175.83333
726.054	2159.5
729.739	2185.83333
733.421	2178.16667
737.1	2171.16667
740.777	2211.83333
744.45	2195.16667
748.121	2217.83333
751.789	2246.83333
755.453	2242.83333
759.115	2296.16667
762.774	2288.16667
766.431	2292.83333
770.084	2316.83333
773.734	2331.5
777.382	2387.5
781.027	2400.16667
784.669	2412.5
788.308	2425.16667
791.944	2437.16667
795.577	2450.5
799.208	2476.16667
802.835	2477.5
806.46	2500.5
810.082	2490.16667
813.701	2495.16667
817.317	2500.5
820.931	2526.5
824.542	2537.16667
828.149	2506.16667
831.754	2468.83333
835.357	2476.83333
838.956	2513.83333
842.553	2473.16667
846.146	2460.16667
849.737	2435.83333
853.326	2464.83333
856.911	2443.5
860.493	2496.5
864.073	2505.16667
867.65	2534.83333
871.225	2572.5
874.796	2599.16667
878.365	2603.83333
881.931	2609.83333
885.494	2681.16667
889.054	2717.83333
892.612	2784.5
896.166	2793.83333
899.719	2804.5
903.268	2704.16667
906.814	2643.83333
910.358	2572.16667
913.899	2539.83333
917.438	2518.83333
920.973	2477.83333
924.506	2518.16667
928.036	2557.83333
931.564	2586.83333
935.088	2615.16667
938.61	2616.83333
942.129	2660.16667
945.646	2696.83333
949.16	2771.83333
952.671	2805.16667
956.179	2781.5
959.685	2737.16667
963.188	2739.16667
966.688	2685.5
970.185	2646.16667
973.68	2561.16667
977.173	2535.5
980.662	2508.83333
984.149	2512.5
987.633	2497.16667
991.114	2543.83333
994.593	2594.16667
998.069	2642.83333
1001.542	2725.16667
1005.013	2683.83333
1008.481	2561.5
1011.947	2506.83333
1015.409	2504.5
1018.869	2500.16667
1022.327	2528.5
1025.782	2491.83333
1029.234	2523.83333
1032.683	2474.83333
1036.13	2392.5
1039.574	2322.16667
1043.016	2244.83333
1046.455	2199.5
1049.891	2158.83333
1053.325	2165.5
1056.756	2168.16667
1060.184	2181.5
1063.61	2202.5
1067.033	2210.16667
1070.454	2215.5
1073.872	2239.5
1077.287	2218.83333
1080.7	2224.5
1084.11	2224.5
1087.517	2197.83333
1090.922	2186.16667
1094.325	2163.5
1097.724	2136.16667
1101.122	2169.83333
1104.516	2138.16667
1107.908	2138.5
1111.298	2197.5
1114.684	2233.5
1118.069	2251.16667
1121.45	2294.5
1124.83	2278.83333
1128.206	2309.16667
1131.58	2337.83333
1134.951	2383.16667
1138.32	2480.16667
1141.687	2546.16667
1145.05	2590.16667
1148.412	2588.5
1151.77	2587.5
1155.126	2571.16667
1158.48	2536.83333
1161.831	2553.5
1165.18	2570.5
1168.525	2600.5
1171.869	2632.83333
1175.21	2645.5
1178.548	2673.5
1181.884	2703.83333
1185.217	2725.83333
1188.548	2776.83333
1191.877	2859.5
1195.202	2930.16667
1198.526	3005.16667
1201.846	3003.16667
1205.165	3022.16667
1208.48	2996.5
1211.794	2995.16667
1215.104	3004.16667
1218.413	3007.5
1221.719	2969.83333
1225.022	2986.16667
1228.323	2912.16667
1231.621	2874.16667
1234.917	2879.5
1238.21	2889.5
1241.501	2842.16667
1244.79	2851.83333
1248.076	2843.16667
1251.359	2864.16667
1254.64	2936.83333
1257.919	2925.16667
1261.195	3000.5
1264.468	3068.83333
1267.74	3087.16667
1271.008	3093.5
1274.275	3065.83333
1277.538	3050.5
1280.8	3086.5
1284.059	3056.16667
1287.315	3103.16667
1290.569	3123.83333
1293.821	3155.83333
1297.07	3160.5
1300.317	3180.83333
1303.562	3202.5
1306.803	3184.5
1310.043	3141.16667
1313.28	3157.5
1316.515	3086.16667
1319.747	3131.16667
1322.977	3106.83333
1326.204	3098.16667
1329.429	3088.5
1332.652	3070.83333
1335.872	3022.83333
1339.09	2982.16667
1342.306	2926.16667
1345.519	2844.16667
1348.729	2815.5
1351.938	2804.16667
1355.144	2754.16667
1358.347	2724.5
1361.548	2729.16667
1364.747	2706.16667
1367.944	2653.5
1371.138	2711.83333
1374.329	2723.5
1377.518	2738.83333
1380.705	2771.83333
1383.89	2741.16667
1387.072	2669.16667
1390.252	2569.83333
1393.429	2499.83333
1396.605	2439.16667
1399.777	2401.16667
1402.948	2390.16667
1406.116	2397.5
1409.282	2408.16667
1412.445	2414.5
1415.606	2464.5
1418.765	2473.16667
1421.921	2506.5
1425.075	2533.83333
1428.227	2585.5
1431.376	2674.16667
1434.524	2754.83333
1437.668	2836.16667
1440.811	2899.16667
1443.951	2924.16667
1447.089	2920.5
1450.224	2925.5
1453.357	2852.16667
1456.488	2827.16667
1459.617	2790.83333
1462.743	2716.5
1465.867	2620.16667
1468.989	2592.16667
1472.108	2538.16667
1475.225	2484.83333
1478.34	2461.83333
1481.453	2466.16667
1484.563	2494.5
1487.671	2511.16667
1490.776	2551.16667
1493.88	2581.5
1496.981	2616.16667
1500.08	2661.16667
1503.176	2685.5
1506.271	2726.16667
1509.363	2756.83333
1512.452	2788.16667
1515.54	2816.5
1518.625	2838.83333
1521.708	2908.83333
1524.789	2979.16667
1527.867	3067.83333
1530.944	3247.83333
1534.018	3379.83333
1537.089	3520.5
1540.159	3571.5
1543.226	3567.5
1546.291	3518.16667
1549.354	3425.16667
1552.415	3352.5
1555.473	3290.83333
1558.529	3231.5
1561.583	3188.16667
1564.634	3174.5
1567.684	3178.16667
1570.731	3188.83333
1573.776	3219.83333
1576.819	3259.83333
1579.859	3266.5
1582.898	3324.5
1585.934	3358.5
1588.968	3354.16667
1591.999	3344.16667
1595.029	3370.83333
1598.056	3383.16667
1601.081	3440.83333
1604.104	3425.5
1607.125	3384.83333
1610.144	3322.83333
1613.16	3241.83333
1616.174	3180.5
1619.186	3101.5
1622.196	2985.5
1625.203	2924.16667
1628.209	2871.16667
1631.212	2809.83333
1634.213	2789.16667
1637.212	2781.83333
1640.209	2757.83333
1643.203	2680.16667
1646.196	2593.83333
1649.186	2483.83333
1652.174	2455.16667
1655.16	2359.16667
1658.144	2300.5
1661.125	2224.5
1664.105	2116.16667
1667.082	2007.16667
1670.057	1922.16667
1673.03	1799.83333
1676.001	1672.5
1678.97	1564.16667
1681.937	1472.83333
1684.901	1400.83333
1687.863	1358.83333
1690.824	1281.83333
1693.782	1266.16667
1696.738	1211.83333
1699.692	1195.83333
1702.643	1143.83333
1705.593	1142.83333
1708.54	1121.83333
1711.486	1126.83333
1714.429	1099.5
1717.37	1075.83333
1720.309	1060.16667
1723.246	1086.5
1726.181	1050.83333
1729.113	1058.16667
1732.044	1026.5
1734.972	1025.16667
1737.899	1026.83333
1740.823	1029.16667
1743.745	988.83333
1746.665	976.83333
1749.583	966.5
1752.499	941.16667
1755.413	939.83333
1758.325	913.16667
1761.235	914.83333
1764.142	901.16667
1767.048	881.83333
1769.951	887.5
1772.852	889.16667
1775.752	879.83333
1778.649	885.16667
1781.544	873.16667
1784.437	853.16667
1787.328	860.83333
1790.217	852.83333
1793.104	828.5
1795.989	829.16667
1798.872	831.16667
1801.753	852.83333
1804.631	841.16667
1807.508	837.16667
1810.383	828.83333
1813.255	827.5
1816.126	820.16667
1818.994	809.83333
1821.861	808.16667
1824.725	817.16667
1827.587	806.83333
1830.448	797.83333
1833.306	787.83333
1836.162	804.83333
1839.017	787.5
1841.869	783.83333
1844.719	781.5
1847.567	764.83333
1850.414	757.5
1853.258	759.5
1856.1	771.83333
1858.94	777.83333
1861.778	769.16667
1864.614	758.16667
1867.448	770.5
1870.28	760.16667
1873.111	786.16667
1875.939	768.5
1878.765	785.83333
1881.589	760.16667
1884.411	755.83333
1887.231	763.5
1890.049	747.16667
1892.865	744.5
1895.68	740.83333
1898.492	760.5
1901.302	738.16667
1904.11	748.5
1906.916	720.16667
1909.721	721.83333
1912.523	735.83333
1915.323	725.5
1918.122	722.5
1920.918	727.5
1923.712	729.5
1926.505	721.83333
1929.295	705.16667
1932.084	722.16667
1934.87	715.83333
1937.655	703.83333
1940.438	708.16667
1943.218	708.83333
1945.997	709.5
1948.774	717.16667
1951.549	726.16667
1954.322	698.16667
1957.093	706.5
1959.862	701.83333
1962.629	690.83333
1965.394	690.5
1968.157	682.16667
1970.918	680.5
1973.678	673.16667
1976.435	692.16667
1979.19	687.5
1981.944	665.83333
1984.696	677.83333
1987.445	656.5
1990.193	686.83333
1992.939	691.5
1995.683	675.83333
1998.425	654.16667
2001.165	691.5
2003.903	656.16667
2006.639	670.5
2009.374	680.16667
2012.106	660.5
2014.837	651.16667
2017.566	661.16667
2020.292	664.83333
2023.017	662.5
2025.74	661.5
2028.461	637.5
2031.18	650.83333
2033.898	646.16667
2036.613	647.5
2039.327	645.83333
2042.038	625.83333
2044.748	634.83333
2047.456	641.5
2050.162	627.16667
2052.866	641.5
2055.568	637.5
2058.268	636.16667
2060.967	639.16667
2063.663	608.83333
2066.358	632.83333
2069.051	624.16667
2071.742	633.16667
2074.431	634.5
2077.118	641.16667
2079.804	630.83333
2082.487	633.16667
2085.169	642.5
2087.849	647.5
2090.527	618.5
2093.203	628.5
2095.877	657.16667
2098.55	632.83333
2101.22	651.16667
2103.889	655.16667
2106.556	659.83333
2109.221	677.5
2111.884	684.5
2114.546	739.16667
2117.205	772.83333
2119.863	842.16667
2122.519	884.83333
2125.173	919.83333
2127.825	973.16667
2130.475	967.83333
2133.124	931.5
2135.771	881.83333
2138.416	863.83333
2141.059	805.16667
2143.7	775.5
2146.339	721.5
2148.977	694.5
2151.613	677.16667
2154.247	671.83333
2156.879	655.83333
2159.51	631.5
2162.138	637.83333
2164.765	625.5
2167.39	603.5
2170.013	617.83333
2172.634	610.5
2175.254	593.16667
2177.872	631.83333
2180.488	578.5
2183.102	599.16667
2185.714	590.5
2188.325	582.16667
2190.934	574.5
2193.541	577.16667
2196.146	580.5
2198.75	560.16667
2201.351	563.83333
2203.951	560.16667
2206.549	579.16667
2209.146	554.5
2211.74	560.5
2214.333	558.83333
2216.924	533.5
2219.514	554.83333
2222.101	548.16667
2224.687	558.16667
2227.271	544.5
2229.853	533.5
2232.433	524.83333
2235.012	548.83333
2237.589	544.16667
2240.164	559.16667
2242.738	535.16667
2245.309	531.16667
2247.879	539.83333
2250.448	548.16667
2253.014	522.5
2255.579	512.16667
2258.142	520.16667
2260.703	519.16667
2263.262	521.16667
2265.82	506.5
2268.376	509.83333
2270.93	496.16667
2273.483	501.83333
2276.033	509.5
2278.583	505.83333
2281.13	495.5
2283.675	490.83333
2286.219	483.83333
2288.761	498.16667
2291.302	507.16667
2293.841	514.83333
2296.377	487.5
2298.913	496.5
2301.446	500.5
2303.978	496.16667
2306.508	480.5
2309.037	494.16667
2311.563	488.83333
2314.088	498.83333
2316.612	470.5
2319.133	493.5
2321.653	487.5
2324.171	474.83333
2326.688	497.83333
2329.202	483.16667
2331.715	483.83333
2334.227	472.16667
2336.736	484.83333
2339.244	480.16667
2341.751	461.16667
2344.255	484.83333
2346.758	482.83333
2349.259	461.16667
2351.759	473.16667
2354.257	472.16667
2356.753	461.16667
2359.247	466.83333
2361.74	473.16667
2364.231	475.5
2366.721	469.5
2369.209	461.83333
2371.695	473.83333
2374.179	470.5
2376.662	461.83333
2379.143	484.83333
2381.622	464.83333
2384.1	466.83333
2386.576	463.83333
2389.051	471.83333
2391.524	486.5
2393.995	482.83333
2396.464	468.16667
2398.932	457.83333
2401.398	460.16667
2403.863	470.5
2406.325	453.5
2408.787	471.5
2411.246	465.5
2413.704	454.83333
2416.16	459.83333
2418.615	465.5
2421.068	473.5
2423.519	468.16667
2425.969	461.16667
2428.417	470.16667
2430.863	486.16667
2433.308	472.16667
2435.751	467.83333
2438.193	459.5
2440.633	466.5
2443.071	469.5
2445.508	458.5
2447.943	457.16667
2450.376	454.5
2452.808	457.83333
2455.238	461.5
2457.667	488.5
2460.093	456.83333
2462.519	456.5
2464.942	453.83333
2467.365	453.5
2469.785	463.16667
2472.204	456.5
2474.621	456.83333
2477.037	473.5
2479.451	435.83333
2481.863	451.5
2484.274	454.5
2486.683	462.5
2489.091	464.83333
2491.497	457.83333
2493.901	461.83333
2496.304	445.83333
2498.705	459.16667
2501.105	454.16667
2503.503	483.83333
2505.899	449.83333
2508.294	464.16667
2510.687	455.83333
2513.079	454.83333
2515.469	447.5
2517.858	449.16667
2520.245	464.16667
2522.63	449.16667
2525.014	443.16667
2527.396	444.5
2529.776	441.5
2532.156	463.16667
2534.533	443.16667
2536.909	443.16667
2539.283	442.83333
2541.656	443.5
2544.027	455.83333
2546.397	453.5
2548.765	449.83333
2551.131	457.5
2553.496	450.5
2555.86	458.16667
2558.221	448.5
2560.582	451.83333
2562.94	438.16667
2565.298	450.83333
2567.653	464.5
2570.007	446.5
2572.36	469.5
2574.711	446.83333
2577.06	471.16667
2579.408	465.83333
2581.754	450.16667
2584.099	450.16667
2586.442	447.16667
2588.784	454.83333
2591.124	458.5
2593.463	458.83333
2595.8	461.16667
2598.135	443.83333
2600.469	461.5
2602.802	467.16667
2605.133	468.5
2607.462	453.5
2609.79	442.5
2612.116	459.5
2614.441	463.5
2616.764	463.16667
2619.086	466.16667
2621.406	452.16667
2623.725	475.5
2626.042	469.5
2628.358	461.5
2630.672	453.83333
2632.985	478.83333
2635.296	474.16667
2637.606	472.83333
2639.914	458.5
2642.22	466.5
2644.525	479.5
2646.829	469.5
2649.131	482.83333
2651.432	488.5
2653.731	481.83333
2656.028	494.5
2658.324	487.16667
2660.619	482.5
2662.912	485.83333
2665.204	467.5
2667.494	487.5
2669.782	476.5
2672.07	494.16667
2674.355	487.16667
2676.639	486.83333
2678.922	482.83333
2681.203	480.83333
2683.483	484.16667
2685.761	491.5
2688.038	493.16667
2690.313	513.83333
2692.587	489.83333
2694.859	493.83333
2697.13	502.83333
2699.399	509.83333
2701.667	512.5
2703.933	510.16667
2706.198	511.83333
2708.461	523.16667
2710.723	516.16667
2712.984	523.16667
2715.243	519.5
2717.5	513.83333
2719.757	533.83333
2722.011	523.83333
2724.264	539.16667
2726.516	551.83333
2728.766	532.16667
2731.015	541.16667
2733.262	543.5
2735.508	528.83333
2737.753	539.83333
2739.996	526.16667
2742.237	523.5
2744.477	537.83333
2746.716	539.5
2748.953	526.5
2751.189	529.83333
2753.423	519.83333
2755.656	512.16667
2757.887	512.16667
2760.117	522.16667
2762.346	507.83333
2764.573	505.5
2766.798	510.5
2769.022	514.5
2771.245	523.5
2773.467	530.83333
2775.686	530.83333
2777.905	537.83333
2780.122	532.83333
2782.337	548.16667
2784.552	537.5
2786.764	547.83333
2788.976	552.5
2791.186	545.83333
2793.394	547.5
2795.601	563.83333
2797.807	576.5
2800.011	571.16667
2802.214	579.16667
2804.415	578.5
2806.615	588.83333
2808.814	586.5
2811.011	591.5
2813.206	593.83333
2815.401	619.83333
2817.594	605.5
2819.785	614.83333
2821.975	613.5
2824.164	615.5
2826.351	633.16667
2828.537	641.5
2830.722	663.16667
2832.905	653.5
2835.086	685.83333
2837.267	709.83333
2839.445	722.5
2841.623	737.83333
2843.799	759.83333
2845.974	791.16667
2848.147	812.5
2850.319	841.83333
2852.489	858.16667
2854.659	876.16667
2856.826	880.83333
2858.993	905.5
2861.158	906.5
2863.321	890.16667
2865.483	900.5
2867.644	913.16667
2869.804	900.5
2871.962	899.83333
2874.118	900.83333
2876.274	899.16667
2878.428	913.16667
2880.58	892.83333
2882.731	896.16667
2884.881	882.83333
2887.03	890.5
2889.177	902.83333
2891.322	919.5
2893.467	912.5
2895.61	911.16667
2897.751	922.16667
2899.892	903.83333
2902.03	921.16667
2904.168	933.16667
2906.304	926.5
2908.439	966.83333
2910.572	923.83333
2912.704	953.83333
2914.835	957.16667
2916.965	942.16667
2919.093	964.5
2921.219	945.16667
2923.345	957.16667
2925.469	923.83333
2927.591	934.83333
2929.712	907.83333
2931.832	909.5
2933.951	900.16667
2936.068	862.83333
2938.184	858.83333
2940.299	840.16667
2942.412	826.83333
2944.524	807.16667
2946.634	796.83333
2948.744	761.16667
2950.851	787.83333
2952.958	750.5
2955.063	746.83333
2957.167	744.5
2959.269	719.83333
2961.371	751.83333
2963.471	716.16667
2965.569	725.5
2967.666	696.5
2969.762	698.83333
2971.857	689.83333
2973.95	674.83333
2976.042	669.83333
2978.133	655.83333
2980.222	640.5
2982.31	631.16667
2984.396	608.5
2986.482	600.83333
2988.566	602.5
2990.648	588.5
2992.73	580.5
2994.81	578.5
2996.889	567.5
2998.966	582.5
3001.042	580.5
3003.117	576.5
3005.191	575.16667
3007.263	572.83333
3009.334	562.83333
3011.403	567.5
3013.472	547.16667
3015.539	552.16667
3017.604	555.5
3019.669	512.16667
3021.732	520.83333
3023.794	518.16667
3025.854	518.16667
3027.914	512.83333
3029.971	518.16667
3032.028	510.83333
3034.083	512.83333
3036.137	503.83333
3038.19	484.16667
3040.242	473.16667
3042.292	466.83333
3044.341	468.5
3046.388	471.5
3048.435	453.16667
3050.48	465.16667
3052.524	462.16667
3054.566	442.5
3056.607	462.83333
3058.647	443.5
3060.686	429.5
3062.723	419.83333
3064.759	401.5
3066.794	-1.16667
3068.828	2.83333
3070.86	3.16667
