-0.839	539.16667
3.438	628.83333
7.711	181.5
11.981	63.16667
16.247	44.83333
20.509	49.16667
24.768	44.5
29.024	54.83333
33.276	43.5
37.524	47.83333
41.769	47.16667
46.01	29.83333
50.247	47.16667
54.481	57.16667
58.712	58.83333
62.939	48.16667
67.162	63.16667
71.382	52.5
75.599	43.5
79.812	64.16667
84.021	80.83333
88.227	59.83333
92.429	59.5
96.628	51.5
100.823	67.5
105.015	77.83333
109.204	64.83333
113.388	74.16667
117.57	74.16667
121.748	82.5
125.922	74.5
130.093	92.83333
134.261	93.16667
138.425	96.5
142.585	131.83333
146.742	127.83333
150.896	160.16667
155.046	197.5
159.193	314.83333
163.336	535.5
167.476	973.83333
171.613	1783.16667
175.746	2966.16667
179.875	4304.16667
184.002	5615.83333
188.124	6513.83333
192.244	6758.83333
196.36	6664.83333
200.472	6372.83333
204.581	6141.16667
208.687	5922.83333
212.79	5766.16667
216.889	5736.83333
220.984	5664.16667
225.077	5614.83333
229.165	5587.16667
233.251	5556.16667
237.333	5501.16667
241.412	5386.5
245.487	5322.83333
249.559	5245.5
253.628	5192.83333
257.694	5177.5
261.756	5096.16667
265.814	4977.5
269.87	4848.16667
273.922	4686.5
277.97	4633.16667
282.016	4608.5
286.058	4634.83333
290.097	4789.83333
294.132	4825.16667
298.164	4818.83333
302.193	4579.5
306.219	4233.16667
310.241	3899.83333
314.26	3574.5
318.276	3326.16667
322.288	3151.83333
326.297	2986.83333
330.303	2884.5
334.305	2802.16667
338.305	2743.83333
342.301	2701.83333
346.294	2682.5
350.283	2687.5
354.269	2637.83333
358.252	2606.5
362.232	2596.16667
366.209	2565.16667
370.182	2531.5
374.152	2504.83333
378.119	2533.16667
382.083	2540.5
386.043	2543.16667
390	2499.16667
393.954	2496.83333
397.905	2489.5
401.852	2475.5
405.797	2450.5
409.738	2453.16667
413.676	2441.83333
417.61	2444.83333
421.542	2385.5
425.47	2406.16667
429.396	2381.16667
433.318	2370.83333
437.236	2359.5
441.152	2381.16667
445.065	2321.83333
448.974	2323.5
452.88	2290.83333
456.783	2280.16667
460.683	2267.5
464.58	2268.83333
468.473	2276.83333
472.364	2278.83333
476.251	2272.16667
480.135	2318.83333
484.016	2355.83333
487.894	2364.83333
491.769	2374.5
495.641	2392.83333
499.509	2427.83333
503.375	2416.5
507.237	2414.5
511.096	2420.16667
514.952	2432.83333
518.805	2449.5
522.655	2489.5
526.502	2400.5
530.346	2360.83333
534.187	2380.83333
538.024	2380.5
541.859	2390.16667
545.69	2413.5
549.519	2379.5
553.344	2349.16667
557.166	2321.16667
560.985	2307.83333
564.802	2266.16667
568.615	2217.16667
572.425	2197.5
576.232	2174.5
580.036	2173.16667
583.836	2197.5
587.634	2191.5
591.429	2190.16667
595.221	2276.83333
599.01	2272.83333
602.796	2291.16667
606.578	2280.5
610.358	2289.5
614.135	2286.5
617.909	2258.5
621.679	2217.83333
625.447	2215.83333
629.212	2224.16667
632.973	2216.83333
636.732	2230.5
640.488	2235.83333
644.241	2201.5
647.991	2207.16667
651.737	2214.16667
655.481	2182.5
659.222	2187.83333
662.96	2165.5
666.695	2195.83333
670.427	2220.16667
674.156	2235.16667
677.882	2225.16667
681.605	2197.16667
685.325	2189.5
689.043	2187.16667
692.757	2152.83333
696.468	2161.16667
700.177	2173.5
703.882	2140.16667
707.585	2145.83333
711.284	2148.83333
714.981	2132.5
718.675	2121.5
722.366	2133.5
726.054	2119.5
729.739	2152.16667
733.421	2129.83333
737.1	2139.5
740.777	2160.16667
744.45	2175.83333
748.121	2168.5
751.789	2239.83333
755.453	2212.83333
759.115	2234.16667
762.774	2249.5
766.431	2237.83333
770.084	2286.83333
773.734	2299.16667
777.382	2333.83333
781.027	2357.5
784.669	2373.5
788.308	2372.83333
791.944	2390.16667
795.577	2413.5
799.208	2437.5
802.835	2437.16667
806.46	2439.16667
810.082	2461.5
813.701	2455.83333
817.317	2481.16667
820.931	2486.16667
824.542	2473.5
828.149	2451.5
831.754	2445.16667
835.357	2444.5
838.956	2480.83333
842.553	2471.16667
846.146	2420.5
849.737	2423.5
853.326	2422.5
856.911	2411.83333
860.493	2468.5
864.073	2489.5
867.65	2510.5
871.225	2540.5
874.796	2561.83333
878.365	2584.16667
881.931	2579.5
885.494	2635.16667
889.054	2685.83333
892.612	2755.5
896.166	2778.16667
899.719	2796.16667
903.268	2708.5
906.814	2622.83333
910.358	2567.16667
913.899	2481.83333
917.438	2477.16667
920.973	2484.83333
924.506	2499.5
928.036	2540.16667
931.564	2529.16667
935.088	2577.5
938.61	2576.83333
942.129	2627.83333
945.646	2694.16667
949.16	2758.83333
952.671	2787.83333
956.179	2780.5
959.685	2717.5
963.188	2711.83333
966.688	2657.5
970.185	2581.83333
973.68	2544.83333
977.173	2507.16667
980.662	2467.5
984.149	2489.83333
987.633	2470.83333
991.114	2521.5
994.593	2545.16667
998.069	2623.83333
1001.542	2726.16667
1005.013	2660.5
1008.481	2519.16667
1011.947	2478.83333
1015.409	2457.16667
1018.869	2483.5
1022.327	2490.83333
1025.782	2470.16667
1029.234	2479.16667
1032.683	2443.16667
1036.13	2391.83333
1039.574	2265.5
1043.016	2208.5
1046.455	2163.16667
1049.891	2144.83333
1053.325	2132.5
1056.756	2138.83333
1060.184	2156.5
1063.61	2183.16667
1067.033	2179.16667
1070.454	2201.5
1073.872	2225.5
1077.287	2204.16667
1080.7	2219.16667
1084.11	2187.16667
1087.517	2194.16667
1090.922	2155.16667
1094.325	2151.5
1097.724	2116.83333
1101.122	2130.5
1104.516	2125.83333
1107.908	2119.5
1111.298	2187.83333
1114.684	2199.5
1118.069	2226.16667
1121.45	2257.16667
1124.83	2253.16667
1128.206	2290.16667
1131.58	2311.5
1134.951	2364.5
1138.32	2452.16667
1141.687	2523.16667
1145.05	2606.5
1148.412	2563.5
1151.77	2539.83333
1155.126	2543.5
1158.48	2538.5
1161.831	2544.5
1165.18	2556.16667
1168.525	2585.5
1171.869	2610.83333
1175.21	2641.83333
1178.548	2647.16667
1181.884	2666.5
1185.217	2701.83333
1188.548	2755.83333
1191.877	2831.5
1195.202	2932.5
1198.526	2948.83333
1201.846	2982.83333
1205.165	3005.16667
1208.48	2983.83333
1211.794	2973.5
1215.104	2977.5
1218.413	2980.5
1221.719	2992.83333
1225.022	2946.16667
1228.323	2901.5
1231.621	2872.16667
1234.917	2824.16667
1238.21	2843.83333
1241.501	2842.16667
1244.79	2833.5
1248.076	2824.16667
1251.359	2850.5
1254.64	2894.16667
1257.919	2938.16667
1261.195	2988.16667
1264.468	3027.5
1267.74	3079.16667
1271.008	3073.16667
1274.275	3054.16667
1277.538	3033.16667
1280.8	3046.16667
1284.059	3049.83333
1287.315	3091.5
1290.569	3099.83333
1293.821	3112.5
1297.07	3148.16667
1300.317	3175.16667
1303.562	3139.5
1306.803	3160.16667
1310.043	3133.83333
1313.28	3097.5
1316.515	3109.5
1319.747	3095.16667
1322.977	3076.83333
1326.204	3069.83333
1329.429	3069.5
1332.652	3066.16667
1335.872	3005.16667
1339.09	2941.83333
1342.306	2902.16667
1345.519	2859.16667
1348.729	2796.83333
1351.938	2769.16667
1355.144	2737.83333
1358.347	2696.16667
1361.548	2690.5
1364.747	2677.83333
1367.944	2656.16667
1371.138	2654.83333
1374.329	2700.16667
1377.518	2734.16667
1380.705	2736.5
1383.89	2721.5
1387.072	2634.16667
1390.252	2533.16667
1393.429	2472.16667
1396.605	2411.16667
1399.777	2367.16667
1402.948	2370.16667
1406.116	2376.16667
1409.282	2375.5
1412.445	2416.16667
1415.606	2450.16667
1418.765	2458.16667
1421.921	2476.83333
1425.075	2496.5
1428.227	2560.83333
1431.376	2655.5
1434.524	2722.83333
1437.668	2826.16667
1440.811	2869.83333
1443.951	2897.83333
1447.089	2922.83333
1450.224	2892.16667
1453.357	2814.16667
1456.488	2792.16667
1459.617	2752.16667
1462.743	2705.5
1465.867	2630.5
1468.989	2586.5
1472.108	2509.83333
1475.225	2450.83333
1478.34	2446.83333
1481.453	2439.16667
1484.563	2467.5
1487.671	2504.5
1490.776	2526.5
1493.88	2592.83333
1496.981	2607.5
1500.08	2657.83333
1503.176	2685.83333
1506.271	2714.5
1509.363	2753.16667
1512.452	2790.16667
1515.54	2823.16667
1518.625	2847.16667
1521.708	2896.16667
1524.789	2963.16667
1527.867	3085.5
1530.944	3218.16667
1534.018	3376.16667
1537.089	3517.83333
1540.159	3570.83333
1543.226	3565.83333
1546.291	3493.16667
1549.354	3427.16667
1552.415	3340.83333
1555.473	3272.83333
1558.529	3215.5
1561.583	3204.16667
1564.634	3172.5
1567.684	3172.5
1570.731	3194.83333
1573.776	3212.5
1576.819	3223.83333
1579.859	3265.5
1582.898	3313.5
1585.934	3358.16667
1588.968	3361.5
1591.999	3359.83333
1595.029	3388.16667
1598.056	3405.5
1601.081	3427.5
1604.104	3410.16667
1607.125	3386.83333
1610.144	3293.5
1613.16	3236.16667
1616.174	3162.16667
1619.186	3078.5
1622.196	2984.16667
1625.203	2893.83333
1628.209	2846.16667
1631.212	2807.5
1634.213	2784.83333
1637.212	2757.83333
1640.209	2704.16667
1643.203	2639.5
1646.196	2566.5
1649.186	2487.5
1652.174	2428.83333
1655.16	2334.5
1658.144	2283.16667
1661.125	2177.5
1664.105	2086.16667
1667.082	2005.16667
1670.057	1905.5
1673.03	1785.83333
1676.001	1643.16667
1678.97	1567.5
1681.937	1459.83333
1684.901	1382.16667
1687.863	1331.5
1690.824	1270.16667
1693.782	1255.5
1696.738	1211.83333
1699.692	1165.16667
1702.643	1137.16667
1705.593	1131.16667
1708.54	1108.5
1711.486	1114.5
1714.429	1087.5
1717.37	1082.5
1720.309	1046.83333
1723.246	1066.16667
1726.181	1040.5
1729.113	1039.16667
1732.044	1018.16667
1734.972	1009.83333
1737.899	1017.16667
1740.823	1009.83333
1743.745	971.16667
1746.665	965.16667
1749.583	937.16667
1752.499	936.16667
1755.413	931.83333
1758.325	899.83333
1761.235	909.83333
1764.142	883.16667
1767.048	861.5
1769.951	884.83333
1772.852	859.5
1775.752	864.16667
1778.649	867.83333
1781.544	861.16667
1784.437	845.83333
1787.328	854.16667
1790.217	833.16667
1793.104	818.5
1795.989	822.83333
1798.872	824.83333
1801.753	823.5
1804.631	827.5
1807.508	825.5
1810.383	821.5
1813.255	808.5
1816.126	809.5
1818.994	804.5
1821.861	793.16667
1824.725	788.5
1827.587	801.83333
1830.448	790.16667
1833.306	773.16667
1836.162	776.16667
1839.017	769.16667
1841.869	766.5
1844.719	763.5
1847.567	752.5
1850.414	745.5
1853.258	762.16667
1856.1	765.83333
1858.94	768.83333
1861.778	749.5
1864.614	756.83333
1867.448	756.83333
1870.28	733.5
1873.111	765.83333
1875.939	752.83333
1878.765	752.83333
1881.589	745.5
1884.411	753.16667
1887.231	756.16667
1890.049	733.5
1892.865	742.83333
1895.68	737.16667
1898.492	745.16667
1901.302	723.16667
1904.11	735.16667
1906.916	719.83333
1909.721	716.16667
1912.523	728.83333
1915.323	705.83333
1918.122	706.16667
1920.918	726.83333
1923.712	704.83333
1926.505	708.5
1929.295	687.16667
1932.084	712.16667
1934.87	713.5
1937.655	695.83333
1940.438	697.5
1943.218	691.83333
1945.997	699.5
1948.774	712.83333
1951.549	699.83333
1954.322	701.5
1957.093	691.5
1959.862	681.83333
1962.629	688.83333
1965.394	688.83333
1968.157	664.16667
1970.918	681.16667
1973.678	669.5
1976.435	686.83333
1979.19	670.5
1981.944	666.83333
1984.696	678.16667
1987.445	649.5
1990.193	661.83333
1992.939	670.5
1995.683	655.16667
1998.425	649.16667
2001.165	674.83333
2003.903	657.16667
2006.639	648.5
2009.374	667.5
2012.106	652.5
2014.837	639.16667
2017.566	651.16667
2020.292	659.83333
2023.017	642.83333
2025.74	648.5
2028.461	652.16667
2031.18	645.5
2033.898	634.16667
2036.613	632.5
2039.327	642.16667
2042.038	629.83333
2044.748	632.16667
2047.456	634.5
2050.162	616.5
2052.866	621.16667
2055.568	626.16667
2058.268	616.16667
2060.967	626.83333
2063.663	621.83333
2066.358	617.5
2069.051	616.16667
2071.742	634.83333
2074.431	758.16667
2077.118	634.83333
2079.804	614.5
2082.487	624.16667
2085.169	628.16667
2087.849	643.83333
2090.527	614.5
2093.203	625.83333
2095.877	639.16667
2098.55	637.5
2101.22	652.5
2103.889	652.83333
2106.556	652.83333
2109.221	672.16667
2111.884	673.83333
2114.546	741.83333
2117.205	770.5
2119.863	824.16667
2122.519	872.83333
2125.173	929.16667
2127.825	967.83333
2130.475	966.16667
2133.124	921.83333
2135.771	878.83333
2138.416	848.5
2141.059	794.83333
2143.7	773.83333
2146.339	716.83333
2148.977	679.83333
2151.613	679.16667
2154.247	665.5
2156.879	644.16667
2159.51	631.5
2162.138	620.5
2164.765	616.5
2167.39	600.83333
2170.013	619.5
2172.634	612.5
2175.254	597.5
2177.872	626.16667
2180.488	582.5
2183.102	593.5
2185.714	572.5
2188.325	558.83333
2190.934	574.5
2193.541	576.83333
2196.146	570.83333
2198.75	548.83333
2201.351	559.16667
2203.951	558.16667
2206.549	567.83333
2209.146	560.16667
2211.74	544.16667
2214.333	550.16667
2216.924	535.83333
2219.514	549.83333
2222.101	544.16667
2224.687	551.83333
2227.271	536.83333
2229.853	525.5
2232.433	523.5
2235.012	541.16667
2237.589	537.5
2240.164	551.83333
2242.738	530.16667
2245.309	515.83333
2247.879	539.83333
2250.448	534.5
2253.014	509.83333
2255.579	504.83333
2258.142	510.16667
2260.703	503.83333
2263.262	514.16667
2265.82	504.83333
2268.376	511.5
2270.93	496.16667
2273.483	490.5
2276.033	497.5
2278.583	500.16667
2281.13	498.16667
2283.675	497.5
2286.219	495.5
2288.761	501.16667
2291.302	493.16667
2293.841	500.16667
2296.377	486.83333
2298.913	489.5
2301.446	498.83333
2303.978	493.5
2306.508	484.83333
2309.037	487.5
2311.563	487.83333
2314.088	493.83333
2316.612	479.5
2319.133	487.83333
2321.653	482.5
2324.171	473.16667
2326.688	495.5
2329.202	476.83333
2331.715	488.5
2334.227	478.16667
2336.736	485.16667
2339.244	476.5
2341.751	458.16667
2344.255	472.16667
2346.758	473.5
2349.259	455.16667
2351.759	464.5
2354.257	472.5
2356.753	461.5
2359.247	469.5
2361.74	474.83333
2364.231	464.16667
2366.721	469.83333
2369.209	466.16667
2371.695	472.5
2374.179	460.5
2376.662	449.5
2379.143	470.16667
2381.622	462.16667
2384.1	463.16667
2386.576	464.16667
2389.051	476.16667
2391.524	472.83333
2393.995	473.5
2396.464	463.5
2398.932	457.5
2401.398	460.16667
2403.863	461.16667
2406.325	447.16667
2408.787	456.16667
2411.246	466.5
2413.704	455.16667
2416.16	450.83333
2418.615	464.16667
2421.068	461.83333
2423.519	471.16667
2425.969	450.16667
2428.417	457.16667
2430.863	474.16667
2433.308	463.5
2435.751	459.83333
2438.193	455.83333
2440.633	467.83333
2443.071	466.83333
2445.508	458.16667
2447.943	456.5
2450.376	452.83333
2452.808	465.16667
2455.238	456.16667
2457.667	492.5
2460.093	457.83333
2462.519	459.83333
2464.942	457.5
2467.365	455.83333
2469.785	463.16667
2472.204	456.83333
2474.621	441.5
2477.037	465.83333
2479.451	447.5
2481.863	438.83333
2484.274	443.83333
2486.683	449.83333
2489.091	453.83333
2491.497	453.16667
2493.901	460.83333
2496.304	448.16667
2498.705	461.16667
2501.105	455.16667
2503.503	473.16667
2505.899	444.83333
2508.294	470.83333
2510.687	445.16667
2513.079	459.83333
2515.469	445.16667
2517.858	450.83333
2520.245	457.5
2522.63	451.83333
2525.014	453.16667
2527.396	447.83333
2529.776	444.83333
2532.156	455.83333
2534.533	442.16667
2536.909	444.5
2539.283	435.16667
2541.656	436.16667
2544.027	469.83333
2546.397	444.83333
2548.765	447.16667
2551.131	454.16667
2553.496	445.83333
2555.86	454.16667
2558.221	446.16667
2560.582	445.16667
2562.94	436.16667
2565.298	452.5
2567.653	463.5
2570.007	440.5
2572.36	455.16667
2574.711	443.5
2577.06	467.5
2579.408	455.16667
2581.754	449.5
2584.099	456.16667
2586.442	458.16667
2588.784	459.5
2591.124	456.16667
2593.463	458.16667
2595.8	463.16667
2598.135	442.16667
2600.469	450.5
2602.802	466.83333
2605.133	472.83333
2607.462	451.83333
2609.79	446.16667
2612.116	467.5
2614.441	460.16667
2616.764	460.83333
2619.086	458.5
2621.406	445.16667
2623.725	471.16667
2626.042	466.5
2628.358	455.16667
2630.672	452.83333
2632.985	473.5
2635.296	472.16667
2637.606	468.16667
2639.914	458.5
2642.22	468.83333
2644.525	476.16667
2646.829	475.5
2649.131	491.83333
2651.432	486.5
2653.731	480.5
2656.028	486.5
2658.324	481.16667
2660.619	476.83333
2662.912	483.83333
2665.204	478.5
2667.494	494.5
2669.782	481.16667
2672.07	496.83333
2674.355	499.16667
2676.639	488.16667
2678.922	487.16667
2681.203	489.16667
2683.483	470.83333
2685.761	482.16667
2688.038	484.16667
2690.313	504.16667
2692.587	496.16667
2694.859	486.16667
2697.13	502.16667
2699.399	497.83333
2701.667	515.83333
2703.933	515.5
2706.198	508.83333
2708.461	519.16667
2710.723	523.83333
2712.984	514.5
2715.243	527.5
2717.5	508.83333
2719.757	528.83333
2722.011	512.16667
2724.264	537.83333
2726.516	546.5
2728.766	526.5
2731.015	537.83333
2733.262	543.5
2735.508	536.5
2737.753	539.83333
2739.996	519.5
2742.237	517.16667
2744.477	544.16667
2746.716	528.16667
2748.953	533.83333
2751.189	536.5
2753.423	516.16667
2755.656	513.5
2757.887	507.5
2760.117	520.16667
2762.346	509.83333
2764.573	513.5
2766.798	515.83333
2769.022	515.16667
2771.245	523.83333
2773.467	528.83333
2775.686	538.16667
2777.905	526.16667
2780.122	531.83333
2782.337	541.83333
2784.552	535.16667
2786.764	536.5
2788.976	543.5
2791.186	551.5
2793.394	561.5
2795.601	578.16667
2797.807	574.5
2800.011	573.5
2802.214	572.16667
2804.415	582.5
2806.615	581.5
2808.814	587.16667
2811.011	597.83333
2813.206	584.16667
2815.401	612.83333
2817.594	608.16667
2819.785	614.83333
2821.975	605.5
2824.164	611.83333
2826.351	635.83333
2828.537	640.83333
2830.722	663.83333
2832.905	677.83333
2835.086	681.83333
2837.267	717.16667
2839.445	731.83333
2841.623	751.16667
2843.799	763.16667
2845.974	799.16667
2848.147	816.83333
2850.319	837.5
2852.489	865.16667
2854.659	871.16667
2856.826	874.83333
2858.993	918.16667
2861.158	899.83333
2863.321	898.83333
2865.483	908.16667
2867.644	912.5
2869.804	895.83333
2871.962	906.5
2874.118	899.5
2876.274	896.5
2878.428	907.83333
2880.58	912.5
2882.731	893.16667
2884.881	898.16667
2887.03	908.5
2889.177	899.16667
2891.322	914.16667
2893.467	906.5
2895.61	909.16667
2897.751	933.83333
2899.892	918.83333
2902.03	930.5
2904.168	941.16667
2906.304	930.83333
2908.439	944.16667
2910.572	937.16667
2912.704	955.5
2914.835	946.16667
2916.965	957.5
2919.093	971.16667
2921.219	940.83333
2923.345	965.83333
2925.469	935.16667
2927.591	935.16667
2929.712	901.5
2931.832	899.83333
2933.951	890.16667
2936.068	875.83333
2938.184	857.83333
2940.299	838.5
2942.412	839.83333
2944.524	804.5
2946.634	804.83333
2948.744	758.5
2950.851	784.5
2952.958	741.83333
2955.063	748.83333
2957.167	737.83333
2959.269	727.16667
2961.371	742.5
2963.471	715.83333
2965.569	715.16667
2967.666	701.5
2969.762	695.83333
2971.857	689.5
2973.95	671.83333
2976.042	683.5
2978.133	657.16667
2980.222	644.5
2982.31	620.16667
2984.396	602.83333
2986.482	621.5
2988.566	596.5
2990.648	587.83333
2992.73	587.83333
2994.81	573.16667
2996.889	582.5
2998.966	577.5
3001.042	587.83333
3003.117	579.83333
3005.191	569.16667
3007.263	579.5
3009.334	561.16667
3011.403	555.16667
3013.472	545.16667
3015.539	551.5
3017.604	557.83333
3019.669	520.83333
3021.732	529.16667
3023.794	528.16667
3025.854	518.5
3027.914	510.83333
3029.971	525.16667
3032.028	511.83333
3034.083	508.83333
3036.137	504.83333
3038.19	480.83333
3040.242	481.5
3042.292	469.16667
3044.341	469.16667
3046.388	482.83333
3048.435	449.16667
3050.48	475.5
3052.524	469.83333
3054.566	447.83333
3056.607	455.5
3058.647	441.5
3060.686	434.16667
3062.723	411.83333
3064.759	398.83333
3066.794	-0.5
3068.828	1.5
3070.86	3.83333
