-0.839	557.75
3.438	621.41667
7.711	186.75
11.981	60.41667
16.247	45.08333
20.509	48.75
24.768	46.75
29.024	55.41667
33.276	46.41667
37.524	46.75
41.769	45.08333
46.01	31.75
50.247	45.08333
54.481	58.41667
58.712	64.41667
62.939	50.08333
67.162	62.08333
71.382	58.08333
75.599	46.08333
79.812	64.08333
84.021	80.75
88.227	62.75
92.429	57.75
96.628	54.08333
100.823	70.08333
105.015	76.41667
109.204	66.08333
113.388	72.41667
117.57	72.41667
121.748	88.08333
125.922	79.75
130.093	93.41667
134.261	99.08333
138.425	92.41667
142.585	133.41667
146.742	130.41667
150.896	160.41667
155.046	193.08333
159.193	312.75
163.336	532.08333
167.476	977.08333
171.613	1784.08333
175.746	2969.75
179.875	4367.08333
184.002	5706.41667
188.124	6576.08333
192.244	6818.08333
196.36	6740.08333
200.472	6488.75
204.581	6250.08333
208.687	6019.41667
212.79	5905.75
216.889	5819.41667
220.984	5802.75
225.077	5772.08333
229.165	5732.41667
233.251	5647.08333
237.333	5601.08333
241.412	5532.41667
245.487	5458.41667
249.559	5384.75
253.628	5305.41667
257.694	5270.41667
261.756	5230.75
265.814	5114.08333
269.87	4966.75
273.922	4821.75
277.97	4751.75
282.016	4748.08333
286.058	4773.08333
290.097	4895.75
294.132	4970.41667
298.164	4906.08333
302.193	4707.75
306.219	4378.41667
310.241	4019.41667
314.26	3697.75
318.276	3438.41667
322.288	3268.41667
326.297	3121.41667
330.303	3011.41667
334.305	2935.08333
338.305	2883.08333
342.301	2852.75
346.294	2799.08333
350.283	2787.08333
354.269	2762.08333
358.252	2737.08333
362.232	2731.75
366.209	2715.41667
370.182	2677.75
374.152	2669.08333
378.119	2677.08333
382.083	2652.75
386.043	2677.75
390	2647.75
393.954	2638.75
397.905	2636.41667
401.852	2606.41667
405.797	2594.08333
409.738	2589.41667
413.676	2581.75
417.61	2584.41667
421.542	2570.75
425.47	2547.75
429.396	2526.08333
433.318	2520.75
437.236	2506.08333
441.152	2508.08333
445.065	2473.41667
448.974	2487.08333
452.88	2425.75
456.783	2427.08333
460.683	2410.08333
464.58	2398.41667
468.473	2420.75
472.364	2447.41667
476.251	2441.41667
480.135	2492.08333
484.016	2528.08333
487.894	2530.75
491.769	2545.75
495.641	2572.75
499.509	2582.41667
503.375	2589.41667
507.237	2579.08333
511.096	2574.41667
514.952	2599.41667
518.805	2601.75
522.655	2609.75
526.502	2558.41667
530.346	2543.08333
534.187	2519.75
538.024	2513.75
541.859	2527.75
545.69	2540.75
549.519	2522.41667
553.344	2510.08333
557.166	2476.08333
560.985	2434.41667
564.802	2409.08333
568.615	2356.75
572.425	2322.75
576.232	2317.75
580.036	2316.41667
583.836	2325.08333
587.634	2322.08333
591.429	2331.41667
595.221	2402.75
599.01	2414.75
602.796	2442.41667
606.578	2440.41667
610.358	2438.08333
614.135	2417.75
617.909	2388.75
621.679	2379.75
625.447	2371.08333
629.212	2350.41667
632.973	2382.41667
636.732	2355.75
640.488	2371.75
644.241	2326.75
647.991	2334.08333
651.737	2356.41667
655.481	2321.41667
659.222	2346.08333
662.96	2340.41667
666.695	2359.41667
670.427	2391.08333
674.156	2378.08333
677.882	2389.41667
681.605	2364.08333
685.325	2320.08333
689.043	2317.41667
692.757	2316.41667
696.468	2284.41667
700.177	2286.41667
703.882	2296.08333
707.585	2273.75
711.284	2271.41667
714.981	2273.41667
718.675	2273.08333
722.366	2280.08333
726.054	2246.41667
729.739	2272.41667
733.421	2286.75
737.1	2271.75
740.777	2303.08333
744.45	2304.75
748.121	2313.41667
751.789	2363.41667
755.453	2368.75
759.115	2384.75
762.774	2389.41667
766.431	2400.08333
770.084	2394.75
773.734	2419.41667
777.382	2458.08333
781.027	2488.75
784.669	2507.75
788.308	2509.75
791.944	2540.41667
795.577	2561.41667
799.208	2565.75
802.835	2577.41667
806.46	2581.75
810.082	2603.75
813.701	2623.08333
817.317	2639.41667
820.931	2628.08333
824.542	2622.75
828.149	2580.08333
831.754	2565.08333
835.357	2552.41667
838.956	2561.41667
842.553	2548.75
846.146	2545.08333
849.737	2541.41667
853.326	2530.41667
856.911	2525.75
860.493	2553.08333
864.073	2588.41667
867.65	2631.41667
871.225	2655.08333
874.796	2628.41667
878.365	2669.41667
881.931	2708.41667
885.494	2746.41667
889.054	2777.41667
892.612	2885.41667
896.166	2881.41667
899.719	2874.75
903.268	2776.08333
906.814	2743.41667
910.358	2653.08333
913.899	2598.08333
917.438	2591.08333
920.973	2552.75
924.506	2614.41667
928.036	2638.08333
931.564	2659.08333
935.088	2707.41667
938.61	2717.08333
942.129	2739.41667
945.646	2799.41667
949.16	2852.75
952.671	2891.75
956.179	2873.75
959.685	2850.08333
963.188	2822.08333
966.688	2796.41667
970.185	2707.75
973.68	2646.08333
977.173	2618.75
980.662	2588.75
984.149	2574.75
987.633	2593.41667
991.114	2636.08333
994.593	2668.08333
998.069	2747.08333
1001.542	2818.75
1005.013	2772.75
1008.481	2616.41667
1011.947	2584.75
1015.409	2581.75
1018.869	2592.41667
1022.327	2576.41667
1025.782	2578.08333
1029.234	2588.75
1032.683	2561.75
1036.13	2478.41667
1039.574	2393.41667
1043.016	2311.41667
1046.455	2263.08333
1049.891	2231.41667
1053.325	2234.75
1056.756	2248.75
1060.184	2257.75
1063.61	2254.08333
1067.033	2277.75
1070.454	2294.75
1073.872	2310.41667
1077.287	2296.08333
1080.7	2319.75
1084.11	2293.08333
1087.517	2289.08333
1090.922	2258.75
1094.325	2242.08333
1097.724	2190.08333
1101.122	2205.75
1104.516	2215.75
1107.908	2213.41667
1111.298	2254.41667
1114.684	2270.75
1118.069	2306.08333
1121.45	2331.08333
1124.83	2325.41667
1128.206	2368.41667
1131.58	2422.41667
1134.951	2452.75
1138.32	2534.41667
1141.687	2617.41667
1145.05	2673.08333
1148.412	2648.41667
1151.77	2635.41667
1155.126	2597.41667
1158.48	2608.75
1161.831	2602.41667
1165.18	2622.75
1168.525	2671.75
1171.869	2694.41667
1175.21	2698.75
1178.548	2713.08333
1181.884	2759.08333
1185.217	2775.75
1188.548	2834.08333
1191.877	2877.75
1195.202	2987.41667
1198.526	3044.08333
1201.846	3081.75
1205.165	3067.41667
1208.48	3054.08333
1211.794	3055.41667
1215.104	3067.75
1218.413	3075.08333
1221.719	3063.75
1225.022	3042.41667
1228.323	2984.41667
1231.621	2952.41667
1234.917	2933.75
1238.21	2959.41667
1241.501	2914.41667
1244.79	2899.41667
1248.076	2901.75
1251.359	2944.41667
1254.64	3005.41667
1257.919	3013.41667
1261.195	3080.75
1264.468	3097.08333
1267.74	3140.08333
1271.008	3167.75
1274.275	3150.41667
1277.538	3131.41667
1280.8	3143.08333
1284.059	3112.08333
1287.315	3172.41667
1290.569	3196.41667
1293.821	3214.41667
1297.07	3230.08333
1300.317	3245.75
1303.562	3265.08333
1306.803	3230.08333
1310.043	3237.41667
1313.28	3195.41667
1316.515	3173.08333
1319.747	3186.41667
1322.977	3155.08333
1326.204	3177.08333
1329.429	3159.41667
1332.652	3137.41667
1335.872	3121.08333
1339.09	3041.41667
1342.306	2999.41667
1345.519	2930.41667
1348.729	2873.41667
1351.938	2882.08333
1355.144	2852.08333
1358.347	2813.75
1361.548	2782.08333
1364.747	2783.75
1367.944	2762.75
1371.138	2765.41667
1374.329	2798.41667
1377.518	2825.08333
1380.705	2835.08333
1383.89	2806.41667
1387.072	2749.41667
1390.252	2623.08333
1393.429	2545.08333
1396.605	2518.41667
1399.777	2442.75
1402.948	2442.75
1406.116	2453.75
1409.282	2469.75
1412.445	2474.41667
1415.606	2528.75
1418.765	2524.08333
1421.921	2544.08333
1425.075	2571.41667
1428.227	2614.08333
1431.376	2749.75
1434.524	2836.75
1437.668	2873.41667
1440.811	2926.08333
1443.951	2969.08333
1447.089	2981.75
1450.224	2970.41667
1453.357	2905.08333
1456.488	2888.08333
1459.617	2827.75
1462.743	2783.08333
1465.867	2695.08333
1468.989	2639.41667
1472.108	2589.08333
1475.225	2555.75
1478.34	2520.41667
1481.453	2513.75
1484.563	2531.75
1487.671	2552.75
1490.776	2606.75
1493.88	2617.08333
1496.981	2667.75
1500.08	2708.41667
1503.176	2740.08333
1506.271	2755.75
1509.363	2799.41667
1512.452	2827.08333
1515.54	2870.08333
1518.625	2894.41667
1521.708	2973.41667
1524.789	3030.75
1527.867	3128.75
1530.944	3272.08333
1534.018	3432.08333
1537.089	3584.41667
1540.159	3630.75
1543.226	3625.08333
1546.291	3554.41667
1549.354	3498.75
1552.415	3417.75
1555.473	3304.75
1558.529	3279.75
1561.583	3219.75
1564.634	3203.41667
1567.684	3200.08333
1570.731	3227.75
1573.776	3250.08333
1576.819	3290.75
1579.859	3336.08333
1582.898	3365.75
1585.934	3406.08333
1588.968	3404.08333
1591.999	3405.08333
1595.029	3421.75
1598.056	3434.41667
1601.081	3473.41667
1604.104	3455.41667
1607.125	3434.08333
1610.144	3352.08333
1613.16	3268.08333
1616.174	3190.08333
1619.186	3121.75
1622.196	3052.41667
1625.203	2974.75
1628.209	2898.41667
1631.212	2882.75
1634.213	2869.08333
1637.212	2875.41667
1640.209	2841.41667
1643.203	2776.41667
1646.196	2690.75
1649.186	2571.41667
1652.174	2530.08333
1655.16	2437.41667
1658.144	2378.41667
1661.125	2264.75
1664.105	2168.08333
1667.082	2065.08333
1670.057	1969.08333
1673.03	1847.08333
1676.001	1720.08333
1678.97	1626.08333
1681.937	1529.41667
1684.901	1435.41667
1687.863	1382.41667
1690.824	1325.08333
1693.782	1304.41667
1696.738	1243.08333
1699.692	1216.41667
1702.643	1194.75
1705.593	1178.75
1708.54	1163.41667
1711.486	1157.41667
1714.429	1122.75
1717.37	1110.41667
1720.309	1100.41667
1723.246	1118.41667
1726.181	1088.41667
1729.113	1089.08333
1732.044	1066.41667
1734.972	1051.75
1737.899	1070.75
1740.823	1059.08333
1743.745	1030.08333
1746.665	1017.75
1749.583	1000.75
1752.499	1000.08333
1755.413	983.75
1758.325	954.41667
1761.235	946.41667
1764.142	934.08333
1767.048	926.41667
1769.951	934.41667
1772.852	922.41667
1775.752	911.75
1778.649	919.41667
1781.544	909.08333
1784.437	903.08333
1787.328	894.41667
1790.217	881.41667
1793.104	869.08333
1795.989	871.41667
1798.872	864.75
1801.753	874.75
1804.631	867.41667
1807.508	882.08333
1810.383	863.41667
1813.255	861.75
1816.126	860.75
1818.994	850.41667
1821.861	849.41667
1824.725	850.41667
1827.587	846.08333
1830.448	839.75
1833.306	818.75
1836.162	834.75
1839.017	831.08333
1841.869	822.08333
1844.719	810.08333
1847.567	794.75
1850.414	797.41667
1853.258	796.41667
1856.1	817.41667
1858.94	824.41667
1861.778	802.75
1864.614	809.75
1867.448	796.75
1870.28	776.08333
1873.111	809.08333
1875.939	792.75
1878.765	803.41667
1881.589	778.75
1884.411	799.08333
1887.231	791.75
1890.049	786.41667
1892.865	782.41667
1895.68	774.41667
1898.492	788.41667
1901.302	774.08333
1904.11	771.08333
1906.916	776.75
1909.721	758.41667
1912.523	760.75
1915.323	757.75
1918.122	753.41667
1920.918	760.08333
1923.712	746.08333
1926.505	745.41667
1929.295	738.08333
1932.084	753.08333
1934.87	763.08333
1937.655	740.08333
1940.438	733.41667
1943.218	743.75
1945.997	753.08333
1948.774	736.08333
1951.549	749.41667
1954.322	743.08333
1957.093	742.41667
1959.862	714.08333
1962.629	722.75
1965.394	717.75
1968.157	717.41667
1970.918	723.08333
1973.678	708.75
1976.435	720.41667
1979.19	715.08333
1981.944	704.41667
1984.696	695.41667
1987.445	689.08333
1990.193	704.08333
1992.939	717.08333
1995.683	699.75
1998.425	678.08333
2001.165	719.41667
2003.903	695.75
2006.639	695.75
2009.374	704.41667
2012.106	710.08333
2014.837	678.08333
2017.566	689.41667
2020.292	683.75
2023.017	687.08333
2025.74	688.41667
2028.461	676.08333
2031.18	690.41667
2033.898	667.08333
2036.613	674.75
2039.327	687.08333
2042.038	651.08333
2044.748	655.41667
2047.456	677.41667
2050.162	657.08333
2052.866	664.08333
2055.568	677.08333
2058.268	651.08333
2060.967	656.41667
2063.663	651.75
2066.358	665.41667
2069.051	645.41667
2071.742	653.41667
2074.431	661.75
2077.118	638.75
2079.804	643.08333
2082.487	649.75
2085.169	656.41667
2087.849	667.08333
2090.527	649.08333
2093.203	642.08333
2095.877	661.75
2098.55	658.41667
2101.22	669.75
2103.889	684.08333
2106.556	675.41667
2109.221	694.75
2111.884	701.75
2114.546	762.75
2117.205	789.08333
2119.863	855.75
2122.519	889.75
2125.173	960.75
2127.825	995.75
2130.475	986.08333
2133.124	942.08333
2135.771	905.41667
2138.416	882.08333
2141.059	811.41667
2143.7	795.75
2146.339	740.75
2148.977	708.08333
2151.613	701.75
2154.247	676.08333
2156.879	669.41667
2159.51	656.41667
2162.138	643.75
2164.765	639.08333
2167.39	614.08333
2170.013	641.41667
2172.634	636.75
2175.254	620.75
2177.872	650.41667
2180.488	613.08333
2183.102	618.75
2185.714	612.08333
2188.325	591.75
2190.934	608.41667
2193.541	604.75
2196.146	596.75
2198.75	584.08333
2201.351	588.75
2203.951	568.08333
2206.549	593.08333
2209.146	579.75
2211.74	569.08333
2214.333	588.75
2216.924	562.08333
2219.514	574.08333
2222.101	560.75
2224.687	583.41667
2227.271	563.41667
2229.853	550.75
2232.433	548.41667
2235.012	575.41667
2237.589	553.75
2240.164	573.41667
2242.738	556.08333
2245.309	543.08333
2247.879	571.75
2250.448	555.08333
2253.014	542.41667
2255.579	533.08333
2258.142	526.08333
2260.703	520.75
2263.262	536.41667
2265.82	523.75
2268.376	529.08333
2270.93	512.41667
2273.483	521.41667
2276.033	525.75
2278.583	517.41667
2281.13	508.41667
2283.675	509.41667
2286.219	517.75
2288.761	508.08333
2291.302	516.75
2293.841	523.41667
2296.377	503.08333
2298.913	507.75
2301.446	523.75
2303.978	507.41667
2306.508	493.08333
2309.037	509.08333
2311.563	508.75
2314.088	505.41667
2316.612	487.75
2319.133	499.08333
2321.653	499.08333
2324.171	493.41667
2326.688	500.41667
2329.202	489.08333
2331.715	494.75
2334.227	496.08333
2336.736	495.08333
2339.244	493.08333
2341.751	485.08333
2344.255	501.08333
2346.758	487.41667
2349.259	480.08333
2351.759	496.75
2354.257	483.75
2356.753	469.75
2359.247	487.41667
2361.74	487.75
2364.231	487.08333
2366.721	487.75
2369.209	487.08333
2371.695	493.08333
2374.179	478.75
2376.662	466.08333
2379.143	491.41667
2381.622	474.08333
2384.1	480.08333
2386.576	480.08333
2389.051	494.08333
2391.524	498.08333
2393.995	487.41667
2396.464	474.75
2398.932	478.41667
2401.398	475.41667
2403.863	473.41667
2406.325	467.75
2408.787	478.41667
2411.246	479.41667
2413.704	467.08333
2416.16	458.41667
2418.615	466.75
2421.068	472.08333
2423.519	484.41667
2425.969	463.75
2428.417	476.41667
2430.863	489.75
2433.308	476.08333
2435.751	474.41667
2438.193	471.41667
2440.633	475.08333
2443.071	478.08333
2445.508	470.75
2447.943	470.75
2450.376	473.41667
2452.808	467.08333
2455.238	462.75
2457.667	504.08333
2460.093	472.08333
2462.519	462.41667
2464.942	466.75
2467.365	469.75
2469.785	472.41667
2472.204	469.41667
2474.621	460.08333
2477.037	488.41667
2479.451	455.41667
2481.863	457.08333
2484.274	458.75
2486.683	468.75
2489.091	482.41667
2491.497	465.41667
2493.901	475.75
2496.304	463.75
2498.705	472.75
2501.105	462.75
2503.503	489.41667
2505.899	459.08333
2508.294	478.08333
2510.687	458.75
2513.079	462.08333
2515.469	456.08333
2517.858	471.08333
2520.245	474.41667
2522.63	461.41667
2525.014	456.41667
2527.396	461.08333
2529.776	448.75
2532.156	469.08333
2534.533	457.41667
2536.909	457.08333
2539.283	448.08333
2541.656	456.41667
2544.027	477.41667
2546.397	453.41667
2548.765	452.41667
2551.131	459.41667
2553.496	464.75
2555.86	472.75
2558.221	476.41667
2560.582	461.75
2562.94	448.75
2565.298	458.08333
2567.653	472.41667
2570.007	461.75
2572.36	470.08333
2574.711	454.75
2577.06	486.08333
2579.408	473.08333
2581.754	466.41667
2584.099	466.75
2586.442	466.75
2588.784	460.41667
2591.124	469.75
2593.463	474.41667
2595.8	473.41667
2598.135	450.08333
2600.469	461.75
2602.802	477.08333
2605.133	471.75
2607.462	459.41667
2609.79	461.41667
2612.116	472.08333
2614.441	474.08333
2616.764	464.41667
2619.086	477.41667
2621.406	459.41667
2623.725	494.41667
2626.042	476.08333
2628.358	465.75
2630.672	473.41667
2632.985	478.75
2635.296	485.75
2637.606	475.08333
2639.914	468.41667
2642.22	489.41667
2644.525	476.08333
2646.829	485.41667
2649.131	490.41667
2651.432	494.08333
2653.731	480.08333
2656.028	501.08333
2658.324	495.41667
2660.619	482.08333
2662.912	501.75
2665.204	485.75
2667.494	491.41667
2669.782	482.41667
2672.07	489.08333
2674.355	501.75
2676.639	489.41667
2678.922	483.41667
2681.203	500.41667
2683.483	489.75
2685.761	486.75
2688.038	500.08333
2690.313	516.41667
2692.587	502.41667
2694.859	491.08333
2697.13	505.08333
2699.399	522.41667
2701.667	511.41667
2703.933	516.75
2706.198	511.41667
2708.461	525.08333
2710.723	519.41667
2712.984	519.75
2715.243	518.08333
2717.5	529.75
2719.757	534.75
2722.011	524.75
2724.264	540.75
2726.516	546.41667
2728.766	535.08333
2731.015	545.08333
2733.262	538.41667
2735.508	538.08333
2737.753	542.75
2739.996	524.41667
2742.237	527.41667
2744.477	540.41667
2746.716	538.41667
2748.953	529.08333
2751.189	535.41667
2753.423	530.41667
2755.656	518.08333
2757.887	519.75
2760.117	520.08333
2762.346	510.08333
2764.573	505.08333
2766.798	518.75
2769.022	519.75
2771.245	528.41667
2773.467	527.08333
2775.686	542.08333
2777.905	530.75
2780.122	546.08333
2782.337	542.08333
2784.552	536.41667
2786.764	539.75
2788.976	549.41667
2791.186	553.75
2793.394	556.08333
2795.601	562.41667
2797.807	574.75
2800.011	576.08333
2802.214	584.41667
2804.415	582.41667
2806.615	593.75
2808.814	589.75
2811.011	603.75
2813.206	598.41667
2815.401	610.41667
2817.594	613.08333
2819.785	623.41667
2821.975	614.08333
2824.164	626.75
2826.351	641.08333
2828.537	658.75
2830.722	661.41667
2832.905	659.75
2835.086	688.08333
2837.267	721.41667
2839.445	728.41667
2841.623	747.41667
2843.799	758.75
2845.974	787.41667
2848.147	818.08333
2850.319	834.08333
2852.489	877.08333
2854.659	877.75
2856.826	881.41667
2858.993	922.08333
2861.158	912.41667
2863.321	890.08333
2865.483	923.08333
2867.644	912.75
2869.804	913.75
2871.962	897.41667
2874.118	906.08333
2876.274	907.41667
2878.428	896.08333
2880.58	893.41667
2882.731	890.41667
2884.881	893.75
2887.03	893.08333
2889.177	893.75
2891.322	919.75
2893.467	905.08333
2895.61	909.08333
2897.751	931.41667
2899.892	921.08333
2902.03	926.41667
2904.168	931.41667
2906.304	924.08333
2908.439	951.75
2910.572	922.41667
2912.704	961.75
2914.835	946.41667
2916.965	950.75
2919.093	963.41667
2921.219	939.08333
2923.345	959.41667
2925.469	944.41667
2927.591	930.08333
2929.712	904.08333
2931.832	894.08333
2933.951	888.41667
2936.068	870.08333
2938.184	865.08333
2940.299	844.75
2942.412	828.08333
2944.524	807.41667
2946.634	805.41667
2948.744	771.75
2950.851	782.75
2952.958	746.08333
2955.063	755.08333
2957.167	746.75
2959.269	710.75
2961.371	751.41667
2963.471	722.41667
2965.569	724.08333
2967.666	699.08333
2969.762	698.41667
2971.857	685.41667
2973.95	675.41667
2976.042	672.41667
2978.133	672.75
2980.222	640.75
2982.31	626.08333
2984.396	617.75
2986.482	607.75
2988.566	591.75
2990.648	596.08333
2992.73	586.41667
2994.81	567.75
2996.889	583.41667
2998.966	573.75
3001.042	588.75
3003.117	575.41667
3005.191	579.41667
3007.263	582.41667
3009.334	564.08333
3011.403	565.08333
3013.472	548.08333
3015.539	549.41667
3017.604	554.08333
3019.669	522.08333
3021.732	530.08333
3023.794	516.08333
3025.854	513.75
3027.914	522.41667
3029.971	522.41667
3032.028	519.75
3034.083	521.08333
3036.137	513.41667
3038.19	494.08333
3040.242	476.75
3042.292	476.08333
3044.341	481.41667
3046.388	471.75
3048.435	458.08333
3050.48	483.75
3052.524	460.75
3054.566	452.08333
3056.607	460.08333
3058.647	448.08333
3060.686	420.41667
3062.723	421.75
3064.759	397.41667
3066.794	0.08333
3068.828	1.08333
3070.86	5.41667
