-0.839	551.04167
3.438	657.70833
7.711	190.04167
11.981	62.70833
16.247	46.04167
20.509	47.70833
24.768	46.70833
29.024	56.70833
33.276	46.375
37.524	47.70833
41.769	46.375
46.01	32.70833
50.247	45.04167
54.481	61.70833
58.712	63.375
62.939	44.04167
67.162	66.70833
71.382	56.70833
75.599	44.375
79.812	62.375
84.021	78.70833
88.227	60.04167
92.429	57.04167
96.628	51.70833
100.823	71.70833
105.015	75.04167
109.204	62.70833
113.388	68.04167
117.57	76.70833
121.748	82.04167
125.922	72.70833
130.093	92.04167
134.261	93.70833
138.425	94.70833
142.585	131.04167
146.742	122.04167
150.896	159.375
155.046	190.375
159.193	298.04167
163.336	497.375
167.476	923.04167
171.613	1695.04167
175.746	2779.70833
179.875	4102.70833
184.002	5267.375
188.124	6115.375
192.244	6301.375
196.36	6246.70833
200.472	5984.70833
204.581	5805.375
208.687	5577.375
212.79	5449.70833
216.889	5436.70833
220.984	5370.04167
225.077	5321.375
229.165	5255.04167
233.251	5255.70833
237.333	5172.375
241.412	5101.70833
245.487	5009.04167
249.559	4954.375
253.628	4902.70833
257.694	4854.375
261.756	4787.375
265.814	4682.375
269.87	4551.70833
273.922	4406.70833
277.97	4342.375
282.016	4349.04167
286.058	4369.375
290.097	4463.04167
294.132	4518.70833
298.164	4469.70833
302.193	4234.70833
306.219	3979.70833
310.241	3703.375
314.26	3462.04167
318.276	3229.04167
322.288	3082.70833
326.297	2960.375
330.303	2885.70833
334.305	2794.375
338.305	2776.04167
342.301	2729.04167
346.294	2723.04167
350.283	2677.70833
354.269	2662.375
358.252	2657.04167
362.232	2642.04167
366.209	2652.04167
370.182	2606.70833
374.152	2584.04167
378.119	2607.04167
382.083	2595.04167
386.043	2598.70833
390	2554.70833
393.954	2558.70833
397.905	2575.375
401.852	2552.375
405.797	2535.70833
409.738	2532.70833
413.676	2537.70833
417.61	2523.375
421.542	2512.375
425.47	2491.375
429.396	2458.375
433.318	2464.70833
437.236	2446.375
441.152	2467.375
445.065	2419.70833
448.974	2413.375
452.88	2407.375
456.783	2390.04167
460.683	2366.375
464.58	2377.70833
468.473	2395.375
472.364	2401.04167
476.251	2416.375
480.135	2442.375
484.016	2474.375
487.894	2494.04167
491.769	2503.375
495.641	2540.375
499.509	2532.70833
503.375	2588.70833
507.237	2590.70833
511.096	2641.375
514.952	2784.375
518.805	2990.04167
522.655	3091.04167
526.502	2777.70833
530.346	2541.70833
534.187	2524.70833
538.024	2493.375
541.859	2498.04167
545.69	2507.04167
549.519	2490.70833
553.344	2473.375
557.166	2414.70833
560.985	2391.70833
564.802	2364.375
568.615	2317.70833
572.425	2286.375
576.232	2310.04167
580.036	2302.375
583.836	2304.70833
587.634	2311.70833
591.429	2311.04167
595.221	2378.70833
599.01	2378.70833
602.796	2402.70833
606.578	2422.70833
610.358	2408.04167
614.135	2371.04167
617.909	2358.375
621.679	2335.70833
625.447	2321.375
629.212	2329.04167
632.973	2338.04167
636.732	2321.70833
640.488	2309.70833
644.241	2310.375
647.991	2312.04167
651.737	2322.375
655.481	2292.375
659.222	2295.70833
662.96	2285.375
666.695	2322.375
670.427	2332.04167
674.156	2350.04167
677.882	2334.375
681.605	2327.70833
685.325	2282.70833
689.043	2293.375
692.757	2272.375
696.468	2284.375
700.177	2260.375
703.882	2246.375
707.585	2227.70833
711.284	2240.70833
714.981	2228.70833
718.675	2233.04167
722.366	2230.70833
726.054	2215.70833
729.739	2222.70833
733.421	2222.04167
737.1	2225.70833
740.777	2225.70833
744.45	2262.70833
748.121	2273.04167
751.789	2318.375
755.453	2299.375
759.115	2323.375
762.774	2312.04167
766.431	2319.70833
770.084	2330.375
773.734	2367.70833
777.382	2384.375
781.027	2426.04167
784.669	2415.375
788.308	2444.375
791.944	2463.375
795.577	2452.375
799.208	2473.04167
802.835	2469.04167
806.46	2496.70833
810.082	2505.70833
813.701	2510.04167
817.317	2514.04167
820.931	2487.375
824.542	2508.375
828.149	2485.375
831.754	2456.70833
835.357	2450.375
838.956	2479.04167
842.553	2466.04167
846.146	2467.375
849.737	2413.04167
853.326	2430.70833
856.911	2418.375
860.493	2464.375
864.073	2479.375
867.65	2503.70833
871.225	2537.375
874.796	2543.70833
878.365	2574.70833
881.931	2592.70833
885.494	2635.375
889.054	2664.375
892.612	2756.04167
896.166	2774.70833
899.719	2755.375
903.268	2693.70833
906.814	2621.70833
910.358	2527.70833
913.899	2499.375
917.438	2478.70833
920.973	2447.70833
924.506	2460.04167
928.036	2517.70833
931.564	2548.04167
935.088	2587.04167
938.61	2580.375
942.129	2614.70833
945.646	2679.375
949.16	2702.70833
952.671	2745.70833
956.179	2729.70833
959.685	2680.70833
963.188	2678.70833
966.688	2650.70833
970.185	2580.375
973.68	2536.04167
977.173	2481.04167
980.662	2465.70833
984.149	2452.04167
987.633	2429.70833
991.114	2474.70833
994.593	2512.375
998.069	2578.70833
1001.542	2653.70833
1005.013	2605.375
1008.481	2464.70833
1011.947	2422.375
1015.409	2402.375
1018.869	2433.04167
1022.327	2415.375
1025.782	2429.04167
1029.234	2428.70833
1032.683	2404.70833
1036.13	2338.70833
1039.574	2256.04167
1043.016	2196.375
1046.455	2132.375
1049.891	2119.375
1053.325	2124.04167
1056.756	2115.375
1060.184	2138.70833
1063.61	2134.375
1067.033	2142.375
1070.454	2155.70833
1073.872	2182.375
1077.287	2153.70833
1080.7	2173.70833
1084.11	2167.04167
1087.517	2139.70833
1090.922	2128.04167
1094.325	2108.70833
1097.724	2080.375
1101.122	2121.04167
1104.516	2100.04167
1107.908	2098.04167
1111.298	2136.04167
1114.684	2156.70833
1118.069	2181.375
1121.45	2210.04167
1124.83	2188.375
1128.206	2212.70833
1131.58	2273.04167
1134.951	2304.70833
1138.32	2373.70833
1141.687	2439.04167
1145.05	2479.375
1148.412	2468.70833
1151.77	2484.70833
1155.126	2453.04167
1158.48	2427.70833
1161.831	2427.70833
1165.18	2447.04167
1168.525	2475.04167
1171.869	2492.04167
1175.21	2491.375
1178.548	2550.70833
1181.884	2571.04167
1185.217	2586.04167
1188.548	2657.04167
1191.877	2686.70833
1195.202	2768.70833
1198.526	2827.70833
1201.846	2883.70833
1205.165	2838.375
1208.48	2871.70833
1211.794	2846.375
1215.104	2853.70833
1218.413	2850.375
1221.719	2835.70833
1225.022	2838.375
1228.323	2783.375
1231.621	2745.04167
1234.917	2729.70833
1238.21	2735.70833
1241.501	2733.04167
1244.79	2716.375
1248.076	2727.04167
1251.359	2748.375
1254.64	2799.04167
1257.919	2827.375
1261.195	2834.70833
1264.468	2890.70833
1267.74	2918.70833
1271.008	2927.375
1274.275	2922.375
1277.538	2931.70833
1280.8	2927.04167
1284.059	2916.70833
1287.315	2957.375
1290.569	2948.375
1293.821	2975.70833
1297.07	2974.375
1300.317	2993.70833
1303.562	3006.70833
1306.803	2990.04167
1310.043	2965.375
1313.28	2942.70833
1316.515	2954.04167
1319.747	2972.70833
1322.977	2949.70833
1326.204	2929.04167
1329.429	2937.04167
1332.652	2941.375
1335.872	2916.375
1339.09	2853.375
1342.306	2821.375
1345.519	2752.375
1348.729	2699.70833
1351.938	2672.375
1355.144	2632.375
1358.347	2563.70833
1361.548	2591.375
1364.747	2553.375
1367.944	2529.70833
1371.138	2536.70833
1374.329	2576.375
1377.518	2595.04167
1380.705	2595.70833
1383.89	2570.375
1387.072	2502.375
1390.252	2444.04167
1393.429	2374.04167
1396.605	2334.70833
1399.777	2279.04167
1402.948	2269.375
1406.116	2284.04167
1409.282	2294.375
1412.445	2312.04167
1415.606	2352.04167
1418.765	2356.04167
1421.921	2387.375
1425.075	2386.70833
1428.227	2419.375
1431.376	2499.375
1434.524	2574.04167
1437.668	2646.70833
1440.811	2688.04167
1443.951	2750.70833
1447.089	2750.375
1450.224	2751.04167
1453.357	2695.70833
1456.488	2652.375
1459.617	2602.70833
1462.743	2570.04167
1465.867	2515.70833
1468.989	2459.70833
1472.108	2417.04167
1475.225	2371.375
1478.34	2331.70833
1481.453	2331.375
1484.563	2339.375
1487.671	2356.70833
1490.776	2376.04167
1493.88	2393.04167
1496.981	2457.375
1500.08	2461.70833
1503.176	2498.04167
1506.271	2540.70833
1509.363	2595.375
1512.452	2584.70833
1515.54	2635.375
1518.625	2658.70833
1521.708	2703.04167
1524.789	2778.70833
1527.867	2869.70833
1530.944	3010.70833
1534.018	3161.70833
1537.089	3309.04167
1540.159	3321.70833
1543.226	3320.04167
1546.291	3270.375
1549.354	3192.375
1552.415	3112.70833
1555.473	3059.04167
1558.529	2999.375
1561.583	2984.375
1564.634	2958.04167
1567.684	2935.70833
1570.731	2956.04167
1573.776	2977.70833
1576.819	3026.04167
1579.859	3041.04167
1582.898	3085.375
1585.934	3104.375
1588.968	3109.375
1591.999	3104.375
1595.029	3121.04167
1598.056	3144.04167
1601.081	3191.70833
1604.104	3172.70833
1607.125	3134.04167
1610.144	3084.375
1613.16	3025.04167
1616.174	2952.70833
1619.186	2894.70833
1622.196	2812.04167
1625.203	2774.04167
1628.209	2721.70833
1631.212	2708.70833
1634.213	2694.375
1637.212	2683.70833
1640.209	2625.04167
1643.203	2590.70833
1646.196	2501.375
1649.186	2389.04167
1652.174	2325.375
1655.16	2239.70833
1658.144	2183.375
1661.125	2081.04167
1664.105	2012.04167
1667.082	1922.04167
1670.057	1854.70833
1673.03	1731.375
1676.001	1623.70833
1678.97	1531.70833
1681.937	1438.70833
1684.901	1374.375
1687.863	1342.04167
1690.824	1279.70833
1693.782	1268.375
1696.738	1199.70833
1699.692	1174.70833
1702.643	1148.70833
1705.593	1145.04167
1708.54	1121.70833
1711.486	1119.04167
1714.429	1090.04167
1717.37	1099.375
1720.309	1063.04167
1723.246	1071.375
1726.181	1045.375
1729.113	1060.375
1732.044	1039.375
1734.972	1033.375
1737.899	1034.70833
1740.823	1028.04167
1743.745	997.04167
1746.665	989.375
1749.583	980.70833
1752.499	957.375
1755.413	960.04167
1758.325	952.70833
1761.235	933.70833
1764.142	918.04167
1767.048	900.04167
1769.951	913.375
1772.852	901.04167
1775.752	898.70833
1778.649	906.04167
1781.544	917.04167
1784.437	873.70833
1787.328	895.70833
1790.217	873.70833
1793.104	856.04167
1795.989	861.70833
1798.872	850.70833
1801.753	875.04167
1804.631	859.04167
1807.508	868.04167
1810.383	861.375
1813.255	861.04167
1816.126	849.70833
1818.994	854.375
1821.861	829.70833
1824.725	846.375
1827.587	843.375
1830.448	835.375
1833.306	822.04167
1836.162	838.70833
1839.017	817.04167
1841.869	816.04167
1844.719	817.375
1847.567	811.70833
1850.414	802.70833
1853.258	814.375
1856.1	810.375
1858.94	824.70833
1861.778	819.375
1864.614	804.04167
1867.448	815.375
1870.28	819.375
1873.111	834.04167
1875.939	815.04167
1878.765	825.70833
1881.589	796.70833
1884.411	807.70833
1887.231	813.375
1890.049	805.70833
1892.865	802.70833
1895.68	802.70833
1898.492	810.04167
1901.302	792.375
1904.11	805.04167
1906.916	792.375
1909.721	787.375
1912.523	788.70833
1915.323	779.375
1918.122	772.375
1920.918	800.375
1923.712	781.04167
1926.505	782.375
1929.295	767.04167
1932.084	795.70833
1934.87	773.70833
1937.655	776.375
1940.438	772.04167
1943.218	784.375
1945.997	793.70833
1948.774	778.70833
1951.549	783.375
1954.322	776.70833
1957.093	777.04167
1959.862	756.375
1962.629	767.375
1965.394	769.70833
1968.157	764.04167
1970.918	765.70833
1973.678	746.375
1976.435	771.375
1979.19	743.70833
1981.944	753.04167
1984.696	752.04167
1987.445	747.70833
1990.193	760.375
1992.939	771.70833
1995.683	756.04167
1998.425	746.375
2001.165	783.70833
2003.903	752.70833
2006.639	748.375
2009.374	758.04167
2012.106	771.04167
2014.837	739.375
2017.566	756.04167
2020.292	754.375
2023.017	754.70833
2025.74	749.70833
2028.461	740.70833
2031.18	747.04167
2033.898	748.04167
2036.613	744.375
2039.327	743.04167
2042.038	743.375
2044.748	743.04167
2047.456	747.70833
2050.162	734.04167
2052.866	731.70833
2055.568	763.70833
2058.268	733.375
2060.967	742.04167
2063.663	741.04167
2066.358	738.70833
2069.051	737.375
2071.742	738.375
2074.431	731.375
2077.118	741.375
2079.804	736.70833
2082.487	752.375
2085.169	764.70833
2087.849	763.70833
2090.527	736.70833
2093.203	751.375
2095.877	765.375
2098.55	769.375
2101.22	779.375
2103.889	783.70833
2106.556	794.70833
2109.221	811.375
2111.884	824.70833
2114.546	868.375
2117.205	918.70833
2119.863	985.375
2122.519	1018.04167
2125.173	1073.70833
2127.825	1104.70833
2130.475	1104.70833
2133.124	1067.04167
2135.771	1019.375
2138.416	1001.375
2141.059	946.70833
2143.7	912.04167
2146.339	885.04167
2148.977	834.70833
2151.613	827.375
2154.247	823.04167
2156.879	803.375
2159.51	783.04167
2162.138	781.70833
2164.765	778.04167
2167.39	767.04167
2170.013	778.375
2172.634	779.04167
2175.254	764.375
2177.872	792.70833
2180.488	758.375
2183.102	769.04167
2185.714	757.04167
2188.325	741.04167
2190.934	750.70833
2193.541	755.04167
2196.146	757.375
2198.75	746.04167
2201.351	741.70833
2203.951	735.70833
2206.549	748.70833
2209.146	747.375
2211.74	733.04167
2214.333	742.375
2216.924	723.70833
2219.514	730.375
2222.101	732.04167
2224.687	749.375
2227.271	738.70833
2229.853	728.04167
2232.433	713.375
2235.012	748.375
2237.589	745.375
2240.164	765.70833
2242.738	748.375
2245.309	732.375
2247.879	741.04167
2250.448	752.70833
2253.014	742.04167
2255.579	715.375
2258.142	741.375
2260.703	722.375
2263.262	730.375
2265.82	725.375
2268.376	736.70833
2270.93	725.70833
2273.483	726.70833
2276.033	738.375
2278.583	733.04167
2281.13	739.375
2283.675	716.70833
2286.219	730.375
2288.761	731.04167
2291.302	730.04167
2293.841	732.375
2296.377	725.70833
2298.913	733.375
2301.446	750.375
2303.978	735.70833
2306.508	731.70833
2309.037	731.70833
2311.563	745.375
2314.088	750.04167
2316.612	728.70833
2319.133	734.375
2321.653	739.375
2324.171	734.70833
2326.688	756.04167
2329.202	733.375
2331.715	750.70833
2334.227	748.375
2336.736	755.04167
2339.244	739.70833
2341.751	740.375
2344.255	760.04167
2346.758	752.04167
2349.259	740.70833
2351.759	750.70833
2354.257	752.70833
2356.753	740.04167
2359.247	756.70833
2361.74	778.70833
2364.231	764.375
2366.721	772.04167
2369.209	762.04167
2371.695	767.04167
2374.179	765.375
2376.662	746.04167
2379.143	779.375
2381.622	776.04167
2384.1	788.04167
2386.576	778.04167
2389.051	802.04167
2391.524	792.70833
2393.995	808.04167
2396.464	776.70833
2398.932	789.70833
2401.398	772.375
2403.863	794.04167
2406.325	772.04167
2408.787	805.04167
2411.246	797.375
2413.704	803.375
2416.16	793.04167
2418.615	789.375
2421.068	818.70833
2423.519	812.70833
2425.969	808.04167
2428.417	812.375
2430.863	836.04167
2433.308	841.375
2435.751	822.70833
2438.193	814.70833
2440.633	823.70833
2443.071	831.70833
2445.508	815.70833
2447.943	821.04167
2450.376	832.04167
2452.808	827.375
2455.238	839.375
2457.667	869.70833
2460.093	841.375
2462.519	832.375
2464.942	845.04167
2467.365	847.70833
2469.785	861.70833
2472.204	847.04167
2474.621	839.04167
2477.037	874.04167
2479.451	838.375
2481.863	848.04167
2484.274	847.70833
2486.683	858.04167
2489.091	868.70833
2491.497	863.04167
2493.901	872.70833
2496.304	874.375
2498.705	875.04167
2501.105	877.04167
2503.503	896.375
2505.899	862.70833
2508.294	904.04167
2510.687	887.375
2513.079	893.375
2515.469	878.375
2517.858	888.70833
2520.245	901.375
2522.63	885.04167
2525.014	897.375
2527.396	891.70833
2529.776	885.70833
2532.156	921.375
2534.533	902.375
2536.909	898.375
2539.283	905.04167
2541.656	907.375
2544.027	932.04167
2546.397	917.375
2548.765	927.04167
2551.131	926.70833
2553.496	931.04167
2555.86	934.04167
2558.221	942.04167
2560.582	930.375
2562.94	929.70833
2565.298	931.375
2567.653	957.70833
2570.007	939.04167
2572.36	959.375
2574.711	940.375
2577.06	972.375
2579.408	964.375
2581.754	965.375
2584.099	970.70833
2586.442	978.375
2588.784	969.70833
2591.124	978.70833
2593.463	983.04167
2595.8	981.04167
2598.135	974.70833
2600.469	987.375
2602.802	1000.375
2605.133	996.04167
2607.462	992.04167
2609.79	980.70833
2612.116	992.70833
2614.441	1016.70833
2616.764	1001.70833
2619.086	1016.04167
2621.406	1011.04167
2623.725	1024.04167
2626.042	1035.375
2628.358	1028.04167
2630.672	1024.375
2632.985	1053.04167
2635.296	1042.375
2637.606	1030.04167
2639.914	1039.70833
2642.22	1048.375
2644.525	1065.70833
2646.829	1062.04167
2649.131	1084.04167
2651.432	1083.04167
2653.731	1078.375
2656.028	1105.04167
2658.324	1116.04167
2660.619	1088.375
2662.912	1105.70833
2665.204	1098.375
2667.494	1122.04167
2669.782	1090.375
2672.07	1108.70833
2674.355	1117.70833
2676.639	1108.04167
2678.922	1106.70833
2681.203	1109.70833
2683.483	1115.70833
2685.761	1114.04167
2688.038	1121.04167
2690.313	1132.375
2692.587	1143.375
2694.859	1124.70833
2697.13	1140.04167
2699.399	1145.70833
2701.667	1171.70833
2703.933	1170.04167
2706.198	1168.70833
2708.461	1176.375
2710.723	1190.375
2712.984	1179.70833
2715.243	1180.375
2717.5	1168.375
2719.757	1204.04167
2722.011	1194.375
2724.264	1197.04167
2726.516	1231.70833
2728.766	1222.375
2731.015	1251.04167
2733.262	1238.70833
2735.508	1241.70833
2737.753	1238.375
2739.996	1224.375
2742.237	1225.04167
2744.477	1250.04167
2746.716	1240.04167
2748.953	1225.70833
2751.189	1226.70833
2753.423	1237.70833
2755.656	1210.375
2757.887	1225.04167
2760.117	1229.375
2762.346	1228.70833
2764.573	1221.375
2766.798	1232.04167
2769.022	1232.375
2771.245	1251.70833
2773.467	1249.70833
2775.686	1259.04167
2777.905	1250.375
2780.122	1256.04167
2782.337	1293.70833
2784.552	1282.375
2786.764	1281.70833
2788.976	1292.04167
2791.186	1279.375
2793.394	1299.04167
2795.601	1321.04167
2797.807	1329.70833
2800.011	1330.70833
2802.214	1347.70833
2804.415	1338.04167
2806.615	1346.70833
2808.814	1340.04167
2811.011	1351.70833
2813.206	1358.375
2815.401	1371.04167
2817.594	1383.375
2819.785	1368.375
2821.975	1373.70833
2824.164	1381.375
2826.351	1383.70833
2828.537	1417.04167
2830.722	1407.04167
2832.905	1425.70833
2835.086	1451.70833
2837.267	1477.375
2839.445	1500.375
2841.623	1504.375
2843.799	1503.70833
2845.974	1528.04167
2848.147	1575.04167
2850.319	1586.04167
2852.489	1624.70833
2854.659	1624.04167
2856.826	1653.04167
2858.993	1660.375
2861.158	1661.04167
2863.321	1664.375
2865.483	1678.375
2867.644	1702.375
2869.804	1668.375
2871.962	1685.04167
2874.118	1668.70833
2876.274	1663.70833
2878.428	1636.70833
2880.58	1644.375
2882.731	1642.04167
2884.881	1631.375
2887.03	1637.04167
2889.177	1656.04167
2891.322	1671.70833
2893.467	1667.04167
2895.61	1671.375
2897.751	1706.375
2899.892	1698.70833
2902.03	1713.375
2904.168	1715.375
2906.304	1702.70833
2908.439	1744.375
2910.572	1733.70833
2912.704	1751.04167
2914.835	1750.04167
2916.965	1764.375
2919.093	1769.04167
2921.219	1734.04167
2923.345	1763.375
2925.469	1738.375
2927.591	1704.04167
2929.712	1689.04167
2931.832	1714.70833
2933.951	1686.04167
2936.068	1668.04167
2938.184	1649.04167
2940.299	1637.375
2942.412	1641.375
2944.524	1615.04167
2946.634	1612.375
2948.744	1579.70833
2950.851	1594.375
2952.958	1566.375
2955.063	1573.375
2957.167	1569.375
2959.269	1573.04167
2961.371	1601.70833
2963.471	1566.04167
2965.569	1592.70833
2967.666	1557.375
2969.762	1562.70833
2971.857	1558.70833
2973.95	1547.04167
2976.042	1516.375
2978.133	1501.375
2980.222	1484.70833
2982.31	1453.375
2984.396	1428.375
2986.482	1436.04167
2988.566	1426.375
2990.648	1424.70833
2992.73	1415.70833
2994.81	1415.70833
2996.889	1436.04167
2998.966	1432.70833
3001.042	1436.04167
3003.117	1431.04167
3005.191	1416.04167
3007.263	1439.70833
3009.334	1402.375
3011.403	1410.375
3013.472	1385.375
3015.539	1364.375
3017.604	1373.70833
3019.669	1324.04167
3021.732	1334.375
3023.794	1334.70833
3025.854	1339.04167
3027.914	1338.375
3029.971	1349.375
3032.028	1345.375
3034.083	1329.70833
3036.137	1300.04167
3038.19	1279.70833
3040.242	1246.70833
3042.292	1222.375
3044.341	1220.04167
3046.388	1210.70833
3048.435	1187.04167
3050.48	1207.04167
3052.524	1191.04167
3054.566	1184.04167
3056.607	1191.375
3058.647	1177.375
3060.686	1124.04167
3062.723	1093.04167
3064.759	1051.375
3066.794	-1.29167
3068.828	2.375
3070.86	0.70833
