-0.839	546.91667
3.438	653.25
7.711	190.25
11.981	62.91667
16.247	49.91667
20.509	49.91667
24.768	51.91667
29.024	54.58333
33.276	45.25
37.524	50.25
41.769	46.58333
46.01	37.91667
50.247	41.91667
54.481	61.91667
58.712	64.58333
62.939	54.25
67.162	66.91667
71.382	56.91667
75.599	48.25
79.812	61.91667
84.021	84.25
88.227	60.91667
92.429	60.58333
96.628	54.25
100.823	76.25
105.015	78.58333
109.204	70.25
113.388	77.25
117.57	80.58333
121.748	86.58333
125.922	86.25
130.093	102.58333
134.261	99.58333
138.425	106.58333
142.585	147.25
146.742	135.25
150.896	167.91667
155.046	213.25
159.193	335.91667
163.336	573.25
167.476	1052.91667
171.613	1933.25
175.746	3222.25
179.875	4749.58333
184.002	6236.58333
188.124	7260.25
192.244	7603.91667
196.36	7552.58333
200.472	7369.25
204.581	7174.58333
208.687	6965.91667
212.79	6867.91667
216.889	6848.91667
220.984	6869.91667
225.077	6840.25
229.165	6846.58333
233.251	6857.58333
237.333	6838.58333
241.412	6777.25
245.487	6724.91667
249.559	6651.25
253.628	6586.58333
257.694	6571.58333
261.756	6536.25
265.814	6367.58333
269.87	6195.91667
273.922	5976.58333
277.97	5884.25
282.016	5810.91667
286.058	5829.25
290.097	5954.91667
294.132	6012.25
298.164	6000.25
302.193	5770.91667
306.219	5360.25
310.241	4941.91667
314.26	4509.58333
318.276	4194.91667
322.288	3965.91667
326.297	3782.25
330.303	3651.58333
334.305	3543.25
338.305	3490.58333
342.301	3457.91667
346.294	3415.58333
350.283	3391.25
354.269	3357.91667
358.252	3330.25
362.232	3322.25
366.209	3274.91667
370.182	3250.58333
374.152	3256.25
378.119	3258.58333
382.083	3265.91667
386.043	3246.91667
390	3207.25
393.954	3260.25
397.905	3198.25
401.852	3176.91667
405.797	3161.25
409.738	3135.25
413.676	3114.91667
417.61	3101.58333
421.542	3091.25
425.47	3061.25
429.396	3040.25
433.318	3011.58333
437.236	3018.91667
441.152	3039.25
445.065	2991.25
448.974	2980.91667
452.88	2955.58333
456.783	2926.91667
460.683	2909.25
464.58	2922.91667
468.473	2927.58333
472.364	2946.91667
476.251	2944.25
480.135	2990.58333
484.016	3024.58333
487.894	3032.25
491.769	3061.91667
495.641	3079.58333
499.509	3080.58333
503.375	3086.58333
507.237	3089.91667
511.096	3060.25
514.952	3079.25
518.805	3091.91667
522.655	3111.25
526.502	3032.58333
530.346	3048.91667
534.187	3062.25
538.024	3068.25
541.859	3073.58333
545.69	3099.25
549.519	3074.91667
553.344	3057.25
557.166	3016.25
560.985	2966.91667
564.802	2907.25
568.615	2870.91667
572.425	2811.25
576.232	2824.91667
580.036	2825.91667
583.836	2814.58333
587.634	2847.58333
591.429	2828.25
595.221	2935.58333
599.01	2929.58333
602.796	2968.91667
606.578	2978.91667
610.358	2959.58333
614.135	2942.91667
617.909	2927.25
621.679	2875.58333
625.447	2865.58333
629.212	2858.58333
632.973	2865.58333
636.732	2882.58333
640.488	2887.58333
644.241	2845.58333
647.991	2842.58333
651.737	2857.91667
655.481	2826.91667
659.222	2813.91667
662.96	2826.58333
666.695	2868.91667
670.427	2906.91667
674.156	2885.91667
677.882	2867.25
681.605	2847.58333
685.325	2817.91667
689.043	2824.91667
692.757	2807.58333
696.468	2794.58333
700.177	2807.91667
703.882	2756.25
707.585	2775.91667
711.284	2757.25
714.981	2748.91667
718.675	2741.25
722.366	2771.91667
726.054	2725.91667
729.739	2742.25
733.421	2753.58333
737.1	2763.25
740.777	2782.58333
744.45	2785.91667
748.121	2813.25
751.789	2870.25
755.453	2841.91667
759.115	2873.58333
762.774	2879.91667
766.431	2915.91667
770.084	2959.25
773.734	2971.25
777.382	3022.58333
781.027	3067.25
784.669	3078.58333
788.308	3087.91667
791.944	3086.58333
795.577	3089.58333
799.208	3111.25
802.835	3105.91667
806.46	3155.25
810.082	3144.25
813.701	3158.91667
817.317	3188.91667
820.931	3195.91667
824.542	3192.91667
828.149	3172.58333
831.754	3137.91667
835.357	3161.91667
838.956	3149.91667
842.553	3140.58333
846.146	3112.58333
849.737	3082.91667
853.326	3123.91667
856.911	3128.91667
860.493	3171.58333
864.073	3182.58333
867.65	3241.25
871.225	3274.25
874.796	3278.25
878.365	3308.58333
881.931	3328.25
885.494	3394.58333
889.054	3434.25
892.612	3499.25
896.166	3520.58333
899.719	3526.58333
903.268	3444.91667
906.814	3371.58333
910.358	3268.25
913.899	3219.58333
917.438	3218.91667
920.973	3214.25
924.506	3234.91667
928.036	3262.91667
931.564	3292.58333
935.088	3346.58333
938.61	3381.58333
942.129	3407.91667
945.646	3475.91667
949.16	3566.58333
952.671	3583.58333
956.179	3589.58333
959.685	3531.91667
963.188	3509.58333
966.688	3474.25
970.185	3387.91667
973.68	3289.91667
977.173	3243.58333
980.662	3189.25
984.149	3186.91667
987.633	3145.91667
991.114	3202.91667
994.593	3247.91667
998.069	3348.58333
1001.542	3440.91667
1005.013	3401.91667
1008.481	3208.91667
1011.947	3187.25
1015.409	3178.91667
1018.869	3196.58333
1022.327	3178.91667
1025.782	3127.91667
1029.234	3162.58333
1032.683	3122.25
1036.13	3000.25
1039.574	2897.91667
1043.016	2812.58333
1046.455	2750.25
1049.891	2723.25
1053.325	2740.58333
1056.756	2737.25
1060.184	2768.25
1063.61	2766.91667
1067.033	2776.91667
1070.454	2779.58333
1073.872	2815.25
1077.287	2796.25
1080.7	2821.58333
1084.11	2788.25
1087.517	2763.25
1090.922	2757.91667
1094.325	2728.25
1097.724	2735.91667
1101.122	2711.25
1104.516	2731.25
1107.908	2733.58333
1111.298	2769.58333
1114.684	2811.25
1118.069	2852.25
1121.45	2870.58333
1124.83	2869.25
1128.206	2917.91667
1131.58	2966.25
1134.951	3059.91667
1138.32	3162.58333
1141.687	3279.58333
1145.05	3338.58333
1148.412	3338.25
1151.77	3364.58333
1155.126	3340.25
1158.48	3333.25
1161.831	3326.25
1165.18	3354.58333
1168.525	3414.25
1171.869	3437.58333
1175.21	3463.25
1178.548	3479.25
1181.884	3520.58333
1185.217	3564.58333
1188.548	3641.25
1191.877	3728.58333
1195.202	3857.25
1198.526	3877.25
1201.846	3905.25
1205.165	3882.25
1208.48	3871.58333
1211.794	3838.25
1215.104	3828.91667
1218.413	3845.25
1221.719	3817.25
1225.022	3796.91667
1228.323	3697.91667
1231.621	3678.25
1234.917	3620.25
1238.21	3667.25
1241.501	3627.58333
1244.79	3624.91667
1248.076	3651.91667
1251.359	3656.58333
1254.64	3733.91667
1257.919	3779.25
1261.195	3826.25
1264.468	3882.25
1267.74	3934.91667
1271.008	3956.25
1274.275	3954.58333
1277.538	3917.25
1280.8	3920.91667
1284.059	3909.91667
1287.315	3949.91667
1290.569	3997.25
1293.821	3982.91667
1297.07	4017.58333
1300.317	4033.91667
1303.562	4049.58333
1306.803	4007.91667
1310.043	4026.58333
1313.28	3964.91667
1316.515	3945.91667
1319.747	3937.25
1322.977	3914.58333
1326.204	3889.91667
1329.429	3830.58333
1332.652	3810.58333
1335.872	3796.58333
1339.09	3744.58333
1342.306	3671.25
1345.519	3578.25
1348.729	3526.91667
1351.938	3473.91667
1355.144	3409.25
1358.347	3396.58333
1361.548	3369.58333
1364.747	3381.25
1367.944	3339.91667
1371.138	3362.58333
1374.329	3396.25
1377.518	3409.25
1380.705	3472.58333
1383.89	3458.25
1387.072	3334.91667
1390.252	3228.58333
1393.429	3128.91667
1396.605	3033.58333
1399.777	2974.91667
1402.948	2948.91667
1406.116	2960.58333
1409.282	2990.25
1412.445	2967.91667
1415.606	3029.25
1418.765	3040.58333
1421.921	3085.58333
1425.075	3093.25
1428.227	3172.58333
1431.376	3300.91667
1434.524	3428.91667
1437.668	3489.25
1440.811	3537.25
1443.951	3587.91667
1447.089	3616.91667
1450.224	3608.58333
1453.357	3554.91667
1456.488	3533.58333
1459.617	3443.58333
1462.743	3413.58333
1465.867	3324.58333
1468.989	3288.25
1472.108	3228.91667
1475.225	3190.58333
1478.34	3151.91667
1481.453	3173.58333
1484.563	3153.58333
1487.671	3193.58333
1490.776	3238.25
1493.88	3308.25
1496.981	3386.25
1500.08	3460.25
1503.176	3509.91667
1506.271	3532.58333
1509.363	3604.91667
1512.452	3646.25
1515.54	3665.25
1518.625	3718.58333
1521.708	3803.58333
1524.789	3916.25
1527.867	4044.58333
1530.944	4188.25
1534.018	4412.25
1537.089	4574.25
1540.159	4599.58333
1543.226	4586.91667
1546.291	4522.91667
1549.354	4426.25
1552.415	4332.91667
1555.473	4246.58333
1558.529	4192.25
1561.583	4175.91667
1564.634	4176.58333
1567.684	4176.58333
1570.731	4203.25
1573.776	4261.58333
1576.819	4281.25
1579.859	4344.25
1582.898	4383.58333
1585.934	4441.91667
1588.968	4414.25
1591.999	4458.58333
1595.029	4481.91667
1598.056	4476.91667
1601.081	4508.58333
1604.104	4462.25
1607.125	4430.58333
1610.144	4333.25
1613.16	4228.58333
1616.174	4111.58333
1619.186	4014.25
1622.196	3868.91667
1625.203	3771.91667
1628.209	3683.91667
1631.212	3634.25
1634.213	3575.58333
1637.212	3548.91667
1640.209	3446.91667
1643.203	3362.58333
1646.196	3246.25
1649.186	3115.58333
1652.174	2995.91667
1655.16	2893.25
1658.144	2779.25
1661.125	2664.58333
1664.105	2541.58333
1667.082	2441.58333
1670.057	2310.58333
1673.03	2191.58333
1676.001	2072.91667
1678.97	1938.91667
1681.937	1824.91667
1684.901	1695.91667
1687.863	1665.25
1690.824	1579.58333
1693.782	1555.58333
1696.738	1477.91667
1699.692	1454.25
1702.643	1415.58333
1705.593	1388.58333
1708.54	1362.58333
1711.486	1370.25
1714.429	1321.58333
1717.37	1333.25
1720.309	1298.58333
1723.246	1295.58333
1726.181	1268.91667
1729.113	1279.58333
1732.044	1249.91667
1734.972	1225.25
1737.899	1232.25
1740.823	1216.25
1743.745	1200.58333
1746.665	1173.25
1749.583	1151.91667
1752.499	1144.91667
1755.413	1135.58333
1758.325	1099.58333
1761.235	1085.91667
1764.142	1064.25
1767.048	1052.91667
1769.951	1053.58333
1772.852	1066.25
1775.752	1050.58333
1778.649	1047.25
1781.544	1046.25
1784.437	1012.91667
1787.328	1023.25
1790.217	1005.58333
1793.104	997.58333
1795.989	984.91667
1798.872	987.91667
1801.753	999.58333
1804.631	989.25
1807.508	1003.25
1810.383	993.91667
1813.255	987.58333
1816.126	973.58333
1818.994	973.91667
1821.861	963.25
1824.725	965.58333
1827.587	949.58333
1830.448	955.91667
1833.306	923.58333
1836.162	943.58333
1839.017	930.25
1841.869	937.25
1844.719	920.25
1847.567	921.58333
1850.414	897.25
1853.258	908.91667
1856.1	917.58333
1858.94	913.25
1861.778	914.58333
1864.614	906.58333
1867.448	902.91667
1870.28	888.91667
1873.111	900.25
1875.939	900.91667
1878.765	904.25
1881.589	885.58333
1884.411	893.25
1887.231	900.25
1890.049	876.25
1892.865	877.91667
1895.68	876.91667
1898.492	890.91667
1901.302	874.25
1904.11	855.58333
1906.916	854.25
1909.721	851.25
1912.523	850.25
1915.323	831.25
1918.122	831.91667
1920.918	847.58333
1923.712	836.58333
1926.505	839.58333
1929.295	839.25
1932.084	833.91667
1934.87	830.58333
1937.655	833.91667
1940.438	820.91667
1943.218	827.58333
1945.997	829.91667
1948.774	835.25
1951.549	839.25
1954.322	824.91667
1957.093	823.25
1959.862	813.25
1962.629	794.58333
1965.394	802.91667
1968.157	788.58333
1970.918	799.58333
1973.678	785.91667
1976.435	792.25
1979.19	792.25
1981.944	776.58333
1984.696	778.91667
1987.445	757.25
1990.193	779.25
1992.939	786.58333
1995.683	779.58333
1998.425	743.25
2001.165	791.25
2003.903	756.91667
2006.639	763.58333
2009.374	770.91667
2012.106	761.25
2014.837	741.25
2017.566	758.58333
2020.292	769.25
2023.017	752.91667
2025.74	753.58333
2028.461	740.58333
2031.18	743.25
2033.898	737.25
2036.613	739.58333
2039.327	741.91667
2042.038	727.25
2044.748	728.91667
2047.456	739.91667
2050.162	727.25
2052.866	721.25
2055.568	741.91667
2058.268	715.91667
2060.967	722.91667
2063.663	701.25
2066.358	726.91667
2069.051	710.25
2071.742	719.25
2074.431	719.58333
2077.118	721.91667
2079.804	707.91667
2082.487	716.58333
2085.169	718.91667
2087.849	724.58333
2090.527	694.25
2093.203	719.91667
2095.877	716.91667
2098.55	718.91667
2101.22	726.25
2103.889	736.58333
2106.556	740.25
2109.221	759.58333
2111.884	757.58333
2114.546	827.58333
2117.205	865.25
2119.863	947.25
2122.519	993.25
2125.173	1065.58333
2127.825	1116.25
2130.475	1124.25
2133.124	1079.91667
2135.771	1035.91667
2138.416	1002.91667
2141.059	917.58333
2143.7	875.25
2146.339	827.25
2148.977	781.25
2151.613	772.58333
2154.247	744.58333
2156.879	736.58333
2159.51	720.25
2162.138	702.25
2164.765	703.58333
2167.39	683.58333
2170.013	707.91667
2172.634	676.25
2175.254	665.58333
2177.872	710.25
2180.488	662.91667
2183.102	669.91667
2185.714	663.58333
2188.325	646.91667
2190.934	653.91667
2193.541	654.25
2196.146	636.25
2198.75	626.58333
2201.351	637.58333
2203.951	624.25
2206.549	633.58333
2209.146	623.91667
2211.74	614.58333
2214.333	628.91667
2216.924	598.25
2219.514	604.58333
2222.101	601.91667
2224.687	621.91667
2227.271	599.25
2229.853	591.91667
2232.433	576.91667
2235.012	598.58333
2237.589	596.91667
2240.164	596.25
2242.738	580.58333
2245.309	562.25
2247.879	581.91667
2250.448	572.58333
2253.014	559.58333
2255.579	541.58333
2258.142	546.91667
2260.703	543.58333
2263.262	543.58333
2265.82	543.91667
2268.376	544.58333
2270.93	529.91667
2273.483	523.91667
2276.033	530.25
2278.583	523.25
2281.13	533.25
2283.675	520.91667
2286.219	519.58333
2288.761	523.91667
2291.302	523.25
2293.841	523.91667
2296.377	504.91667
2298.913	512.25
2301.446	520.91667
2303.978	503.25
2306.508	502.91667
2309.037	507.91667
2311.563	510.58333
2314.088	511.91667
2316.612	490.91667
2319.133	496.58333
2321.653	506.25
2324.171	485.91667
2326.688	513.25
2329.202	485.91667
2331.715	490.25
2334.227	483.58333
2336.736	492.58333
2339.244	479.58333
2341.751	468.58333
2344.255	487.58333
2346.758	487.58333
2349.259	469.58333
2351.759	464.58333
2354.257	467.58333
2356.753	459.91667
2359.247	474.58333
2361.74	471.58333
2364.231	468.25
2366.721	467.25
2369.209	466.58333
2371.695	469.25
2374.179	461.25
2376.662	439.25
2379.143	470.91667
2381.622	456.25
2384.1	456.58333
2386.576	461.25
2389.051	465.91667
2391.524	471.58333
2393.995	463.58333
2396.464	444.91667
2398.932	451.58333
2401.398	453.91667
2403.863	453.58333
2406.325	446.91667
2408.787	449.25
2411.246	435.91667
2413.704	447.58333
2416.16	437.25
2418.615	445.91667
2421.068	457.91667
2423.519	446.58333
2425.969	434.25
2428.417	438.91667
2430.863	452.25
2433.308	448.91667
2435.751	445.25
2438.193	436.91667
2440.633	431.25
2443.071	442.58333
2445.508	428.58333
2447.943	434.58333
2450.376	424.91667
2452.808	432.58333
2455.238	425.91667
2457.667	459.25
2460.093	423.91667
2462.519	413.58333
2464.942	419.91667
2467.365	419.58333
2469.785	424.58333
2472.204	427.91667
2474.621	409.25
2477.037	434.25
2479.451	402.91667
2481.863	405.25
2484.274	416.25
2486.683	420.25
2489.091	421.91667
2491.497	413.91667
2493.901	421.58333
2496.304	403.91667
2498.705	414.58333
2501.105	403.25
2503.503	429.58333
2505.899	395.91667
2508.294	426.58333
2510.687	405.25
2513.079	399.25
2515.469	396.91667
2517.858	393.58333
2520.245	409.58333
2522.63	393.91667
2525.014	390.58333
2527.396	389.91667
2529.776	384.25
2532.156	412.91667
2534.533	385.25
2536.909	379.25
2539.283	373.91667
2541.656	386.25
2544.027	405.91667
2546.397	381.58333
2548.765	379.25
2551.131	389.91667
2553.496	390.25
2555.86	390.91667
2558.221	379.25
2560.582	383.58333
2562.94	375.91667
2565.298	380.25
2567.653	395.25
2570.007	375.91667
2572.36	387.91667
2574.711	372.25
2577.06	389.58333
2579.408	386.25
2581.754	370.58333
2584.099	385.91667
2586.442	379.91667
2588.784	381.58333
2591.124	372.91667
2593.463	380.58333
2595.8	376.91667
2598.135	368.58333
2600.469	372.91667
2602.802	380.58333
2605.133	381.25
2607.462	373.25
2609.79	362.58333
2612.116	382.25
2614.441	374.91667
2616.764	371.58333
2619.086	376.58333
2621.406	366.25
2623.725	383.58333
2626.042	375.91667
2628.358	364.25
2630.672	363.91667
2632.985	383.91667
2635.296	370.58333
2637.606	361.25
2639.914	366.91667
2642.22	362.58333
2644.525	367.91667
2646.829	370.25
2649.131	382.91667
2651.432	380.58333
2653.731	369.25
2656.028	377.25
2658.324	377.91667
2660.619	365.58333
2662.912	388.91667
2665.204	363.25
2667.494	379.91667
2669.782	365.91667
2672.07	380.25
2674.355	381.91667
2676.639	375.91667
2678.922	365.25
2681.203	374.58333
2683.483	362.91667
2685.761	367.91667
2688.038	370.58333
2690.313	392.25
2692.587	369.25
2694.859	364.58333
2697.13	375.25
2699.399	377.91667
2701.667	392.91667
2703.933	385.58333
2706.198	383.91667
2708.461	397.25
2710.723	395.91667
2712.984	398.58333
2715.243	398.91667
2717.5	385.58333
2719.757	406.25
2722.011	396.25
2724.264	414.91667
2726.516	418.91667
2728.766	399.25
2731.015	406.58333
2733.262	405.25
2735.508	408.58333
2737.753	409.58333
2739.996	391.58333
2742.237	384.91667
2744.477	397.58333
2746.716	392.91667
2748.953	388.25
2751.189	388.91667
2753.423	385.25
2755.656	373.25
2757.887	371.25
2760.117	375.58333
2762.346	364.58333
2764.573	369.25
2766.798	362.91667
2769.022	370.91667
2771.245	376.91667
2773.467	380.25
2775.686	375.25
2777.905	385.25
2780.122	389.91667
2782.337	387.25
2784.552	381.58333
2786.764	388.91667
2788.976	390.25
2791.186	388.91667
2793.394	397.25
2795.601	402.91667
2797.807	417.25
2800.011	421.91667
2802.214	423.91667
2804.415	424.25
2806.615	424.58333
2808.814	426.25
2811.011	442.58333
2813.206	434.25
2815.401	454.58333
2817.594	457.58333
2819.785	463.91667
2821.975	451.91667
2824.164	462.25
2826.351	494.91667
2828.537	495.25
2830.722	495.91667
2832.905	515.91667
2835.086	544.91667
2837.267	573.58333
2839.445	585.58333
2841.623	602.58333
2843.799	628.91667
2845.974	655.91667
2848.147	685.91667
2850.319	721.91667
2852.489	750.91667
2854.659	762.25
2856.826	769.25
2858.993	798.58333
2861.158	774.25
2863.321	772.25
2865.483	804.91667
2867.644	804.25
2869.804	798.91667
2871.962	801.91667
2874.118	801.58333
2876.274	777.58333
2878.428	793.58333
2880.58	789.25
2882.731	796.91667
2884.881	787.58333
2887.03	793.25
2889.177	807.58333
2891.322	822.58333
2893.467	801.91667
2895.61	802.58333
2897.751	817.25
2899.892	816.25
2902.03	830.25
2904.168	834.25
2906.304	842.25
2908.439	854.58333
2910.572	855.58333
2912.704	860.25
2914.835	847.58333
2916.965	859.58333
2919.093	863.58333
2921.219	834.58333
2923.345	860.25
2925.469	832.91667
2927.591	835.25
2929.712	810.25
2931.832	797.58333
2933.951	778.25
2936.068	778.25
2938.184	757.58333
2940.299	732.91667
2942.412	697.91667
2944.524	667.58333
2946.634	672.25
2948.744	622.58333
2950.851	642.25
2952.958	606.58333
2955.063	614.25
2957.167	593.58333
2959.269	556.58333
2961.371	596.91667
2963.471	550.58333
2965.569	544.25
2967.666	534.91667
2969.762	526.25
2971.857	520.25
2973.95	496.91667
2976.042	500.25
2978.133	481.58333
2980.222	465.91667
2982.31	444.58333
2984.396	430.91667
2986.482	430.58333
2988.566	407.58333
2990.648	410.25
2992.73	406.25
2994.81	389.58333
2996.889	388.58333
2998.966	385.58333
3001.042	385.91667
3003.117	375.91667
3005.191	379.91667
3007.263	369.58333
3009.334	358.25
3011.403	362.58333
3013.472	348.91667
3015.539	358.25
3017.604	359.58333
3019.669	323.58333
3021.732	329.91667
3023.794	328.58333
3025.854	319.58333
3027.914	314.25
3029.971	327.25
3032.028	312.25
3034.083	316.91667
3036.137	312.25
3038.19	295.58333
3040.242	289.58333
3042.292	279.25
3044.341	281.58333
3046.388	290.91667
3048.435	267.58333
3050.48	290.25
3052.524	279.25
3054.566	262.25
3056.607	276.25
3058.647	262.91667
3060.686	250.91667
3062.723	245.91667
3064.759	238.58333
3066.794	-2.08333
3068.828	2.25
3070.86	3.25
