-0.839	502.79167
3.438	598.79167
7.711	177.45833
11.981	59.45833
16.247	43.45833
20.509	53.125
24.768	44.79167
29.024	54.45833
33.276	41.45833
37.524	49.79167
41.769	46.79167
46.01	34.125
50.247	49.79167
54.481	59.45833
58.712	64.45833
62.939	52.125
67.162	63.45833
71.382	57.79167
75.599	44.79167
79.812	64.45833
84.021	81.45833
88.227	60.125
92.429	55.79167
96.628	52.125
100.823	75.125
105.015	72.79167
109.204	70.45833
113.388	77.125
117.57	75.79167
121.748	84.79167
125.922	77.45833
130.093	98.45833
134.261	96.45833
138.425	95.45833
142.585	138.79167
146.742	128.79167
150.896	158.79167
155.046	206.125
159.193	312.125
163.336	544.45833
167.476	1001.45833
171.613	1820.45833
175.746	3018.79167
179.875	4454.125
184.002	5733.45833
188.124	6660.45833
192.244	6903.125
196.36	6868.125
200.472	6614.79167
204.581	6369.125
208.687	6134.125
212.79	6041.79167
216.889	6008.45833
220.984	5994.45833
225.077	5955.45833
229.165	5915.125
233.251	5882.79167
237.333	5854.125
241.412	5780.45833
245.487	5710.125
249.559	5639.79167
253.628	5598.45833
257.694	5560.125
261.756	5496.45833
265.814	5389.79167
269.87	5241.45833
273.922	5077.125
277.97	4968.79167
282.016	4937.45833
286.058	4969.79167
290.097	5067.125
294.132	5168.79167
298.164	5174.79167
302.193	4960.79167
306.219	4589.125
310.241	4229.125
314.26	3875.125
318.276	3563.125
322.288	3382.79167
326.297	3265.79167
330.303	3142.79167
334.305	3043.45833
338.305	2988.45833
342.301	2940.125
346.294	2931.45833
350.283	2875.125
354.269	2878.45833
358.252	2859.45833
362.232	2825.79167
366.209	2828.125
370.182	2775.79167
374.152	2770.125
378.119	2781.79167
382.083	2774.45833
386.043	2800.125
390	2763.79167
393.954	2754.45833
397.905	2749.45833
401.852	2751.45833
405.797	2700.79167
409.738	2709.125
413.676	2722.125
417.61	2688.45833
421.542	2667.125
425.47	2638.125
429.396	2630.79167
433.318	2600.45833
437.236	2598.125
441.152	2630.79167
445.065	2566.125
448.974	2571.125
452.88	2533.45833
456.783	2525.45833
460.683	2512.125
464.58	2511.79167
468.473	2529.45833
472.364	2544.125
476.251	2534.45833
480.135	2572.45833
484.016	2626.79167
487.894	2627.45833
491.769	2679.79167
495.641	2692.45833
499.509	2697.125
503.375	2703.45833
507.237	2700.45833
511.096	2672.125
514.952	2679.79167
518.805	2686.79167
522.655	2697.125
526.502	2636.45833
530.346	2639.45833
534.187	2621.79167
538.024	2637.45833
541.859	2653.45833
545.69	2693.45833
549.519	2654.125
553.344	2645.79167
557.166	2601.125
560.985	2547.79167
564.802	2528.45833
568.615	2472.125
572.425	2438.125
576.232	2420.125
580.036	2414.45833
583.836	2422.45833
587.634	2450.45833
591.429	2441.125
595.221	2510.45833
599.01	2531.79167
602.796	2563.79167
606.578	2548.45833
610.358	2543.79167
614.135	2535.125
617.909	2526.79167
621.679	2479.125
625.447	2466.45833
629.212	2467.79167
632.973	2491.45833
636.732	2468.79167
640.488	2489.79167
644.241	2443.79167
647.991	2465.125
651.737	2462.45833
655.481	2452.125
659.222	2432.125
662.96	2431.125
666.695	2459.125
670.427	2459.45833
674.156	2489.45833
677.882	2471.79167
681.605	2459.79167
685.325	2442.125
689.043	2454.125
692.757	2401.79167
696.468	2425.45833
700.177	2396.79167
703.882	2401.79167
707.585	2378.45833
711.284	2369.45833
714.981	2378.79167
718.675	2369.125
722.366	2382.125
726.054	2342.125
729.739	2359.45833
733.421	2355.79167
737.1	2370.125
740.777	2389.45833
744.45	2403.45833
748.121	2431.45833
751.789	2469.125
755.453	2449.45833
759.115	2448.79167
762.774	2485.45833
766.431	2464.79167
770.084	2510.45833
773.734	2524.125
777.382	2584.125
781.027	2616.125
784.669	2628.45833
788.308	2624.125
791.944	2649.79167
795.577	2655.45833
799.208	2678.79167
802.835	2687.45833
806.46	2707.125
810.082	2700.45833
813.701	2712.79167
817.317	2749.125
820.931	2736.45833
824.542	2724.79167
828.149	2697.79167
831.754	2686.45833
835.357	2675.125
838.956	2671.45833
842.553	2662.45833
846.146	2650.125
849.737	2638.45833
853.326	2644.125
856.911	2636.79167
860.493	2692.125
864.073	2690.45833
867.65	2717.125
871.225	2761.45833
874.796	2747.45833
878.365	2775.45833
881.931	2798.45833
885.494	2859.79167
889.054	2894.45833
892.612	2975.79167
896.166	2982.45833
899.719	2980.79167
903.268	2914.45833
906.814	2832.79167
910.358	2742.125
913.899	2708.45833
917.438	2681.45833
920.973	2677.79167
924.506	2702.45833
928.036	2741.79167
931.564	2761.45833
935.088	2809.125
938.61	2821.79167
942.129	2872.45833
945.646	2905.79167
949.16	2956.45833
952.671	3002.45833
956.179	3004.79167
959.685	2967.45833
963.188	2946.125
966.688	2919.45833
970.185	2821.79167
973.68	2768.79167
977.173	2717.79167
980.662	2693.45833
984.149	2692.79167
987.633	2679.45833
991.114	2711.125
994.593	2763.125
998.069	2831.79167
1001.542	2921.125
1005.013	2872.45833
1008.481	2737.125
1011.947	2685.125
1015.409	2709.79167
1018.869	2689.125
1022.327	2675.79167
1025.782	2657.125
1029.234	2686.45833
1032.683	2660.125
1036.13	2595.79167
1039.574	2494.79167
1043.016	2411.45833
1046.455	2363.125
1049.891	2332.79167
1053.325	2337.125
1056.756	2338.45833
1060.184	2356.45833
1063.61	2356.79167
1067.033	2363.79167
1070.454	2363.79167
1073.872	2414.125
1077.287	2394.125
1080.7	2405.125
1084.11	2409.79167
1087.517	2362.125
1090.922	2340.125
1094.325	2320.45833
1097.724	2315.45833
1101.122	2332.45833
1104.516	2327.45833
1107.908	2324.125
1111.298	2352.125
1114.684	2400.79167
1118.069	2424.125
1121.45	2443.45833
1124.83	2441.79167
1128.206	2474.125
1131.58	2508.79167
1134.951	2561.125
1138.32	2649.45833
1141.687	2740.45833
1145.05	2799.45833
1148.412	2807.79167
1151.77	2761.45833
1155.126	2739.79167
1158.48	2721.45833
1161.831	2726.79167
1165.18	2739.125
1168.525	2811.45833
1171.869	2816.79167
1175.21	2824.125
1178.548	2826.79167
1181.884	2895.125
1185.217	2910.79167
1188.548	2986.79167
1191.877	3047.79167
1195.202	3126.79167
1198.526	3197.125
1201.846	3223.125
1205.165	3207.125
1208.48	3194.45833
1211.794	3208.79167
1215.104	3195.45833
1218.413	3188.125
1221.719	3197.45833
1225.022	3152.125
1228.323	3095.125
1231.621	3080.79167
1234.917	3055.45833
1238.21	3073.125
1241.501	3022.125
1244.79	3025.79167
1248.076	3020.79167
1251.359	3053.79167
1254.64	3115.79167
1257.919	3151.79167
1261.195	3195.125
1264.468	3253.125
1267.74	3288.79167
1271.008	3298.125
1274.275	3307.45833
1277.538	3287.45833
1280.8	3282.45833
1284.059	3267.79167
1287.315	3326.79167
1290.569	3322.125
1293.821	3341.125
1297.07	3372.79167
1300.317	3382.45833
1303.562	3399.125
1306.803	3349.79167
1310.043	3353.45833
1313.28	3316.125
1316.515	3309.79167
1319.747	3305.45833
1322.977	3312.79167
1326.204	3295.79167
1329.429	3280.125
1332.652	3273.125
1335.872	3253.125
1339.09	3174.125
1342.306	3119.79167
1345.519	3031.125
1348.729	2975.79167
1351.938	2960.79167
1355.144	2914.125
1358.347	2885.125
1361.548	2873.125
1364.747	2861.125
1367.944	2838.45833
1371.138	2832.125
1374.329	2823.45833
1377.518	2873.45833
1380.705	2915.45833
1383.89	2899.45833
1387.072	2812.45833
1390.252	2720.125
1393.429	2628.79167
1396.605	2562.125
1399.777	2499.125
1402.948	2491.79167
1406.116	2505.79167
1409.282	2510.79167
1412.445	2542.45833
1415.606	2557.79167
1418.765	2596.45833
1421.921	2604.79167
1425.075	2639.79167
1428.227	2694.45833
1431.376	2800.79167
1434.524	2899.125
1437.668	2986.79167
1440.811	3031.45833
1443.951	3095.125
1447.089	3108.125
1450.224	3072.79167
1453.357	3046.79167
1456.488	3012.45833
1459.617	2940.79167
1462.743	2898.125
1465.867	2813.79167
1468.989	2767.125
1472.108	2726.125
1475.225	2658.125
1478.34	2625.45833
1481.453	2634.125
1484.563	2630.79167
1487.671	2666.125
1490.776	2697.79167
1493.88	2727.45833
1496.981	2778.79167
1500.08	2791.125
1503.176	2823.79167
1506.271	2867.45833
1509.363	2898.125
1512.452	2938.45833
1515.54	2982.45833
1518.625	2977.45833
1521.708	3075.125
1524.789	3176.125
1527.867	3270.79167
1530.944	3450.125
1534.018	3602.125
1537.089	3751.125
1540.159	3789.125
1543.226	3768.45833
1546.291	3670.125
1549.354	3603.45833
1552.415	3515.125
1555.473	3445.45833
1558.529	3380.79167
1561.583	3361.45833
1564.634	3338.125
1567.684	3329.79167
1570.731	3353.125
1573.776	3395.125
1576.819	3391.125
1579.859	3456.79167
1582.898	3496.125
1585.934	3537.125
1588.968	3556.45833
1591.999	3572.45833
1595.029	3566.45833
1598.056	3568.125
1601.081	3603.79167
1604.104	3595.45833
1607.125	3585.45833
1610.144	3488.125
1613.16	3424.125
1616.174	3355.45833
1619.186	3302.45833
1622.196	3187.45833
1625.203	3131.79167
1628.209	3070.45833
1631.212	3016.79167
1634.213	3020.45833
1637.212	2963.125
1640.209	2939.125
1643.203	2852.45833
1646.196	2741.45833
1649.186	2663.125
1652.174	2572.45833
1655.16	2484.79167
1658.144	2414.125
1661.125	2319.79167
1664.105	2230.79167
1667.082	2143.45833
1670.057	2020.79167
1673.03	1887.125
1676.001	1763.45833
1678.97	1647.79167
1681.937	1546.125
1684.901	1464.125
1687.863	1402.79167
1690.824	1347.125
1693.782	1329.125
1696.738	1284.79167
1699.692	1245.45833
1702.643	1198.125
1705.593	1185.45833
1708.54	1177.79167
1711.486	1175.79167
1714.429	1141.125
1717.37	1141.79167
1720.309	1107.45833
1723.246	1120.125
1726.181	1090.79167
1729.113	1097.125
1732.044	1086.45833
1734.972	1070.79167
1737.899	1070.79167
1740.823	1070.125
1743.745	1025.125
1746.665	1025.79167
1749.583	1005.45833
1752.499	993.45833
1755.413	992.45833
1758.325	957.125
1761.235	958.79167
1764.142	935.125
1767.048	927.45833
1769.951	924.45833
1772.852	929.79167
1775.752	921.79167
1778.649	909.125
1781.544	918.79167
1784.437	893.45833
1787.328	912.45833
1790.217	888.45833
1793.104	870.45833
1795.989	872.125
1798.872	857.125
1801.753	874.125
1804.631	858.79167
1807.508	862.45833
1810.383	862.45833
1813.255	853.125
1816.126	854.79167
1818.994	856.45833
1821.861	831.79167
1824.725	848.125
1827.587	845.79167
1830.448	846.125
1833.306	816.79167
1836.162	828.125
1839.017	814.125
1841.869	818.79167
1844.719	807.45833
1847.567	791.79167
1850.414	801.125
1853.258	788.79167
1856.1	804.79167
1858.94	807.125
1861.778	803.79167
1864.614	790.45833
1867.448	786.125
1870.28	773.125
1873.111	800.125
1875.939	790.125
1878.765	807.45833
1881.589	789.79167
1884.411	772.45833
1887.231	787.45833
1890.049	785.79167
1892.865	776.45833
1895.68	763.125
1898.492	778.45833
1901.302	758.125
1904.11	773.45833
1906.916	761.125
1909.721	759.45833
1912.523	760.79167
1915.323	737.125
1918.122	752.79167
1920.918	764.125
1923.712	734.125
1926.505	727.125
1929.295	735.125
1932.084	742.45833
1934.87	740.125
1937.655	728.45833
1940.438	733.79167
1943.218	723.79167
1945.997	734.125
1948.774	747.125
1951.549	737.45833
1954.322	717.45833
1957.093	712.45833
1959.862	708.79167
1962.629	713.45833
1965.394	716.125
1968.157	703.45833
1970.918	707.79167
1973.678	694.125
1976.435	709.45833
1979.19	700.79167
1981.944	694.79167
1984.696	682.45833
1987.445	684.125
1990.193	684.79167
1992.939	712.45833
1995.683	688.79167
1998.425	660.125
2001.165	700.45833
2003.903	676.45833
2006.639	676.45833
2009.374	683.45833
2012.106	678.45833
2014.837	646.125
2017.566	678.45833
2020.292	670.79167
2023.017	672.79167
2025.74	664.79167
2028.461	660.125
2031.18	658.45833
2033.898	660.79167
2036.613	653.79167
2039.327	666.125
2042.038	639.125
2044.748	651.79167
2047.456	654.125
2050.162	633.45833
2052.866	639.79167
2055.568	649.45833
2058.268	636.45833
2060.967	647.45833
2063.663	632.125
2066.358	637.45833
2069.051	638.79167
2071.742	631.45833
2074.431	639.125
2077.118	623.45833
2079.804	615.125
2082.487	635.125
2085.169	639.45833
2087.849	654.125
2090.527	626.45833
2093.203	634.79167
2095.877	636.79167
2098.55	647.45833
2101.22	650.45833
2103.889	645.45833
2106.556	652.79167
2109.221	666.79167
2111.884	659.79167
2114.546	715.45833
2117.205	744.125
2119.863	818.45833
2122.519	834.79167
2125.173	897.79167
2127.825	956.125
2130.475	944.79167
2133.124	908.45833
2135.771	880.79167
2138.416	862.45833
2141.059	793.125
2143.7	760.125
2146.339	701.79167
2148.977	666.45833
2151.613	677.45833
2154.247	655.45833
2156.879	632.125
2159.51	622.125
2162.138	616.79167
2164.765	608.79167
2167.39	599.45833
2170.013	613.45833
2172.634	605.79167
2175.254	591.125
2177.872	624.45833
2180.488	587.125
2183.102	586.45833
2185.714	582.79167
2188.325	563.79167
2190.934	560.79167
2193.541	567.45833
2196.146	566.125
2198.75	560.125
2201.351	550.45833
2203.951	541.45833
2206.549	560.45833
2209.146	547.79167
2211.74	551.125
2214.333	560.79167
2216.924	536.45833
2219.514	532.79167
2222.101	529.79167
2224.687	548.79167
2227.271	532.79167
2229.853	524.79167
2232.433	515.125
2235.012	541.45833
2237.589	528.45833
2240.164	537.79167
2242.738	520.45833
2245.309	509.45833
2247.879	527.79167
2250.448	525.45833
2253.014	516.125
2255.579	506.45833
2258.142	503.45833
2260.703	487.45833
2263.262	502.125
2265.82	495.45833
2268.376	498.45833
2270.93	482.125
2273.483	479.125
2276.033	494.125
2278.583	484.125
2281.13	484.125
2283.675	471.79167
2286.219	486.79167
2288.761	480.45833
2291.302	479.125
2293.841	488.79167
2296.377	468.79167
2298.913	478.79167
2301.446	484.45833
2303.978	480.125
2306.508	465.79167
2309.037	472.125
2311.563	471.79167
2314.088	473.45833
2316.612	449.79167
2319.133	470.45833
2321.653	470.79167
2324.171	458.125
2326.688	472.45833
2329.202	460.79167
2331.715	453.79167
2334.227	462.79167
2336.736	460.79167
2339.244	455.125
2341.751	440.125
2344.255	458.79167
2346.758	454.45833
2349.259	435.125
2351.759	450.125
2354.257	443.45833
2356.753	439.45833
2359.247	454.45833
2361.74	457.45833
2364.231	441.125
2366.721	442.79167
2369.209	435.45833
2371.695	441.125
2374.179	445.79167
2376.662	437.79167
2379.143	446.45833
2381.622	423.125
2384.1	451.45833
2386.576	431.45833
2389.051	449.79167
2391.524	444.79167
2393.995	441.79167
2396.464	441.45833
2398.932	432.45833
2401.398	433.79167
2403.863	435.125
2406.325	429.125
2408.787	433.79167
2411.246	433.79167
2413.704	426.45833
2416.16	419.79167
2418.615	429.125
2421.068	436.125
2423.519	433.79167
2425.969	420.125
2428.417	431.125
2430.863	446.45833
2433.308	436.79167
2435.751	433.45833
2438.193	427.45833
2440.633	430.45833
2443.071	430.79167
2445.508	420.45833
2447.943	424.45833
2450.376	417.45833
2452.808	420.45833
2455.238	421.45833
2457.667	449.45833
2460.093	422.45833
2462.519	412.45833
2464.942	412.79167
2467.365	429.125
2469.785	424.125
2472.204	415.79167
2474.621	409.125
2477.037	429.125
2479.451	407.79167
2481.863	408.45833
2484.274	412.125
2486.683	409.125
2489.091	414.79167
2491.497	409.79167
2493.901	417.125
2496.304	406.79167
2498.705	419.79167
2501.105	405.79167
2503.503	435.45833
2505.899	396.79167
2508.294	419.79167
2510.687	419.79167
2513.079	407.125
2515.469	399.125
2517.858	408.125
2520.245	418.125
2522.63	401.45833
2525.014	397.125
2527.396	398.45833
2529.776	402.45833
2532.156	409.45833
2534.533	396.45833
2536.909	395.125
2539.283	390.45833
2541.656	399.125
2544.027	418.125
2546.397	403.125
2548.765	395.125
2551.131	406.45833
2553.496	399.79167
2555.86	399.45833
2558.221	406.79167
2560.582	398.125
2562.94	387.45833
2565.298	406.79167
2567.653	403.125
2570.007	390.45833
2572.36	410.125
2574.711	394.45833
2577.06	404.125
2579.408	399.79167
2581.754	399.79167
2584.099	401.45833
2586.442	398.125
2588.784	411.79167
2591.124	397.45833
2593.463	403.125
2595.8	404.125
2598.135	399.125
2600.469	391.125
2602.802	400.125
2605.133	408.79167
2607.462	397.125
2609.79	385.79167
2612.116	404.79167
2614.441	398.125
2616.764	398.45833
2619.086	393.79167
2621.406	385.125
2623.725	411.45833
2626.042	405.79167
2628.358	389.125
2630.672	393.79167
2632.985	409.45833
2635.296	409.45833
2637.606	402.125
2639.914	392.45833
2642.22	403.45833
2644.525	401.45833
2646.829	404.79167
2649.131	412.45833
2651.432	421.125
2653.731	410.45833
2656.028	411.125
2658.324	425.79167
2660.619	411.45833
2662.912	421.125
2665.204	407.79167
2667.494	414.125
2669.782	409.45833
2672.07	414.79167
2674.355	416.45833
2676.639	413.45833
2678.922	402.125
2681.203	409.45833
2683.483	403.45833
2685.761	407.45833
2688.038	416.45833
2690.313	427.125
2692.587	425.79167
2694.859	412.125
2697.13	418.125
2699.399	426.125
2701.667	439.45833
2703.933	425.125
2706.198	439.45833
2708.461	443.45833
2710.723	438.45833
2712.984	441.79167
2715.243	446.45833
2717.5	449.45833
2719.757	453.45833
2722.011	435.45833
2724.264	442.79167
2726.516	458.79167
2728.766	450.125
2731.015	458.79167
2733.262	445.79167
2735.508	448.125
2737.753	454.79167
2739.996	438.125
2742.237	430.125
2744.477	457.45833
2746.716	456.45833
2748.953	434.125
2751.189	453.125
2753.423	434.125
2755.656	427.79167
2757.887	428.45833
2760.117	428.45833
2762.346	422.79167
2764.573	424.125
2766.798	423.125
2769.022	422.45833
2771.245	434.79167
2773.467	438.45833
2775.686	439.125
2777.905	437.45833
2780.122	441.45833
2782.337	443.45833
2784.552	454.125
2786.764	443.45833
2788.976	442.125
2791.186	450.45833
2793.394	466.45833
2795.601	465.79167
2797.807	470.125
2800.011	478.45833
2802.214	478.79167
2804.415	463.45833
2806.615	473.125
2808.814	485.45833
2811.011	489.45833
2813.206	494.79167
2815.401	509.45833
2817.594	503.45833
2819.785	521.45833
2821.975	513.79167
2824.164	517.79167
2826.351	528.125
2828.537	542.79167
2830.722	554.79167
2832.905	551.125
2835.086	590.125
2837.267	618.125
2839.445	614.125
2841.623	649.79167
2843.799	666.79167
2845.974	698.125
2848.147	723.79167
2850.319	748.45833
2852.489	782.125
2854.659	785.45833
2856.826	802.79167
2858.993	823.45833
2861.158	806.125
2863.321	814.45833
2865.483	826.79167
2867.644	824.125
2869.804	824.125
2871.962	823.45833
2874.118	829.45833
2876.274	827.125
2878.428	819.125
2880.58	827.125
2882.731	801.125
2884.881	812.45833
2887.03	826.125
2889.177	825.79167
2891.322	819.125
2893.467	824.45833
2895.61	834.45833
2897.751	852.125
2899.892	846.125
2902.03	846.79167
2904.168	850.45833
2906.304	852.125
2908.439	875.125
2910.572	863.79167
2912.704	880.45833
2914.835	877.45833
2916.965	874.79167
2919.093	897.45833
2921.219	863.45833
2923.345	882.79167
2925.469	854.125
2927.591	859.45833
2929.712	826.45833
2931.832	830.45833
2933.951	820.125
2936.068	802.79167
2938.184	789.79167
2940.299	763.125
2942.412	758.45833
2944.524	729.79167
2946.634	725.125
2948.744	664.125
2950.851	691.125
2952.958	656.125
2955.063	660.45833
2957.167	658.45833
2959.269	622.79167
2961.371	664.125
2963.471	621.125
2965.569	621.125
2967.666	603.45833
2969.762	599.45833
2971.857	602.45833
2973.95	577.45833
2976.042	577.125
2978.133	557.125
2980.222	547.125
2982.31	521.79167
2984.396	496.45833
2986.482	506.125
2988.566	503.45833
2990.648	495.79167
2992.73	494.125
2994.81	472.79167
2996.889	477.125
2998.966	472.45833
3001.042	468.125
3003.117	476.79167
3005.191	469.125
3007.263	459.79167
3009.334	455.125
3011.403	454.125
3013.472	438.125
3015.539	451.45833
3017.604	453.79167
3019.669	412.125
3021.732	425.125
3023.794	430.45833
3025.854	410.45833
3027.914	401.125
3029.971	422.79167
3032.028	408.125
3034.083	413.79167
3036.137	402.45833
3038.19	390.45833
3040.242	380.45833
3042.292	366.125
3044.341	372.45833
3046.388	383.125
3048.435	356.45833
3050.48	376.45833
3052.524	368.125
3054.566	349.125
3056.607	363.125
3058.647	344.45833
3060.686	335.79167
3062.723	327.125
3064.759	312.45833
3066.794	0.125
3068.828	0.125
3070.86	1.79167
