-0.839	562.20833
3.438	653.875
7.711	196.875
11.981	65.54167
16.247	47.20833
20.509	54.54167
24.768	47.54167
29.024	54.20833
33.276	48.54167
37.524	52.54167
41.769	45.54167
46.01	35.875
50.247	49.54167
54.481	58.875
58.712	60.875
62.939	51.20833
67.162	61.875
71.382	59.875
75.599	44.875
79.812	67.20833
84.021	81.20833
88.227	59.54167
92.429	63.54167
96.628	52.875
100.823	74.54167
105.015	77.20833
109.204	66.54167
113.388	78.875
117.57	78.20833
121.748	88.54167
125.922	79.20833
130.093	98.20833
134.261	101.54167
138.425	103.20833
142.585	142.54167
146.742	135.20833
150.896	164.54167
155.046	201.875
159.193	323.20833
163.336	545.20833
167.476	994.875
171.613	1835.20833
175.746	3054.875
179.875	4477.20833
184.002	5913.54167
188.124	6850.875
192.244	7150.54167
196.36	7102.875
200.472	6900.20833
204.581	6665.20833
208.687	6490.20833
212.79	6379.54167
216.889	6359.54167
220.984	6311.54167
225.077	6257.54167
229.165	6258.20833
233.251	6215.54167
237.333	6152.54167
241.412	6067.875
245.487	6019.20833
249.559	5935.875
253.628	5891.20833
257.694	5865.875
261.756	5811.54167
265.814	5733.875
269.87	5565.875
273.922	5436.875
277.97	5400.875
282.016	5370.875
286.058	5380.20833
290.097	5486.20833
294.132	5535.20833
298.164	5516.875
302.193	5337.875
306.219	5039.20833
310.241	4760.54167
314.26	4464.20833
318.276	4239.54167
322.288	4126.54167
326.297	3989.54167
330.303	3884.875
334.305	3845.20833
338.305	3843.875
342.301	3784.875
346.294	3783.20833
350.283	3763.20833
354.269	3724.875
358.252	3715.875
362.232	3709.54167
366.209	3710.54167
370.182	3693.54167
374.152	3687.54167
378.119	3702.54167
382.083	3672.875
386.043	3727.54167
390	3690.20833
393.954	3709.54167
397.905	3709.875
401.852	3723.875
405.797	3684.54167
409.738	3677.875
413.676	3704.54167
417.61	3765.54167
421.542	3691.20833
425.47	3653.875
429.396	3624.875
433.318	3592.20833
437.236	3617.54167
441.152	3628.20833
445.065	3582.20833
448.974	3582.54167
452.88	3521.54167
456.783	3571.20833
460.683	3569.54167
464.58	3561.875
468.473	3556.20833
472.364	3558.54167
476.251	3579.20833
480.135	3642.54167
484.016	3686.20833
487.894	3694.54167
491.769	3742.875
495.641	3749.20833
499.509	3764.875
503.375	3778.875
507.237	3770.875
511.096	3819.20833
514.952	3961.20833
518.805	4192.20833
522.655	4255.54167
526.502	3968.875
530.346	3706.54167
534.187	3677.20833
538.024	3645.20833
541.859	3652.875
545.69	3685.20833
549.519	3694.54167
553.344	3631.54167
557.166	3588.54167
560.985	3596.54167
564.802	3494.875
568.615	3485.54167
572.425	3448.54167
576.232	3435.875
580.036	3431.20833
583.836	3435.54167
587.634	3464.54167
591.429	3452.20833
595.221	3543.54167
599.01	3534.875
602.796	3561.54167
606.578	3564.20833
610.358	3578.875
614.135	3551.875
617.909	3547.875
621.679	3517.54167
625.447	3495.875
629.212	3505.54167
632.973	3498.20833
636.732	3502.875
640.488	3490.20833
644.241	3438.875
647.991	3426.20833
651.737	3437.54167
655.481	3429.875
659.222	3452.875
662.96	3449.875
666.695	3454.20833
670.427	3492.20833
674.156	3499.54167
677.882	3474.20833
681.605	3449.54167
685.325	3439.20833
689.043	3417.20833
692.757	3405.54167
696.468	3403.54167
700.177	3394.20833
703.882	3350.875
707.585	3346.20833
711.284	3305.54167
714.981	3304.875
718.675	3302.54167
722.366	3324.20833
726.054	3269.875
729.739	3275.54167
733.421	3267.20833
737.1	3299.54167
740.777	3310.875
744.45	3316.20833
748.121	3317.875
751.789	3398.20833
755.453	3385.875
759.115	3360.54167
762.774	3359.20833
766.431	3390.875
770.084	3391.54167
773.734	3409.875
777.382	3431.54167
781.027	3410.20833
784.669	3446.54167
788.308	3433.20833
791.944	3444.20833
795.577	3457.54167
799.208	3481.20833
802.835	3485.20833
806.46	3518.20833
810.082	3517.875
813.701	3534.54167
817.317	3596.20833
820.931	3556.54167
824.542	3554.20833
828.149	3508.875
831.754	3447.875
835.357	3454.54167
838.956	3465.875
842.553	3465.875
846.146	3418.20833
849.737	3367.875
853.326	3346.875
856.911	3338.875
860.493	3383.875
864.073	3397.20833
867.65	3447.875
871.225	3436.20833
874.796	3436.54167
878.365	3434.875
881.931	3502.54167
885.494	3526.54167
889.054	3559.20833
892.612	3620.54167
896.166	3634.20833
899.719	3652.20833
903.268	3553.54167
906.814	3490.54167
910.358	3387.875
913.899	3361.20833
917.438	3321.875
920.973	3286.54167
924.506	3333.875
928.036	3391.54167
931.564	3438.875
935.088	3465.54167
938.61	3451.20833
942.129	3478.20833
945.646	3513.875
949.16	3543.54167
952.671	3582.875
956.179	3585.20833
959.685	3519.20833
963.188	3525.20833
966.688	3491.875
970.185	3424.875
973.68	3356.875
977.173	3329.875
980.662	3280.875
984.149	3280.20833
987.633	3245.875
991.114	3315.20833
994.593	3340.20833
998.069	3421.54167
1001.542	3486.875
1005.013	3439.54167
1008.481	3289.20833
1011.947	3219.54167
1015.409	3208.54167
1018.869	3205.54167
1022.327	3227.54167
1025.782	3213.54167
1029.234	3226.20833
1032.683	3209.20833
1036.13	3086.875
1039.574	3005.20833
1043.016	2934.20833
1046.455	2869.875
1049.891	2870.54167
1053.325	2847.20833
1056.756	2840.20833
1060.184	2863.875
1063.61	2862.875
1067.033	2887.54167
1070.454	2864.20833
1073.872	2906.875
1077.287	2883.875
1080.7	2887.20833
1084.11	2876.20833
1087.517	2868.20833
1090.922	2819.875
1094.325	2806.875
1097.724	2765.20833
1101.122	2764.54167
1104.516	2768.20833
1107.908	2747.54167
1111.298	2774.875
1114.684	2823.20833
1118.069	2865.20833
1121.45	2868.875
1124.83	2847.20833
1128.206	2874.54167
1131.58	2903.875
1134.951	2973.54167
1138.32	3037.875
1141.687	3107.875
1145.05	3131.20833
1148.412	3129.20833
1151.77	3120.20833
1155.126	3086.875
1158.48	3057.20833
1161.831	3097.875
1165.18	3069.54167
1168.525	3125.54167
1171.869	3136.54167
1175.21	3115.875
1178.548	3165.54167
1181.884	3207.20833
1185.217	3209.20833
1188.548	3301.54167
1191.877	3313.20833
1195.202	3429.875
1198.526	3477.20833
1201.846	3477.54167
1205.165	3517.20833
1208.48	3513.54167
1211.794	3508.54167
1215.104	3492.54167
1218.413	3527.54167
1221.719	3503.20833
1225.022	3455.875
1228.323	3418.875
1231.621	3366.875
1234.917	3356.875
1238.21	3358.20833
1241.501	3345.20833
1244.79	3350.20833
1248.076	3344.875
1251.359	3350.54167
1254.64	3427.875
1257.919	3441.54167
1261.195	3469.20833
1264.468	3515.20833
1267.74	3538.20833
1271.008	3567.54167
1274.275	3563.20833
1277.538	3567.54167
1280.8	3530.20833
1284.059	3509.54167
1287.315	3560.20833
1290.569	3557.20833
1293.821	3552.875
1297.07	3589.875
1300.317	3587.875
1303.562	3543.54167
1306.803	3527.875
1310.043	3524.54167
1313.28	3518.54167
1316.515	3519.54167
1319.747	3513.54167
1322.977	3532.875
1326.204	3528.20833
1329.429	3523.20833
1332.652	3560.875
1335.872	3524.54167
1339.09	3484.54167
1342.306	3439.20833
1345.519	3369.875
1348.729	3321.875
1351.938	3282.54167
1355.144	3223.54167
1358.347	3209.875
1361.548	3167.54167
1364.747	3155.875
1367.944	3132.875
1371.138	3139.20833
1374.329	3110.20833
1377.518	3151.54167
1380.705	3146.54167
1383.89	3140.875
1387.072	3058.20833
1390.252	3010.875
1393.429	2906.875
1396.605	2861.875
1399.777	2800.20833
1402.948	2806.54167
1406.116	2798.875
1409.282	2802.875
1412.445	2844.20833
1415.606	2880.875
1418.765	2896.54167
1421.921	2893.20833
1425.075	2882.54167
1428.227	2923.54167
1431.376	3026.54167
1434.524	3087.875
1437.668	3163.54167
1440.811	3227.20833
1443.951	3262.875
1447.089	3282.54167
1450.224	3244.875
1453.357	3218.20833
1456.488	3198.875
1459.617	3122.875
1462.743	3066.20833
1465.867	3011.875
1468.989	2959.20833
1472.108	2930.54167
1475.225	2884.875
1478.34	2822.54167
1481.453	2818.20833
1484.563	2801.54167
1487.671	2805.20833
1490.776	2835.875
1493.88	2877.54167
1496.981	2912.875
1500.08	2962.875
1503.176	2962.54167
1506.271	2996.54167
1509.363	3023.875
1512.452	3073.20833
1515.54	3098.875
1518.625	3132.20833
1521.708	3186.54167
1524.789	3254.20833
1527.867	3364.875
1530.944	3490.20833
1534.018	3623.20833
1537.089	3765.54167
1540.159	3797.875
1543.226	3793.875
1546.291	3697.20833
1549.354	3656.875
1552.415	3572.54167
1555.473	3501.20833
1558.529	3414.875
1561.583	3401.20833
1564.634	3353.20833
1567.684	3341.54167
1570.731	3375.20833
1573.776	3395.20833
1576.819	3443.20833
1579.859	3457.54167
1582.898	3505.20833
1585.934	3539.875
1588.968	3537.875
1591.999	3543.875
1595.029	3538.875
1598.056	3565.54167
1601.081	3592.875
1604.104	3583.20833
1607.125	3576.20833
1610.144	3516.875
1613.16	3446.875
1616.174	3392.20833
1619.186	3323.54167
1622.196	3277.54167
1625.203	3203.20833
1628.209	3172.54167
1631.212	3151.20833
1634.213	3168.20833
1637.212	3193.54167
1640.209	3137.20833
1643.203	3097.54167
1646.196	3008.54167
1649.186	2883.875
1652.174	2791.20833
1655.16	2716.54167
1658.144	2629.54167
1661.125	2533.875
1664.105	2460.54167
1667.082	2353.54167
1670.057	2253.20833
1673.03	2127.54167
1676.001	2020.20833
1678.97	1929.54167
1681.937	1786.54167
1684.901	1725.875
1687.863	1676.20833
1690.824	1632.54167
1693.782	1597.54167
1696.738	1545.875
1699.692	1510.54167
1702.643	1477.875
1705.593	1497.54167
1708.54	1469.54167
1711.486	1458.54167
1714.429	1424.20833
1717.37	1421.54167
1720.309	1406.875
1723.246	1405.875
1726.181	1382.20833
1729.113	1384.875
1732.044	1370.20833
1734.972	1357.20833
1737.899	1370.54167
1740.823	1351.20833
1743.745	1336.875
1746.665	1312.20833
1749.583	1310.875
1752.499	1298.54167
1755.413	1285.54167
1758.325	1265.54167
1761.235	1248.20833
1764.142	1224.875
1767.048	1235.875
1769.951	1225.54167
1772.852	1227.875
1775.752	1235.20833
1778.649	1240.875
1781.544	1223.875
1784.437	1192.20833
1787.328	1205.54167
1790.217	1196.54167
1793.104	1170.54167
1795.989	1166.54167
1798.872	1167.875
1801.753	1166.54167
1804.631	1157.20833
1807.508	1180.875
1810.383	1158.875
1813.255	1161.875
1816.126	1146.875
1818.994	1152.875
1821.861	1146.20833
1824.725	1140.54167
1827.587	1143.54167
1830.448	1133.20833
1833.306	1110.20833
1836.162	1115.875
1839.017	1113.875
1841.869	1109.20833
1844.719	1105.875
1847.567	1085.54167
1850.414	1085.875
1853.258	1085.875
1856.1	1101.875
1858.94	1114.20833
1861.778	1104.875
1864.614	1086.20833
1867.448	1087.20833
1870.28	1076.54167
1873.111	1094.20833
1875.939	1074.54167
1878.765	1099.875
1881.589	1078.875
1884.411	1085.875
1887.231	1085.875
1890.049	1080.875
1892.865	1064.875
1895.68	1047.875
1898.492	1069.20833
1901.302	1063.875
1904.11	1055.875
1906.916	1030.54167
1909.721	1038.54167
1912.523	1045.875
1915.323	1023.54167
1918.122	1033.875
1920.918	1047.54167
1923.712	1026.54167
1926.505	1022.54167
1929.295	1011.20833
1932.084	1036.54167
1934.87	1028.20833
1937.655	1019.54167
1940.438	1015.875
1943.218	1031.54167
1945.997	1024.20833
1948.774	1024.20833
1951.549	1035.20833
1954.322	1019.54167
1957.093	1010.54167
1959.862	1021.54167
1962.629	999.875
1965.394	1016.875
1968.157	988.54167
1970.918	974.54167
1973.678	984.875
1976.435	993.875
1979.19	982.20833
1981.944	977.54167
1984.696	979.54167
1987.445	961.54167
1990.193	983.54167
1992.939	988.54167
1995.683	961.54167
1998.425	957.20833
2001.165	984.20833
2003.903	963.20833
2006.639	972.54167
2009.374	978.20833
2012.106	959.20833
2014.837	944.54167
2017.566	968.54167
2020.292	976.54167
2023.017	966.54167
2025.74	949.875
2028.461	954.875
2031.18	955.875
2033.898	954.875
2036.613	966.54167
2039.327	944.54167
2042.038	945.20833
2044.748	945.875
2047.456	950.875
2050.162	929.875
2052.866	934.20833
2055.568	951.875
2058.268	931.875
2060.967	951.875
2063.663	916.54167
2066.358	944.54167
2069.051	918.54167
2071.742	931.54167
2074.431	934.20833
2077.118	925.20833
2079.804	915.20833
2082.487	923.54167
2085.169	934.20833
2087.849	950.875
2090.527	916.875
2093.203	935.54167
2095.877	939.20833
2098.55	956.20833
2101.22	956.875
2103.889	970.54167
2106.556	956.20833
2109.221	987.875
2111.884	988.54167
2114.546	1043.20833
2117.205	1085.54167
2119.863	1136.20833
2122.519	1160.20833
2125.173	1229.54167
2127.825	1272.54167
2130.475	1281.20833
2133.124	1237.875
2135.771	1197.20833
2138.416	1176.875
2141.059	1121.875
2143.7	1089.54167
2146.339	1046.54167
2148.977	999.20833
2151.613	993.54167
2154.247	978.20833
2156.879	956.20833
2159.51	939.54167
2162.138	933.20833
2164.765	942.875
2167.39	924.54167
2170.013	953.875
2172.634	938.20833
2175.254	922.20833
2177.872	952.20833
2180.488	906.875
2183.102	917.20833
2185.714	909.20833
2188.325	893.875
2190.934	909.54167
2193.541	907.875
2196.146	886.20833
2198.75	868.875
2201.351	878.20833
2203.951	873.54167
2206.549	898.875
2209.146	880.54167
2211.74	872.875
2214.333	889.54167
2216.924	858.20833
2219.514	892.875
2222.101	865.875
2224.687	894.875
2227.271	872.875
2229.853	854.20833
2232.433	854.875
2235.012	884.875
2237.589	884.875
2240.164	894.54167
2242.738	868.875
2245.309	877.20833
2247.879	868.875
2250.448	881.20833
2253.014	862.20833
2255.579	850.20833
2258.142	857.54167
2260.703	836.875
2263.262	862.875
2265.82	851.20833
2268.376	867.54167
2270.93	844.875
2273.483	841.875
2276.033	864.54167
2278.583	846.54167
2281.13	839.875
2283.675	842.54167
2286.219	848.20833
2288.761	858.20833
2291.302	862.54167
2293.841	861.54167
2296.377	846.54167
2298.913	858.54167
2301.446	873.20833
2303.978	856.20833
2306.508	843.20833
2309.037	853.54167
2311.563	839.875
2314.088	850.875
2316.612	837.54167
2319.133	853.875
2321.653	856.20833
2324.171	840.20833
2326.688	860.20833
2329.202	850.20833
2331.715	845.875
2334.227	850.54167
2336.736	845.54167
2339.244	849.54167
2341.751	840.875
2344.255	860.54167
2346.758	858.875
2349.259	844.20833
2351.759	858.54167
2354.257	852.54167
2356.753	856.20833
2359.247	844.54167
2361.74	863.875
2364.231	858.20833
2366.721	880.54167
2369.209	854.875
2371.695	852.875
2374.179	851.875
2376.662	851.20833
2379.143	875.875
2381.622	868.54167
2384.1	880.54167
2386.576	869.20833
2389.051	880.54167
2391.524	887.54167
2393.995	876.875
2396.464	877.20833
2398.932	875.20833
2401.398	871.54167
2403.863	874.875
2406.325	874.875
2408.787	885.54167
2411.246	882.20833
2413.704	876.875
2416.16	875.54167
2418.615	892.20833
2421.068	903.54167
2423.519	908.54167
2425.969	878.54167
2428.417	896.875
2430.863	909.875
2433.308	905.875
2435.751	910.54167
2438.193	904.20833
2440.633	895.875
2443.071	904.20833
2445.508	906.20833
2447.943	903.54167
2450.376	899.875
2452.808	902.20833
2455.238	899.54167
2457.667	935.54167
2460.093	919.54167
2462.519	906.875
2464.942	913.20833
2467.365	926.20833
2469.785	920.875
2472.204	937.54167
2474.621	916.54167
2477.037	939.54167
2479.451	913.875
2481.863	917.875
2484.274	918.875
2486.683	913.54167
2489.091	939.875
2491.497	926.54167
2493.901	944.875
2496.304	936.875
2498.705	957.875
2501.105	939.54167
2503.503	965.54167
2505.899	937.54167
2508.294	973.54167
2510.687	953.54167
2513.079	954.875
2515.469	950.875
2517.858	964.875
2520.245	970.54167
2522.63	962.54167
2525.014	956.875
2527.396	947.875
2529.776	948.20833
2532.156	970.54167
2534.533	966.20833
2536.909	945.20833
2539.283	956.875
2541.656	973.20833
2544.027	989.875
2546.397	979.54167
2548.765	978.875
2551.131	975.54167
2553.496	985.20833
2555.86	1002.20833
2558.221	976.54167
2560.582	981.54167
2562.94	974.875
2565.298	993.54167
2567.653	1003.875
2570.007	981.875
2572.36	1020.20833
2574.711	995.54167
2577.06	1008.54167
2579.408	1030.875
2581.754	1024.20833
2584.099	1029.875
2586.442	1025.20833
2588.784	1034.20833
2591.124	1034.54167
2593.463	1026.20833
2595.8	1042.54167
2598.135	1010.20833
2600.469	1025.875
2602.802	1047.54167
2605.133	1054.54167
2607.462	1040.875
2609.79	1037.875
2612.116	1047.54167
2614.441	1052.54167
2616.764	1063.54167
2619.086	1062.54167
2621.406	1047.20833
2623.725	1072.875
2626.042	1064.54167
2628.358	1067.20833
2630.672	1061.875
2632.985	1115.20833
2635.296	1082.54167
2637.606	1087.54167
2639.914	1087.875
2642.22	1091.875
2644.525	1103.20833
2646.829	1102.875
2649.131	1125.54167
2651.432	1132.20833
2653.731	1127.875
2656.028	1141.20833
2658.324	1139.54167
2660.619	1123.54167
2662.912	1136.54167
2665.204	1121.54167
2667.494	1146.54167
2669.782	1145.54167
2672.07	1138.875
2674.355	1166.20833
2676.639	1143.54167
2678.922	1145.20833
2681.203	1144.20833
2683.483	1145.20833
2685.761	1145.20833
2688.038	1171.875
2690.313	1174.875
2692.587	1158.54167
2694.859	1176.54167
2697.13	1182.20833
2699.399	1183.20833
2701.667	1185.54167
2703.933	1182.875
2706.198	1190.54167
2708.461	1207.20833
2710.723	1212.20833
2712.984	1209.875
2715.243	1223.20833
2717.5	1211.875
2719.757	1231.875
2722.011	1226.875
2724.264	1232.54167
2726.516	1262.875
2728.766	1251.875
2731.015	1266.20833
2733.262	1277.20833
2735.508	1255.54167
2737.753	1257.20833
2739.996	1247.875
2742.237	1258.20833
2744.477	1265.54167
2746.716	1266.20833
2748.953	1264.54167
2751.189	1264.20833
2753.423	1249.875
2755.656	1260.20833
2757.887	1249.54167
2760.117	1252.20833
2762.346	1234.20833
2764.573	1234.875
2766.798	1247.875
2769.022	1254.54167
2771.245	1265.54167
2773.467	1265.875
2775.686	1278.54167
2777.905	1279.20833
2780.122	1287.875
2782.337	1277.54167
2784.552	1299.20833
2786.764	1301.875
2788.976	1311.875
2791.186	1317.54167
2793.394	1330.20833
2795.601	1338.875
2797.807	1350.54167
2800.011	1368.20833
2802.214	1356.875
2804.415	1367.54167
2806.615	1357.875
2808.814	1368.54167
2811.011	1382.875
2813.206	1368.875
2815.401	1383.20833
2817.594	1379.875
2819.785	1403.54167
2821.975	1380.20833
2824.164	1395.54167
2826.351	1403.875
2828.537	1433.875
2830.722	1409.20833
2832.905	1444.875
2835.086	1468.875
2837.267	1484.875
2839.445	1491.875
2841.623	1525.54167
2843.799	1539.54167
2845.974	1560.54167
2848.147	1582.875
2850.319	1601.54167
2852.489	1627.875
2854.659	1645.875
2856.826	1658.875
2858.993	1698.875
2861.158	1679.54167
2863.321	1670.875
2865.483	1700.20833
2867.644	1696.875
2869.804	1703.20833
2871.962	1685.54167
2874.118	1679.54167
2876.274	1700.875
2878.428	1688.20833
2880.58	1679.875
2882.731	1657.20833
2884.881	1673.54167
2887.03	1682.20833
2889.177	1669.875
2891.322	1683.54167
2893.467	1672.54167
2895.61	1692.875
2897.751	1714.20833
2899.892	1710.20833
2902.03	1728.20833
2904.168	1726.20833
2906.304	1731.54167
2908.439	1759.875
2910.572	1738.20833
2912.704	1768.20833
2914.835	1768.20833
2916.965	1765.875
2919.093	1798.54167
2921.219	1750.875
2923.345	1770.20833
2925.469	1737.54167
2927.591	1742.875
2929.712	1705.875
2931.832	1703.20833
2933.951	1702.54167
2936.068	1690.20833
2938.184	1664.875
2940.299	1643.20833
2942.412	1631.20833
2944.524	1618.20833
2946.634	1629.875
2948.744	1582.54167
2950.851	1611.875
2952.958	1583.875
2955.063	1594.54167
2957.167	1594.875
2959.269	1575.20833
2961.371	1605.54167
2963.471	1577.875
2965.569	1581.20833
2967.666	1568.875
2969.762	1562.20833
2971.857	1553.875
2973.95	1550.20833
2976.042	1538.20833
2978.133	1501.20833
2980.222	1485.20833
2982.31	1458.875
2984.396	1444.875
2986.482	1439.54167
2988.566	1445.54167
2990.648	1426.875
2992.73	1425.54167
2994.81	1419.875
2996.889	1430.20833
2998.966	1423.54167
3001.042	1436.875
3003.117	1436.875
3005.191	1438.20833
3007.263	1417.875
3009.334	1415.54167
3011.403	1397.875
3013.472	1374.20833
3015.539	1382.875
3017.604	1368.875
3019.669	1335.54167
3021.732	1334.875
3023.794	1345.875
3025.854	1339.54167
3027.914	1334.20833
3029.971	1346.54167
3032.028	1327.20833
3034.083	1328.54167
3036.137	1307.875
3038.19	1264.54167
3040.242	1257.875
3042.292	1223.20833
3044.341	1209.20833
3046.388	1215.875
3048.435	1188.875
3050.48	1203.875
3052.524	1201.20833
3054.566	1175.875
3056.607	1176.875
3058.647	1144.20833
3060.686	1100.54167
3062.723	1081.54167
3064.759	1059.54167
3066.794	-2.45833
3068.828	2.875
3070.86	2.875
