-0.839	543.5
3.438	645.5
7.711	189.5
11.981	66.16667
16.247	47.83333
20.509	50.5
24.768	47.5
29.024	51.16667
33.276	47.5
37.524	51.5
41.769	48.16667
46.01	34.83333
50.247	47.16667
54.481	58.16667
58.712	63.5
62.939	52.83333
67.162	63.5
71.382	57.83333
75.599	45.5
79.812	64.16667
84.021	82.5
88.227	59.83333
92.429	60.5
96.628	53.5
100.823	71.5
105.015	77.83333
109.204	72.5
113.388	78.83333
117.57	80.16667
121.748	91.5
125.922	83.16667
130.093	104.83333
134.261	104.5
138.425	104.5
142.585	147.5
146.742	139.5
150.896	174.5
155.046	210.5
159.193	343.16667
163.336	580.16667
167.476	1050.5
171.613	1927.5
175.746	3226.5
179.875	4797.5
184.002	6286.5
188.124	7275.83333
192.244	7617.5
196.36	7561.83333
200.472	7329.5
204.581	7135.83333
208.687	6904.16667
212.79	6837.83333
216.889	6810.5
220.984	6833.5
225.077	6800.16667
229.165	6839.83333
233.251	6859.83333
237.333	6799.16667
241.412	6753.16667
245.487	6656.83333
249.559	6595.83333
253.628	6541.83333
257.694	6496.83333
261.756	6448.83333
265.814	6289.5
269.87	6106.83333
273.922	5947.16667
277.97	5824.5
282.016	5766.16667
286.058	5838.16667
290.097	5891.5
294.132	5999.83333
298.164	5966.16667
302.193	5710.16667
306.219	5288.5
310.241	4865.5
314.26	4457.5
318.276	4156.16667
322.288	3930.5
326.297	3740.16667
330.303	3622.5
334.305	3526.83333
338.305	3466.5
342.301	3410.83333
346.294	3380.16667
350.283	3344.5
354.269	3319.83333
358.252	3281.83333
362.232	3259.16667
366.209	3241.5
370.182	3215.16667
374.152	3208.5
378.119	3217.83333
382.083	3201.83333
386.043	3201.16667
390	3179.5
393.954	3193.16667
397.905	3137.83333
401.852	3124.83333
405.797	3089.16667
409.738	3068.5
413.676	3095.5
417.61	3071.83333
421.542	3022.16667
425.47	3015.5
429.396	2999.16667
433.318	2990.5
437.236	2977.83333
441.152	2997.83333
445.065	2939.5
448.974	2924.16667
452.88	2912.83333
456.783	2875.16667
460.683	2866.5
464.58	2862.16667
468.473	2892.5
472.364	2883.16667
476.251	2881.83333
480.135	2903.16667
484.016	2954.5
487.894	2990.5
491.769	2999.5
495.641	2995.16667
499.509	3034.16667
503.375	3029.5
507.237	3042.83333
511.096	3029.16667
514.952	3030.5
518.805	3020.16667
522.655	3008.83333
526.502	3002.16667
530.346	2975.5
534.187	2980.83333
538.024	2992.83333
541.859	3017.16667
545.69	3054.16667
549.519	3035.83333
553.344	3009.83333
557.166	2957.83333
560.985	2919.5
564.802	2861.83333
568.615	2800.83333
572.425	2761.83333
576.232	2775.83333
580.036	2741.16667
583.836	2784.83333
587.634	2786.16667
591.429	2789.16667
595.221	2856.5
599.01	2900.16667
602.796	2907.16667
606.578	2902.5
610.358	2917.83333
614.135	2898.5
617.909	2868.83333
621.679	2827.83333
625.447	2816.16667
629.212	2827.5
632.973	2822.5
636.732	2819.83333
640.488	2830.16667
644.241	2822.83333
647.991	2788.5
651.737	2804.5
655.481	2776.16667
659.222	2757.16667
662.96	2744.5
666.695	2813.5
670.427	2839.5
674.156	2849.16667
677.882	2823.16667
681.605	2810.5
685.325	2756.83333
689.043	2791.5
692.757	2734.83333
696.468	2761.83333
700.177	2741.16667
703.882	2715.16667
707.585	2702.83333
711.284	2698.5
714.981	2699.5
718.675	2698.5
722.366	2700.83333
726.054	2714.16667
729.739	2706.83333
733.421	2718.16667
737.1	2713.16667
740.777	2709.83333
744.45	2697.5
748.121	2749.16667
751.789	2801.83333
755.453	2793.83333
759.115	2814.83333
762.774	2824.5
766.431	2874.83333
770.084	2904.5
773.734	2933.16667
777.382	2992.83333
781.027	3020.83333
784.669	3016.83333
788.308	3013.83333
791.944	3038.83333
795.577	3061.83333
799.208	3048.16667
802.835	3096.5
806.46	3097.83333
810.082	3122.16667
813.701	3100.16667
817.317	3132.16667
820.931	3133.5
824.542	3162.83333
828.149	3090.5
831.754	3078.16667
835.357	3103.83333
838.956	3101.83333
842.553	3112.5
846.146	3081.5
849.737	3066.16667
853.326	3086.16667
856.911	3088.5
860.493	3132.83333
864.073	3173.5
867.65	3193.83333
871.225	3246.83333
874.796	3253.5
878.365	3266.16667
881.931	3290.16667
885.494	3357.16667
889.054	3433.16667
892.612	3486.16667
896.166	3529.16667
899.719	3515.16667
903.268	3434.83333
906.814	3335.83333
910.358	3225.83333
913.899	3172.5
917.438	3182.16667
920.973	3159.83333
924.506	3187.5
928.036	3237.83333
931.564	3248.5
935.088	3317.83333
938.61	3309.16667
942.129	3351.83333
945.646	3412.5
949.16	3487.83333
952.671	3554.83333
956.179	3540.83333
959.685	3492.16667
963.188	3452.5
966.688	3394.5
970.185	3319.83333
973.68	3240.5
977.173	3204.83333
980.662	3141.83333
984.149	3123.16667
987.633	3130.5
991.114	3153.83333
994.593	3210.16667
998.069	3298.83333
1001.542	3394.16667
1005.013	3330.5
1008.481	3175.5
1011.947	3127.83333
1015.409	3132.16667
1018.869	3126.83333
1022.327	3143.16667
1025.782	3122.5
1029.234	3108.5
1032.683	3081.16667
1036.13	2962.16667
1039.574	2859.16667
1043.016	2769.83333
1046.455	2695.5
1049.891	2720.83333
1053.325	2713.16667
1056.756	2690.16667
1060.184	2728.16667
1063.61	2724.5
1067.033	2760.83333
1070.454	2746.83333
1073.872	2778.5
1077.287	2764.83333
1080.7	2737.83333
1084.11	2777.5
1087.517	2719.16667
1090.922	2702.16667
1094.325	2691.83333
1097.724	2657.83333
1101.122	2689.16667
1104.516	2705.5
1107.908	2685.16667
1111.298	2721.16667
1114.684	2787.16667
1118.069	2818.83333
1121.45	2874.5
1124.83	2829.83333
1128.206	2875.16667
1131.58	2951.5
1134.951	3031.83333
1138.32	3144.16667
1141.687	3269.5
1145.05	3317.16667
1148.412	3327.5
1151.77	3332.16667
1155.126	3321.16667
1158.48	3302.83333
1161.831	3328.5
1165.18	3318.83333
1168.525	3395.16667
1171.869	3396.83333
1175.21	3421.5
1178.548	3472.16667
1181.884	3506.16667
1185.217	3555.16667
1188.548	3625.16667
1191.877	3676.16667
1195.202	3792.83333
1198.526	3874.83333
1201.846	3892.16667
1205.165	3874.16667
1208.48	3806.5
1211.794	3786.83333
1215.104	3779.83333
1218.413	3778.16667
1221.719	3759.83333
1225.022	3744.16667
1228.323	3645.83333
1231.621	3645.83333
1234.917	3586.83333
1238.21	3596.16667
1241.501	3621.83333
1244.79	3583.16667
1248.076	3596.5
1251.359	3620.5
1254.64	3709.5
1257.919	3697.16667
1261.195	3778.83333
1264.468	3849.16667
1267.74	3869.5
1271.008	3908.16667
1274.275	3903.83333
1277.538	3869.16667
1280.8	3854.16667
1284.059	3871.5
1287.315	3895.83333
1290.569	3931.16667
1293.821	3966.83333
1297.07	3999.83333
1300.317	3997.16667
1303.562	3998.16667
1306.803	3981.5
1310.043	3952.83333
1313.28	3915.5
1316.515	3914.5
1319.747	3904.5
1322.977	3878.16667
1326.204	3833.83333
1329.429	3793.16667
1332.652	3787.83333
1335.872	3738.5
1339.09	3660.83333
1342.306	3622.83333
1345.519	3528.5
1348.729	3469.83333
1351.938	3423.16667
1355.144	3379.16667
1358.347	3349.5
1361.548	3333.83333
1364.747	3352.5
1367.944	3308.83333
1371.138	3317.83333
1374.329	3348.16667
1377.518	3418.16667
1380.705	3444.16667
1383.89	3415.83333
1387.072	3327.16667
1390.252	3196.83333
1393.429	3061.83333
1396.605	2984.83333
1399.777	2928.83333
1402.948	2910.5
1406.116	2905.16667
1409.282	2926.83333
1412.445	2943.83333
1415.606	2987.16667
1418.765	3024.16667
1421.921	3031.16667
1425.075	3085.83333
1428.227	3149.83333
1431.376	3233.83333
1434.524	3347.16667
1437.668	3451.16667
1440.811	3504.16667
1443.951	3536.5
1447.089	3556.16667
1450.224	3544.83333
1453.357	3496.5
1456.488	3486.83333
1459.617	3410.83333
1462.743	3352.16667
1465.867	3300.5
1468.989	3240.16667
1472.108	3207.83333
1475.225	3160.83333
1478.34	3125.16667
1481.453	3130.83333
1484.563	3126.16667
1487.671	3173.5
1490.776	3231.83333
1493.88	3290.16667
1496.981	3354.16667
1500.08	3421.83333
1503.176	3479.5
1506.271	3532.5
1509.363	3579.83333
1512.452	3600.16667
1515.54	3648.5
1518.625	3683.5
1521.708	3801.5
1524.789	3876.16667
1527.867	4021.16667
1530.944	4182.83333
1534.018	4356.5
1537.089	4501.16667
1540.159	4564.5
1543.226	4554.5
1546.291	4496.5
1549.354	4406.5
1552.415	4298.83333
1555.473	4210.5
1558.529	4177.83333
1561.583	4130.5
1564.634	4119.16667
1567.684	4126.16667
1570.731	4156.16667
1573.776	4204.83333
1576.819	4265.5
1579.859	4323.83333
1582.898	4373.83333
1585.934	4422.5
1588.968	4414.5
1591.999	4418.16667
1595.029	4418.5
1598.056	4455.83333
1601.081	4433.16667
1604.104	4446.16667
1607.125	4410.5
1610.144	4275.5
1613.16	4157.16667
1616.174	4088.16667
1619.186	3983.16667
1622.196	3859.83333
1625.203	3734.16667
1628.209	3648.5
1631.212	3566.16667
1634.213	3543.83333
1637.212	3478.83333
1640.209	3394.83333
1643.203	3302.5
1646.196	3175.16667
1649.186	3059.5
1652.174	2968.83333
1655.16	2854.16667
1658.144	2752.83333
1661.125	2643.16667
1664.105	2537.16667
1667.082	2451.83333
1670.057	2292.16667
1673.03	2165.16667
1676.001	2020.83333
1678.97	1889.16667
1681.937	1798.5
1684.901	1693.16667
1687.863	1630.16667
1690.824	1556.16667
1693.782	1522.16667
1696.738	1448.16667
1699.692	1441.16667
1702.643	1374.16667
1705.593	1375.16667
1708.54	1351.5
1711.486	1346.5
1714.429	1312.5
1717.37	1295.16667
1720.309	1270.16667
1723.246	1281.5
1726.181	1236.16667
1729.113	1256.16667
1732.044	1230.83333
1734.972	1216.16667
1737.899	1225.16667
1740.823	1203.5
1743.745	1174.5
1746.665	1157.5
1749.583	1141.5
1752.499	1123.83333
1755.413	1122.5
1758.325	1091.5
1761.235	1084.83333
1764.142	1061.5
1767.048	1040.16667
1769.951	1036.16667
1772.852	1039.83333
1775.752	1032.5
1778.649	1018.5
1781.544	1038.5
1784.437	993.5
1787.328	1005.83333
1790.217	999.83333
1793.104	988.5
1795.989	978.5
1798.872	970.83333
1801.753	984.83333
1804.631	969.83333
1807.508	982.83333
1810.383	968.83333
1813.255	960.16667
1816.126	959.16667
1818.994	963.83333
1821.861	927.16667
1824.725	957.5
1827.587	940.5
1830.448	933.16667
1833.306	913.83333
1836.162	931.16667
1839.017	918.16667
1841.869	915.5
1844.719	905.16667
1847.567	893.5
1850.414	882.16667
1853.258	895.5
1856.1	908.83333
1858.94	902.16667
1861.778	882.83333
1864.614	873.5
1867.448	878.5
1870.28	872.16667
1873.111	891.5
1875.939	869.5
1878.765	898.83333
1881.589	872.16667
1884.411	871.83333
1887.231	874.5
1890.049	863.16667
1892.865	877.16667
1895.68	850.5
1898.492	868.5
1901.302	860.5
1904.11	842.5
1906.916	842.16667
1909.721	833.83333
1912.523	833.16667
1915.323	821.5
1918.122	836.83333
1920.918	837.83333
1923.712	824.5
1926.505	825.5
1929.295	817.5
1932.084	838.5
1934.87	823.5
1937.655	823.83333
1940.438	823.16667
1943.218	820.16667
1945.997	814.83333
1948.774	821.5
1951.549	822.16667
1954.322	804.83333
1957.093	802.16667
1959.862	797.83333
1962.629	790.16667
1965.394	785.16667
1968.157	777.16667
1970.918	788.83333
1973.678	772.83333
1976.435	790.5
1979.19	773.5
1981.944	761.16667
1984.696	771.83333
1987.445	759.16667
1990.193	760.83333
1992.939	773.5
1995.683	758.83333
1998.425	752.5
2001.165	780.16667
2003.903	751.83333
2006.639	743.5
2009.374	768.5
2012.106	748.16667
2014.837	733.16667
2017.566	752.83333
2020.292	747.5
2023.017	753.83333
2025.74	736.16667
2028.461	732.5
2031.18	739.5
2033.898	732.16667
2036.613	724.5
2039.327	737.5
2042.038	726.5
2044.748	720.16667
2047.456	729.5
2050.162	712.83333
2052.866	718.16667
2055.568	725.16667
2058.268	702.5
2060.967	723.5
2063.663	697.5
2066.358	700.83333
2069.051	707.16667
2071.742	703.16667
2074.431	706.5
2077.118	702.16667
2079.804	687.16667
2082.487	706.16667
2085.169	707.5
2087.849	728.83333
2090.527	694.5
2093.203	694.5
2095.877	712.5
2098.55	720.83333
2101.22	718.83333
2103.889	721.5
2106.556	723.83333
2109.221	743.5
2111.884	754.5
2114.546	819.16667
2117.205	867.5
2119.863	945.83333
2122.519	999.16667
2125.173	1058.5
2127.825	1116.16667
2130.475	1111.5
2133.124	1075.83333
2135.771	1026.16667
2138.416	982.83333
2141.059	915.5
2143.7	870.83333
2146.339	822.16667
2148.977	769.83333
2151.613	768.16667
2154.247	724.83333
2156.879	719.83333
2159.51	701.5
2162.138	686.5
2164.765	683.5
2167.39	663.83333
2170.013	692.16667
2172.634	682.16667
2175.254	664.16667
2177.872	689.5
2180.488	651.83333
2183.102	666.5
2185.714	651.83333
2188.325	627.83333
2190.934	632.83333
2193.541	645.83333
2196.146	640.83333
2198.75	617.16667
2201.351	621.16667
2203.951	615.16667
2206.549	628.83333
2209.146	618.16667
2211.74	609.16667
2214.333	609.83333
2216.924	583.16667
2219.514	601.16667
2222.101	579.5
2224.687	612.5
2227.271	588.16667
2229.853	594.83333
2232.433	573.5
2235.012	589.5
2237.589	580.83333
2240.164	595.16667
2242.738	582.83333
2245.309	566.5
2247.879	571.16667
2250.448	568.83333
2253.014	551.16667
2255.579	532.16667
2258.142	541.83333
2260.703	541.16667
2263.262	545.16667
2265.82	532.83333
2268.376	540.83333
2270.93	524.83333
2273.483	520.83333
2276.033	528.83333
2278.583	514.16667
2281.13	522.5
2283.675	514.16667
2286.219	508.83333
2288.761	510.5
2291.302	512.83333
2293.841	527.83333
2296.377	501.5
2298.913	503.83333
2301.446	522.5
2303.978	515.16667
2306.508	502.83333
2309.037	501.16667
2311.563	502.5
2314.088	504.83333
2316.612	491.5
2319.133	481.16667
2321.653	500.83333
2324.171	475.16667
2326.688	494.83333
2329.202	484.83333
2331.715	484.5
2334.227	476.16667
2336.736	485.16667
2339.244	473.5
2341.751	472.5
2344.255	484.5
2346.758	472.5
2349.259	462.83333
2351.759	469.16667
2354.257	462.5
2356.753	464.83333
2359.247	461.83333
2361.74	477.83333
2364.231	456.5
2366.721	467.83333
2369.209	453.16667
2371.695	464.5
2374.179	456.5
2376.662	448.83333
2379.143	465.83333
2381.622	454.16667
2384.1	459.5
2386.576	447.83333
2389.051	462.16667
2391.524	469.16667
2393.995	462.83333
2396.464	445.5
2398.932	449.16667
2401.398	437.16667
2403.863	435.83333
2406.325	441.83333
2408.787	440.16667
2411.246	446.16667
2413.704	445.16667
2416.16	447.83333
2418.615	430.5
2421.068	446.16667
2423.519	444.83333
2425.969	428.16667
2428.417	437.5
2430.863	456.16667
2433.308	439.5
2435.751	427.16667
2438.193	426.16667
2440.633	434.83333
2443.071	433.83333
2445.508	424.83333
2447.943	424.16667
2450.376	419.16667
2452.808	420.83333
2455.238	413.5
2457.667	453.5
2460.093	421.5
2462.519	409.83333
2464.942	413.5
2467.365	425.16667
2469.785	418.16667
2472.204	414.5
2474.621	411.16667
2477.037	434.16667
2479.451	398.5
2481.863	395.16667
2484.274	407.83333
2486.683	409.16667
2489.091	412.16667
2491.497	411.16667
2493.901	409.83333
2496.304	396.83333
2498.705	413.5
2501.105	404.83333
2503.503	421.83333
2505.899	397.83333
2508.294	416.16667
2510.687	400.16667
2513.079	399.16667
2515.469	395.16667
2517.858	397.5
2520.245	408.83333
2522.63	389.5
2525.014	377.83333
2527.396	393.16667
2529.776	377.5
2532.156	399.83333
2534.533	382.83333
2536.909	384.83333
2539.283	374.83333
2541.656	374.5
2544.027	409.83333
2546.397	379.16667
2548.765	378.83333
2551.131	380.5
2553.496	378.83333
2555.86	382.5
2558.221	389.83333
2560.582	377.83333
2562.94	366.5
2565.298	380.83333
2567.653	389.5
2570.007	367.16667
2572.36	387.16667
2574.711	375.83333
2577.06	384.16667
2579.408	378.16667
2581.754	375.83333
2584.099	387.83333
2586.442	369.83333
2588.784	374.83333
2591.124	369.83333
2593.463	372.5
2595.8	373.5
2598.135	360.16667
2600.469	369.16667
2602.802	370.83333
2605.133	378.83333
2607.462	361.83333
2609.79	359.83333
2612.116	379.5
2614.441	373.83333
2616.764	371.5
2619.086	364.5
2621.406	349.16667
2623.725	383.16667
2626.042	373.5
2628.358	364.83333
2630.672	357.83333
2632.985	382.83333
2635.296	367.83333
2637.606	371.16667
2639.914	362.83333
2642.22	364.5
2644.525	365.16667
2646.829	368.83333
2649.131	377.5
2651.432	377.5
2653.731	373.83333
2656.028	374.5
2658.324	383.16667
2660.619	370.5
2662.912	385.5
2665.204	359.5
2667.494	377.83333
2669.782	362.5
2672.07	369.16667
2674.355	385.5
2676.639	369.5
2678.922	356.16667
2681.203	369.16667
2683.483	355.5
2685.761	365.83333
2688.038	374.83333
2690.313	388.16667
2692.587	368.5
2694.859	366.5
2697.13	373.16667
2699.399	377.16667
2701.667	395.16667
2703.933	382.16667
2706.198	394.83333
2708.461	394.83333
2710.723	391.5
2712.984	388.5
2715.243	386.83333
2717.5	382.16667
2719.757	405.16667
2722.011	392.83333
2724.264	407.16667
2726.516	402.16667
2728.766	398.16667
2731.015	404.5
2733.262	401.83333
2735.508	399.5
2737.753	402.5
2739.996	386.5
2742.237	389.5
2744.477	398.16667
2746.716	393.83333
2748.953	392.83333
2751.189	389.16667
2753.423	375.16667
2755.656	375.16667
2757.887	373.16667
2760.117	376.16667
2762.346	365.83333
2764.573	354.5
2766.798	367.16667
2769.022	381.5
2771.245	377.5
2773.467	375.16667
2775.686	382.16667
2777.905	382.16667
2780.122	386.16667
2782.337	394.16667
2784.552	385.16667
2786.764	388.5
2788.976	389.16667
2791.186	389.16667
2793.394	392.83333
2795.601	404.5
2797.807	419.83333
2800.011	428.16667
2802.214	429.5
2804.415	419.5
2806.615	427.16667
2808.814	426.83333
2811.011	437.16667
2813.206	441.83333
2815.401	458.16667
2817.594	459.16667
2819.785	466.16667
2821.975	456.83333
2824.164	468.83333
2826.351	480.83333
2828.537	496.83333
2830.722	500.5
2832.905	512.16667
2835.086	539.16667
2837.267	573.5
2839.445	585.5
2841.623	596.83333
2843.799	627.5
2845.974	651.5
2848.147	685.5
2850.319	713.16667
2852.489	735.5
2854.659	760.16667
2856.826	762.5
2858.993	790.16667
2861.158	778.5
2863.321	782.83333
2865.483	794.16667
2867.644	796.5
2869.804	786.16667
2871.962	798.5
2874.118	798.16667
2876.274	788.5
2878.428	795.16667
2880.58	781.83333
2882.731	780.5
2884.881	791.83333
2887.03	788.5
2889.177	788.83333
2891.322	807.5
2893.467	807.5
2895.61	804.5
2897.751	830.83333
2899.892	821.16667
2902.03	814.83333
2904.168	835.83333
2906.304	830.5
2908.439	854.16667
2910.572	845.5
2912.704	853.83333
2914.835	851.16667
2916.965	856.16667
2919.093	873.5
2921.219	840.16667
2923.345	861.83333
2925.469	836.5
2927.591	830.16667
2929.712	801.16667
2931.832	800.16667
2933.951	781.16667
2936.068	762.16667
2938.184	743.83333
2940.299	724.83333
2942.412	711.5
2944.524	673.5
2946.634	670.83333
2948.744	623.5
2950.851	629.16667
2952.958	609.83333
2955.063	593.83333
2957.167	596.83333
2959.269	559.5
2961.371	577.83333
2963.471	547.83333
2965.569	555.16667
2967.666	513.16667
2969.762	517.83333
2971.857	506.5
2973.95	498.83333
2976.042	490.16667
2978.133	473.16667
2980.222	460.5
2982.31	438.16667
2984.396	425.83333
2986.482	419.83333
2988.566	406.5
2990.648	407.83333
2992.73	398.5
2994.81	386.16667
2996.889	386.5
2998.966	381.83333
3001.042	388.5
3003.117	375.83333
3005.191	371.16667
3007.263	369.5
3009.334	356.16667
3011.403	367.5
3013.472	345.83333
3015.539	356.16667
3017.604	363.5
3019.669	324.16667
3021.732	328.5
3023.794	324.83333
3025.854	322.16667
3027.914	315.16667
3029.971	325.5
3032.028	314.83333
3034.083	310.16667
3036.137	312.16667
3038.19	295.5
3040.242	292.16667
3042.292	280.83333
3044.341	284.83333
3046.388	291.5
3048.435	267.16667
3050.48	291.5
3052.524	278.83333
3054.566	261.16667
3056.607	279.5
3058.647	259.83333
3060.686	254.5
3062.723	238.16667
3064.759	237.83333
3066.794	-3.16667
3068.828	4.16667
3070.86	3.16667
