-0.839	543.625
3.438	643.625
7.711	196.95833
11.981	62.29167
16.247	43.625
20.509	50.625
24.768	44.29167
29.024	52.29167
33.276	41.29167
37.524	49.625
41.769	44.95833
46.01	33.95833
50.247	45.625
54.481	59.95833
58.712	62.625
62.939	45.625
67.162	65.29167
71.382	57.95833
75.599	46.95833
79.812	60.95833
84.021	80.95833
88.227	58.625
92.429	54.625
96.628	48.29167
100.823	68.625
105.015	74.95833
109.204	64.95833
113.388	73.29167
117.57	70.29167
121.748	82.29167
125.922	74.625
130.093	92.29167
134.261	92.95833
138.425	91.29167
142.585	129.29167
146.742	123.625
150.896	151.95833
155.046	192.29167
159.193	296.95833
163.336	508.29167
167.476	917.625
171.613	1664.625
175.746	2757.95833
179.875	4059.29167
184.002	5234.625
188.124	6059.95833
192.244	6279.95833
196.36	6184.625
200.472	5947.29167
204.581	5731.29167
208.687	5533.95833
212.79	5426.95833
216.889	5369.625
220.984	5322.95833
225.077	5261.625
229.165	5239.625
233.251	5178.95833
237.333	5130.625
241.412	5034.29167
245.487	4961.625
249.559	4867.95833
253.628	4836.95833
257.694	4773.29167
261.756	4713.95833
265.814	4634.29167
269.87	4485.95833
273.922	4364.29167
277.97	4312.95833
282.016	4301.625
286.058	4299.29167
290.097	4391.29167
294.132	4431.29167
298.164	4396.95833
302.193	4203.625
306.219	3918.29167
310.241	3633.95833
314.26	3366.95833
318.276	3170.625
322.288	3028.29167
326.297	2901.625
330.303	2809.29167
334.305	2753.95833
338.305	2685.29167
342.301	2667.625
346.294	2649.625
350.283	2640.95833
354.269	2608.625
358.252	2591.29167
362.232	2588.95833
366.209	2592.29167
370.182	2539.95833
374.152	2530.29167
378.119	2540.95833
382.083	2529.95833
386.043	2535.29167
390	2515.29167
393.954	2529.95833
397.905	2506.29167
401.852	2489.29167
405.797	2456.625
409.738	2450.625
413.676	2447.95833
417.61	2457.29167
421.542	2449.29167
425.47	2427.625
429.396	2400.95833
433.318	2394.95833
437.236	2365.625
441.152	2400.95833
445.065	2367.29167
448.974	2341.95833
452.88	2331.29167
456.783	2327.29167
460.683	2302.95833
464.58	2311.95833
468.473	2320.625
472.364	2318.29167
476.251	2357.625
480.135	2351.95833
484.016	2389.625
487.894	2414.29167
491.769	2434.29167
495.641	2466.625
499.509	2478.95833
503.375	2490.625
507.237	2491.625
511.096	2536.625
514.952	2725.29167
518.805	2956.625
522.655	3018.95833
526.502	2711.95833
530.346	2472.625
534.187	2425.95833
538.024	2420.29167
541.859	2430.625
545.69	2436.95833
549.519	2392.29167
553.344	2402.625
557.166	2359.29167
560.985	2323.95833
564.802	2271.29167
568.615	2261.625
572.425	2216.625
576.232	2241.625
580.036	2226.95833
583.836	2241.625
587.634	2240.625
591.429	2240.625
595.221	2279.95833
599.01	2309.29167
602.796	2314.95833
606.578	2346.29167
610.358	2320.29167
614.135	2310.29167
617.909	2300.95833
621.679	2276.625
625.447	2264.95833
629.212	2258.29167
632.973	2279.29167
636.732	2261.95833
640.488	2246.625
644.241	2228.625
647.991	2256.29167
651.737	2249.625
655.481	2220.95833
659.222	2217.95833
662.96	2222.29167
666.695	2243.95833
670.427	2260.625
674.156	2286.95833
677.882	2260.29167
681.605	2249.625
685.325	2243.29167
689.043	2233.625
692.757	2210.95833
696.468	2209.625
700.177	2196.625
703.882	2178.29167
707.585	2171.29167
711.284	2163.29167
714.981	2171.95833
718.675	2162.95833
722.366	2179.95833
726.054	2146.29167
729.739	2173.29167
733.421	2155.95833
737.1	2138.29167
740.777	2176.29167
744.45	2186.29167
748.121	2186.625
751.789	2241.29167
755.453	2236.29167
759.115	2246.29167
762.774	2260.625
766.431	2254.625
770.084	2285.95833
773.734	2310.95833
777.382	2346.95833
781.027	2362.29167
784.669	2354.95833
788.308	2367.625
791.944	2388.29167
795.577	2397.625
799.208	2422.625
802.835	2404.95833
806.46	2400.95833
810.082	2431.29167
813.701	2452.29167
817.317	2445.625
820.931	2450.29167
824.542	2443.95833
828.149	2414.95833
831.754	2393.29167
835.357	2376.625
838.956	2421.95833
842.553	2418.95833
846.146	2394.625
849.737	2369.625
853.326	2380.625
856.911	2380.625
860.493	2401.625
864.073	2416.625
867.65	2451.29167
871.225	2474.625
874.796	2477.29167
878.365	2498.95833
881.931	2525.95833
885.494	2575.625
889.054	2630.29167
892.612	2660.29167
896.166	2722.95833
899.719	2709.95833
903.268	2633.95833
906.814	2569.95833
910.358	2493.95833
913.899	2436.29167
917.438	2406.29167
920.973	2391.625
924.506	2432.29167
928.036	2461.95833
931.564	2481.29167
935.088	2505.95833
938.61	2541.29167
942.129	2564.625
945.646	2607.625
949.16	2632.29167
952.671	2673.29167
956.179	2677.625
959.685	2626.95833
963.188	2616.29167
966.688	2576.29167
970.185	2494.625
973.68	2461.625
977.173	2430.95833
980.662	2403.29167
984.149	2410.625
987.633	2376.29167
991.114	2404.29167
994.593	2463.95833
998.069	2520.95833
1001.542	2573.29167
1005.013	2529.29167
1008.481	2411.29167
1011.947	2402.625
1015.409	2348.95833
1018.869	2369.625
1022.327	2397.95833
1025.782	2368.95833
1029.234	2386.29167
1032.683	2335.625
1036.13	2293.29167
1039.574	2202.29167
1043.016	2128.95833
1046.455	2084.95833
1049.891	2062.625
1053.325	2076.29167
1056.756	2040.625
1060.184	2078.95833
1063.61	2071.29167
1067.033	2099.625
1070.454	2081.625
1073.872	2118.95833
1077.287	2106.29167
1080.7	2114.29167
1084.11	2114.625
1087.517	2115.29167
1090.922	2064.95833
1094.325	2081.625
1097.724	2048.29167
1101.122	2037.95833
1104.516	2035.95833
1107.908	2057.625
1111.298	2081.625
1114.684	2100.95833
1118.069	2130.95833
1121.45	2165.29167
1124.83	2154.29167
1128.206	2170.29167
1131.58	2204.95833
1134.951	2249.625
1138.32	2318.625
1141.687	2396.95833
1145.05	2432.625
1148.412	2440.29167
1151.77	2410.95833
1155.126	2411.95833
1158.48	2376.29167
1161.831	2401.95833
1165.18	2410.29167
1168.525	2438.625
1171.869	2481.95833
1175.21	2468.29167
1178.548	2496.625
1181.884	2531.95833
1185.217	2546.29167
1188.548	2622.625
1191.877	2650.29167
1195.202	2715.625
1198.526	2795.29167
1201.846	2819.625
1205.165	2820.625
1208.48	2823.625
1211.794	2804.29167
1215.104	2817.29167
1218.413	2796.95833
1221.719	2821.625
1225.022	2774.625
1228.323	2710.95833
1231.621	2716.95833
1234.917	2663.625
1238.21	2700.29167
1241.501	2676.29167
1244.79	2657.625
1248.076	2673.29167
1251.359	2698.625
1254.64	2772.625
1257.919	2776.625
1261.195	2801.625
1264.468	2829.29167
1267.74	2905.95833
1271.008	2879.29167
1274.275	2887.95833
1277.538	2862.95833
1280.8	2868.29167
1284.059	2831.29167
1287.315	2892.625
1290.569	2912.29167
1293.821	2935.625
1297.07	2966.29167
1300.317	2943.95833
1303.562	2961.95833
1306.803	2931.95833
1310.043	2945.29167
1313.28	2919.95833
1316.515	2916.95833
1319.747	2902.625
1322.977	2892.625
1326.204	2889.29167
1329.429	2869.95833
1332.652	2878.625
1335.872	2841.95833
1339.09	2792.625
1342.306	2755.29167
1345.519	2680.29167
1348.729	2621.95833
1351.938	2613.29167
1355.144	2573.95833
1358.347	2538.29167
1361.548	2522.29167
1364.747	2517.29167
1367.944	2466.29167
1371.138	2494.95833
1374.329	2504.625
1377.518	2532.625
1380.705	2555.625
1383.89	2529.95833
1387.072	2455.625
1390.252	2382.95833
1393.429	2315.29167
1396.605	2261.29167
1399.777	2224.95833
1402.948	2234.95833
1406.116	2240.95833
1409.282	2266.625
1412.445	2260.29167
1415.606	2290.95833
1418.765	2322.625
1421.921	2324.625
1425.075	2335.95833
1428.227	2393.95833
1431.376	2466.29167
1434.524	2564.95833
1437.668	2615.625
1440.811	2652.625
1443.951	2676.95833
1447.089	2721.29167
1450.224	2702.29167
1453.357	2639.29167
1456.488	2607.625
1459.617	2572.625
1462.743	2524.625
1465.867	2450.95833
1468.989	2415.625
1472.108	2373.95833
1475.225	2342.625
1478.34	2303.625
1481.453	2299.625
1484.563	2277.29167
1487.671	2303.625
1490.776	2342.625
1493.88	2388.29167
1496.981	2399.95833
1500.08	2438.29167
1503.176	2484.95833
1506.271	2516.29167
1509.363	2540.625
1512.452	2555.95833
1515.54	2590.625
1518.625	2594.625
1521.708	2699.95833
1524.789	2726.625
1527.867	2851.29167
1530.944	2991.29167
1534.018	3078.29167
1537.089	3226.625
1540.159	3265.29167
1543.226	3303.29167
1546.291	3229.29167
1549.354	3135.625
1552.415	3106.625
1555.473	3021.95833
1558.529	2988.29167
1561.583	2930.625
1564.634	2925.95833
1567.684	2934.625
1570.731	2929.625
1573.776	2962.29167
1576.819	2981.625
1579.859	3008.625
1582.898	3035.29167
1585.934	3070.95833
1588.968	3076.625
1591.999	3101.95833
1595.029	3105.625
1598.056	3126.29167
1601.081	3160.95833
1604.104	3119.29167
1607.125	3127.95833
1610.144	3052.625
1613.16	2948.29167
1616.174	2919.625
1619.186	2855.29167
1622.196	2764.95833
1625.203	2731.625
1628.209	2691.29167
1631.212	2662.95833
1634.213	2653.95833
1637.212	2642.95833
1640.209	2593.95833
1643.203	2509.29167
1646.196	2430.95833
1649.186	2344.95833
1652.174	2281.95833
1655.16	2205.29167
1658.144	2139.29167
1661.125	2058.29167
1664.105	1971.95833
1667.082	1905.625
1670.057	1825.625
1673.03	1698.29167
1676.001	1591.29167
1678.97	1507.95833
1681.937	1415.29167
1684.901	1354.95833
1687.863	1310.29167
1690.824	1248.95833
1693.782	1222.625
1696.738	1182.625
1699.692	1159.95833
1702.643	1130.95833
1705.593	1107.625
1708.54	1111.95833
1711.486	1112.625
1714.429	1055.95833
1717.37	1062.95833
1720.309	1042.29167
1723.246	1048.29167
1726.181	1031.625
1729.113	1034.29167
1732.044	1010.29167
1734.972	1011.95833
1737.899	1015.29167
1740.823	1010.29167
1743.745	972.625
1746.665	961.95833
1749.583	947.29167
1752.499	935.625
1755.413	942.95833
1758.325	917.29167
1761.235	906.95833
1764.142	904.95833
1767.048	894.29167
1769.951	883.625
1772.852	880.95833
1775.752	871.95833
1778.649	877.95833
1781.544	874.95833
1784.437	842.625
1787.328	875.625
1790.217	852.95833
1793.104	837.625
1795.989	839.95833
1798.872	834.95833
1801.753	856.95833
1804.631	846.29167
1807.508	852.625
1810.383	844.95833
1813.255	838.29167
1816.126	841.625
1818.994	830.29167
1821.861	834.29167
1824.725	822.95833
1827.587	827.95833
1830.448	816.625
1833.306	801.625
1836.162	822.625
1839.017	813.625
1841.869	805.29167
1844.719	802.29167
1847.567	796.625
1850.414	790.95833
1853.258	799.625
1856.1	796.95833
1858.94	803.95833
1861.778	785.29167
1864.614	789.95833
1867.448	784.29167
1870.28	781.625
1873.111	811.625
1875.939	792.95833
1878.765	817.625
1881.589	788.95833
1884.411	786.29167
1887.231	796.29167
1890.049	789.29167
1892.865	793.29167
1895.68	781.625
1898.492	786.625
1901.302	769.625
1904.11	780.95833
1906.916	760.29167
1909.721	761.95833
1912.523	768.95833
1915.323	755.29167
1918.122	757.95833
1920.918	771.29167
1923.712	755.95833
1926.505	764.95833
1929.295	748.29167
1932.084	790.29167
1934.87	767.29167
1937.655	762.95833
1940.438	763.95833
1943.218	749.625
1945.997	778.29167
1948.774	769.625
1951.549	763.95833
1954.322	760.95833
1957.093	763.29167
1959.862	750.29167
1962.629	748.95833
1965.394	751.29167
1968.157	752.95833
1970.918	754.95833
1973.678	727.29167
1976.435	758.29167
1979.19	746.95833
1981.944	748.29167
1984.696	740.625
1987.445	738.625
1990.193	742.95833
1992.939	765.29167
1995.683	744.29167
1998.425	724.625
2001.165	759.95833
2003.903	726.95833
2006.639	737.625
2009.374	739.29167
2012.106	751.29167
2014.837	716.625
2017.566	747.95833
2020.292	741.625
2023.017	740.95833
2025.74	744.95833
2028.461	731.29167
2031.18	742.95833
2033.898	727.95833
2036.613	744.95833
2039.327	734.95833
2042.038	726.95833
2044.748	728.625
2047.456	731.95833
2050.162	729.29167
2052.866	719.95833
2055.568	747.29167
2058.268	729.95833
2060.967	735.95833
2063.663	722.625
2066.358	734.95833
2069.051	720.29167
2071.742	737.29167
2074.431	740.625
2077.118	739.95833
2079.804	725.625
2082.487	728.95833
2085.169	749.29167
2087.849	760.625
2090.527	724.29167
2093.203	760.625
2095.877	751.29167
2098.55	765.625
2101.22	777.29167
2103.889	776.29167
2106.556	779.625
2109.221	798.625
2111.884	806.625
2114.546	872.625
2117.205	904.95833
2119.863	971.29167
2122.519	1001.95833
2125.173	1051.29167
2127.825	1094.29167
2130.475	1096.29167
2133.124	1059.29167
2135.771	1013.29167
2138.416	985.625
2141.059	923.625
2143.7	898.95833
2146.339	857.95833
2148.977	831.29167
2151.613	816.95833
2154.247	805.625
2156.879	800.95833
2159.51	784.625
2162.138	771.95833
2164.765	772.625
2167.39	755.95833
2170.013	779.29167
2172.634	778.625
2175.254	762.625
2177.872	792.95833
2180.488	753.29167
2183.102	748.29167
2185.714	751.29167
2188.325	731.29167
2190.934	746.29167
2193.541	751.625
2196.146	741.625
2198.75	724.95833
2201.351	738.625
2203.951	736.625
2206.549	744.29167
2209.146	736.625
2211.74	726.95833
2214.333	742.625
2216.924	715.29167
2219.514	729.625
2222.101	737.95833
2224.687	743.625
2227.271	733.625
2229.853	722.625
2232.433	722.29167
2235.012	739.625
2237.589	739.29167
2240.164	743.625
2242.738	741.29167
2245.309	735.95833
2247.879	748.625
2250.448	753.95833
2253.014	723.29167
2255.579	710.95833
2258.142	726.625
2260.703	719.95833
2263.262	726.29167
2265.82	713.29167
2268.376	731.95833
2270.93	721.29167
2273.483	719.29167
2276.033	733.29167
2278.583	722.95833
2281.13	745.29167
2283.675	724.95833
2286.219	718.29167
2288.761	730.95833
2291.302	735.29167
2293.841	757.95833
2296.377	726.625
2298.913	729.625
2301.446	745.29167
2303.978	736.625
2306.508	735.29167
2309.037	742.625
2311.563	751.625
2314.088	747.625
2316.612	727.29167
2319.133	749.625
2321.653	739.29167
2324.171	737.29167
2326.688	756.29167
2329.202	753.625
2331.715	744.95833
2334.227	739.29167
2336.736	747.625
2339.244	744.95833
2341.751	731.95833
2344.255	753.29167
2346.758	754.625
2349.259	743.95833
2351.759	771.29167
2354.257	759.95833
2356.753	750.29167
2359.247	753.95833
2361.74	767.95833
2364.231	778.95833
2366.721	762.29167
2369.209	755.95833
2371.695	772.29167
2374.179	758.625
2376.662	771.29167
2379.143	781.625
2381.622	768.29167
2384.1	788.95833
2386.576	777.625
2389.051	794.95833
2391.524	796.95833
2393.995	802.29167
2396.464	781.95833
2398.932	784.29167
2401.398	784.29167
2403.863	790.625
2406.325	783.625
2408.787	789.29167
2411.246	798.95833
2413.704	790.29167
2416.16	814.29167
2418.615	795.625
2421.068	817.29167
2423.519	813.625
2425.969	801.625
2428.417	810.95833
2430.863	835.29167
2433.308	834.29167
2435.751	819.29167
2438.193	816.625
2440.633	827.625
2443.071	823.29167
2445.508	827.29167
2447.943	822.625
2450.376	818.29167
2452.808	831.95833
2455.238	832.29167
2457.667	875.29167
2460.093	836.95833
2462.519	831.29167
2464.942	848.625
2467.365	853.625
2469.785	863.95833
2472.204	847.625
2474.621	846.29167
2477.037	885.625
2479.451	852.625
2481.863	841.625
2484.274	868.95833
2486.683	849.29167
2489.091	869.29167
2491.497	875.29167
2493.901	878.95833
2496.304	876.95833
2498.705	889.29167
2501.105	886.29167
2503.503	908.625
2505.899	871.29167
2508.294	913.95833
2510.687	902.29167
2513.079	899.29167
2515.469	883.95833
2517.858	896.95833
2520.245	907.95833
2522.63	890.625
2525.014	896.29167
2527.396	902.29167
2529.776	904.29167
2532.156	912.95833
2534.533	908.95833
2536.909	914.95833
2539.283	900.95833
2541.656	921.29167
2544.027	940.625
2546.397	923.29167
2548.765	909.95833
2551.131	933.625
2553.496	936.625
2555.86	946.625
2558.221	938.625
2560.582	932.625
2562.94	940.625
2565.298	954.29167
2567.653	965.95833
2570.007	946.95833
2572.36	956.95833
2574.711	955.29167
2577.06	973.95833
2579.408	974.625
2581.754	968.95833
2584.099	977.29167
2586.442	982.95833
2588.784	977.95833
2591.124	986.625
2593.463	995.625
2595.8	1006.625
2598.135	982.95833
2600.469	980.625
2602.802	1010.625
2605.133	1001.29167
2607.462	994.29167
2609.79	990.29167
2612.116	1005.95833
2614.441	1021.625
2616.764	1022.625
2619.086	1008.95833
2621.406	1028.29167
2623.725	1045.625
2626.042	1052.625
2628.358	1022.95833
2630.672	1040.625
2632.985	1057.95833
2635.296	1058.95833
2637.606	1059.625
2639.914	1047.95833
2642.22	1071.95833
2644.525	1062.625
2646.829	1077.95833
2649.131	1102.95833
2651.432	1104.95833
2653.731	1091.29167
2656.028	1114.29167
2658.324	1126.625
2660.619	1096.95833
2662.912	1107.625
2665.204	1112.29167
2667.494	1123.625
2669.782	1106.625
2672.07	1127.95833
2674.355	1128.29167
2676.639	1126.29167
2678.922	1113.29167
2681.203	1132.29167
2683.483	1116.625
2685.761	1131.95833
2688.038	1146.95833
2690.313	1167.95833
2692.587	1145.95833
2694.859	1146.29167
2697.13	1156.95833
2699.399	1162.29167
2701.667	1171.625
2703.933	1175.95833
2706.198	1173.29167
2708.461	1185.95833
2710.723	1192.29167
2712.984	1199.625
2715.243	1192.29167
2717.5	1207.29167
2719.757	1221.29167
2722.011	1215.95833
2724.264	1224.625
2726.516	1251.95833
2728.766	1225.29167
2731.015	1246.625
2733.262	1253.95833
2735.508	1248.29167
2737.753	1250.29167
2739.996	1242.625
2742.237	1245.95833
2744.477	1259.95833
2746.716	1260.625
2748.953	1249.625
2751.189	1260.95833
2753.423	1232.29167
2755.656	1231.29167
2757.887	1226.29167
2760.117	1249.95833
2762.346	1233.95833
2764.573	1248.29167
2766.798	1243.95833
2769.022	1242.625
2771.245	1262.95833
2773.467	1264.625
2775.686	1279.625
2777.905	1261.95833
2780.122	1283.95833
2782.337	1295.625
2784.552	1281.95833
2786.764	1296.625
2788.976	1296.29167
2791.186	1311.29167
2793.394	1318.625
2795.601	1329.95833
2797.807	1347.625
2800.011	1362.625
2802.214	1364.625
2804.415	1366.95833
2806.615	1355.29167
2808.814	1357.95833
2811.011	1378.29167
2813.206	1386.95833
2815.401	1379.95833
2817.594	1376.95833
2819.785	1403.625
2821.975	1396.625
2824.164	1409.29167
2826.351	1414.625
2828.537	1428.95833
2830.722	1431.95833
2832.905	1438.95833
2835.086	1485.29167
2837.267	1490.95833
2839.445	1503.95833
2841.623	1533.95833
2843.799	1529.29167
2845.974	1568.95833
2848.147	1595.95833
2850.319	1619.29167
2852.489	1638.29167
2854.659	1648.29167
2856.826	1657.625
2858.993	1701.625
2861.158	1693.95833
2863.321	1690.29167
2865.483	1698.625
2867.644	1702.95833
2869.804	1686.95833
2871.962	1695.95833
2874.118	1691.29167
2876.274	1677.625
2878.428	1687.95833
2880.58	1676.95833
2882.731	1664.95833
2884.881	1676.95833
2887.03	1682.29167
2889.177	1659.29167
2891.322	1693.95833
2893.467	1662.625
2895.61	1705.29167
2897.751	1727.29167
2899.892	1722.95833
2902.03	1720.29167
2904.168	1731.95833
2906.304	1719.29167
2908.439	1768.625
2910.572	1750.29167
2912.704	1766.95833
2914.835	1782.625
2916.965	1778.625
2919.093	1787.29167
2921.219	1756.95833
2923.345	1789.95833
2925.469	1758.29167
2927.591	1757.95833
2929.712	1749.625
2931.832	1724.625
2933.951	1698.95833
2936.068	1691.625
2938.184	1678.625
2940.299	1665.95833
2942.412	1651.95833
2944.524	1619.29167
2946.634	1636.95833
2948.744	1597.625
2950.851	1630.95833
2952.958	1591.95833
2955.063	1612.29167
2957.167	1612.95833
2959.269	1590.29167
2961.371	1623.625
2963.471	1584.95833
2965.569	1613.29167
2967.666	1574.625
2969.762	1602.95833
2971.857	1569.29167
2973.95	1560.625
2976.042	1541.625
2978.133	1531.95833
2980.222	1508.95833
2982.31	1489.625
2984.396	1478.95833
2986.482	1459.625
2988.566	1453.625
2990.648	1444.29167
2992.73	1428.95833
2994.81	1444.95833
2996.889	1455.625
2998.966	1441.625
3001.042	1463.95833
3003.117	1448.29167
3005.191	1448.29167
3007.263	1441.29167
3009.334	1445.625
3011.403	1424.625
3013.472	1404.29167
3015.539	1393.625
3017.604	1380.29167
3019.669	1370.95833
3021.732	1364.95833
3023.794	1353.625
3025.854	1346.95833
3027.914	1349.625
3029.971	1364.625
3032.028	1344.625
3034.083	1355.29167
3036.137	1342.625
3038.19	1291.95833
3040.242	1266.95833
3042.292	1248.625
3044.341	1245.29167
3046.388	1246.95833
3048.435	1211.29167
3050.48	1218.29167
3052.524	1207.29167
3054.566	1197.95833
3056.607	1204.29167
3058.647	1178.95833
3060.686	1146.95833
3062.723	1108.95833
3064.759	1068.29167
3066.794	0.95833
3068.828	1.95833
3070.86	2.29167
