-0.839	510.375
3.438	591.70833
7.711	179.04167
11.981	59.70833
16.247	45.04167
20.509	51.375
24.768	47.70833
29.024	51.70833
33.276	44.70833
37.524	50.04167
41.769	52.375
46.01	35.04167
50.247	50.375
54.481	60.04167
58.712	64.04167
62.939	49.04167
67.162	63.70833
71.382	59.375
75.599	47.70833
79.812	64.70833
84.021	81.375
88.227	62.70833
92.429	58.04167
96.628	54.375
100.823	72.70833
105.015	76.70833
109.204	71.04167
113.388	71.70833
117.57	76.70833
121.748	86.375
125.922	82.375
130.093	102.04167
134.261	102.04167
138.425	98.04167
142.585	135.70833
146.742	127.04167
150.896	158.04167
155.046	194.70833
159.193	297.04167
163.336	504.375
167.476	914.375
171.613	1693.04167
175.746	2819.375
179.875	4197.70833
184.002	5537.04167
188.124	6465.375
192.244	6807.375
196.36	6775.375
200.472	6609.70833
204.581	6443.70833
208.687	6299.375
212.79	6255.375
216.889	6286.04167
220.984	6253.375
225.077	6313.70833
229.165	6337.70833
233.251	6337.70833
237.333	6332.70833
241.412	6251.04167
245.487	6187.04167
249.559	6117.70833
253.628	6101.375
257.694	6043.375
261.756	6018.04167
265.814	5890.70833
269.87	5712.375
273.922	5539.375
277.97	5480.375
282.016	5466.04167
286.058	5508.375
290.097	5640.375
294.132	5717.375
298.164	5657.04167
302.193	5405.04167
306.219	5010.04167
310.241	4620.375
314.26	4267.04167
318.276	3950.70833
322.288	3778.70833
326.297	3594.04167
330.303	3469.375
334.305	3404.375
338.305	3353.375
342.301	3298.70833
346.294	3277.375
350.283	3255.04167
354.269	3233.70833
358.252	3193.375
362.232	3193.70833
366.209	3169.70833
370.182	3141.375
374.152	3135.375
378.119	3133.04167
382.083	3130.375
386.043	3133.375
390	3101.04167
393.954	3143.70833
397.905	3115.04167
401.852	3106.375
405.797	3077.04167
409.738	3066.04167
413.676	3080.70833
417.61	3062.375
421.542	3028.04167
425.47	3017.04167
429.396	2975.375
433.318	2986.375
437.236	2960.70833
441.152	2989.70833
445.065	2948.375
448.974	2927.70833
452.88	2896.70833
456.783	2903.04167
460.683	2878.70833
464.58	2887.375
468.473	2903.70833
472.364	2922.70833
476.251	2917.04167
480.135	2938.04167
484.016	2986.70833
487.894	2991.70833
491.769	3024.70833
495.641	3014.70833
499.509	3014.70833
503.375	3025.70833
507.237	3006.04167
511.096	2988.70833
514.952	3051.04167
518.805	3109.04167
522.655	3127.70833
526.502	3047.04167
530.346	2993.70833
534.187	3004.04167
538.024	3006.70833
541.859	3033.04167
545.69	3055.70833
549.519	3010.375
553.344	2979.375
557.166	2938.04167
560.985	2916.375
564.802	2858.70833
568.615	2831.04167
572.425	2793.70833
576.232	2780.04167
580.036	2765.70833
583.836	2786.70833
587.634	2786.70833
591.429	2826.70833
595.221	2865.70833
599.01	2890.70833
602.796	2945.04167
606.578	2923.375
610.358	2923.375
614.135	2907.04167
617.909	2878.375
621.679	2868.70833
625.447	2848.04167
629.212	2859.04167
632.973	2857.70833
636.732	2862.04167
640.488	2828.70833
644.241	2818.375
647.991	2813.70833
651.737	2835.04167
655.481	2825.375
659.222	2798.70833
662.96	2785.04167
666.695	2805.70833
670.427	2827.375
674.156	2859.04167
677.882	2837.375
681.605	2813.375
685.325	2779.375
689.043	2801.04167
692.757	2752.375
696.468	2769.04167
700.177	2748.375
703.882	2730.70833
707.585	2742.04167
711.284	2726.375
714.981	2731.70833
718.675	2740.375
722.366	2747.04167
726.054	2721.375
729.739	2727.04167
733.421	2747.04167
737.1	2730.70833
740.777	2764.375
744.45	2788.04167
748.121	2787.04167
751.789	2822.375
755.453	2822.375
759.115	2837.04167
762.774	2837.04167
766.431	2868.70833
770.084	2903.04167
773.734	2904.70833
777.382	2935.375
781.027	2971.70833
784.669	2981.04167
788.308	2981.04167
791.944	3005.70833
795.577	3017.70833
799.208	3044.375
802.835	3051.70833
806.46	3095.70833
810.082	3064.375
813.701	3111.375
817.317	3114.70833
820.931	3112.70833
824.542	3126.04167
828.149	3076.04167
831.754	3049.04167
835.357	3034.04167
838.956	3055.70833
842.553	3044.04167
846.146	3032.70833
849.737	2994.375
853.326	3033.375
856.911	3013.70833
860.493	3034.375
864.073	3055.375
867.65	3106.375
871.225	3132.04167
874.796	3110.04167
878.365	3143.04167
881.931	3113.70833
885.494	3174.70833
889.054	3164.04167
892.612	3166.375
896.166	3142.375
899.719	3128.375
903.268	3058.375
906.814	3065.04167
910.358	3010.70833
913.899	2999.70833
917.438	3018.04167
920.973	3003.04167
924.506	3029.70833
928.036	3092.04167
931.564	3120.04167
935.088	3166.04167
938.61	3150.375
942.129	3219.70833
945.646	3287.70833
949.16	3317.70833
952.671	3383.70833
956.179	3346.70833
959.685	3310.375
963.188	3327.70833
966.688	3289.70833
970.185	3194.375
973.68	3124.70833
977.173	3085.04167
980.662	3045.375
984.149	3015.375
987.633	3026.04167
991.114	3082.70833
994.593	3129.375
998.069	3215.04167
1001.542	3283.70833
1005.013	3234.70833
1008.481	3070.04167
1011.947	3013.04167
1015.409	3004.375
1018.869	2985.04167
1022.327	2977.70833
1025.782	2966.04167
1029.234	2974.04167
1032.683	2930.04167
1036.13	2822.04167
1039.574	2736.375
1043.016	2662.70833
1046.455	2596.375
1049.891	2607.04167
1053.325	2623.70833
1056.756	2614.04167
1060.184	2645.04167
1063.61	2653.04167
1067.033	2645.04167
1070.454	2673.375
1073.872	2685.375
1077.287	2674.70833
1080.7	2680.04167
1084.11	2684.70833
1087.517	2627.04167
1090.922	2609.70833
1094.325	2596.375
1097.724	2554.70833
1101.122	2562.04167
1104.516	2556.375
1107.908	2540.70833
1111.298	2586.04167
1114.684	2628.04167
1118.069	2645.04167
1121.45	2698.70833
1124.83	2674.04167
1128.206	2696.04167
1131.58	2780.375
1134.951	2816.375
1138.32	2885.04167
1141.687	2972.375
1145.05	3046.375
1148.412	3048.04167
1151.77	2997.375
1155.126	3016.70833
1158.48	3010.04167
1161.831	3018.70833
1165.18	3039.70833
1168.525	3070.04167
1171.869	3119.04167
1175.21	3132.04167
1178.548	3157.70833
1181.884	3196.70833
1185.217	3222.04167
1188.548	3297.04167
1191.877	3375.70833
1195.202	3467.375
1198.526	3514.375
1201.846	3522.04167
1205.165	3528.375
1208.48	3529.375
1211.794	3499.375
1215.104	3533.70833
1218.413	3506.375
1221.719	3498.70833
1225.022	3447.70833
1228.323	3403.375
1231.621	3359.70833
1234.917	3355.375
1238.21	3366.70833
1241.501	3347.04167
1244.79	3326.70833
1248.076	3321.375
1251.359	3345.04167
1254.64	3448.70833
1257.919	3460.70833
1261.195	3488.04167
1264.468	3537.70833
1267.74	3574.04167
1271.008	3589.375
1274.275	3565.375
1277.538	3548.70833
1280.8	3554.375
1284.059	3553.04167
1287.315	3593.375
1290.569	3591.04167
1293.821	3617.04167
1297.07	3660.70833
1300.317	3650.70833
1303.562	3668.04167
1306.803	3639.70833
1310.043	3608.375
1313.28	3577.70833
1316.515	3518.04167
1319.747	3524.375
1322.977	3479.70833
1326.204	3441.70833
1329.429	3377.375
1332.652	3389.375
1335.872	3365.04167
1339.09	3306.375
1342.306	3320.04167
1345.519	3259.375
1348.729	3241.04167
1351.938	3226.04167
1355.144	3202.04167
1358.347	3143.375
1361.548	3132.70833
1364.747	3109.375
1367.944	3082.04167
1371.138	3099.04167
1374.329	3110.375
1377.518	3145.04167
1380.705	3155.375
1383.89	3129.375
1387.072	3032.70833
1390.252	2901.375
1393.429	2827.04167
1396.605	2755.04167
1399.777	2683.375
1402.948	2648.04167
1406.116	2612.04167
1409.282	2628.04167
1412.445	2631.375
1415.606	2670.70833
1418.765	2709.70833
1421.921	2726.70833
1425.075	2798.375
1428.227	2886.375
1431.376	3013.375
1434.524	3099.375
1437.668	3176.70833
1440.811	3202.375
1443.951	3234.375
1447.089	3226.375
1450.224	3215.375
1453.357	3216.375
1456.488	3192.70833
1459.617	3141.70833
1462.743	3100.70833
1465.867	2993.70833
1468.989	2969.04167
1472.108	2876.04167
1475.225	2853.375
1478.34	2800.04167
1481.453	2816.04167
1484.563	2825.70833
1487.671	2840.70833
1490.776	2872.70833
1493.88	2934.375
1496.981	2985.04167
1500.08	3021.04167
1503.176	3066.04167
1506.271	3095.70833
1509.363	3125.70833
1512.452	3186.375
1515.54	3232.375
1518.625	3273.70833
1521.708	3322.04167
1524.789	3415.04167
1527.867	3549.70833
1530.944	3714.70833
1534.018	3880.04167
1537.089	4031.04167
1540.159	4055.04167
1543.226	4076.04167
1546.291	4013.70833
1549.354	3929.04167
1552.415	3829.04167
1555.473	3753.375
1558.529	3688.375
1561.583	3635.04167
1564.634	3614.70833
1567.684	3637.70833
1570.731	3616.70833
1573.776	3662.375
1576.819	3690.70833
1579.859	3748.375
1582.898	3798.70833
1585.934	3843.375
1588.968	3855.70833
1591.999	3835.70833
1595.029	3842.04167
1598.056	3841.375
1601.081	3875.375
1604.104	3855.375
1607.125	3832.70833
1610.144	3756.70833
1613.16	3664.04167
1616.174	3589.04167
1619.186	3519.375
1622.196	3409.375
1625.203	3290.70833
1628.209	3260.04167
1631.212	3231.375
1634.213	3184.70833
1637.212	3161.04167
1640.209	3133.375
1643.203	3046.04167
1646.196	2950.04167
1649.186	2849.70833
1652.174	2757.375
1655.16	2671.375
1658.144	2616.375
1661.125	2486.70833
1664.105	2402.70833
1667.082	2292.04167
1670.057	2189.04167
1673.03	2067.04167
1676.001	1929.70833
1678.97	1788.04167
1681.937	1691.04167
1684.901	1596.70833
1687.863	1535.375
1690.824	1481.04167
1693.782	1456.04167
1696.738	1402.70833
1699.692	1386.04167
1702.643	1344.04167
1705.593	1325.375
1708.54	1323.375
1711.486	1303.375
1714.429	1268.04167
1717.37	1272.70833
1720.309	1234.70833
1723.246	1253.04167
1726.181	1214.70833
1729.113	1222.04167
1732.044	1214.375
1734.972	1187.375
1737.899	1215.375
1740.823	1202.04167
1743.745	1151.375
1746.665	1145.70833
1749.583	1137.04167
1752.499	1113.04167
1755.413	1095.70833
1758.325	1080.04167
1761.235	1080.70833
1764.142	1057.04167
1767.048	1037.375
1769.951	1052.04167
1772.852	1050.375
1775.752	1050.70833
1778.649	1046.70833
1781.544	1041.375
1784.437	1003.04167
1787.328	1028.70833
1790.217	1008.375
1793.104	978.70833
1795.989	986.375
1798.872	982.375
1801.753	988.70833
1804.631	990.70833
1807.508	999.375
1810.383	978.375
1813.255	964.70833
1816.126	974.70833
1818.994	969.70833
1821.861	950.375
1824.725	960.04167
1827.587	957.375
1830.448	950.04167
1833.306	918.375
1836.162	937.70833
1839.017	921.04167
1841.869	911.70833
1844.719	916.375
1847.567	895.04167
1850.414	894.70833
1853.258	891.04167
1856.1	914.70833
1858.94	925.04167
1861.778	901.375
1864.614	890.04167
1867.448	908.375
1870.28	893.04167
1873.111	920.04167
1875.939	901.375
1878.765	912.375
1881.589	889.70833
1884.411	894.375
1887.231	885.70833
1890.049	886.70833
1892.865	893.375
1895.68	882.04167
1898.492	897.70833
1901.302	877.375
1904.11	886.375
1906.916	849.04167
1909.721	847.375
1912.523	858.375
1915.323	846.70833
1918.122	842.04167
1920.918	859.375
1923.712	846.375
1926.505	838.04167
1929.295	831.70833
1932.084	837.70833
1934.87	851.70833
1937.655	832.04167
1940.438	829.375
1943.218	830.70833
1945.997	846.70833
1948.774	841.375
1951.549	841.70833
1954.322	821.04167
1957.093	833.70833
1959.862	813.70833
1962.629	809.70833
1965.394	806.375
1968.157	807.04167
1970.918	807.375
1973.678	792.375
1976.435	814.04167
1979.19	779.70833
1981.944	790.04167
1984.696	796.375
1987.445	767.375
1990.193	782.04167
1992.939	799.04167
1995.683	790.70833
1998.425	770.70833
2001.165	800.70833
2003.903	782.375
2006.639	778.04167
2009.374	782.70833
2012.106	787.04167
2014.837	755.375
2017.566	785.04167
2020.292	760.70833
2023.017	781.375
2025.74	760.04167
2028.461	753.04167
2031.18	766.70833
2033.898	756.04167
2036.613	756.375
2039.327	757.70833
2042.038	751.375
2044.748	746.375
2047.456	758.04167
2050.162	737.375
2052.866	734.70833
2055.568	749.375
2058.268	736.04167
2060.967	734.70833
2063.663	722.70833
2066.358	732.04167
2069.051	722.375
2071.742	746.04167
2074.431	734.04167
2077.118	721.70833
2079.804	719.70833
2082.487	728.70833
2085.169	731.375
2087.849	752.70833
2090.527	726.375
2093.203	746.70833
2095.877	752.04167
2098.55	741.70833
2101.22	756.04167
2103.889	768.70833
2106.556	755.04167
2109.221	779.70833
2111.884	786.375
2114.546	842.04167
2117.205	884.70833
2119.863	945.04167
2122.519	987.375
2125.173	1047.04167
2127.825	1104.04167
2130.475	1096.04167
2133.124	1061.70833
2135.771	1013.04167
2138.416	977.375
2141.059	928.04167
2143.7	882.375
2146.339	849.70833
2148.977	803.70833
2151.613	796.375
2154.247	768.375
2156.879	762.70833
2159.51	747.70833
2162.138	722.70833
2164.765	735.375
2167.39	710.375
2170.013	738.70833
2172.634	720.04167
2175.254	712.04167
2177.872	739.375
2180.488	694.70833
2183.102	698.70833
2185.714	687.70833
2188.325	668.375
2190.934	677.04167
2193.541	688.70833
2196.146	674.375
2198.75	653.70833
2201.351	658.375
2203.951	661.70833
2206.549	664.70833
2209.146	647.375
2211.74	649.375
2214.333	650.04167
2216.924	626.375
2219.514	649.04167
2222.101	633.04167
2224.687	657.04167
2227.271	627.70833
2229.853	624.04167
2232.433	621.70833
2235.012	635.70833
2237.589	645.04167
2240.164	645.70833
2242.738	632.70833
2245.309	622.375
2247.879	631.04167
2250.448	634.04167
2253.014	610.70833
2255.579	591.04167
2258.142	598.70833
2260.703	594.04167
2263.262	604.70833
2265.82	598.375
2268.376	603.04167
2270.93	583.04167
2273.483	582.375
2276.033	596.375
2278.583	601.04167
2281.13	587.70833
2283.675	594.375
2286.219	586.04167
2288.761	588.70833
2291.302	592.375
2293.841	596.375
2296.377	582.70833
2298.913	573.04167
2301.446	588.375
2303.978	581.375
2306.508	579.04167
2309.037	582.375
2311.563	590.04167
2314.088	584.04167
2316.612	567.04167
2319.133	569.375
2321.653	573.70833
2324.171	561.04167
2326.688	570.04167
2329.202	567.375
2331.715	575.04167
2334.227	570.375
2336.736	575.375
2339.244	560.04167
2341.751	556.04167
2344.255	573.375
2346.758	569.375
2349.259	542.70833
2351.759	560.04167
2354.257	550.70833
2356.753	550.70833
2359.247	557.70833
2361.74	570.70833
2364.231	558.70833
2366.721	570.375
2369.209	558.375
2371.695	562.04167
2374.179	548.70833
2376.662	550.04167
2379.143	567.70833
2381.622	552.70833
2384.1	557.04167
2386.576	545.375
2389.051	576.04167
2391.524	565.375
2393.995	567.04167
2396.464	554.70833
2398.932	556.04167
2401.398	551.375
2403.863	543.04167
2406.325	543.04167
2408.787	549.04167
2411.246	553.70833
2413.704	547.375
2416.16	549.375
2418.615	548.375
2421.068	557.70833
2423.519	552.70833
2425.969	543.375
2428.417	560.04167
2430.863	573.04167
2433.308	554.375
2435.751	566.70833
2438.193	548.375
2440.633	550.375
2443.071	553.70833
2445.508	544.375
2447.943	545.375
2450.376	545.04167
2452.808	546.04167
2455.238	540.70833
2457.667	592.70833
2460.093	538.375
2462.519	541.70833
2464.942	541.375
2467.365	555.70833
2469.785	562.04167
2472.204	544.04167
2474.621	541.375
2477.037	564.04167
2479.451	527.04167
2481.863	538.70833
2484.274	547.70833
2486.683	540.70833
2489.091	556.04167
2491.497	554.70833
2493.901	556.70833
2496.304	545.375
2498.705	558.375
2501.105	546.375
2503.503	575.04167
2505.899	538.70833
2508.294	562.375
2510.687	556.375
2513.079	545.04167
2515.469	541.04167
2517.858	542.375
2520.245	564.04167
2522.63	544.375
2525.014	536.04167
2527.396	541.375
2529.776	537.04167
2532.156	556.70833
2534.533	536.04167
2536.909	547.375
2539.283	539.70833
2541.656	544.375
2544.027	561.04167
2546.397	553.375
2548.765	543.70833
2551.131	546.70833
2553.496	553.04167
2555.86	568.70833
2558.221	555.375
2560.582	552.70833
2562.94	539.375
2565.298	549.375
2567.653	565.04167
2570.007	544.375
2572.36	566.70833
2574.711	555.375
2577.06	570.70833
2579.408	562.70833
2581.754	548.375
2584.099	551.04167
2586.442	547.375
2588.784	561.375
2591.124	561.70833
2593.463	566.04167
2595.8	566.70833
2598.135	551.70833
2600.469	558.375
2602.802	571.375
2605.133	574.70833
2607.462	557.04167
2609.79	551.04167
2612.116	573.70833
2614.441	570.04167
2616.764	564.375
2619.086	568.70833
2621.406	554.375
2623.725	586.70833
2626.042	578.375
2628.358	567.375
2630.672	559.70833
2632.985	581.04167
2635.296	575.70833
2637.606	574.04167
2639.914	565.375
2642.22	576.04167
2644.525	575.375
2646.829	581.04167
2649.131	588.04167
2651.432	601.04167
2653.731	584.04167
2656.028	593.70833
2658.324	611.04167
2660.619	596.70833
2662.912	601.70833
2665.204	578.375
2667.494	605.70833
2669.782	597.375
2672.07	607.04167
2674.355	613.70833
2676.639	604.04167
2678.922	588.375
2681.203	603.70833
2683.483	588.70833
2685.761	594.375
2688.038	609.70833
2690.313	624.04167
2692.587	606.70833
2694.859	605.375
2697.13	622.70833
2699.399	618.375
2701.667	623.70833
2703.933	628.375
2706.198	629.04167
2708.461	636.04167
2710.723	638.04167
2712.984	635.70833
2715.243	639.375
2717.5	630.375
2719.757	648.04167
2722.011	642.04167
2724.264	654.375
2726.516	660.04167
2728.766	651.375
2731.015	660.375
2733.262	653.375
2735.508	647.70833
2737.753	658.375
2739.996	641.70833
2742.237	651.375
2744.477	657.375
2746.716	658.375
2748.953	648.04167
2751.189	650.04167
2753.423	638.04167
2755.656	634.04167
2757.887	631.375
2760.117	642.04167
2762.346	634.375
2764.573	637.375
2766.798	634.375
2769.022	633.375
2771.245	649.70833
2773.467	642.375
2775.686	648.04167
2777.905	658.375
2780.122	673.375
2782.337	654.70833
2784.552	658.70833
2786.764	664.375
2788.976	673.375
2791.186	674.70833
2793.394	687.04167
2795.601	688.04167
2797.807	708.04167
2800.011	703.70833
2802.214	714.375
2804.415	711.375
2806.615	720.70833
2808.814	709.70833
2811.011	731.70833
2813.206	717.70833
2815.401	738.375
2817.594	736.04167
2819.785	742.375
2821.975	736.70833
2824.164	750.04167
2826.351	756.375
2828.537	758.375
2830.722	784.70833
2832.905	783.70833
2835.086	817.375
2837.267	826.70833
2839.445	842.70833
2841.623	869.70833
2843.799	880.375
2845.974	918.70833
2848.147	941.04167
2850.319	970.04167
2852.489	997.04167
2854.659	1000.375
2856.826	1011.04167
2858.993	1051.375
2861.158	1025.375
2863.321	1028.04167
2865.483	1032.375
2867.644	1035.70833
2869.804	1036.70833
2871.962	1027.375
2874.118	1037.375
2876.274	1029.70833
2878.428	1031.04167
2880.58	1018.70833
2882.731	1004.375
2884.881	1025.04167
2887.03	1025.70833
2889.177	1022.375
2891.322	1028.375
2893.467	1035.04167
2895.61	1028.04167
2897.751	1056.70833
2899.892	1042.375
2902.03	1057.04167
2904.168	1062.375
2906.304	1071.375
2908.439	1088.375
2910.572	1073.375
2912.704	1088.375
2914.835	1094.375
2916.965	1078.04167
2919.093	1101.375
2921.219	1069.04167
2923.345	1101.70833
2925.469	1059.70833
2927.591	1069.70833
2929.712	1051.04167
2931.832	1039.70833
2933.951	1021.70833
2936.068	1004.70833
2938.184	977.04167
2940.299	966.70833
2942.412	963.04167
2944.524	918.375
2946.634	928.04167
2948.744	881.04167
2950.851	903.70833
2952.958	868.70833
2955.063	866.04167
2957.167	857.70833
2959.269	832.04167
2961.371	863.04167
2963.471	822.70833
2965.569	826.04167
2967.666	796.70833
2969.762	795.70833
2971.857	791.70833
2973.95	770.375
2976.042	778.04167
2978.133	759.70833
2980.222	740.375
2982.31	722.375
2984.396	695.70833
2986.482	710.375
2988.566	695.70833
2990.648	696.70833
2992.73	692.04167
2994.81	694.70833
2996.889	702.70833
2998.966	693.70833
3001.042	700.375
3003.117	696.04167
3005.191	695.70833
3007.263	688.70833
3009.334	673.70833
3011.403	674.70833
3013.472	671.04167
3015.539	670.70833
3017.604	676.04167
3019.669	630.375
3021.732	635.04167
3023.794	637.375
3025.854	648.375
3027.914	629.375
3029.971	647.375
3032.028	635.375
3034.083	636.70833
3036.137	617.375
3038.19	611.70833
3040.242	589.375
3042.292	583.04167
3044.341	580.04167
3046.388	594.375
3048.435	563.375
3050.48	583.375
3052.524	572.375
3054.566	557.375
3056.607	554.04167
3058.647	545.70833
3060.686	538.04167
3062.723	519.04167
3064.759	506.70833
3066.794	1.04167
3068.828	3.375
3070.86	1.04167
