-0.839	508.375
3.438	593.70833
7.711	179.04167
11.981	62.375
16.247	49.375
20.509	53.04167
24.768	45.04167
29.024	53.70833
33.276	47.70833
37.524	51.04167
41.769	49.375
46.01	36.375
50.247	47.375
54.481	54.375
58.712	58.375
62.939	48.70833
67.162	63.04167
71.382	57.70833
75.599	50.04167
79.812	64.375
84.021	79.375
88.227	58.70833
92.429	57.375
96.628	55.70833
100.823	68.04167
105.015	74.70833
109.204	70.70833
113.388	78.70833
117.57	78.70833
121.748	86.70833
125.922	77.70833
130.093	99.375
134.261	98.70833
138.425	98.375
142.585	138.70833
146.742	129.04167
150.896	157.375
155.046	188.70833
159.193	310.375
163.336	508.375
167.476	936.375
171.613	1710.375
175.746	2882.04167
179.875	4269.04167
184.002	5611.375
188.124	6542.04167
192.244	6914.375
196.36	6886.70833
200.472	6713.70833
204.581	6579.70833
208.687	6461.375
212.79	6419.375
216.889	6413.04167
220.984	6464.04167
225.077	6487.04167
229.165	6476.04167
233.251	6489.70833
237.333	6471.375
241.412	6384.04167
245.487	6328.04167
249.559	6307.04167
253.628	6263.375
257.694	6252.70833
261.756	6157.70833
265.814	6057.70833
269.87	5931.04167
273.922	5731.70833
277.97	5651.375
282.016	5628.375
286.058	5671.04167
290.097	5801.04167
294.132	5882.70833
298.164	5841.70833
302.193	5581.04167
306.219	5186.375
310.241	4780.04167
314.26	4436.70833
318.276	4116.375
322.288	3935.04167
326.297	3756.04167
330.303	3628.70833
334.305	3577.70833
338.305	3512.04167
342.301	3451.70833
346.294	3425.04167
350.283	3431.04167
354.269	3386.375
358.252	3366.375
362.232	3364.04167
366.209	3347.375
370.182	3317.04167
374.152	3293.375
378.119	3326.04167
382.083	3322.04167
386.043	3320.375
390	3312.375
393.954	3312.70833
397.905	3313.70833
401.852	3308.375
405.797	3242.70833
409.738	3276.70833
413.676	3294.375
417.61	3278.04167
421.542	3249.375
425.47	3200.70833
429.396	3209.70833
433.318	3156.04167
437.236	3142.375
441.152	3185.04167
445.065	3135.70833
448.974	3154.375
452.88	3089.04167
456.783	3105.04167
460.683	3088.04167
464.58	3091.04167
468.473	3087.70833
472.364	3124.375
476.251	3121.375
480.135	3171.375
484.016	3160.70833
487.894	3220.70833
491.769	3228.04167
495.641	3215.375
499.509	3203.70833
503.375	3202.375
507.237	3186.70833
511.096	3198.04167
514.952	3243.70833
518.805	3301.375
522.655	3336.375
526.502	3247.375
530.346	3204.70833
534.187	3191.375
538.024	3195.375
541.859	3199.70833
545.69	3254.04167
549.519	3217.70833
553.344	3187.04167
557.166	3154.70833
560.985	3108.04167
564.802	3060.04167
568.615	3012.375
572.425	2986.70833
576.232	2972.04167
580.036	2971.375
583.836	2966.375
587.634	3003.375
591.429	3004.375
595.221	3088.375
599.01	3077.375
602.796	3137.04167
606.578	3117.04167
610.358	3119.04167
614.135	3099.04167
617.909	3088.375
621.679	3064.70833
625.447	3043.70833
629.212	3044.375
632.973	3047.70833
636.732	3021.70833
640.488	3028.70833
644.241	3029.04167
647.991	3014.375
651.737	3011.70833
655.481	2984.70833
659.222	2977.04167
662.96	2986.375
666.695	3018.375
670.427	3014.04167
674.156	3051.375
677.882	3020.70833
681.605	3032.375
685.325	2991.70833
689.043	2977.04167
692.757	2983.70833
696.468	2950.04167
700.177	2957.375
703.882	2931.04167
707.585	2917.70833
711.284	2902.375
714.981	2922.375
718.675	2909.70833
722.366	2939.70833
726.054	2891.04167
729.739	2921.04167
733.421	2918.04167
737.1	2908.70833
740.777	2942.70833
744.45	2954.04167
748.121	2973.70833
751.789	3023.70833
755.453	3019.04167
759.115	3020.375
762.774	3025.04167
766.431	3024.70833
770.084	3072.04167
773.734	3079.04167
777.382	3109.04167
781.027	3139.375
784.669	3139.04167
788.308	3166.375
791.944	3181.04167
795.577	3219.04167
799.208	3212.70833
802.835	3242.04167
806.46	3271.375
810.082	3245.04167
813.701	3273.04167
817.317	3304.70833
820.931	3277.04167
824.542	3286.375
828.149	3243.04167
831.754	3245.04167
835.357	3197.375
838.956	3237.70833
842.553	3211.70833
846.146	3206.04167
849.737	3166.70833
853.326	3153.04167
856.911	3168.375
860.493	3186.04167
864.073	3205.375
867.65	3230.70833
871.225	3278.04167
874.796	3257.04167
878.365	3270.70833
881.931	3297.70833
885.494	3304.04167
889.054	3305.04167
892.612	3344.375
896.166	3293.70833
899.719	3257.04167
903.268	3217.70833
906.814	3171.375
910.358	3181.04167
913.899	3153.70833
917.438	3128.375
920.973	3139.70833
924.506	3187.375
928.036	3243.375
931.564	3276.375
935.088	3323.375
938.61	3327.04167
942.129	3335.04167
945.646	3425.375
949.16	3455.70833
952.671	3498.04167
956.179	3487.70833
959.685	3468.70833
963.188	3446.04167
966.688	3418.04167
970.185	3332.375
973.68	3280.70833
977.173	3225.04167
980.662	3181.70833
984.149	3187.70833
987.633	3190.375
991.114	3234.70833
994.593	3286.375
998.069	3346.04167
1001.542	3426.04167
1005.013	3401.70833
1008.481	3222.04167
1011.947	3154.04167
1015.409	3146.375
1018.869	3145.375
1022.327	3147.375
1025.782	3105.375
1029.234	3107.70833
1032.683	3053.70833
1036.13	2966.375
1039.574	2860.70833
1043.016	2793.70833
1046.455	2759.70833
1049.891	2724.375
1053.325	2753.70833
1056.756	2744.375
1060.184	2765.04167
1063.61	2759.70833
1067.033	2795.375
1070.454	2779.375
1073.872	2827.375
1077.287	2821.70833
1080.7	2811.70833
1084.11	2787.04167
1087.517	2779.70833
1090.922	2746.70833
1094.325	2698.70833
1097.724	2677.375
1101.122	2679.375
1104.516	2667.04167
1107.908	2674.375
1111.298	2709.375
1114.684	2721.04167
1118.069	2774.70833
1121.45	2786.04167
1124.83	2773.375
1128.206	2824.375
1131.58	2849.375
1134.951	2922.70833
1138.32	2991.375
1141.687	3081.375
1145.05	3164.375
1148.412	3148.70833
1151.77	3136.375
1155.126	3120.70833
1158.48	3116.04167
1161.831	3131.04167
1165.18	3112.375
1168.525	3166.04167
1171.869	3196.04167
1175.21	3240.70833
1178.548	3243.70833
1181.884	3295.04167
1185.217	3317.04167
1188.548	3378.04167
1191.877	3468.70833
1195.202	3550.04167
1198.526	3626.04167
1201.846	3646.70833
1205.165	3644.70833
1208.48	3635.375
1211.794	3605.375
1215.104	3620.04167
1218.413	3616.375
1221.719	3596.04167
1225.022	3548.04167
1228.323	3499.375
1231.621	3468.04167
1234.917	3449.70833
1238.21	3468.04167
1241.501	3435.70833
1244.79	3410.375
1248.076	3436.70833
1251.359	3440.375
1254.64	3551.375
1257.919	3544.04167
1261.195	3614.375
1264.468	3650.70833
1267.74	3684.375
1271.008	3712.375
1274.275	3700.70833
1277.538	3671.04167
1280.8	3657.04167
1284.059	3636.70833
1287.315	3712.04167
1290.569	3682.04167
1293.821	3702.70833
1297.07	3747.70833
1300.317	3769.375
1303.562	3730.04167
1306.803	3721.70833
1310.043	3677.375
1313.28	3659.04167
1316.515	3652.04167
1319.747	3639.70833
1322.977	3586.70833
1326.204	3544.70833
1329.429	3485.70833
1332.652	3483.04167
1335.872	3468.70833
1339.09	3417.70833
1342.306	3430.70833
1345.519	3367.04167
1348.729	3344.375
1351.938	3319.04167
1355.144	3264.375
1358.347	3229.70833
1361.548	3224.70833
1364.747	3206.375
1367.944	3187.375
1371.138	3181.70833
1374.329	3215.04167
1377.518	3247.70833
1380.705	3261.04167
1383.89	3231.375
1387.072	3114.375
1390.252	2996.70833
1393.429	2923.375
1396.605	2849.70833
1399.777	2759.04167
1402.948	2734.375
1406.116	2712.70833
1409.282	2723.04167
1412.445	2720.375
1415.606	2766.375
1418.765	2771.375
1421.921	2846.70833
1425.075	2878.375
1428.227	2963.70833
1431.376	3098.04167
1434.524	3179.04167
1437.668	3263.375
1440.811	3302.04167
1443.951	3299.70833
1447.089	3325.04167
1450.224	3316.375
1453.357	3276.70833
1456.488	3289.70833
1459.617	3219.04167
1462.743	3160.70833
1465.867	3073.04167
1468.989	3038.375
1472.108	2981.70833
1475.225	2928.375
1478.34	2897.04167
1481.453	2874.04167
1484.563	2875.04167
1487.671	2903.04167
1490.776	2962.375
1493.88	3006.70833
1496.981	3045.375
1500.08	3106.375
1503.176	3137.70833
1506.271	3176.70833
1509.363	3232.04167
1512.452	3240.375
1515.54	3271.04167
1518.625	3331.04167
1521.708	3419.04167
1524.789	3478.375
1527.867	3603.70833
1530.944	3816.04167
1534.018	3964.04167
1537.089	4115.70833
1540.159	4136.375
1543.226	4144.70833
1546.291	4041.04167
1549.354	3981.375
1552.415	3904.70833
1555.473	3785.04167
1558.529	3743.375
1561.583	3704.375
1564.634	3675.04167
1567.684	3673.04167
1570.731	3694.04167
1573.776	3734.375
1576.819	3764.70833
1579.859	3808.04167
1582.898	3838.375
1585.934	3884.375
1588.968	3890.70833
1591.999	3867.70833
1595.029	3911.375
1598.056	3905.375
1601.081	3941.375
1604.104	3944.375
1607.125	3891.04167
1610.144	3810.375
1613.16	3717.70833
1616.174	3632.375
1619.186	3569.70833
1622.196	3449.70833
1625.203	3407.375
1628.209	3306.70833
1631.212	3288.375
1634.213	3263.70833
1637.212	3241.70833
1640.209	3235.375
1643.203	3126.70833
1646.196	3039.70833
1649.186	2939.375
1652.174	2842.04167
1655.16	2728.04167
1658.144	2695.04167
1661.125	2581.70833
1664.105	2457.70833
1667.082	2357.375
1670.057	2244.70833
1673.03	2116.70833
1676.001	1976.70833
1678.97	1866.70833
1681.937	1747.70833
1684.901	1667.04167
1687.863	1613.70833
1690.824	1547.375
1693.782	1510.04167
1696.738	1464.375
1699.692	1429.04167
1702.643	1383.375
1705.593	1389.04167
1708.54	1366.375
1711.486	1371.04167
1714.429	1326.04167
1717.37	1319.04167
1720.309	1294.375
1723.246	1296.04167
1726.181	1278.375
1729.113	1273.375
1732.044	1259.375
1734.972	1259.375
1737.899	1247.375
1740.823	1237.70833
1743.745	1226.70833
1746.665	1196.375
1749.583	1178.70833
1752.499	1171.375
1755.413	1162.70833
1758.325	1138.04167
1761.235	1126.375
1764.142	1109.375
1767.048	1088.70833
1769.951	1097.04167
1772.852	1102.375
1775.752	1087.375
1778.649	1081.70833
1781.544	1089.375
1784.437	1055.375
1787.328	1068.70833
1790.217	1065.375
1793.104	1038.375
1795.989	1042.70833
1798.872	1022.70833
1801.753	1041.04167
1804.631	1029.375
1807.508	1038.70833
1810.383	1038.375
1813.255	1034.04167
1816.126	1027.375
1818.994	1027.04167
1821.861	1007.04167
1824.725	1005.70833
1827.587	999.70833
1830.448	989.04167
1833.306	969.04167
1836.162	982.375
1839.017	975.70833
1841.869	959.375
1844.719	968.375
1847.567	946.375
1850.414	930.04167
1853.258	952.04167
1856.1	963.70833
1858.94	958.375
1861.778	956.375
1864.614	943.70833
1867.448	939.375
1870.28	947.04167
1873.111	963.04167
1875.939	949.375
1878.765	965.70833
1881.589	926.375
1884.411	942.70833
1887.231	945.04167
1890.049	924.04167
1892.865	935.375
1895.68	915.70833
1898.492	939.375
1901.302	912.04167
1904.11	906.375
1906.916	896.70833
1909.721	891.375
1912.523	901.375
1915.323	889.375
1918.122	888.04167
1920.918	886.70833
1923.712	882.70833
1926.505	880.375
1929.295	867.70833
1932.084	884.70833
1934.87	890.70833
1937.655	884.70833
1940.438	865.04167
1943.218	870.04167
1945.997	880.375
1948.774	890.04167
1951.549	883.04167
1954.322	865.70833
1957.093	873.04167
1959.862	871.04167
1962.629	850.70833
1965.394	859.375
1968.157	838.70833
1970.918	862.375
1973.678	832.70833
1976.435	847.70833
1979.19	829.375
1981.944	828.04167
1984.696	827.04167
1987.445	814.70833
1990.193	825.04167
1992.939	836.70833
1995.683	812.375
1998.425	807.375
2001.165	837.70833
2003.903	808.375
2006.639	798.04167
2009.374	828.375
2012.106	816.70833
2014.837	792.04167
2017.566	816.70833
2020.292	811.04167
2023.017	804.70833
2025.74	805.04167
2028.461	792.70833
2031.18	790.04167
2033.898	788.04167
2036.613	789.70833
2039.327	782.04167
2042.038	779.70833
2044.748	781.375
2047.456	790.375
2050.162	770.375
2052.866	775.04167
2055.568	790.375
2058.268	775.70833
2060.967	770.04167
2063.663	760.375
2066.358	759.70833
2069.051	759.04167
2071.742	771.70833
2074.431	780.04167
2077.118	770.375
2079.804	757.70833
2082.487	764.04167
2085.169	771.375
2087.849	781.70833
2090.527	766.70833
2093.203	767.70833
2095.877	775.04167
2098.55	773.70833
2101.22	780.70833
2103.889	783.70833
2106.556	795.04167
2109.221	819.70833
2111.884	822.375
2114.546	857.375
2117.205	909.04167
2119.863	970.70833
2122.519	1014.375
2125.173	1064.04167
2127.825	1136.375
2130.475	1146.375
2133.124	1082.04167
2135.771	1059.04167
2138.416	1017.375
2141.059	948.70833
2143.7	917.375
2146.339	876.04167
2148.977	829.375
2151.613	819.04167
2154.247	804.70833
2156.879	779.04167
2159.51	767.04167
2162.138	764.04167
2164.765	760.04167
2167.39	739.04167
2170.013	747.375
2172.634	746.70833
2175.254	720.04167
2177.872	765.375
2180.488	721.375
2183.102	725.375
2185.714	715.04167
2188.325	697.70833
2190.934	705.04167
2193.541	704.04167
2196.146	700.04167
2198.75	685.70833
2201.351	688.04167
2203.951	681.375
2206.549	696.375
2209.146	685.04167
2211.74	677.04167
2214.333	673.375
2216.924	664.375
2219.514	665.70833
2222.101	661.04167
2224.687	667.04167
2227.271	656.375
2229.853	651.375
2232.433	630.375
2235.012	667.70833
2237.589	659.70833
2240.164	664.04167
2242.738	655.375
2245.309	647.70833
2247.879	649.70833
2250.448	650.70833
2253.014	645.70833
2255.579	622.375
2258.142	623.04167
2260.703	619.04167
2263.262	634.375
2265.82	621.375
2268.376	620.04167
2270.93	606.04167
2273.483	613.70833
2276.033	608.70833
2278.583	610.04167
2281.13	615.375
2283.675	604.04167
2286.219	604.70833
2288.761	610.04167
2291.302	615.375
2293.841	621.375
2296.377	591.375
2298.913	602.375
2301.446	610.04167
2303.978	614.375
2306.508	594.04167
2309.037	594.04167
2311.563	598.70833
2314.088	613.375
2316.612	586.04167
2319.133	593.04167
2321.653	585.04167
2324.171	591.70833
2326.688	595.70833
2329.202	585.70833
2331.715	588.375
2334.227	587.70833
2336.736	584.70833
2339.244	586.70833
2341.751	569.70833
2344.255	580.375
2346.758	584.70833
2349.259	566.70833
2351.759	577.04167
2354.257	575.375
2356.753	573.70833
2359.247	584.375
2361.74	576.04167
2364.231	579.375
2366.721	579.375
2369.209	572.70833
2371.695	574.375
2374.179	571.375
2376.662	566.70833
2379.143	582.70833
2381.622	575.375
2384.1	577.04167
2386.576	578.04167
2389.051	589.70833
2391.524	580.70833
2393.995	580.70833
2396.464	573.375
2398.932	564.04167
2401.398	567.04167
2403.863	575.70833
2406.325	560.70833
2408.787	572.04167
2411.246	568.375
2413.704	575.70833
2416.16	573.04167
2418.615	559.04167
2421.068	577.04167
2423.519	567.04167
2425.969	564.04167
2428.417	581.04167
2430.863	576.70833
2433.308	583.04167
2435.751	579.375
2438.193	567.70833
2440.633	573.04167
2443.071	580.04167
2445.508	568.04167
2447.943	567.70833
2450.376	576.04167
2452.808	563.375
2455.238	564.04167
2457.667	601.375
2460.093	561.04167
2462.519	561.04167
2464.942	561.70833
2467.365	576.375
2469.785	576.70833
2472.204	568.04167
2474.621	558.04167
2477.037	581.70833
2479.451	556.04167
2481.863	563.70833
2484.274	552.375
2486.683	559.04167
2489.091	578.375
2491.497	569.70833
2493.901	576.04167
2496.304	563.70833
2498.705	575.04167
2501.105	561.375
2503.503	589.70833
2505.899	554.375
2508.294	579.04167
2510.687	553.04167
2513.079	566.375
2515.469	558.04167
2517.858	562.70833
2520.245	576.375
2522.63	560.375
2525.014	553.70833
2527.396	554.375
2529.776	549.70833
2532.156	574.04167
2534.533	560.70833
2536.909	558.375
2539.283	548.70833
2541.656	552.70833
2544.027	583.70833
2546.397	566.70833
2548.765	561.04167
2551.131	565.04167
2553.496	562.70833
2555.86	583.70833
2558.221	566.04167
2560.582	563.375
2562.94	551.04167
2565.298	571.70833
2567.653	576.70833
2570.007	555.375
2572.36	583.70833
2574.711	566.04167
2577.06	582.04167
2579.408	585.375
2581.754	577.375
2584.099	578.04167
2586.442	576.375
2588.784	589.375
2591.124	578.70833
2593.463	567.70833
2595.8	578.04167
2598.135	579.375
2600.469	572.04167
2602.802	586.70833
2605.133	589.375
2607.462	567.375
2609.79	565.70833
2612.116	579.04167
2614.441	580.04167
2616.764	571.375
2619.086	581.375
2621.406	564.04167
2623.725	604.375
2626.042	583.04167
2628.358	590.70833
2630.672	579.375
2632.985	599.70833
2635.296	593.375
2637.606	589.04167
2639.914	587.375
2642.22	593.04167
2644.525	593.04167
2646.829	595.70833
2649.131	610.70833
2651.432	623.70833
2653.731	598.70833
2656.028	621.70833
2658.324	608.70833
2660.619	602.04167
2662.912	621.04167
2665.204	595.70833
2667.494	610.70833
2669.782	601.04167
2672.07	619.04167
2674.355	617.70833
2676.639	617.70833
2678.922	605.04167
2681.203	613.04167
2683.483	605.70833
2685.761	605.70833
2688.038	627.375
2690.313	632.04167
2692.587	625.04167
2694.859	617.70833
2697.13	638.70833
2699.399	635.04167
2701.667	650.04167
2703.933	648.04167
2706.198	632.70833
2708.461	650.04167
2710.723	649.04167
2712.984	647.04167
2715.243	650.04167
2717.5	648.70833
2719.757	675.04167
2722.011	659.04167
2724.264	670.04167
2726.516	679.04167
2728.766	672.04167
2731.015	676.70833
2733.262	673.04167
2735.508	675.70833
2737.753	684.70833
2739.996	662.04167
2742.237	663.375
2744.477	662.70833
2746.716	663.04167
2748.953	670.70833
2751.189	664.375
2753.423	655.04167
2755.656	643.375
2757.887	655.04167
2760.117	646.70833
2762.346	647.375
2764.573	640.375
2766.798	639.70833
2769.022	662.375
2771.245	665.375
2773.467	661.70833
2775.686	657.375
2777.905	676.70833
2780.122	681.04167
2782.337	682.70833
2784.552	685.70833
2786.764	675.04167
2788.976	690.04167
2791.186	686.70833
2793.394	700.70833
2795.601	706.70833
2797.807	721.04167
2800.011	712.04167
2802.214	720.70833
2804.415	722.04167
2806.615	723.70833
2808.814	730.375
2811.011	734.375
2813.206	738.04167
2815.401	752.70833
2817.594	753.375
2819.785	768.04167
2821.975	756.70833
2824.164	757.375
2826.351	769.70833
2828.537	791.70833
2830.722	798.04167
2832.905	817.04167
2835.086	838.375
2837.267	858.70833
2839.445	865.70833
2841.623	883.04167
2843.799	894.04167
2845.974	928.375
2848.147	961.70833
2850.319	976.375
2852.489	1014.04167
2854.659	1008.04167
2856.826	1031.375
2858.993	1043.04167
2861.158	1037.375
2863.321	1049.04167
2865.483	1055.70833
2867.644	1067.04167
2869.804	1047.04167
2871.962	1039.375
2874.118	1051.70833
2876.274	1053.70833
2878.428	1033.04167
2880.58	1048.375
2882.731	1031.375
2884.881	1042.70833
2887.03	1039.70833
2889.177	1053.375
2891.322	1047.70833
2893.467	1049.04167
2895.61	1051.04167
2897.751	1074.70833
2899.892	1060.375
2902.03	1081.04167
2904.168	1083.70833
2906.304	1074.04167
2908.439	1119.04167
2910.572	1081.04167
2912.704	1103.375
2914.835	1095.70833
2916.965	1100.04167
2919.093	1110.375
2921.219	1084.04167
2923.345	1109.04167
2925.469	1084.375
2927.591	1080.375
2929.712	1057.375
2931.832	1048.04167
2933.951	1028.375
2936.068	1016.375
2938.184	1003.04167
2940.299	986.375
2942.412	959.375
2944.524	940.70833
2946.634	930.375
2948.744	892.375
2950.851	925.375
2952.958	876.04167
2955.063	887.04167
2957.167	878.70833
2959.269	843.375
2961.371	873.04167
2963.471	833.70833
2965.569	845.04167
2967.666	820.70833
2969.762	816.70833
2971.857	806.04167
2973.95	782.375
2976.042	797.04167
2978.133	773.70833
2980.222	764.70833
2982.31	735.70833
2984.396	714.04167
2986.482	728.375
2988.566	718.375
2990.648	715.70833
2992.73	704.04167
2994.81	703.375
2996.889	700.375
2998.966	706.70833
3001.042	715.70833
3003.117	702.04167
3005.191	707.375
3007.263	699.375
3009.334	696.375
3011.403	698.375
3013.472	684.375
3015.539	678.375
3017.604	674.04167
3019.669	643.375
3021.732	649.70833
3023.794	647.04167
3025.854	645.04167
3027.914	653.70833
3029.971	660.375
3032.028	641.04167
3034.083	643.04167
3036.137	635.70833
3038.19	624.04167
3040.242	602.04167
3042.292	596.375
3044.341	596.70833
3046.388	592.04167
3048.435	580.70833
3050.48	590.70833
3052.524	584.70833
3054.566	572.375
3056.607	578.04167
3058.647	558.70833
3060.686	535.04167
3062.723	534.375
3064.759	514.04167
3066.794	-1.95833
3068.828	2.70833
3070.86	3.70833
