-0.839	74.375
3.438	84.04167
7.711	45.375
11.981	34.70833
16.247	34.375
20.509	37.375
24.768	34.375
29.024	42.375
33.276	32.375
37.524	34.375
41.769	35.04167
46.01	23.375
50.247	37.70833
54.481	43.375
58.712	48.375
62.939	34.04167
67.162	47.04167
71.382	41.375
75.599	30.04167
79.812	46.375
84.021	62.375
88.227	42.04167
92.429	39.375
96.628	31.04167
100.823	44.375
105.015	47.70833
109.204	42.375
113.388	46.04167
117.57	40.70833
121.748	49.70833
125.922	38.375
130.093	54.04167
134.261	42.70833
138.425	37.375
142.585	64.04167
146.742	40.375
150.896	47.375
155.046	40.70833
159.193	47.70833
163.336	47.70833
167.476	42.04167
171.613	63.375
175.746	81.375
179.875	76.70833
184.002	92.70833
188.124	119.70833
192.244	104.04167
196.36	92.70833
200.472	111.375
204.581	127.70833
208.687	98.70833
212.79	99.70833
216.889	110.04167
220.984	111.70833
225.077	108.04167
229.165	99.04167
233.251	108.04167
237.333	120.04167
241.412	116.70833
245.487	116.70833
249.559	118.375
253.628	125.70833
257.694	131.375
261.756	147.04167
265.814	135.375
269.87	108.04167
273.922	103.04167
277.97	117.04167
282.016	116.04167
286.058	103.375
290.097	110.70833
294.132	111.375
298.164	111.375
302.193	106.70833
306.219	112.04167
310.241	112.70833
314.26	98.70833
318.276	97.375
322.288	117.04167
326.297	112.04167
330.303	105.04167
334.305	96.70833
338.305	101.04167
342.301	100.04167
346.294	101.70833
350.283	97.04167
354.269	87.04167
358.252	86.70833
362.232	105.70833
366.209	100.375
370.182	86.70833
374.152	87.375
378.119	96.04167
382.083	86.70833
386.043	102.70833
390	89.70833
393.954	117.04167
397.905	133.04167
401.852	138.04167
405.797	108.04167
409.738	157.04167
413.676	213.70833
417.61	249.375
421.542	149.70833
425.47	103.04167
429.396	90.70833
433.318	94.04167
437.236	90.70833
441.152	123.375
445.065	79.375
448.974	93.04167
452.88	84.04167
456.783	86.04167
460.683	83.375
464.58	97.375
468.473	93.375
472.364	96.70833
476.251	77.375
480.135	84.375
484.016	95.04167
487.894	89.70833
491.769	84.70833
495.641	84.70833
499.509	85.375
503.375	88.04167
507.237	90.04167
511.096	87.375
514.952	92.04167
518.805	88.70833
522.655	77.04167
526.502	81.04167
530.346	96.375
534.187	106.70833
538.024	85.70833
541.859	78.70833
545.69	103.04167
549.519	100.375
553.344	96.375
557.166	81.375
560.985	87.04167
564.802	97.70833
568.615	92.70833
572.425	83.375
576.232	92.375
580.036	94.70833
583.836	100.70833
587.634	106.70833
591.429	87.70833
595.221	113.04167
599.01	97.04167
602.796	91.04167
606.578	91.375
610.358	99.04167
614.135	85.04167
617.909	101.70833
621.679	90.04167
625.447	83.375
629.212	95.70833
632.973	106.375
636.732	103.375
640.488	115.375
644.241	87.04167
647.991	93.04167
651.737	112.04167
655.481	79.70833
659.222	88.375
662.96	71.375
666.695	94.70833
670.427	83.375
674.156	91.04167
677.882	88.375
681.605	92.70833
685.325	83.70833
689.043	111.375
692.757	87.70833
696.468	95.70833
700.177	95.04167
703.882	92.04167
707.585	85.70833
711.284	87.375
714.981	87.375
718.675	88.70833
722.366	107.04167
726.054	81.375
729.739	91.70833
733.421	101.04167
737.1	85.375
740.777	94.04167
744.45	91.70833
748.121	86.04167
751.789	108.70833
755.453	80.70833
759.115	87.70833
762.774	87.04167
766.431	83.04167
770.084	87.375
773.734	79.375
777.382	98.04167
781.027	95.04167
784.669	85.04167
788.308	89.70833
791.944	97.70833
795.577	94.70833
799.208	92.04167
802.835	90.70833
806.46	90.70833
810.082	93.04167
813.701	79.70833
817.317	89.375
820.931	93.375
824.542	97.70833
828.149	84.70833
831.754	79.04167
835.357	88.04167
838.956	101.04167
842.553	127.375
846.146	133.375
849.737	95.375
853.326	95.375
856.911	85.375
860.493	109.375
864.073	124.70833
867.65	184.375
871.225	174.70833
874.796	101.70833
878.365	88.375
881.931	95.375
885.494	105.04167
889.054	90.375
892.612	98.375
896.166	81.04167
899.719	85.70833
903.268	70.375
906.814	89.04167
910.358	80.375
913.899	84.375
917.438	93.04167
920.973	65.70833
924.506	73.70833
928.036	89.70833
931.564	81.70833
935.088	99.70833
938.61	76.70833
942.129	73.04167
945.646	82.04167
949.16	79.375
952.671	73.70833
956.179	81.375
959.685	70.375
963.188	89.04167
966.688	86.70833
970.185	69.375
973.68	76.70833
977.173	78.375
980.662	73.04167
984.149	83.375
987.633	61.04167
991.114	86.04167
994.593	75.70833
998.069	77.375
1001.542	88.375
1005.013	104.04167
1008.481	70.70833
1011.947	80.70833
1015.409	67.375
1018.869	79.04167
1022.327	81.70833
1025.782	62.70833
1029.234	63.70833
1032.683	63.375
1036.13	73.375
1039.574	69.70833
1043.016	68.375
1046.455	67.70833
1049.891	71.70833
1053.325	80.04167
1056.756	72.70833
1060.184	72.04167
1063.61	58.04167
1067.033	62.70833
1070.454	62.04167
1073.872	86.04167
1077.287	61.04167
1080.7	66.04167
1084.11	64.70833
1087.517	71.375
1090.922	66.70833
1094.325	66.04167
1097.724	58.70833
1101.122	72.375
1104.516	66.375
1107.908	59.70833
1111.298	74.04167
1114.684	61.04167
1118.069	56.375
1121.45	70.375
1124.83	53.70833
1128.206	63.04167
1131.58	65.04167
1134.951	64.04167
1138.32	65.04167
1141.687	76.70833
1145.05	75.04167
1148.412	64.04167
1151.77	68.375
1155.126	72.70833
1158.48	61.70833
1161.831	63.70833
1165.18	61.375
1168.525	67.70833
1171.869	67.70833
1175.21	54.70833
1178.548	66.70833
1181.884	69.375
1185.217	48.70833
1188.548	61.04167
1191.877	50.375
1195.202	67.04167
1198.526	71.04167
1201.846	72.70833
1205.165	73.375
1208.48	80.04167
1211.794	75.70833
1215.104	71.70833
1218.413	63.70833
1221.719	68.375
1225.022	58.375
1228.323	56.04167
1231.621	66.04167
1234.917	70.04167
1238.21	93.375
1241.501	76.04167
1244.79	65.70833
1248.076	55.04167
1251.359	65.04167
1254.64	94.375
1257.919	66.04167
1261.195	65.04167
1264.468	72.375
1267.74	83.375
1271.008	73.04167
1274.275	72.70833
1277.538	69.70833
1280.8	70.70833
1284.059	58.04167
1287.315	74.375
1290.569	63.375
1293.821	65.70833
1297.07	66.375
1300.317	65.04167
1303.562	72.70833
1306.803	62.70833
1310.043	77.70833
1313.28	63.04167
1316.515	61.70833
1319.747	69.375
1322.977	70.04167
1326.204	70.04167
1329.429	63.70833
1332.652	79.70833
1335.872	73.70833
1339.09	60.70833
1342.306	70.70833
1345.519	66.375
1348.729	65.375
1351.938	72.375
1355.144	63.375
1358.347	65.04167
1361.548	77.70833
1364.747	83.04167
1367.944	55.375
1371.138	76.375
1374.329	75.04167
1377.518	68.70833
1380.705	63.70833
1383.89	70.70833
1387.072	73.375
1390.252	69.375
1393.429	74.04167
1396.605	81.04167
1399.777	61.04167
1402.948	65.375
1406.116	59.375
1409.282	61.70833
1412.445	60.70833
1415.606	79.375
1418.765	72.70833
1421.921	71.70833
1425.075	54.70833
1428.227	49.70833
1431.376	64.04167
1434.524	67.375
1437.668	73.04167
1440.811	63.70833
1443.951	71.04167
1447.089	66.04167
1450.224	57.70833
1453.357	49.375
1456.488	61.70833
1459.617	66.04167
1462.743	68.70833
1465.867	55.375
1468.989	67.04167
1472.108	72.04167
1475.225	62.04167
1478.34	61.70833
1481.453	66.375
1484.563	56.70833
1487.671	70.375
1490.776	69.375
1493.88	71.04167
1496.981	69.04167
1500.08	78.04167
1503.176	63.04167
1506.271	64.70833
1509.363	71.375
1512.452	62.04167
1515.54	65.04167
1518.625	57.375
1521.708	72.375
1524.789	73.375
1527.867	65.70833
1530.944	69.04167
1534.018	57.70833
1537.089	75.04167
1540.159	66.375
1543.226	73.375
1546.291	62.04167
1549.354	71.70833
1552.415	79.04167
1555.473	74.04167
1558.529	79.04167
1561.583	79.04167
1564.634	65.375
1567.684	68.70833
1570.731	66.375
1573.776	70.375
1576.819	66.375
1579.859	61.04167
1582.898	69.70833
1585.934	78.70833
1588.968	75.70833
1591.999	58.375
1595.029	62.04167
1598.056	71.375
1601.081	87.04167
1604.104	67.375
1607.125	72.70833
1610.144	61.70833
1613.16	56.70833
1616.174	59.375
1619.186	72.04167
1622.196	64.70833
1625.203	62.375
1628.209	69.70833
1631.212	64.375
1634.213	66.04167
1637.212	63.375
1640.209	65.375
1643.203	57.04167
1646.196	58.375
1649.186	60.04167
1652.174	79.04167
1655.16	58.375
1658.144	73.04167
1661.125	65.70833
1664.105	74.70833
1667.082	64.375
1670.057	56.375
1673.03	51.70833
1676.001	51.70833
1678.97	62.375
1681.937	66.375
1684.901	64.04167
1687.863	81.04167
1690.824	58.04167
1693.782	79.04167
1696.738	57.04167
1699.692	66.70833
1702.643	54.375
1705.593	60.04167
1708.54	64.375
1711.486	80.04167
1714.429	56.70833
1717.37	65.70833
1720.309	51.04167
1723.246	69.375
1726.181	56.70833
1729.113	64.70833
1732.044	56.375
1734.972	58.04167
1737.899	75.04167
1740.823	80.04167
1743.745	55.04167
1746.665	65.375
1749.583	58.375
1752.499	59.70833
1755.413	63.04167
1758.325	55.70833
1761.235	63.70833
1764.142	58.70833
1767.048	57.04167
1769.951	67.375
1772.852	74.375
1775.752	109.375
1778.649	156.70833
1781.544	108.375
1784.437	59.375
1787.328	76.375
1790.217	65.04167
1793.104	43.70833
1795.989	49.04167
1798.872	46.70833
1801.753	69.04167
1804.631	59.04167
1807.508	67.04167
1810.383	62.70833
1813.255	57.70833
1816.126	59.04167
1818.994	64.70833
1821.861	55.70833
1824.725	61.375
1827.587	67.04167
1830.448	64.70833
1833.306	49.375
1836.162	68.04167
1839.017	62.04167
1841.869	60.70833
1844.719	62.375
1847.567	48.04167
1850.414	45.375
1853.258	49.04167
1856.1	64.04167
1858.94	65.70833
1861.778	60.375
1864.614	53.70833
1867.448	55.04167
1870.28	44.375
1873.111	70.375
1875.939	53.70833
1878.765	70.04167
1881.589	49.04167
1884.411	55.70833
1887.231	56.375
1890.049	55.70833
1892.865	68.04167
1895.68	58.375
1898.492	81.375
1901.302	67.375
1904.11	67.04167
1906.916	56.375
1909.721	52.70833
1912.523	63.70833
1915.323	52.04167
1918.122	49.375
1920.918	69.04167
1923.712	54.375
1926.505	55.04167
1929.295	45.70833
1932.084	65.375
1934.87	61.04167
1937.655	55.04167
1940.438	52.375
1943.218	57.70833
1945.997	60.04167
1948.774	65.375
1951.549	66.04167
1954.322	54.70833
1957.093	55.04167
1959.862	54.70833
1962.629	47.04167
1965.394	54.04167
1968.157	46.04167
1970.918	54.04167
1973.678	41.04167
1976.435	65.375
1979.19	53.70833
1981.944	47.04167
1984.696	53.04167
1987.445	44.375
1990.193	58.04167
1992.939	68.04167
1995.683	57.375
1998.425	40.04167
2001.165	76.04167
2003.903	52.04167
2006.639	59.375
2009.374	67.04167
2012.106	55.70833
2014.837	43.70833
2017.566	57.70833
2020.292	60.04167
2023.017	53.04167
2025.74	53.70833
2028.461	45.70833
2031.18	53.70833
2033.898	44.70833
2036.613	56.70833
2039.327	55.70833
2042.038	45.04167
2044.748	48.375
2047.456	61.375
2050.162	48.70833
2052.866	50.70833
2055.568	67.375
2058.268	53.70833
2060.967	56.04167
2063.663	46.04167
2066.358	50.04167
2069.051	48.375
2071.742	60.04167
2074.431	58.375
2077.118	52.375
2079.804	40.04167
2082.487	49.70833
2085.169	61.375
2087.849	72.375
2090.527	41.70833
2093.203	50.04167
2095.877	63.04167
2098.55	56.70833
2101.22	62.375
2103.889	59.375
2106.556	50.70833
2109.221	56.04167
2111.884	40.70833
2114.546	63.04167
2117.205	55.04167
2119.863	58.70833
2122.519	42.70833
2125.173	46.04167
2127.825	63.04167
2130.475	70.70833
2133.124	52.04167
2135.771	51.375
2138.416	66.375
2141.059	56.04167
2143.7	69.375
2146.339	57.70833
2148.977	43.04167
2151.613	56.375
2154.247	58.375
2156.879	55.04167
2159.51	50.375
2162.138	46.04167
2164.765	51.70833
2167.39	43.375
2170.013	70.70833
2172.634	67.04167
2175.254	58.375
2177.872	93.70833
2180.488	50.70833
2183.102	68.70833
2185.714	58.375
2188.325	43.70833
2190.934	60.375
2193.541	64.04167
2196.146	57.375
2198.75	46.70833
2201.351	47.375
2203.951	39.375
2206.549	59.70833
2209.146	46.70833
2211.74	49.375
2214.333	59.375
2216.924	39.375
2219.514	51.375
2222.101	47.04167
2224.687	64.375
2227.271	52.70833
2229.853	44.04167
2232.433	39.375
2235.012	58.70833
2237.589	49.375
2240.164	60.04167
2242.738	45.375
2245.309	44.375
2247.879	57.04167
2250.448	64.375
2253.014	45.70833
2255.579	37.04167
2258.142	54.04167
2260.703	44.70833
2263.262	54.70833
2265.82	49.04167
2268.376	57.375
2270.93	44.70833
2273.483	47.04167
2276.033	51.375
2278.583	49.04167
2281.13	48.70833
2283.675	42.70833
2286.219	47.70833
2288.761	52.375
2291.302	52.375
2293.841	66.04167
2296.377	42.375
2298.913	48.70833
2301.446	63.375
2303.978	57.70833
2306.508	48.375
2309.037	49.375
2311.563	50.70833
2314.088	60.375
2316.612	37.70833
2319.133	49.04167
2321.653	50.375
2324.171	44.70833
2326.688	59.375
2329.202	51.375
2331.715	57.04167
2334.227	48.375
2336.736	57.70833
2339.244	49.04167
2341.751	39.04167
2344.255	59.375
2346.758	52.375
2349.259	39.70833
2351.759	48.375
2354.257	44.375
2356.753	41.04167
2359.247	44.70833
2361.74	56.04167
2364.231	51.04167
2366.721	54.70833
2369.209	46.375
2371.695	51.375
2374.179	44.70833
2376.662	39.70833
2379.143	56.04167
2381.622	49.70833
2384.1	67.70833
2386.576	49.70833
2389.051	61.70833
2391.524	64.04167
2393.995	57.375
2396.464	44.375
2398.932	48.375
2401.398	44.04167
2403.863	52.04167
2406.325	45.70833
2408.787	51.375
2411.246	47.70833
2413.704	43.70833
2416.16	40.70833
2418.615	47.70833
2421.068	58.375
2423.519	54.375
2425.969	42.70833
2428.417	51.375
2430.863	69.70833
2433.308	57.04167
2435.751	51.04167
2438.193	53.70833
2440.633	55.70833
2443.071	59.04167
2445.508	48.375
2447.943	50.04167
2450.376	44.375
2452.808	51.04167
2455.238	44.04167
2457.667	81.375
2460.093	46.04167
2462.519	35.04167
2464.942	50.70833
2467.365	53.375
2469.785	59.70833
2472.204	51.70833
2474.621	44.04167
2477.037	67.04167
2479.451	40.70833
2481.863	40.375
2484.274	47.70833
2486.683	52.375
2489.091	60.04167
2491.497	51.70833
2493.901	57.70833
2496.304	49.375
2498.705	62.04167
2501.105	46.04167
2503.503	77.375
2505.899	41.375
2508.294	65.375
2510.687	54.375
2513.079	51.04167
2515.469	46.375
2517.858	55.04167
2520.245	67.70833
2522.63	53.375
2525.014	45.04167
2527.396	46.04167
2529.776	41.375
2532.156	62.04167
2534.533	46.04167
2536.909	43.04167
2539.283	34.70833
2541.656	41.375
2544.027	61.70833
2546.397	48.04167
2548.765	45.375
2551.131	47.375
2553.496	44.70833
2555.86	58.375
2558.221	51.04167
2560.582	48.70833
2562.94	40.04167
2565.298	50.04167
2567.653	64.04167
2570.007	37.70833
2572.36	57.04167
2574.711	42.04167
2577.06	62.04167
2579.408	53.375
2581.754	49.70833
2584.099	51.375
2586.442	45.04167
2588.784	54.04167
2591.124	45.04167
2593.463	46.375
2595.8	50.375
2598.135	39.375
2600.469	42.375
2602.802	53.70833
2605.133	60.375
2607.462	41.375
2609.79	38.04167
2612.116	54.04167
2614.441	52.375
2616.764	47.04167
2619.086	47.70833
2621.406	37.375
2623.725	59.04167
2626.042	49.70833
2628.358	44.04167
2630.672	39.70833
2632.985	57.04167
2635.296	51.70833
2637.606	46.375
2639.914	39.04167
2642.22	44.70833
2644.525	44.375
2646.829	51.04167
2649.131	57.04167
2651.432	57.04167
2653.731	45.375
2656.028	54.04167
2658.324	53.70833
2660.619	42.04167
2662.912	55.70833
2665.204	38.375
2667.494	53.04167
2669.782	43.04167
2672.07	52.04167
2674.355	52.04167
2676.639	49.375
2678.922	39.375
2681.203	49.70833
2683.483	36.70833
2685.761	41.04167
2688.038	48.04167
2690.313	64.04167
2692.587	50.04167
2694.859	40.70833
2697.13	48.04167
2699.399	51.70833
2701.667	58.70833
2703.933	51.375
2706.198	53.375
2708.461	57.375
2710.723	56.04167
2712.984	51.375
2715.243	52.375
2717.5	37.70833
2719.757	57.04167
2722.011	41.375
2724.264	52.70833
2726.516	58.70833
2728.766	43.375
2731.015	45.04167
2733.262	51.70833
2735.508	45.04167
2737.753	52.70833
2739.996	39.04167
2742.237	42.375
2744.477	59.04167
2746.716	63.375
2748.953	53.70833
2751.189	63.375
2753.423	52.375
2755.656	45.375
2757.887	47.375
2760.117	46.70833
2762.346	41.70833
2764.573	38.04167
2766.798	43.70833
2769.022	42.375
2771.245	46.70833
2773.467	45.04167
2775.686	48.375
2777.905	48.04167
2780.122	52.04167
2782.337	53.04167
2784.552	42.375
2786.764	44.04167
2788.976	45.70833
2791.186	43.375
2793.394	43.70833
2795.601	47.375
2797.807	55.04167
2800.011	52.04167
2802.214	52.70833
2804.415	39.04167
2806.615	43.375
2808.814	35.70833
2811.011	49.70833
2813.206	40.04167
2815.401	53.04167
2817.594	50.70833
2819.785	54.04167
2821.975	38.04167
2824.164	39.04167
2826.351	44.375
2828.537	49.375
2830.722	46.70833
2832.905	35.375
2835.086	48.04167
2837.267	57.70833
2839.445	49.70833
2841.623	45.70833
2843.799	40.375
2845.974	43.70833
2848.147	42.70833
2850.319	39.375
2852.489	52.375
2854.659	49.70833
2856.826	47.70833
2858.993	67.70833
2861.158	43.70833
2863.321	46.375
2865.483	63.04167
2867.644	55.70833
2869.804	55.04167
2871.962	55.04167
2874.118	73.70833
2876.274	130.70833
2878.428	122.04167
2880.58	89.375
2882.731	70.04167
2884.881	71.04167
2887.03	73.04167
2889.177	62.04167
2891.322	70.375
2893.467	53.04167
2895.61	47.70833
2897.751	62.70833
2899.892	44.04167
2902.03	47.70833
2904.168	48.375
2906.304	42.04167
2908.439	61.375
2910.572	38.375
2912.704	54.70833
2914.835	54.04167
2916.965	46.375
2919.093	60.70833
2921.219	41.04167
2923.345	71.375
2925.469	50.04167
2927.591	58.70833
2929.712	43.04167
2931.832	52.04167
2933.951	49.375
2936.068	51.375
2938.184	48.70833
2940.299	54.04167
2942.412	57.70833
2944.524	40.04167
2946.634	59.70833
2948.744	28.04167
2950.851	67.70833
2952.958	46.375
2955.063	58.70833
2957.167	57.04167
2959.269	39.375
2961.371	74.04167
2963.471	40.375
2965.569	58.70833
2967.666	38.70833
2969.762	43.375
2971.857	45.375
2973.95	35.70833
2976.042	46.04167
2978.133	45.375
2980.222	43.70833
2982.31	39.375
2984.396	31.375
2986.482	44.375
2988.566	45.375
2990.648	42.375
2992.73	42.375
2994.81	35.70833
2996.889	40.375
2998.966	43.04167
3001.042	47.70833
3003.117	45.04167
3005.191	50.04167
3007.263	51.04167
3009.334	41.375
3011.403	53.70833
3013.472	45.04167
3015.539	52.375
3017.604	70.04167
3019.669	33.375
3021.732	42.70833
3023.794	44.375
3025.854	36.70833
3027.914	40.04167
3029.971	49.04167
3032.028	41.375
3034.083	44.375
3036.137	42.375
3038.19	37.70833
3040.242	38.04167
3042.292	34.04167
3044.341	40.70833
3046.388	54.04167
3048.435	34.04167
3050.48	58.04167
3052.524	46.04167
3054.566	28.70833
3056.607	43.375
3058.647	34.70833
3060.686	29.70833
3062.723	33.04167
3064.759	24.70833
3066.794	-0.625
3068.828	3.04167
3070.86	3.04167
