-0.839	506.54167
3.438	592.54167
7.711	174.875
11.981	62.20833
16.247	45.875
20.509	48.875
24.768	46.20833
29.024	57.875
33.276	49.54167
37.524	47.20833
41.769	48.20833
46.01	32.20833
50.247	44.875
54.481	57.20833
58.712	59.54167
62.939	48.20833
67.162	61.54167
71.382	59.875
75.599	45.54167
79.812	62.20833
84.021	78.875
88.227	58.54167
92.429	60.54167
96.628	54.20833
100.823	71.875
105.015	73.875
109.204	63.875
113.388	74.20833
117.57	75.875
121.748	82.875
125.922	78.54167
130.093	92.875
134.261	99.875
138.425	94.54167
142.585	134.875
146.742	124.20833
150.896	150.54167
155.046	187.20833
159.193	291.875
163.336	484.875
167.476	905.54167
171.613	1669.20833
175.746	2769.20833
179.875	4111.54167
184.002	5353.875
188.124	6293.20833
192.244	6629.54167
196.36	6591.54167
200.472	6425.54167
204.581	6215.20833
208.687	6109.875
212.79	6005.54167
216.889	6057.875
220.984	6073.20833
225.077	6069.20833
229.165	6062.875
233.251	6105.875
237.333	6027.875
241.412	5955.20833
245.487	5905.20833
249.559	5858.875
253.628	5817.54167
257.694	5819.20833
261.756	5718.20833
265.814	5621.875
269.87	5452.54167
273.922	5312.54167
277.97	5208.875
282.016	5188.54167
286.058	5268.875
290.097	5369.54167
294.132	5472.875
298.164	5422.54167
302.193	5113.54167
306.219	4752.875
310.241	4342.875
314.26	3981.875
318.276	3715.54167
322.288	3491.20833
326.297	3339.20833
330.303	3213.875
334.305	3129.54167
338.305	3098.54167
342.301	3050.54167
346.294	2995.20833
350.283	2962.20833
354.269	2975.875
358.252	2930.20833
362.232	2917.875
366.209	2904.54167
370.182	2871.54167
374.152	2878.875
378.119	2861.54167
382.083	2861.875
386.043	2854.54167
390	2844.54167
393.954	2838.20833
397.905	2836.20833
401.852	2843.20833
405.797	2788.875
409.738	2792.54167
413.676	2779.875
417.61	2792.54167
421.542	2728.54167
425.47	2724.875
429.396	2681.875
433.318	2690.875
437.236	2687.54167
441.152	2693.54167
445.065	2630.20833
448.974	2631.20833
452.88	2622.875
456.783	2606.875
460.683	2584.875
464.58	2607.875
468.473	2590.875
472.364	2613.54167
476.251	2612.20833
480.135	2638.20833
484.016	2689.20833
487.894	2674.875
491.769	2701.875
495.641	2709.54167
499.509	2691.54167
503.375	2708.20833
507.237	2700.20833
511.096	2688.20833
514.952	2746.875
518.805	2784.875
522.655	2850.875
526.502	2731.20833
530.346	2697.54167
534.187	2689.875
538.024	2698.54167
541.859	2704.875
545.69	2727.54167
549.519	2735.875
553.344	2694.875
557.166	2651.54167
560.985	2602.20833
564.802	2565.875
568.615	2521.20833
572.425	2480.875
576.232	2494.875
580.036	2491.20833
583.836	2482.875
587.634	2500.20833
591.429	2510.20833
595.221	2583.20833
599.01	2571.875
602.796	2614.875
606.578	2637.875
610.358	2613.875
614.135	2615.20833
617.909	2584.20833
621.679	2562.54167
625.447	2553.875
629.212	2549.20833
632.973	2561.54167
636.732	2575.20833
640.488	2545.875
644.241	2513.875
647.991	2521.20833
651.737	2534.875
655.481	2492.875
659.222	2505.20833
662.96	2481.20833
666.695	2545.20833
670.427	2534.54167
674.156	2545.54167
677.882	2559.54167
681.605	2518.20833
685.325	2506.875
689.043	2505.20833
692.757	2491.875
696.468	2484.20833
700.177	2478.20833
703.882	2477.875
707.585	2463.875
711.284	2445.20833
714.981	2443.54167
718.675	2452.875
722.366	2475.875
726.054	2459.54167
729.739	2448.20833
733.421	2462.54167
737.1	2465.875
740.777	2468.54167
744.45	2493.875
748.121	2496.54167
751.789	2547.54167
755.453	2545.20833
759.115	2571.54167
762.774	2571.20833
766.431	2580.875
770.084	2620.54167
773.734	2630.20833
777.382	2666.20833
781.027	2684.875
784.669	2719.54167
788.308	2715.54167
791.944	2749.20833
795.577	2751.54167
799.208	2753.20833
802.835	2784.54167
806.46	2819.875
810.082	2821.20833
813.701	2808.54167
817.317	2834.20833
820.931	2836.54167
824.542	2812.875
828.149	2804.54167
831.754	2785.54167
835.357	2784.20833
838.956	2779.20833
842.553	2798.875
846.146	2800.54167
849.737	2774.54167
853.326	2778.20833
856.911	2782.20833
860.493	2811.20833
864.073	2838.54167
867.65	2881.20833
871.225	2906.875
874.796	2921.20833
878.365	2894.54167
881.931	2934.20833
885.494	2937.20833
889.054	2945.54167
892.612	2965.875
896.166	2942.875
899.719	2929.54167
903.268	2865.875
906.814	2844.54167
910.358	2821.54167
913.899	2783.875
917.438	2793.54167
920.973	2762.875
924.506	2815.54167
928.036	2868.54167
931.564	2895.875
935.088	2951.20833
938.61	2945.875
942.129	3000.20833
945.646	3066.20833
949.16	3114.20833
952.671	3152.20833
956.179	3145.875
959.685	3100.875
963.188	3078.20833
966.688	3029.20833
970.185	2954.875
973.68	2881.20833
977.173	2863.875
980.662	2824.875
984.149	2842.54167
987.633	2809.54167
991.114	2859.20833
994.593	2902.875
998.069	2984.875
1001.542	3084.20833
1005.013	3018.20833
1008.481	2862.875
1011.947	2805.875
1015.409	2792.54167
1018.869	2776.54167
1022.327	2793.875
1025.782	2768.875
1029.234	2782.875
1032.683	2716.20833
1036.13	2647.54167
1039.574	2555.875
1043.016	2484.875
1046.455	2429.20833
1049.891	2411.875
1053.325	2414.54167
1056.756	2428.20833
1060.184	2440.20833
1063.61	2448.20833
1067.033	2491.54167
1070.454	2465.54167
1073.872	2505.875
1077.287	2473.875
1080.7	2482.20833
1084.11	2463.54167
1087.517	2436.875
1090.922	2420.875
1094.325	2403.875
1097.724	2371.54167
1101.122	2395.54167
1104.516	2394.54167
1107.908	2382.20833
1111.298	2424.20833
1114.684	2454.875
1118.069	2471.20833
1121.45	2516.20833
1124.83	2504.875
1128.206	2549.54167
1131.58	2588.875
1134.951	2789.54167
1138.32	2846.875
1141.687	2822.54167
1145.05	2868.54167
1148.412	2891.54167
1151.77	2896.20833
1155.126	2856.20833
1158.48	2875.54167
1161.831	2886.54167
1165.18	2903.20833
1168.525	2943.875
1171.869	2966.875
1175.21	2977.20833
1178.548	3013.875
1181.884	3038.54167
1185.217	3089.54167
1188.548	3164.875
1191.877	3185.54167
1195.202	3303.20833
1198.526	3353.875
1201.846	3383.20833
1205.165	3350.54167
1208.48	3342.20833
1211.794	3328.875
1215.104	3329.54167
1218.413	3327.54167
1221.719	3342.875
1225.022	3300.875
1228.323	3244.875
1231.621	3199.875
1234.917	3193.20833
1238.21	3210.20833
1241.501	3181.875
1244.79	3170.20833
1248.076	3200.54167
1251.359	3234.20833
1254.64	3257.20833
1257.919	3283.875
1261.195	3330.20833
1264.468	3403.20833
1267.74	3428.20833
1271.008	3436.875
1274.275	3432.20833
1277.538	3423.54167
1280.8	3401.20833
1284.059	3380.54167
1287.315	3441.20833
1290.569	3447.54167
1293.821	3488.875
1297.07	3503.54167
1300.317	3509.875
1303.562	3528.875
1306.803	3464.20833
1310.043	3456.20833
1313.28	3405.20833
1316.515	3400.54167
1319.747	3347.54167
1322.977	3320.20833
1326.204	3282.875
1329.429	3237.20833
1332.652	3195.54167
1335.872	3196.54167
1339.09	3152.20833
1342.306	3154.875
1345.519	3112.54167
1348.729	3059.54167
1351.938	3046.875
1355.144	3012.54167
1358.347	2967.875
1361.548	2968.20833
1364.747	2952.875
1367.944	2921.54167
1371.138	2935.20833
1374.329	2951.875
1377.518	2988.54167
1380.705	2996.875
1383.89	2983.54167
1387.072	2875.20833
1390.252	2767.54167
1393.429	2677.54167
1396.605	2603.875
1399.777	2524.20833
1402.948	2525.875
1406.116	2484.875
1409.282	2471.875
1412.445	2475.875
1415.606	2541.875
1418.765	2575.875
1421.921	2631.54167
1425.075	2664.54167
1428.227	2735.875
1431.376	2864.54167
1434.524	2966.875
1437.668	3030.20833
1440.811	3075.875
1443.951	3093.54167
1447.089	3082.54167
1450.224	3084.20833
1453.357	3072.20833
1456.488	3041.875
1459.617	2997.54167
1462.743	2930.875
1465.867	2873.20833
1468.989	2835.875
1472.108	2777.54167
1475.225	2738.20833
1478.34	2689.54167
1481.453	2685.875
1484.563	2711.54167
1487.671	2742.54167
1490.776	2778.20833
1493.88	2841.875
1496.981	2873.20833
1500.08	2909.875
1503.176	2947.875
1506.271	2981.54167
1509.363	3023.54167
1512.452	3061.54167
1515.54	3099.54167
1518.625	3142.20833
1521.708	3243.20833
1524.789	3303.54167
1527.867	3425.875
1530.944	3593.54167
1534.018	3771.875
1537.089	3940.20833
1540.159	3963.54167
1543.226	3962.20833
1546.291	3887.54167
1549.354	3814.54167
1552.415	3734.54167
1555.473	3664.54167
1558.529	3579.875
1561.583	3536.54167
1564.634	3535.54167
1567.684	3527.875
1570.731	3555.875
1573.776	3562.875
1576.819	3608.875
1579.859	3633.20833
1582.898	3676.54167
1585.934	3718.54167
1588.968	3739.875
1591.999	3735.54167
1595.029	3759.20833
1598.056	3753.20833
1601.081	3807.20833
1604.104	3751.875
1607.125	3750.20833
1610.144	3665.54167
1613.16	3573.20833
1616.174	3495.54167
1619.186	3378.54167
1622.196	3303.54167
1625.203	3186.875
1628.209	3123.54167
1631.212	3073.54167
1634.213	3029.20833
1637.212	3015.54167
1640.209	2936.875
1643.203	2871.20833
1646.196	2785.54167
1649.186	2691.20833
1652.174	2630.20833
1655.16	2519.20833
1658.144	2442.875
1661.125	2335.875
1664.105	2261.20833
1667.082	2158.875
1670.057	2049.875
1673.03	1919.20833
1676.001	1797.875
1678.97	1692.54167
1681.937	1587.20833
1684.901	1526.54167
1687.863	1455.20833
1690.824	1388.54167
1693.782	1385.20833
1696.738	1305.54167
1699.692	1277.20833
1702.643	1263.54167
1705.593	1235.20833
1708.54	1226.20833
1711.486	1211.54167
1714.429	1180.20833
1717.37	1158.875
1720.309	1147.54167
1723.246	1143.875
1726.181	1134.20833
1729.113	1137.54167
1732.044	1116.875
1734.972	1098.54167
1737.899	1114.20833
1740.823	1100.20833
1743.745	1073.20833
1746.665	1060.875
1749.583	1046.875
1752.499	1032.875
1755.413	1018.20833
1758.325	993.54167
1761.235	996.54167
1764.142	975.54167
1767.048	964.54167
1769.951	956.20833
1772.852	947.20833
1775.752	959.54167
1778.649	949.54167
1781.544	945.875
1784.437	908.54167
1787.328	939.54167
1790.217	909.54167
1793.104	878.54167
1795.989	892.875
1798.872	889.875
1801.753	914.875
1804.631	882.20833
1807.508	902.54167
1810.383	894.875
1813.255	890.54167
1816.126	886.875
1818.994	880.54167
1821.861	875.875
1824.725	874.20833
1827.587	871.20833
1830.448	869.20833
1833.306	835.20833
1836.162	851.20833
1839.017	847.54167
1841.869	841.20833
1844.719	843.54167
1847.567	814.20833
1850.414	813.20833
1853.258	831.875
1856.1	839.54167
1858.94	826.20833
1861.778	818.875
1864.614	820.20833
1867.448	819.20833
1870.28	807.54167
1873.111	832.875
1875.939	811.20833
1878.765	824.54167
1881.589	807.20833
1884.411	809.875
1887.231	810.875
1890.049	799.54167
1892.865	809.20833
1895.68	799.875
1898.492	808.875
1901.302	793.54167
1904.11	792.54167
1906.916	780.20833
1909.721	773.54167
1912.523	785.54167
1915.323	774.875
1918.122	771.875
1920.918	777.875
1923.712	766.54167
1926.505	755.875
1929.295	755.20833
1932.084	773.20833
1934.87	769.875
1937.655	766.875
1940.438	760.875
1943.218	761.54167
1945.997	762.54167
1948.774	763.875
1951.549	769.54167
1954.322	753.875
1957.093	754.54167
1959.862	746.20833
1962.629	740.54167
1965.394	745.20833
1968.157	738.54167
1970.918	747.875
1973.678	729.875
1976.435	738.875
1979.19	733.54167
1981.944	711.875
1984.696	722.20833
1987.445	708.875
1990.193	732.20833
1992.939	744.875
1995.683	711.54167
1998.425	692.20833
2001.165	731.54167
2003.903	702.20833
2006.639	715.54167
2009.374	719.20833
2012.106	711.875
2014.837	691.20833
2017.566	704.20833
2020.292	712.875
2023.017	708.20833
2025.74	703.20833
2028.461	693.20833
2031.18	696.875
2033.898	690.20833
2036.613	696.54167
2039.327	695.54167
2042.038	693.875
2044.748	687.875
2047.456	685.20833
2050.162	680.875
2052.866	679.54167
2055.568	684.875
2058.268	679.20833
2060.967	672.20833
2063.663	666.20833
2066.358	678.875
2069.051	668.20833
2071.742	686.20833
2074.431	679.875
2077.118	659.875
2079.804	661.54167
2082.487	671.875
2085.169	683.875
2087.849	689.54167
2090.527	672.20833
2093.203	671.54167
2095.877	684.875
2098.55	687.54167
2101.22	684.20833
2103.889	696.54167
2106.556	693.20833
2109.221	730.54167
2111.884	736.20833
2114.546	780.54167
2117.205	838.20833
2119.863	893.20833
2122.519	934.875
2125.173	991.54167
2127.825	1029.54167
2130.475	1033.875
2133.124	1000.20833
2135.771	959.875
2138.416	920.875
2141.059	864.875
2143.7	825.54167
2146.339	778.875
2148.977	731.20833
2151.613	732.54167
2154.247	719.875
2156.879	707.54167
2159.51	688.20833
2162.138	662.20833
2164.765	673.54167
2167.39	663.54167
2170.013	673.875
2172.634	662.54167
2175.254	661.875
2177.872	685.20833
2180.488	630.54167
2183.102	655.20833
2185.714	636.875
2188.325	614.875
2190.934	636.875
2193.541	640.54167
2196.146	616.875
2198.75	611.54167
2201.351	613.20833
2203.951	601.875
2206.549	620.54167
2209.146	613.875
2211.74	603.875
2214.333	604.20833
2216.924	583.875
2219.514	600.54167
2222.101	592.20833
2224.687	603.54167
2227.271	590.20833
2229.853	580.54167
2232.433	576.875
2235.012	599.20833
2237.589	588.875
2240.164	592.54167
2242.738	577.875
2245.309	565.54167
2247.879	571.54167
2250.448	584.54167
2253.014	558.875
2255.579	552.875
2258.142	566.20833
2260.703	549.875
2263.262	549.875
2265.82	555.54167
2268.376	556.875
2270.93	541.20833
2273.483	536.20833
2276.033	554.54167
2278.583	552.875
2281.13	542.54167
2283.675	534.54167
2286.219	534.20833
2288.761	537.54167
2291.302	542.54167
2293.841	551.20833
2296.377	541.875
2298.913	535.20833
2301.446	553.20833
2303.978	540.875
2306.508	531.54167
2309.037	541.875
2311.563	533.54167
2314.088	541.20833
2316.612	519.875
2319.133	518.875
2321.653	528.875
2324.171	522.20833
2326.688	538.875
2329.202	526.875
2331.715	536.875
2334.227	528.54167
2336.736	526.54167
2339.244	522.875
2341.751	516.54167
2344.255	521.20833
2346.758	521.875
2349.259	497.20833
2351.759	526.875
2354.257	512.54167
2356.753	512.875
2359.247	519.20833
2361.74	526.20833
2364.231	519.875
2366.721	530.875
2369.209	509.54167
2371.695	526.20833
2374.179	505.54167
2376.662	503.875
2379.143	532.54167
2381.622	509.875
2384.1	527.54167
2386.576	504.20833
2389.051	521.54167
2391.524	523.20833
2393.995	522.875
2396.464	514.875
2398.932	513.20833
2401.398	508.54167
2403.863	510.875
2406.325	510.875
2408.787	521.54167
2411.246	509.54167
2413.704	508.875
2416.16	514.875
2418.615	520.875
2421.068	517.875
2423.519	529.54167
2425.969	506.20833
2428.417	518.20833
2430.863	524.54167
2433.308	520.875
2435.751	517.54167
2438.193	508.54167
2440.633	517.54167
2443.071	514.54167
2445.508	515.54167
2447.943	505.54167
2450.376	502.875
2452.808	504.875
2455.238	514.20833
2457.667	543.875
2460.093	505.54167
2462.519	505.54167
2464.942	517.875
2467.365	507.54167
2469.785	528.875
2472.204	509.875
2474.621	504.54167
2477.037	523.875
2479.451	498.875
2481.863	493.875
2484.274	516.875
2486.683	518.54167
2489.091	514.54167
2491.497	507.54167
2493.901	530.875
2496.304	509.875
2498.705	525.20833
2501.105	505.20833
2503.503	536.54167
2505.899	504.875
2508.294	531.20833
2510.687	523.875
2513.079	517.54167
2515.469	503.875
2517.858	515.54167
2520.245	536.875
2522.63	515.20833
2525.014	504.54167
2527.396	505.54167
2529.776	506.875
2532.156	522.20833
2534.533	512.875
2536.909	503.20833
2539.283	496.20833
2541.656	500.20833
2544.027	522.20833
2546.397	508.875
2548.765	519.54167
2551.131	509.20833
2553.496	523.54167
2555.86	515.54167
2558.221	521.20833
2560.582	521.875
2562.94	503.875
2565.298	515.20833
2567.653	528.20833
2570.007	507.54167
2572.36	531.875
2574.711	506.875
2577.06	526.54167
2579.408	531.54167
2581.754	522.54167
2584.099	525.20833
2586.442	523.54167
2588.784	534.54167
2591.124	529.875
2593.463	532.54167
2595.8	527.20833
2598.135	528.20833
2600.469	522.20833
2602.802	531.54167
2605.133	535.20833
2607.462	515.20833
2609.79	514.875
2612.116	533.875
2614.441	541.20833
2616.764	530.875
2619.086	531.54167
2621.406	526.20833
2623.725	560.20833
2626.042	540.20833
2628.358	533.875
2630.672	533.20833
2632.985	551.54167
2635.296	539.54167
2637.606	547.20833
2639.914	543.54167
2642.22	540.875
2644.525	540.875
2646.829	539.875
2649.131	561.875
2651.432	568.54167
2653.731	551.20833
2656.028	561.54167
2658.324	570.20833
2660.619	557.20833
2662.912	568.875
2665.204	557.875
2667.494	569.20833
2669.782	565.20833
2672.07	579.875
2674.355	574.875
2676.639	568.875
2678.922	549.875
2681.203	570.875
2683.483	561.54167
2685.761	566.54167
2688.038	586.875
2690.313	580.20833
2692.587	575.54167
2694.859	566.875
2697.13	591.875
2699.399	590.20833
2701.667	602.54167
2703.933	591.875
2706.198	593.54167
2708.461	602.20833
2710.723	609.54167
2712.984	605.54167
2715.243	603.54167
2717.5	597.20833
2719.757	615.20833
2722.011	602.54167
2724.264	620.875
2726.516	631.875
2728.766	612.20833
2731.015	622.20833
2733.262	626.875
2735.508	623.54167
2737.753	622.54167
2739.996	603.20833
2742.237	605.54167
2744.477	629.20833
2746.716	618.875
2748.953	602.875
2751.189	622.875
2753.423	609.875
2755.656	602.875
2757.887	600.20833
2760.117	610.20833
2762.346	594.875
2764.573	599.20833
2766.798	595.20833
2769.022	600.875
2771.245	622.54167
2773.467	613.54167
2775.686	618.20833
2777.905	623.20833
2780.122	622.54167
2782.337	628.20833
2784.552	631.54167
2786.764	632.875
2788.976	639.20833
2791.186	638.875
2793.394	655.20833
2795.601	645.875
2797.807	664.54167
2800.011	676.875
2802.214	671.54167
2804.415	684.20833
2806.615	676.54167
2808.814	677.20833
2811.011	690.20833
2813.206	687.54167
2815.401	706.875
2817.594	707.875
2819.785	726.54167
2821.975	709.20833
2824.164	719.875
2826.351	737.54167
2828.537	746.875
2830.722	756.54167
2832.905	757.875
2835.086	788.20833
2837.267	801.20833
2839.445	814.20833
2841.623	842.875
2843.799	857.875
2845.974	893.54167
2848.147	905.875
2850.319	930.20833
2852.489	968.20833
2854.659	976.54167
2856.826	983.875
2858.993	1013.875
2861.158	985.875
2863.321	990.875
2865.483	1017.54167
2867.644	998.875
2869.804	1003.54167
2871.962	1006.20833
2874.118	995.875
2876.274	1003.54167
2878.428	1005.875
2880.58	1007.20833
2882.731	984.54167
2884.881	981.54167
2887.03	1002.54167
2889.177	990.20833
2891.322	1013.20833
2893.467	1000.54167
2895.61	1017.20833
2897.751	1031.20833
2899.892	1019.875
2902.03	1041.875
2904.168	1025.875
2906.304	1021.20833
2908.439	1053.54167
2910.572	1050.20833
2912.704	1062.54167
2914.835	1048.20833
2916.965	1044.54167
2919.093	1065.20833
2921.219	1032.875
2923.345	1056.20833
2925.469	1034.875
2927.591	1029.875
2929.712	1004.54167
2931.832	1001.875
2933.951	989.875
2936.068	965.54167
2938.184	941.20833
2940.299	937.875
2942.412	921.20833
2944.524	890.20833
2946.634	882.875
2948.744	839.875
2950.851	885.20833
2952.958	830.20833
2955.063	836.54167
2957.167	828.54167
2959.269	799.54167
2961.371	821.54167
2963.471	795.20833
2965.569	804.875
2967.666	783.20833
2969.762	767.875
2971.857	765.54167
2973.95	740.20833
2976.042	734.54167
2978.133	724.54167
2980.222	705.54167
2982.31	694.875
2984.396	669.54167
2986.482	678.54167
2988.566	685.875
2990.648	668.875
2992.73	666.20833
2994.81	661.20833
2996.889	675.20833
2998.966	665.20833
3001.042	663.54167
3003.117	661.54167
3005.191	670.54167
3007.263	658.20833
3009.334	647.875
3011.403	648.875
3013.472	628.875
3015.539	634.875
3017.604	633.20833
3019.669	595.875
3021.732	607.875
3023.794	615.875
3025.854	612.20833
3027.914	608.54167
3029.971	610.20833
3032.028	605.54167
3034.083	604.875
3036.137	589.20833
3038.19	573.875
3040.242	571.20833
3042.292	553.54167
3044.341	549.54167
3046.388	565.20833
3048.435	537.54167
3050.48	544.20833
3052.524	542.54167
3054.566	528.875
3056.607	533.54167
3058.647	529.54167
3060.686	516.54167
3062.723	485.54167
3064.759	470.20833
3066.794	0.54167
3068.828	1.20833
3070.86	4.54167
