-0.839	625.45833
3.438	729.45833
7.711	206.79167
11.981	65.125
16.247	48.125
20.509	50.79167
24.768	46.79167
29.024	58.125
33.276	48.125
37.524	51.125
41.769	46.45833
46.01	29.79167
50.247	47.45833
54.481	61.79167
58.712	61.125
62.939	47.79167
67.162	66.45833
71.382	58.45833
75.599	46.45833
79.812	65.125
84.021	85.125
88.227	62.125
92.429	60.125
96.628	50.45833
100.823	73.79167
105.015	80.45833
109.204	71.45833
113.388	77.125
117.57	78.125
121.748	84.79167
125.922	82.79167
130.093	97.125
134.261	96.79167
138.425	99.125
142.585	143.45833
146.742	126.79167
150.896	161.125
155.046	200.45833
159.193	317.79167
163.336	544.45833
167.476	999.125
171.613	1810.125
175.746	3054.45833
179.875	4510.79167
184.002	5883.79167
188.124	6874.45833
192.244	7216.45833
196.36	7086.125
200.472	6903.45833
204.581	6679.79167
208.687	6515.125
212.79	6385.45833
216.889	6390.125
220.984	6355.79167
225.077	6354.45833
229.165	6364.79167
233.251	6311.79167
237.333	6282.45833
241.412	6216.125
245.487	6160.45833
249.559	6072.45833
253.628	6053.45833
257.694	5994.125
261.756	5933.79167
265.814	5789.45833
269.87	5616.45833
273.922	5424.79167
277.97	5298.125
282.016	5233.45833
286.058	5245.79167
290.097	5367.125
294.132	5437.45833
298.164	5396.45833
302.193	5101.125
306.219	4759.45833
310.241	4371.45833
314.26	4027.45833
318.276	3722.79167
322.288	3538.79167
326.297	3383.79167
330.303	3288.125
334.305	3168.45833
338.305	3113.125
342.301	3074.125
346.294	3043.45833
350.283	3035.45833
354.269	2987.45833
358.252	2956.79167
362.232	2955.79167
366.209	2910.45833
370.182	2871.125
374.152	2860.125
378.119	2901.125
382.083	2862.125
386.043	2856.125
390	2843.125
393.954	2853.79167
397.905	2838.45833
401.852	2825.79167
405.797	2776.79167
409.738	2762.79167
413.676	2757.79167
417.61	2762.79167
421.542	2713.45833
425.47	2688.125
429.396	2680.79167
433.318	2673.79167
437.236	2657.79167
441.152	2691.79167
445.065	2625.125
448.974	2612.79167
452.88	2565.45833
456.783	2575.45833
460.683	2546.79167
464.58	2544.125
468.473	2547.79167
472.364	2558.45833
476.251	2552.125
480.135	2576.45833
484.016	2620.79167
487.894	2627.125
491.769	2650.79167
495.641	2621.125
499.509	2638.125
503.375	2630.79167
507.237	2639.79167
511.096	2625.79167
514.952	2629.125
518.805	2636.125
522.655	2671.45833
526.502	2647.125
530.346	2627.45833
534.187	2626.45833
538.024	2646.125
541.859	2678.79167
545.69	2689.79167
549.519	2688.79167
553.344	2671.79167
557.166	2640.79167
560.985	2595.125
564.802	2521.125
568.615	2472.125
572.425	2435.125
576.232	2452.125
580.036	2426.79167
583.836	2451.45833
587.634	2461.79167
591.429	2475.45833
595.221	2542.79167
599.01	2549.79167
602.796	2613.125
606.578	2602.45833
610.358	2601.125
614.135	2554.45833
617.909	2555.45833
621.679	2517.45833
625.447	2509.79167
629.212	2523.79167
632.973	2510.125
636.732	2517.125
640.488	2515.125
644.241	2497.45833
647.991	2503.125
651.737	2490.125
655.481	2448.79167
659.222	2449.125
662.96	2461.125
666.695	2480.125
670.427	2496.125
674.156	2531.79167
677.882	2505.45833
681.605	2491.125
685.325	2465.79167
689.043	2449.125
692.757	2443.125
696.468	2448.125
700.177	2428.125
703.882	2413.79167
707.585	2398.79167
711.284	2400.45833
714.981	2405.45833
718.675	2406.45833
722.366	2428.79167
726.054	2429.79167
729.739	2423.45833
733.421	2420.45833
737.1	2418.45833
740.777	2429.45833
744.45	2430.79167
748.121	2445.125
751.789	2499.79167
755.453	2490.79167
759.115	2521.125
762.774	2551.45833
766.431	2548.45833
770.084	2583.45833
773.734	2609.125
777.382	2655.79167
781.027	2691.45833
784.669	2725.45833
788.308	2701.125
791.944	2721.79167
795.577	2732.45833
799.208	2759.125
802.835	2759.45833
806.46	2802.79167
810.082	2784.79167
813.701	2798.79167
817.317	2804.79167
820.931	2817.79167
824.542	2809.79167
828.149	2803.79167
831.754	2778.45833
835.357	2789.125
838.956	2798.79167
842.553	2803.45833
846.146	2766.45833
849.737	2765.79167
853.326	2768.79167
856.911	2778.125
860.493	2844.125
864.073	2861.125
867.65	2895.125
871.225	2918.45833
874.796	2935.125
878.365	2912.125
881.931	2951.45833
885.494	2970.79167
889.054	2974.79167
892.612	2985.125
896.166	2962.79167
899.719	2934.79167
903.268	2901.125
906.814	2873.125
910.358	2849.79167
913.899	2824.125
917.438	2831.45833
920.973	2842.125
924.506	2861.79167
928.036	2909.45833
931.564	2947.79167
935.088	2974.45833
938.61	2986.45833
942.129	3024.79167
945.646	3077.125
949.16	3152.125
952.671	3207.79167
956.179	3193.45833
959.685	3144.125
963.188	3115.79167
966.688	3077.79167
970.185	2997.45833
973.68	2930.79167
977.173	2871.125
980.662	2821.125
984.149	2816.125
987.633	2801.45833
991.114	2863.125
994.593	2904.125
998.069	2994.125
1001.542	3087.45833
1005.013	3034.45833
1008.481	2879.125
1011.947	2836.79167
1015.409	2821.125
1018.869	2833.45833
1022.327	2822.79167
1025.782	2786.79167
1029.234	2784.125
1032.683	2730.79167
1036.13	2637.45833
1039.574	2542.125
1043.016	2486.45833
1046.455	2433.125
1049.891	2391.45833
1053.325	2438.79167
1056.756	2427.125
1060.184	2443.79167
1063.61	2443.125
1067.033	2490.45833
1070.454	2451.125
1073.872	2518.45833
1077.287	2470.45833
1080.7	2498.45833
1084.11	2483.79167
1087.517	2463.45833
1090.922	2439.79167
1094.325	2418.79167
1097.724	2403.125
1101.122	2413.125
1104.516	2388.45833
1107.908	2416.45833
1111.298	2459.79167
1114.684	2499.125
1118.069	2526.79167
1121.45	2568.45833
1124.83	2546.79167
1128.206	2620.125
1131.58	2654.79167
1134.951	2713.125
1138.32	2817.45833
1141.687	2928.125
1145.05	2999.79167
1148.412	3041.79167
1151.77	3013.79167
1155.126	3028.79167
1158.48	3012.45833
1161.831	3014.79167
1165.18	3034.45833
1168.525	3084.45833
1171.869	3106.125
1175.21	3126.125
1178.548	3148.79167
1181.884	3202.125
1185.217	3216.125
1188.548	3264.45833
1191.877	3339.45833
1195.202	3392.45833
1198.526	3491.79167
1201.846	3496.45833
1205.165	3490.45833
1208.48	3453.79167
1211.794	3438.45833
1215.104	3411.125
1218.413	3415.45833
1221.719	3417.79167
1225.022	3377.45833
1228.323	3297.79167
1231.621	3295.79167
1234.917	3262.125
1238.21	3263.79167
1241.501	3260.79167
1244.79	3258.79167
1248.076	3263.125
1251.359	3282.45833
1254.64	3323.125
1257.919	3376.79167
1261.195	3410.45833
1264.468	3499.125
1267.74	3558.125
1271.008	3560.45833
1274.275	3558.125
1277.538	3523.125
1280.8	3500.79167
1284.059	3478.45833
1287.315	3541.125
1290.569	3552.79167
1293.821	3589.45833
1297.07	3599.79167
1300.317	3594.45833
1303.562	3579.79167
1306.803	3580.45833
1310.043	3562.79167
1313.28	3504.79167
1316.515	3486.45833
1319.747	3477.45833
1322.977	3412.79167
1326.204	3367.45833
1329.429	3299.45833
1332.652	3272.125
1335.872	3237.79167
1339.09	3215.79167
1342.306	3177.79167
1345.519	3147.125
1348.729	3088.79167
1351.938	3101.79167
1355.144	3039.125
1358.347	3001.45833
1361.548	3017.125
1364.747	3003.79167
1367.944	2961.45833
1371.138	3018.45833
1374.329	3028.45833
1377.518	3075.45833
1380.705	3099.125
1383.89	3054.125
1387.072	2974.45833
1390.252	2864.45833
1393.429	2741.79167
1396.605	2672.125
1399.777	2590.45833
1402.948	2565.79167
1406.116	2525.125
1409.282	2545.125
1412.445	2527.79167
1415.606	2551.45833
1418.765	2587.125
1421.921	2655.45833
1425.075	2718.125
1428.227	2794.79167
1431.376	2920.79167
1434.524	3004.125
1437.668	3102.125
1440.811	3139.45833
1443.951	3165.125
1447.089	3158.79167
1450.224	3155.79167
1453.357	3156.79167
1456.488	3132.125
1459.617	3087.79167
1462.743	3027.125
1465.867	2976.45833
1468.989	2936.79167
1472.108	2890.45833
1475.225	2860.45833
1478.34	2828.125
1481.453	2852.125
1484.563	2829.45833
1487.671	2929.125
1490.776	2932.79167
1493.88	3013.45833
1496.981	3036.45833
1500.08	3103.79167
1503.176	3151.125
1506.271	3184.45833
1509.363	3247.125
1512.452	3260.79167
1515.54	3318.125
1518.625	3381.125
1521.708	3449.125
1524.789	3526.125
1527.867	3656.79167
1530.944	3804.125
1534.018	3988.45833
1537.089	4138.79167
1540.159	4202.45833
1543.226	4165.45833
1546.291	4125.125
1549.354	4014.125
1552.415	3951.45833
1555.473	3872.45833
1558.529	3816.45833
1561.583	3772.45833
1564.634	3781.79167
1567.684	3770.45833
1570.731	3799.45833
1573.776	3819.45833
1576.819	3868.79167
1579.859	3951.125
1582.898	3980.125
1585.934	4012.79167
1588.968	4026.45833
1591.999	4028.79167
1595.029	4027.79167
1598.056	4033.125
1601.081	4043.79167
1604.104	4029.125
1607.125	3973.79167
1610.144	3870.45833
1613.16	3764.125
1616.174	3689.45833
1619.186	3596.45833
1622.196	3492.45833
1625.203	3355.79167
1628.209	3309.45833
1631.212	3235.125
1634.213	3190.79167
1637.212	3139.79167
1640.209	3076.45833
1643.203	2984.79167
1646.196	2855.79167
1649.186	2764.79167
1652.174	2685.45833
1655.16	2587.79167
1658.144	2476.45833
1661.125	2365.79167
1664.105	2261.79167
1667.082	2172.79167
1670.057	2077.79167
1673.03	1967.45833
1676.001	1827.45833
1678.97	1727.79167
1681.937	1620.79167
1684.901	1545.125
1687.863	1484.125
1690.824	1409.125
1693.782	1387.79167
1696.738	1337.125
1699.692	1291.125
1702.643	1267.45833
1705.593	1233.125
1708.54	1234.79167
1711.486	1222.45833
1714.429	1200.125
1717.37	1191.79167
1720.309	1144.125
1723.246	1167.45833
1726.181	1127.79167
1729.113	1135.79167
1732.044	1109.79167
1734.972	1105.79167
1737.899	1109.125
1740.823	1089.79167
1743.745	1056.125
1746.665	1058.125
1749.583	1036.79167
1752.499	1011.125
1755.413	1011.125
1758.325	984.45833
1761.235	987.79167
1764.142	968.125
1767.048	952.79167
1769.951	949.125
1772.852	939.125
1775.752	937.125
1778.649	932.45833
1781.544	929.45833
1784.437	907.45833
1787.328	922.79167
1790.217	914.79167
1793.104	879.79167
1795.989	864.79167
1798.872	873.125
1801.753	877.79167
1804.631	873.79167
1807.508	877.125
1810.383	863.79167
1813.255	864.125
1816.126	863.79167
1818.994	859.45833
1821.861	852.45833
1824.725	857.45833
1827.587	842.79167
1830.448	842.125
1833.306	817.79167
1836.162	829.45833
1839.017	820.45833
1841.869	819.125
1844.719	817.79167
1847.567	785.125
1850.414	785.79167
1853.258	799.125
1856.1	812.79167
1858.94	804.125
1861.778	810.45833
1864.614	801.79167
1867.448	782.45833
1870.28	767.125
1873.111	812.125
1875.939	785.125
1878.765	809.79167
1881.589	785.45833
1884.411	778.45833
1887.231	787.125
1890.049	784.79167
1892.865	777.79167
1895.68	780.79167
1898.492	783.79167
1901.302	760.79167
1904.11	765.79167
1906.916	753.79167
1909.721	753.125
1912.523	757.125
1915.323	731.79167
1918.122	751.125
1920.918	756.125
1923.712	744.79167
1926.505	731.125
1929.295	722.79167
1932.084	737.79167
1934.87	735.125
1937.655	736.125
1940.438	726.79167
1943.218	735.45833
1945.997	732.45833
1948.774	741.125
1951.549	736.45833
1954.322	720.79167
1957.093	718.45833
1959.862	715.45833
1962.629	720.79167
1965.394	719.79167
1968.157	704.125
1970.918	697.125
1973.678	690.125
1976.435	696.125
1979.19	700.45833
1981.944	691.125
1984.696	691.125
1987.445	671.45833
1990.193	688.45833
1992.939	704.45833
1995.683	681.45833
1998.425	668.45833
2001.165	691.79167
2003.903	680.125
2006.639	666.79167
2009.374	697.45833
2012.106	665.45833
2014.837	664.125
2017.566	675.125
2020.292	671.79167
2023.017	677.45833
2025.74	666.45833
2028.461	650.79167
2031.18	652.125
2033.898	642.79167
2036.613	655.79167
2039.327	663.45833
2042.038	638.79167
2044.748	642.125
2047.456	659.45833
2050.162	632.125
2052.866	647.125
2055.568	653.125
2058.268	633.125
2060.967	634.45833
2063.663	634.45833
2066.358	631.79167
2069.051	622.79167
2071.742	636.45833
2074.431	640.45833
2077.118	626.79167
2079.804	629.79167
2082.487	630.125
2085.169	643.79167
2087.849	645.79167
2090.527	626.45833
2093.203	633.125
2095.877	641.79167
2098.55	645.125
2101.22	647.125
2103.889	650.125
2106.556	654.79167
2109.221	676.45833
2111.884	682.45833
2114.546	739.125
2117.205	779.125
2119.863	861.79167
2122.519	888.45833
2125.173	966.45833
2127.825	1020.125
2130.475	1033.125
2133.124	992.45833
2135.771	949.125
2138.416	904.125
2141.059	836.79167
2143.7	797.45833
2146.339	748.45833
2148.977	696.45833
2151.613	698.45833
2154.247	675.45833
2156.879	658.45833
2159.51	648.125
2162.138	623.125
2164.765	626.79167
2167.39	609.45833
2170.013	662.125
2172.634	695.45833
2175.254	615.45833
2177.872	626.79167
2180.488	593.125
2183.102	599.125
2185.714	592.125
2188.325	563.79167
2190.934	563.45833
2193.541	585.79167
2196.146	584.79167
2198.75	566.79167
2201.351	560.125
2203.951	553.79167
2206.549	562.79167
2209.146	552.125
2211.74	547.79167
2214.333	553.79167
2216.924	528.45833
2219.514	541.79167
2222.101	535.79167
2224.687	559.125
2227.271	524.79167
2229.853	520.79167
2232.433	512.125
2235.012	515.79167
2237.589	537.125
2240.164	546.45833
2242.738	525.45833
2245.309	507.125
2247.879	510.125
2250.448	519.45833
2253.014	495.125
2255.579	484.79167
2258.142	499.45833
2260.703	479.45833
2263.262	488.79167
2265.82	488.125
2268.376	485.79167
2270.93	471.125
2273.483	477.45833
2276.033	479.125
2278.583	501.79167
2281.13	477.125
2283.675	458.125
2286.219	468.125
2288.761	466.79167
2291.302	463.79167
2293.841	477.125
2296.377	449.45833
2298.913	462.79167
2301.446	465.79167
2303.978	459.45833
2306.508	453.125
2309.037	458.125
2311.563	456.79167
2314.088	450.79167
2316.612	437.125
2319.133	447.125
2321.653	445.125
2324.171	436.45833
2326.688	452.45833
2329.202	436.45833
2331.715	441.125
2334.227	436.125
2336.736	440.45833
2339.244	427.79167
2341.751	422.79167
2344.255	445.79167
2346.758	431.79167
2349.259	417.45833
2351.759	428.45833
2354.257	418.45833
2356.753	412.79167
2359.247	421.45833
2361.74	425.125
2364.231	421.45833
2366.721	426.125
2369.209	424.125
2371.695	420.125
2374.179	407.125
2376.662	402.125
2379.143	424.45833
2381.622	404.79167
2384.1	420.125
2386.576	410.45833
2389.051	422.45833
2391.524	422.79167
2393.995	417.45833
2396.464	397.125
2398.932	411.45833
2401.398	412.125
2403.863	400.45833
2406.325	395.125
2408.787	403.45833
2411.246	404.45833
2413.704	401.79167
2416.16	396.45833
2418.615	397.45833
2421.068	409.45833
2423.519	403.125
2425.969	394.79167
2428.417	398.45833
2430.863	410.45833
2433.308	403.45833
2435.751	391.79167
2438.193	399.79167
2440.633	391.125
2443.071	392.79167
2445.508	381.45833
2447.943	382.45833
2450.376	388.45833
2452.808	376.79167
2455.238	385.125
2457.667	419.125
2460.093	382.45833
2462.519	377.45833
2464.942	386.79167
2467.365	376.45833
2469.785	383.125
2472.204	383.79167
2474.621	371.79167
2477.037	386.79167
2479.451	363.45833
2481.863	362.45833
2484.274	370.45833
2486.683	373.45833
2489.091	377.45833
2491.497	379.45833
2493.901	378.79167
2496.304	369.45833
2498.705	387.125
2501.105	363.79167
2503.503	397.45833
2505.899	360.45833
2508.294	379.125
2510.687	369.125
2513.079	365.45833
2515.469	356.45833
2517.858	367.45833
2520.245	363.125
2522.63	359.125
2525.014	361.45833
2527.396	352.79167
2529.776	355.125
2532.156	361.79167
2534.533	358.125
2536.909	346.79167
2539.283	339.125
2541.656	345.125
2544.027	363.125
2546.397	350.45833
2548.765	350.125
2551.131	351.125
2553.496	349.125
2555.86	359.45833
2558.221	354.79167
2560.582	354.45833
2562.94	342.125
2565.298	348.125
2567.653	360.45833
2570.007	334.125
2572.36	361.45833
2574.711	337.79167
2577.06	361.45833
2579.408	342.79167
2581.754	339.79167
2584.099	350.125
2586.442	344.79167
2588.784	351.79167
2591.124	341.79167
2593.463	342.79167
2595.8	352.125
2598.135	337.125
2600.469	334.79167
2602.802	357.125
2605.133	345.79167
2607.462	337.125
2609.79	322.125
2612.116	342.125
2614.441	332.79167
2616.764	343.79167
2619.086	341.45833
2621.406	329.45833
2623.725	350.79167
2626.042	339.45833
2628.358	331.45833
2630.672	331.79167
2632.985	347.45833
2635.296	344.45833
2637.606	341.125
2639.914	331.79167
2642.22	336.125
2644.525	334.45833
2646.829	349.79167
2649.131	346.45833
2651.432	356.45833
2653.731	335.79167
2656.028	354.125
2658.324	351.79167
2660.619	337.79167
2662.912	343.125
2665.204	330.79167
2667.494	349.45833
2669.782	333.79167
2672.07	357.45833
2674.355	355.125
2676.639	340.45833
2678.922	344.125
2681.203	343.79167
2683.483	324.45833
2685.761	331.125
2688.038	340.79167
2690.313	364.79167
2692.587	343.45833
2694.859	337.125
2697.13	349.45833
2699.399	356.79167
2701.667	359.125
2703.933	351.45833
2706.198	364.45833
2708.461	361.45833
2710.723	365.45833
2712.984	358.45833
2715.243	364.79167
2717.5	361.45833
2719.757	364.45833
2722.011	363.125
2724.264	382.125
2726.516	378.45833
2728.766	367.79167
2731.015	380.125
2733.262	374.45833
2735.508	377.79167
2737.753	370.45833
2739.996	356.45833
2742.237	360.125
2744.477	363.45833
2746.716	369.79167
2748.953	351.125
2751.189	363.125
2753.423	346.79167
2755.656	347.79167
2757.887	343.125
2760.117	344.79167
2762.346	332.125
2764.573	337.79167
2766.798	345.79167
2769.022	339.79167
2771.245	342.125
2773.467	353.45833
2775.686	355.45833
2777.905	347.79167
2780.122	357.79167
2782.337	361.125
2784.552	354.79167
2786.764	362.125
2788.976	360.125
2791.186	372.125
2793.394	366.125
2795.601	370.79167
2797.807	387.125
2800.011	392.45833
2802.214	390.79167
2804.415	387.45833
2806.615	394.79167
2808.814	408.79167
2811.011	410.125
2813.206	407.125
2815.401	422.45833
2817.594	426.125
2819.785	435.125
2821.975	424.79167
2824.164	430.79167
2826.351	450.125
2828.537	459.79167
2830.722	469.45833
2832.905	468.125
2835.086	500.79167
2837.267	535.79167
2839.445	535.79167
2841.623	551.79167
2843.799	583.45833
2845.974	602.125
2848.147	639.79167
2850.319	658.79167
2852.489	685.45833
2854.659	704.125
2856.826	722.79167
2858.993	748.125
2861.158	720.125
2863.321	712.79167
2865.483	743.45833
2867.644	736.45833
2869.804	722.45833
2871.962	725.125
2874.118	719.45833
2876.274	723.79167
2878.428	739.45833
2880.58	726.125
2882.731	712.79167
2884.881	722.79167
2887.03	736.125
2889.177	728.125
2891.322	739.79167
2893.467	740.125
2895.61	730.125
2897.751	754.79167
2899.892	747.125
2902.03	754.79167
2904.168	747.79167
2906.304	775.125
2908.439	789.79167
2910.572	767.45833
2912.704	778.79167
2914.835	781.79167
2916.965	765.79167
2919.093	785.79167
2921.219	762.45833
2923.345	795.79167
2925.469	756.79167
2927.591	753.45833
2929.712	736.79167
2931.832	726.45833
2933.951	700.79167
2936.068	702.125
2938.184	678.79167
2940.299	654.125
2942.412	641.79167
2944.524	610.79167
2946.634	607.79167
2948.744	570.45833
2950.851	580.45833
2952.958	538.79167
2955.063	548.45833
2957.167	532.79167
2959.269	496.45833
2961.371	519.125
2963.471	485.79167
2965.569	490.45833
2967.666	459.125
2969.762	454.79167
2971.857	440.125
2973.95	421.79167
2976.042	427.125
2978.133	409.125
2980.222	404.45833
2982.31	384.125
2984.396	368.125
2986.482	369.45833
2988.566	363.45833
2990.648	358.125
2992.73	351.125
2994.81	347.125
2996.889	347.79167
2998.966	340.125
3001.042	341.45833
3003.117	342.45833
3005.191	328.45833
3007.263	346.125
3009.334	321.45833
3011.403	330.125
3013.472	309.125
3015.539	315.79167
3017.604	335.45833
3019.669	287.45833
3021.732	302.45833
3023.794	298.79167
3025.854	286.79167
3027.914	287.125
3029.971	302.125
3032.028	286.79167
3034.083	286.125
3036.137	288.125
3038.19	274.79167
3040.242	267.45833
3042.292	254.79167
3044.341	260.79167
3046.388	275.79167
3048.435	261.45833
3050.48	272.79167
3052.524	266.125
3054.566	244.79167
3056.607	264.125
3058.647	242.45833
3060.686	240.45833
3062.723	231.45833
3064.759	223.125
3066.794	-0.54167
3068.828	2.79167
3070.86	0.79167
