-0.839	613
3.438	713.66667
7.711	208.33333
11.981	67
16.247	47.66667
20.509	50
24.768	46
29.024	61
33.276	45.33333
37.524	50.66667
41.769	46
46.01	33.33333
50.247	48.66667
54.481	58
58.712	61
62.939	49.33333
67.162	60.33333
71.382	55.33333
75.599	45.33333
79.812	63.33333
84.021	79.66667
88.227	60.33333
92.429	59.66667
96.628	49.66667
100.823	73.33333
105.015	75
109.204	69.66667
113.388	75.33333
117.57	75.66667
121.748	84
125.922	79.33333
130.093	102.33333
134.261	98.33333
138.425	94
142.585	138.33333
146.742	125
150.896	160.33333
155.046	198.33333
159.193	304
163.336	521.33333
167.476	941.66667
171.613	1740.33333
175.746	2913
179.875	4310
184.002	5624.33333
188.124	6479.66667
192.244	6808.66667
196.36	6737.66667
200.472	6531
204.581	6270.33333
208.687	6074.33333
212.79	5990.33333
216.889	5925.33333
220.984	5918.33333
225.077	5920.66667
229.165	5893.33333
233.251	5815
237.333	5787
241.412	5687
245.487	5597.66667
249.559	5549.33333
253.628	5519
257.694	5444.66667
261.756	5373.66667
265.814	5257.66667
269.87	5118
273.922	4957.66667
277.97	4827.33333
282.016	4802.33333
286.058	4831.33333
290.097	4914
294.132	4937
298.164	4908.66667
302.193	4692.33333
306.219	4378.66667
310.241	4003
314.26	3734
318.276	3502.33333
322.288	3303.66667
326.297	3152.33333
330.303	3050
334.305	2990.33333
338.305	2935
342.301	2878.33333
346.294	2865
350.283	2830.33333
354.269	2817.66667
358.252	2779.66667
362.232	2764.33333
366.209	2737.66667
370.182	2732
374.152	2692.33333
378.119	2718.33333
382.083	2692.33333
386.043	2699.66667
390	2668.33333
393.954	2702
397.905	2650.66667
401.852	2671.33333
405.797	2623.33333
409.738	2600.33333
413.676	2603
417.61	2590
421.542	2571.33333
425.47	2533
429.396	2517.66667
433.318	2518.33333
437.236	2521
441.152	2552.33333
445.065	2464.66667
448.974	2491
452.88	2436.66667
456.783	2430.33333
460.683	2403.33333
464.58	2417
468.473	2401.33333
472.364	2422.33333
476.251	2409.66667
480.135	2436
484.016	2491
487.894	2480.33333
491.769	2475.66667
495.641	2507.66667
499.509	2499
503.375	2503.66667
507.237	2509
511.096	2527.33333
514.952	2590.66667
518.805	2685.66667
522.655	2718.66667
526.502	2595
530.346	2525.66667
534.187	2505.33333
538.024	2511
541.859	2520.66667
545.69	2547
549.519	2541
553.344	2484.33333
557.166	2462.33333
560.985	2419.66667
564.802	2392.66667
568.615	2343.66667
572.425	2294.33333
576.232	2314
580.036	2309.66667
583.836	2315.33333
587.634	2328.66667
591.429	2323.66667
595.221	2386.66667
599.01	2405.66667
602.796	2447
606.578	2443.33333
610.358	2435.33333
614.135	2411
617.909	2395
621.679	2373
625.447	2391
629.212	2381
632.973	2361
636.732	2356
640.488	2358.33333
644.241	2344
647.991	2337
651.737	2359
655.481	2333
659.222	2332.33333
662.96	2294.66667
666.695	2356.33333
670.427	2358
674.156	2378
677.882	2354.33333
681.605	2354
685.325	2304.66667
689.043	2315.66667
692.757	2312.66667
696.468	2294
700.177	2297.33333
703.882	2289.66667
707.585	2276.33333
711.284	2270
714.981	2272.66667
718.675	2260.33333
722.366	2286.33333
726.054	2276.33333
729.739	2283.33333
733.421	2298.33333
737.1	2272.33333
740.777	2298
744.45	2293.33333
748.121	2316.33333
751.789	2353.66667
755.453	2361
759.115	2377
762.774	2382.66667
766.431	2397
770.084	2448.33333
773.734	2459.33333
777.382	2489.33333
781.027	2528.66667
784.669	2536.66667
788.308	2555.33333
791.944	2570.66667
795.577	2592.33333
799.208	2611.66667
802.835	2598.33333
806.46	2594
810.082	2610.66667
813.701	2630.33333
817.317	2645.66667
820.931	2648.66667
824.542	2660.33333
828.149	2622.66667
831.754	2605.33333
835.357	2608.66667
838.956	2610
842.553	2603.66667
846.146	2594.33333
849.737	2568
853.326	2615
856.911	2597
860.493	2649.33333
864.073	2665.33333
867.65	2680
871.225	2713.66667
874.796	2745
878.365	2726
881.931	2743.33333
885.494	2783.66667
889.054	2772
892.612	2797.66667
896.166	2783
899.719	2767
903.268	2722.33333
906.814	2713
910.358	2663.66667
913.899	2660
917.438	2660.66667
920.973	2664
924.506	2677.66667
928.036	2698.66667
931.564	2728.33333
935.088	2798
938.61	2808
942.129	2861
945.646	2880
949.16	2952.66667
952.671	2960.66667
956.179	2959
959.685	2911
963.188	2927.33333
966.688	2864
970.185	2763
973.68	2758.66667
977.173	2696
980.662	2637.66667
984.149	2652.33333
987.633	2630.33333
991.114	2675.33333
994.593	2722.33333
998.069	2800.66667
1001.542	2865.33333
1005.013	2814
1008.481	2696
1011.947	2643
1015.409	2642.66667
1018.869	2627.33333
1022.327	2648.33333
1025.782	2595.66667
1029.234	2594
1032.683	2537
1036.13	2463.33333
1039.574	2379.66667
1043.016	2308.33333
1046.455	2251.66667
1049.891	2255.33333
1053.325	2285
1056.756	2248.33333
1060.184	2282.66667
1063.61	2263.33333
1067.033	2320
1070.454	2293.66667
1073.872	2346
1077.287	2314.66667
1080.7	2326.33333
1084.11	2326.66667
1087.517	2303.33333
1090.922	2275.66667
1094.325	2261.66667
1097.724	2233
1101.122	2255.66667
1104.516	2256.66667
1107.908	2250.33333
1111.298	2297.33333
1114.684	2323.66667
1118.069	2360.66667
1121.45	2394
1124.83	2387
1128.206	2433.66667
1131.58	2468
1134.951	2566.33333
1138.32	2630.66667
1141.687	2710.66667
1145.05	2779.66667
1148.412	2796.33333
1151.77	2837
1155.126	2842
1158.48	2799
1161.831	2838
1165.18	2861.33333
1168.525	2887.33333
1171.869	2908.66667
1175.21	2934.33333
1178.548	2947.66667
1181.884	2957.66667
1185.217	2998.66667
1188.548	3054.66667
1191.877	3120.33333
1195.202	3177.66667
1198.526	3217.66667
1201.846	3253.66667
1205.165	3254.66667
1208.48	3220.33333
1211.794	3194
1215.104	3190.33333
1218.413	3173
1221.719	3172.66667
1225.022	3147
1228.323	3103.33333
1231.621	3075.66667
1234.917	3080.33333
1238.21	3094.33333
1241.501	3043.66667
1244.79	3036.66667
1248.076	3018.33333
1251.359	3069
1254.64	3155.66667
1257.919	3151.33333
1261.195	3211.66667
1264.468	3265
1267.74	3282.33333
1271.008	3314.33333
1274.275	3273
1277.538	3285
1280.8	3235
1284.059	3253.66667
1287.315	3309.66667
1290.569	3333.66667
1293.821	3344
1297.07	3347.33333
1300.317	3357.33333
1303.562	3346.66667
1306.803	3331
1310.043	3323
1313.28	3282
1316.515	3272.33333
1319.747	3210
1322.977	3196
1326.204	3157
1329.429	3093.33333
1332.652	3094.33333
1335.872	3059.33333
1339.09	3028.33333
1342.306	2998.66667
1345.519	2973.33333
1348.729	2947
1351.938	2951.33333
1355.144	2888
1358.347	2862.33333
1361.548	2854
1364.747	2852
1367.944	2809.66667
1371.138	2827.66667
1374.329	2842
1377.518	2887.33333
1380.705	2902.66667
1383.89	2906.66667
1387.072	2788.66667
1390.252	2694.66667
1393.429	2593.33333
1396.605	2513
1399.777	2498
1402.948	3001
1406.116	2675.33333
1409.282	2504.33333
1412.445	2372.66667
1415.606	2414.33333
1418.765	2435
1421.921	2501
1425.075	2544.66667
1428.227	2633.66667
1431.376	2706.33333
1434.524	2827.66667
1437.668	2875
1440.811	2951.66667
1443.951	2967
1447.089	2975.66667
1450.224	2955.33333
1453.357	2966.66667
1456.488	2945
1459.617	2900
1462.743	2839.33333
1465.867	2798
1468.989	2783
1472.108	2735.66667
1475.225	2674.33333
1478.34	2654.33333
1481.453	2668.33333
1484.563	2673
1487.671	2736
1490.776	2789.33333
1493.88	2847
1496.981	2862
1500.08	2919
1503.176	2971.33333
1506.271	3013.66667
1509.363	3036.66667
1512.452	3054
1515.54	3107.33333
1518.625	3127.66667
1521.708	3232.66667
1524.789	3313.66667
1527.867	3389.66667
1530.944	3578.33333
1534.018	3719
1537.089	3899.66667
1540.159	3916.66667
1543.226	3936.66667
1546.291	3870.66667
1549.354	3788.66667
1552.415	3719.66667
1555.473	3679.33333
1558.529	3592.66667
1561.583	3571
1564.634	3538
1567.684	3575.66667
1570.731	3574.66667
1573.776	3599
1576.819	3655
1579.859	3699.33333
1582.898	3747
1585.934	3769
1588.968	3784.33333
1591.999	3782
1595.029	3770.66667
1598.056	3803
1601.081	3804
1604.104	3803
1607.125	3754.66667
1610.144	3670
1613.16	3561.66667
1616.174	3491.33333
1619.186	3392
1622.196	3304.33333
1625.203	3198
1628.209	3130.66667
1631.212	3046.66667
1634.213	3005.66667
1637.212	2985.33333
1640.209	2947.33333
1643.203	2863.33333
1646.196	2754.66667
1649.186	2638.66667
1652.174	2544.66667
1655.16	2467.66667
1658.144	2381.33333
1661.125	2270.66667
1664.105	2174
1667.082	2083.33333
1670.057	1953.33333
1673.03	1843.66667
1676.001	1744.33333
1678.97	1641.33333
1681.937	1550
1684.901	1455.33333
1687.863	1423
1690.824	1341
1693.782	1321
1696.738	1268
1699.692	1219
1702.643	1190
1705.593	1180.33333
1708.54	1182
1711.486	1166.33333
1714.429	1149.33333
1717.37	1124.33333
1720.309	1102.33333
1723.246	1111.66667
1726.181	1065
1729.113	1081.33333
1732.044	1061.33333
1734.972	1065
1737.899	1070
1740.823	1051.66667
1743.745	1019.33333
1746.665	1003.33333
1749.583	989.33333
1752.499	988.66667
1755.413	969
1758.325	938
1761.235	949
1764.142	941.66667
1767.048	913
1769.951	909
1772.852	918.66667
1775.752	898.66667
1778.649	903
1781.544	905.66667
1784.437	860.66667
1787.328	897
1790.217	871.66667
1793.104	857.33333
1795.989	856
1798.872	839
1801.753	859
1804.631	850.33333
1807.508	852.33333
1810.383	845.66667
1813.255	838.33333
1816.126	840
1818.994	839.33333
1821.861	834.66667
1824.725	834.66667
1827.587	820
1830.448	828.66667
1833.306	802.33333
1836.162	810
1839.017	801.66667
1841.869	802.33333
1844.719	798.33333
1847.567	774.66667
1850.414	783.33333
1853.258	783.33333
1856.1	797.33333
1858.94	797
1861.778	788.33333
1864.614	780.66667
1867.448	772
1870.28	764.66667
1873.111	792
1875.939	781.33333
1878.765	788
1881.589	766
1884.411	770.33333
1887.231	766
1890.049	760.66667
1892.865	771
1895.68	763.33333
1898.492	765.33333
1901.302	752.66667
1904.11	753.33333
1906.916	746
1909.721	735.33333
1912.523	735.33333
1915.323	735
1918.122	737.66667
1920.918	742.66667
1923.712	725.66667
1926.505	714
1929.295	722
1932.084	725.66667
1934.87	732.66667
1937.655	728
1940.438	726.33333
1943.218	724.33333
1945.997	739
1948.774	737.33333
1951.549	730.66667
1954.322	721
1957.093	715
1959.862	709
1962.629	712.66667
1965.394	708
1968.157	697
1970.918	705.66667
1973.678	696
1976.435	707
1979.19	692
1981.944	692.33333
1984.696	695.33333
1987.445	673.66667
1990.193	687.33333
1992.939	708.66667
1995.683	687
1998.425	661.33333
2001.165	694.33333
2003.903	676.66667
2006.639	686
2009.374	687.66667
2012.106	676.66667
2014.837	666
2017.566	683.66667
2020.292	675
2023.017	674.66667
2025.74	668.33333
2028.461	665.33333
2031.18	670.66667
2033.898	649.33333
2036.613	659.66667
2039.327	656.66667
2042.038	651.33333
2044.748	647.33333
2047.456	660.66667
2050.162	649
2052.866	654.33333
2055.568	664
2058.268	642.33333
2060.967	649.33333
2063.663	638
2066.358	651.66667
2069.051	628.33333
2071.742	645.33333
2074.431	641.33333
2077.118	645
2079.804	643.66667
2082.487	642.33333
2085.169	658.33333
2087.849	654.66667
2090.527	627.33333
2093.203	654.66667
2095.877	660.66667
2098.55	651.33333
2101.22	676.33333
2103.889	680.33333
2106.556	682.33333
2109.221	702
2111.884	713.66667
2114.546	755.33333
2117.205	823
2119.863	881
2122.519	932.66667
2125.173	990.33333
2127.825	1043.33333
2130.475	1061.33333
2133.124	1009
2135.771	959
2138.416	924.66667
2141.059	862
2143.7	828.33333
2146.339	787.66667
2148.977	738.33333
2151.613	730
2154.247	709.33333
2156.879	705.33333
2159.51	674.33333
2162.138	662.33333
2164.765	668.66667
2167.39	648
2170.013	665.66667
2172.634	649
2175.254	641
2177.872	664.66667
2180.488	624
2183.102	630
2185.714	627.33333
2188.325	602.33333
2190.934	617
2193.541	623
2196.146	613.33333
2198.75	602.33333
2201.351	608.66667
2203.951	585.33333
2206.549	602.33333
2209.146	595.33333
2211.74	588
2214.333	599.66667
2216.924	576.66667
2219.514	581.66667
2222.101	575.33333
2224.687	580.33333
2227.271	558.66667
2229.853	554.33333
2232.433	559
2235.012	575.33333
2237.589	571.66667
2240.164	581.33333
2242.738	560.66667
2245.309	550.33333
2247.879	563
2250.448	558
2253.014	534
2255.579	526.33333
2258.142	539.33333
2260.703	522
2263.262	529.33333
2265.82	528.66667
2268.376	535.66667
2270.93	519.66667
2273.483	517
2276.033	531
2278.583	521.66667
2281.13	515.66667
2283.675	511.66667
2286.219	514
2288.761	513
2291.302	523.66667
2293.841	522.66667
2296.377	506
2298.913	513
2301.446	525.66667
2303.978	506.66667
2306.508	507.33333
2309.037	516.66667
2311.563	507.33333
2314.088	512.66667
2316.612	502.66667
2319.133	501
2321.653	503
2324.171	503.33333
2326.688	507.33333
2329.202	500.33333
2331.715	503.33333
2334.227	511.33333
2336.736	500.66667
2339.244	499.33333
2341.751	482.66667
2344.255	497
2346.758	490.66667
2349.259	482.66667
2351.759	495
2354.257	488.66667
2356.753	487
2359.247	493
2361.74	491.33333
2364.231	491.66667
2366.721	494.33333
2369.209	483
2371.695	487
2374.179	486.66667
2376.662	478.66667
2379.143	493
2381.622	489
2384.1	485
2386.576	481.66667
2389.051	497.66667
2391.524	492.66667
2393.995	493.33333
2396.464	478.66667
2398.932	486.33333
2401.398	476.66667
2403.863	485
2406.325	480
2408.787	475.33333
2411.246	483
2413.704	477.33333
2416.16	485.33333
2418.615	479
2421.068	485.66667
2423.519	486.33333
2425.969	475
2428.417	481.33333
2430.863	499.66667
2433.308	489
2435.751	477.33333
2438.193	490.33333
2440.633	481
2443.071	492.66667
2445.508	474.66667
2447.943	480.33333
2450.376	483
2452.808	477.66667
2455.238	477.66667
2457.667	512.66667
2460.093	472.66667
2462.519	469.33333
2464.942	471.33333
2467.365	483.66667
2469.785	489.66667
2472.204	483
2474.621	468.66667
2477.037	498
2479.451	473
2481.863	462.33333
2484.274	480
2486.683	481.66667
2489.091	472
2491.497	486
2493.901	491
2496.304	478
2498.705	490
2501.105	478
2503.503	492.66667
2505.899	472.66667
2508.294	490
2510.687	479.33333
2513.079	474.33333
2515.469	470
2517.858	480
2520.245	490.66667
2522.63	475.66667
2525.014	469
2527.396	462.33333
2529.776	466.33333
2532.156	485
2534.533	465.33333
2536.909	466.33333
2539.283	462.66667
2541.656	460.33333
2544.027	489
2546.397	484
2548.765	470.33333
2551.131	473.33333
2553.496	470
2555.86	485
2558.221	474.66667
2560.582	478
2562.94	472
2565.298	475
2567.653	494.33333
2570.007	466.66667
2572.36	482.66667
2574.711	472
2577.06	495
2579.408	489.66667
2581.754	474
2584.099	478.66667
2586.442	473
2588.784	477.66667
2591.124	490.33333
2593.463	478.33333
2595.8	487.66667
2598.135	474
2600.469	478
2602.802	492
2605.133	494.33333
2607.462	470.33333
2609.79	473
2612.116	486
2614.441	488
2616.764	481
2619.086	492.33333
2621.406	474.66667
2623.725	508.66667
2626.042	497.33333
2628.358	488
2630.672	491.33333
2632.985	498.66667
2635.296	493
2637.606	488
2639.914	485.33333
2642.22	500.33333
2644.525	499.33333
2646.829	491.66667
2649.131	516
2651.432	511.66667
2653.731	506.33333
2656.028	520.33333
2658.324	515.66667
2660.619	505.66667
2662.912	507.66667
2665.204	489.33333
2667.494	511.66667
2669.782	502.33333
2672.07	517
2674.355	518.33333
2676.639	520.66667
2678.922	507.33333
2681.203	517.66667
2683.483	505
2685.761	515.66667
2688.038	519
2690.313	535.33333
2692.587	521
2694.859	510.33333
2697.13	526.33333
2699.399	539
2701.667	529.33333
2703.933	528.66667
2706.198	536
2708.461	544
2710.723	552
2712.984	556.33333
2715.243	560
2717.5	540.33333
2719.757	571.33333
2722.011	547.33333
2724.264	566
2726.516	564.66667
2728.766	550.33333
2731.015	560.33333
2733.262	561.33333
2735.508	558.33333
2737.753	566.33333
2739.996	559.33333
2742.237	557.33333
2744.477	554.33333
2746.716	563.66667
2748.953	555.66667
2751.189	561.66667
2753.423	542.33333
2755.656	536.66667
2757.887	538.33333
2760.117	544.66667
2762.346	536.66667
2764.573	532.33333
2766.798	541
2769.022	540.66667
2771.245	551
2773.467	544
2775.686	562.66667
2777.905	562
2780.122	566
2782.337	569.33333
2784.552	568.33333
2786.764	561.66667
2788.976	577
2791.186	566.66667
2793.394	578.33333
2795.601	589.33333
2797.807	602.33333
2800.011	599.66667
2802.214	604.66667
2804.415	604.66667
2806.615	607.33333
2808.814	618.66667
2811.011	620.33333
2813.206	616
2815.401	622.66667
2817.594	644.66667
2819.785	658
2821.975	643.33333
2824.164	657
2826.351	663
2828.537	671.66667
2830.722	678.33333
2832.905	687.33333
2835.086	708.33333
2837.267	735.33333
2839.445	750.33333
2841.623	756
2843.799	782.33333
2845.974	806.66667
2848.147	832.66667
2850.319	847
2852.489	873
2854.659	893.33333
2856.826	898.66667
2858.993	939.66667
2861.158	911.66667
2863.321	900
2865.483	934
2867.644	938.33333
2869.804	914.33333
2871.962	916.33333
2874.118	913.33333
2876.274	914.33333
2878.428	932
2880.58	915.33333
2882.731	897.33333
2884.881	917.33333
2887.03	912.33333
2889.177	917.33333
2891.322	932.33333
2893.467	912.33333
2895.61	928
2897.751	928.33333
2899.892	918.66667
2902.03	952
2904.168	937.33333
2906.304	950.66667
2908.439	974.33333
2910.572	968.33333
2912.704	971.33333
2914.835	977.33333
2916.965	971.66667
2919.093	992.33333
2921.219	954
2923.345	980.66667
2925.469	941.66667
2927.591	951.33333
2929.712	912.66667
2931.832	935.66667
2933.951	908.66667
2936.068	897.33333
2938.184	875
2940.299	857
2942.412	852.33333
2944.524	813.33333
2946.634	816.33333
2948.744	774.66667
2950.851	793
2952.958	765.33333
2955.063	756.33333
2957.167	761
2959.269	731.33333
2961.371	743.33333
2963.471	707.33333
2965.569	719.66667
2967.666	698.66667
2969.762	688.33333
2971.857	694.33333
2973.95	660.66667
2976.042	669.66667
2978.133	647.66667
2980.222	629.33333
2982.31	619.33333
2984.396	603
2986.482	620.66667
2988.566	595.66667
2990.648	598.66667
2992.73	595
2994.81	585.33333
2996.889	595
2998.966	592.33333
3001.042	592.33333
3003.117	597.66667
3005.191	585
3007.263	583.33333
3009.334	570.66667
3011.403	573.66667
3013.472	552
3015.539	564.66667
3017.604	566.66667
3019.669	539.66667
3021.732	536.66667
3023.794	542
3025.854	538.33333
3027.914	517
3029.971	532
3032.028	537.33333
3034.083	529
3036.137	523
3038.19	502.66667
3040.242	501.33333
3042.292	487.33333
3044.341	501.66667
3046.388	498.66667
3048.435	463.33333
3050.48	489
3052.524	483
3054.566	468.33333
3056.607	481
3058.647	452.66667
3060.686	447.33333
3062.723	430.66667
3064.759	419
3066.794	-0.33333
3068.828	1.33333
3070.86	1
