-0.839	504.45833
3.438	593.45833
7.711	174.125
11.981	61.125
16.247	43.125
20.509	48.45833
24.768	44.79167
29.024	53.125
33.276	44.125
37.524	52.125
41.769	48.79167
46.01	31.45833
50.247	46.125
54.481	59.125
58.712	61.125
62.939	48.79167
67.162	62.125
71.382	56.125
75.599	44.125
79.812	60.79167
84.021	86.79167
88.227	59.125
92.429	55.45833
96.628	54.79167
100.823	72.45833
105.015	76.45833
109.204	69.125
113.388	71.125
117.57	73.79167
121.748	84.79167
125.922	75.79167
130.093	98.125
134.261	95.125
138.425	93.79167
142.585	136.125
146.742	128.45833
150.896	159.125
155.046	185.125
159.193	296.125
163.336	493.125
167.476	897.79167
171.613	1634.45833
175.746	2787.125
179.875	4119.45833
184.002	5423.45833
188.124	6280.45833
192.244	6623.45833
196.36	6562.125
200.472	6431.125
204.581	6242.125
208.687	6112.79167
212.79	6063.125
216.889	6055.45833
220.984	6080.79167
225.077	6104.125
229.165	6067.125
233.251	6122.79167
237.333	6059.45833
241.412	6001.79167
245.487	5931.125
249.559	5855.125
253.628	5856.79167
257.694	5827.79167
261.756	5742.125
265.814	5598.125
269.87	5470.45833
273.922	5277.79167
277.97	5222.45833
282.016	5213.125
286.058	5270.45833
290.097	5427.125
294.132	5469.79167
298.164	5409.125
302.193	5161.45833
306.219	4769.45833
310.241	4371.125
314.26	3983.79167
318.276	3732.125
322.288	3526.45833
326.297	3370.79167
330.303	3251.45833
334.305	3177.125
338.305	3118.79167
342.301	3043.45833
346.294	3037.79167
350.283	3016.79167
354.269	3002.45833
358.252	2966.125
362.232	2952.79167
366.209	2925.45833
370.182	2909.125
374.152	2875.45833
378.119	2877.125
382.083	2869.45833
386.043	2889.79167
390	2871.45833
393.954	2865.125
397.905	2856.79167
401.852	2875.45833
405.797	2805.45833
409.738	2790.45833
413.676	2820.125
417.61	2807.79167
421.542	2764.79167
425.47	2738.125
429.396	2697.125
433.318	2680.45833
437.236	2701.125
441.152	2736.125
445.065	2664.79167
448.974	2664.125
452.88	2650.125
456.783	2618.79167
460.683	2604.45833
464.58	2617.125
468.473	2626.79167
472.364	2650.45833
476.251	2651.125
480.135	2665.125
484.016	2696.125
487.894	2716.79167
491.769	2739.79167
495.641	2727.79167
499.509	2722.45833
503.375	2718.125
507.237	2708.79167
511.096	2699.125
514.952	2768.79167
518.805	2820.125
522.655	2859.79167
526.502	2750.125
530.346	2727.125
534.187	2711.79167
538.024	2711.45833
541.859	2741.79167
545.69	2764.45833
549.519	2745.79167
553.344	2715.125
557.166	2669.125
560.985	2651.45833
564.802	2602.125
568.615	2545.45833
572.425	2518.45833
576.232	2513.79167
580.036	2505.45833
583.836	2517.125
587.634	2529.45833
591.429	2551.125
595.221	2597.45833
599.01	2616.125
602.796	2658.45833
606.578	2636.125
610.358	2640.45833
614.135	2640.125
617.909	2609.45833
621.679	2580.125
625.447	2566.79167
629.212	2574.79167
632.973	2568.125
636.732	2564.45833
640.488	2576.45833
644.241	2537.79167
647.991	2540.45833
651.737	2577.45833
655.481	2523.79167
659.222	2528.79167
662.96	2504.45833
666.695	2549.45833
670.427	2591.125
674.156	2569.79167
677.882	2568.79167
681.605	2539.125
685.325	2517.79167
689.043	2519.79167
692.757	2495.79167
696.468	2523.125
700.177	2507.45833
703.882	2477.125
707.585	2472.125
711.284	2456.125
714.981	2478.125
718.675	2478.125
722.366	2484.125
726.054	2477.45833
729.739	2478.45833
733.421	2496.79167
737.1	2462.125
740.777	2524.45833
744.45	2499.79167
748.121	2546.125
751.789	2590.79167
755.453	2571.79167
759.115	2581.79167
762.774	2597.45833
766.431	2600.79167
770.084	2630.45833
773.734	2661.125
777.382	2709.79167
781.027	2694.79167
784.669	2741.79167
788.308	2744.125
791.944	2751.79167
795.577	2767.79167
799.208	2814.125
802.835	2815.125
806.46	2830.125
810.082	2831.79167
813.701	2852.45833
817.317	2862.79167
820.931	2863.45833
824.542	2875.125
828.149	2846.125
831.754	2805.125
835.357	2797.79167
838.956	2815.45833
842.553	2827.125
846.146	2796.125
849.737	2765.125
853.326	2784.125
856.911	2784.125
860.493	2834.125
864.073	2854.79167
867.65	2908.79167
871.225	2932.45833
874.796	2913.125
878.365	2914.45833
881.931	2929.125
885.494	2947.125
889.054	2955.79167
892.612	2984.45833
896.166	2963.79167
899.719	2926.125
903.268	2869.45833
906.814	2860.79167
910.358	2810.125
913.899	2795.45833
917.438	2817.79167
920.973	2806.79167
924.506	2840.125
928.036	2870.125
931.564	2905.125
935.088	2940.79167
938.61	2959.45833
942.129	2993.79167
945.646	3046.79167
949.16	3117.45833
952.671	3143.45833
956.179	3129.125
959.685	3129.45833
963.188	3110.45833
966.688	3060.79167
970.185	3004.45833
973.68	2915.45833
977.173	2872.79167
980.662	2839.125
984.149	2839.125
987.633	2800.45833
991.114	2870.125
994.593	2921.79167
998.069	3000.125
1001.542	3087.45833
1005.013	3035.79167
1008.481	2873.45833
1011.947	2844.79167
1015.409	2806.79167
1018.869	2803.79167
1022.327	2794.125
1025.782	2786.125
1029.234	2810.125
1032.683	2738.125
1036.13	2662.79167
1039.574	2566.125
1043.016	2492.79167
1046.455	2433.45833
1049.891	2431.45833
1053.325	2420.125
1056.756	2449.79167
1060.184	2450.45833
1063.61	2461.125
1067.033	2490.125
1070.454	2491.125
1073.872	2504.125
1077.287	2507.79167
1080.7	2502.45833
1084.11	2516.125
1087.517	2475.45833
1090.922	2440.45833
1094.325	2419.79167
1097.724	2412.79167
1101.122	2397.125
1104.516	2416.45833
1107.908	2403.79167
1111.298	2449.125
1114.684	2457.45833
1118.069	2496.45833
1121.45	2559.125
1124.83	2516.125
1128.206	2554.79167
1131.58	2579.45833
1134.951	2636.45833
1138.32	2742.125
1141.687	2825.45833
1145.05	2885.79167
1148.412	2899.125
1151.77	2889.45833
1155.126	2857.125
1158.48	2856.79167
1161.831	2875.45833
1165.18	2891.125
1168.525	2937.125
1171.869	2960.45833
1175.21	2974.125
1178.548	3025.125
1181.884	3051.79167
1185.217	3072.45833
1188.548	3152.45833
1191.877	3202.45833
1195.202	3314.79167
1198.526	3394.45833
1201.846	3391.79167
1205.165	3388.125
1208.48	3374.125
1211.794	3358.79167
1215.104	3356.79167
1218.413	3336.45833
1221.719	3340.45833
1225.022	3303.125
1228.323	3262.79167
1231.621	3229.45833
1234.917	3201.45833
1238.21	3209.45833
1241.501	3195.125
1244.79	3207.125
1248.076	3206.79167
1251.359	3207.45833
1254.64	3279.125
1257.919	3321.125
1261.195	3351.45833
1264.468	3394.79167
1267.74	3449.125
1271.008	3464.79167
1274.275	3430.125
1277.538	3417.79167
1280.8	3410.45833
1284.059	3413.125
1287.315	3459.45833
1290.569	3453.45833
1293.821	3476.79167
1297.07	3529.45833
1300.317	3526.45833
1303.562	3527.45833
1306.803	3511.45833
1310.043	3467.125
1313.28	3438.79167
1316.515	3414.125
1319.747	3359.45833
1322.977	3334.45833
1326.204	3313.125
1329.429	3238.79167
1332.652	3243.45833
1335.872	3188.79167
1339.09	3151.45833
1342.306	3180.125
1345.519	3116.45833
1348.729	3068.125
1351.938	3055.79167
1355.144	3016.125
1358.347	2963.79167
1361.548	2946.125
1364.747	2979.45833
1367.944	2942.125
1371.138	2940.79167
1374.329	2960.79167
1377.518	3011.125
1380.705	3011.45833
1383.89	2971.79167
1387.072	2881.45833
1390.252	2795.125
1393.429	2690.45833
1396.605	2614.45833
1399.777	2562.79167
1402.948	2534.45833
1406.116	2502.45833
1409.282	2490.125
1412.445	2494.125
1415.606	2548.45833
1418.765	2574.79167
1421.921	2638.79167
1425.075	2678.45833
1428.227	2755.125
1431.376	2884.125
1434.524	2973.79167
1437.668	3035.45833
1440.811	3099.125
1443.951	3124.79167
1447.089	3114.79167
1450.224	3087.45833
1453.357	3091.45833
1456.488	3064.125
1459.617	3004.79167
1462.743	2972.125
1465.867	2865.45833
1468.989	2858.125
1472.108	2798.79167
1475.225	2743.125
1478.34	2727.45833
1481.453	2688.79167
1484.563	2720.45833
1487.671	2769.45833
1490.776	2783.125
1493.88	2855.79167
1496.981	2861.45833
1500.08	2928.45833
1503.176	2964.125
1506.271	3001.45833
1509.363	3053.125
1512.452	3084.45833
1515.54	3109.45833
1518.625	3150.79167
1521.708	3198.79167
1524.789	3306.79167
1527.867	3414.125
1530.944	3594.45833
1534.018	3775.125
1537.089	3949.45833
1540.159	3979.79167
1543.226	3972.79167
1546.291	3905.79167
1549.354	3824.45833
1552.415	3742.125
1555.473	3628.79167
1558.529	3601.45833
1561.583	3557.45833
1564.634	3526.125
1567.684	3546.125
1570.731	3536.79167
1573.776	3569.125
1576.819	3619.45833
1579.859	3642.125
1582.898	3690.125
1585.934	3713.125
1588.968	3772.79167
1591.999	3750.125
1595.029	3764.79167
1598.056	3743.79167
1601.081	3818.125
1604.104	3788.125
1607.125	3758.125
1610.144	3664.79167
1613.16	3581.79167
1616.174	3492.79167
1619.186	3398.45833
1622.196	3298.79167
1625.203	3195.125
1628.209	3159.125
1631.212	3105.79167
1634.213	3046.125
1637.212	3021.125
1640.209	2974.45833
1643.203	2877.79167
1646.196	2777.79167
1649.186	2697.125
1652.174	2636.45833
1655.16	2510.45833
1658.144	2445.79167
1661.125	2351.125
1664.105	2246.79167
1667.082	2171.79167
1670.057	2053.45833
1673.03	1940.45833
1676.001	1807.125
1678.97	1708.79167
1681.937	1618.45833
1684.901	1518.45833
1687.863	1456.125
1690.824	1408.79167
1693.782	1373.45833
1696.738	1310.45833
1699.692	1314.45833
1702.643	1242.45833
1705.593	1247.45833
1708.54	1238.45833
1711.486	1203.125
1714.429	1177.45833
1717.37	1182.45833
1720.309	1150.45833
1723.246	1157.45833
1726.181	1140.45833
1729.113	1137.79167
1732.044	1140.125
1734.972	1106.79167
1737.899	1123.125
1740.823	1116.79167
1743.745	1071.79167
1746.665	1055.79167
1749.583	1052.45833
1752.499	1029.79167
1755.413	1013.79167
1758.325	1006.45833
1761.235	1004.45833
1764.142	981.125
1767.048	958.45833
1769.951	955.125
1772.852	958.45833
1775.752	944.45833
1778.649	970.45833
1781.544	951.125
1784.437	921.79167
1787.328	933.79167
1790.217	922.45833
1793.104	894.79167
1795.989	913.45833
1798.872	898.125
1801.753	918.45833
1804.631	891.45833
1807.508	907.79167
1810.383	907.45833
1813.255	881.45833
1816.126	881.79167
1818.994	884.79167
1821.861	874.79167
1824.725	882.125
1827.587	887.79167
1830.448	864.45833
1833.306	853.125
1836.162	861.45833
1839.017	857.125
1841.869	847.45833
1844.719	838.45833
1847.567	827.79167
1850.414	826.79167
1853.258	827.79167
1856.1	849.79167
1858.94	841.79167
1861.778	840.125
1864.614	821.125
1867.448	823.45833
1870.28	811.45833
1873.111	842.79167
1875.939	837.45833
1878.765	841.125
1881.589	808.45833
1884.411	812.125
1887.231	815.45833
1890.049	807.79167
1892.865	822.45833
1895.68	794.79167
1898.492	806.125
1901.302	805.45833
1904.11	800.125
1906.916	785.79167
1909.721	778.45833
1912.523	800.45833
1915.323	769.45833
1918.122	775.125
1920.918	790.125
1923.712	766.45833
1926.505	772.79167
1929.295	769.79167
1932.084	780.79167
1934.87	774.45833
1937.655	772.45833
1940.438	762.125
1943.218	770.79167
1945.997	764.45833
1948.774	769.79167
1951.549	777.125
1954.322	764.125
1957.093	766.125
1959.862	743.125
1962.629	754.45833
1965.394	762.79167
1968.157	732.45833
1970.918	738.79167
1973.678	743.79167
1976.435	737.45833
1979.19	735.79167
1981.944	728.79167
1984.696	719.79167
1987.445	710.45833
1990.193	720.125
1992.939	747.45833
1995.683	724.79167
1998.425	710.125
2001.165	740.45833
2003.903	709.79167
2006.639	728.125
2009.374	720.125
2012.106	717.125
2014.837	696.79167
2017.566	722.125
2020.292	713.45833
2023.017	713.79167
2025.74	700.45833
2028.461	691.45833
2031.18	703.79167
2033.898	698.79167
2036.613	690.79167
2039.327	701.125
2042.038	685.79167
2044.748	694.79167
2047.456	695.79167
2050.162	685.125
2052.866	689.79167
2055.568	688.79167
2058.268	685.45833
2060.967	687.125
2063.663	677.125
2066.358	666.125
2069.051	665.45833
2071.742	688.45833
2074.431	683.45833
2077.118	668.45833
2079.804	666.125
2082.487	677.125
2085.169	677.45833
2087.849	697.45833
2090.527	667.45833
2093.203	681.125
2095.877	686.45833
2098.55	697.45833
2101.22	698.79167
2103.889	714.79167
2106.556	707.125
2109.221	726.79167
2111.884	744.125
2114.546	783.45833
2117.205	829.45833
2119.863	906.79167
2122.519	950.79167
2125.173	999.79167
2127.825	1044.79167
2130.475	1043.45833
2133.124	1007.125
2135.771	962.79167
2138.416	927.125
2141.059	859.79167
2143.7	838.79167
2146.339	788.79167
2148.977	744.45833
2151.613	742.125
2154.247	720.125
2156.879	712.79167
2159.51	684.79167
2162.138	673.125
2164.765	671.45833
2167.39	650.125
2170.013	675.79167
2172.634	667.79167
2175.254	647.79167
2177.872	691.79167
2180.488	644.79167
2183.102	656.79167
2185.714	647.79167
2188.325	621.125
2190.934	630.45833
2193.541	642.45833
2196.146	627.79167
2198.75	611.125
2201.351	618.45833
2203.951	609.125
2206.549	629.79167
2209.146	609.125
2211.74	601.79167
2214.333	616.125
2216.924	593.79167
2219.514	602.125
2222.101	599.125
2224.687	609.79167
2227.271	596.79167
2229.853	586.79167
2232.433	563.79167
2235.012	587.79167
2237.589	597.45833
2240.164	597.45833
2242.738	591.45833
2245.309	574.79167
2247.879	578.79167
2250.448	589.125
2253.014	567.45833
2255.579	556.45833
2258.142	560.79167
2260.703	554.45833
2263.262	562.79167
2265.82	559.45833
2268.376	558.45833
2270.93	542.45833
2273.483	547.125
2276.033	547.79167
2278.583	556.79167
2281.13	547.79167
2283.675	538.125
2286.219	548.45833
2288.761	541.79167
2291.302	540.45833
2293.841	560.45833
2296.377	526.45833
2298.913	539.45833
2301.446	544.45833
2303.978	542.79167
2306.508	544.125
2309.037	551.125
2311.563	537.45833
2314.088	542.45833
2316.612	530.125
2319.133	541.125
2321.653	548.79167
2324.171	524.125
2326.688	542.79167
2329.202	531.125
2331.715	538.125
2334.227	524.79167
2336.736	537.45833
2339.244	525.79167
2341.751	522.125
2344.255	533.125
2346.758	526.79167
2349.259	520.125
2351.759	519.79167
2354.257	510.125
2356.753	509.125
2359.247	527.79167
2361.74	525.125
2364.231	517.125
2366.721	524.79167
2369.209	505.45833
2371.695	524.45833
2374.179	516.79167
2376.662	511.79167
2379.143	523.45833
2381.622	519.125
2384.1	526.125
2386.576	515.125
2389.051	545.125
2391.524	530.79167
2393.995	522.125
2396.464	517.79167
2398.932	522.125
2401.398	506.79167
2403.863	516.125
2406.325	503.79167
2408.787	514.79167
2411.246	522.45833
2413.704	510.79167
2416.16	522.45833
2418.615	511.45833
2421.068	523.45833
2423.519	526.45833
2425.969	516.45833
2428.417	521.45833
2430.863	526.45833
2433.308	525.45833
2435.751	517.79167
2438.193	516.125
2440.633	515.45833
2443.071	526.79167
2445.508	523.45833
2447.943	516.45833
2450.376	505.125
2452.808	508.79167
2455.238	511.125
2457.667	544.45833
2460.093	514.45833
2462.519	510.45833
2464.942	515.125
2467.365	526.79167
2469.785	529.79167
2472.204	524.79167
2474.621	505.79167
2477.037	531.45833
2479.451	498.79167
2481.863	505.79167
2484.274	509.79167
2486.683	519.45833
2489.091	509.79167
2491.497	515.79167
2493.901	523.45833
2496.304	513.125
2498.705	519.45833
2501.105	515.125
2503.503	541.125
2505.899	506.79167
2508.294	531.45833
2510.687	520.45833
2513.079	515.125
2515.469	519.79167
2517.858	520.79167
2520.245	520.45833
2522.63	521.125
2525.014	504.45833
2527.396	501.79167
2529.776	499.125
2532.156	530.125
2534.533	512.45833
2536.909	508.125
2539.283	505.79167
2541.656	507.125
2544.027	541.45833
2546.397	513.79167
2548.765	513.125
2551.131	516.79167
2553.496	512.45833
2555.86	533.79167
2558.221	515.45833
2560.582	512.45833
2562.94	503.45833
2565.298	525.125
2567.653	534.45833
2570.007	512.125
2572.36	531.45833
2574.711	518.125
2577.06	537.125
2579.408	534.125
2581.754	522.79167
2584.099	525.125
2586.442	527.79167
2588.784	519.79167
2591.124	531.79167
2593.463	538.125
2595.8	539.125
2598.135	519.45833
2600.469	530.79167
2602.802	539.125
2605.133	539.45833
2607.462	526.79167
2609.79	517.125
2612.116	545.45833
2614.441	541.125
2616.764	543.45833
2619.086	532.125
2621.406	517.125
2623.725	551.45833
2626.042	543.45833
2628.358	525.125
2630.672	544.125
2632.985	556.45833
2635.296	543.45833
2637.606	544.45833
2639.914	533.125
2642.22	536.125
2644.525	543.125
2646.829	554.45833
2649.131	563.45833
2651.432	570.45833
2653.731	550.79167
2656.028	565.125
2658.324	571.79167
2660.619	553.45833
2662.912	573.45833
2665.204	551.125
2667.494	570.79167
2669.782	558.79167
2672.07	578.45833
2674.355	578.125
2676.639	563.79167
2678.922	560.45833
2681.203	566.45833
2683.483	564.125
2685.761	563.79167
2688.038	570.125
2690.313	594.45833
2692.587	580.45833
2694.859	564.79167
2697.13	580.79167
2699.399	587.79167
2701.667	594.45833
2703.933	594.125
2706.198	590.45833
2708.461	606.79167
2710.723	607.125
2712.984	607.79167
2715.243	610.45833
2717.5	605.125
2719.757	622.79167
2722.011	605.125
2724.264	614.79167
2726.516	650.125
2728.766	609.79167
2731.015	622.125
2733.262	634.125
2735.508	629.125
2737.753	623.45833
2739.996	619.45833
2742.237	618.79167
2744.477	620.125
2746.716	619.125
2748.953	621.125
2751.189	623.45833
2753.423	609.45833
2755.656	600.125
2757.887	611.125
2760.117	609.79167
2762.346	611.79167
2764.573	601.45833
2766.798	603.79167
2769.022	602.45833
2771.245	608.45833
2773.467	613.45833
2775.686	617.125
2777.905	616.79167
2780.122	631.125
2782.337	636.125
2784.552	631.79167
2786.764	629.125
2788.976	641.125
2791.186	640.79167
2793.394	645.45833
2795.601	656.45833
2797.807	662.79167
2800.011	674.125
2802.214	685.125
2804.415	670.125
2806.615	678.45833
2808.814	679.45833
2811.011	686.125
2813.206	692.45833
2815.401	711.45833
2817.594	703.125
2819.785	710.45833
2821.975	722.45833
2824.164	717.79167
2826.351	729.125
2828.537	736.125
2830.722	754.79167
2832.905	754.79167
2835.086	788.45833
2837.267	810.125
2839.445	827.79167
2841.623	832.125
2843.799	858.125
2845.974	888.79167
2848.147	921.79167
2850.319	932.79167
2852.489	967.79167
2854.659	982.79167
2856.826	988.125
2858.993	1028.125
2861.158	982.125
2863.321	990.45833
2865.483	1016.45833
2867.644	1014.45833
2869.804	994.125
2871.962	999.79167
2874.118	1003.45833
2876.274	1014.45833
2878.428	1004.45833
2880.58	998.45833
2882.731	991.45833
2884.881	990.45833
2887.03	1001.125
2889.177	993.79167
2891.322	1020.125
2893.467	1005.125
2895.61	1010.79167
2897.751	1028.125
2899.892	1017.45833
2902.03	1038.79167
2904.168	1030.125
2906.304	1023.79167
2908.439	1052.79167
2910.572	1043.79167
2912.704	1042.125
2914.835	1060.125
2916.965	1059.45833
2919.093	1065.45833
2921.219	1040.45833
2923.345	1061.125
2925.469	1027.79167
2927.591	1018.79167
2929.712	1004.125
2931.832	1011.45833
2933.951	982.125
2936.068	980.125
2938.184	961.45833
2940.299	932.79167
2942.412	918.79167
2944.524	895.45833
2946.634	890.45833
2948.744	846.125
2950.851	880.45833
2952.958	831.79167
2955.063	838.45833
2957.167	826.79167
2959.269	802.79167
2961.371	824.45833
2963.471	792.79167
2965.569	796.125
2967.666	774.125
2969.762	771.45833
2971.857	766.125
2973.95	733.45833
2976.042	739.79167
2978.133	720.45833
2980.222	717.125
2982.31	693.45833
2984.396	679.45833
2986.482	680.45833
2988.566	667.125
2990.648	675.45833
2992.73	672.79167
2994.81	661.125
2996.889	667.125
2998.966	667.79167
3001.042	670.79167
3003.117	668.125
3005.191	661.125
3007.263	661.45833
3009.334	648.79167
3011.403	651.79167
3013.472	628.125
3015.539	631.125
3017.604	634.125
3019.669	608.45833
3021.732	608.79167
3023.794	605.45833
3025.854	597.45833
3027.914	607.79167
3029.971	614.125
3032.028	613.79167
3034.083	599.45833
3036.137	594.45833
3038.19	580.79167
3040.242	571.79167
3042.292	557.125
3044.341	554.45833
3046.388	567.79167
3048.435	538.125
3050.48	555.45833
3052.524	558.125
3054.566	524.79167
3056.607	536.45833
3058.647	524.125
3060.686	511.125
3062.723	489.125
3064.759	471.125
3066.794	-1.20833
3068.828	3.45833
3070.86	2.45833
