-0.839	411.54167
3.438	495.875
7.711	149.20833
11.981	57.20833
16.247	46.20833
20.509	46.875
24.768	39.20833
29.024	56.54167
33.276	41.20833
37.524	47.54167
41.769	47.54167
46.01	31.54167
50.247	42.20833
54.481	54.20833
58.712	57.875
62.939	46.54167
67.162	63.20833
71.382	53.875
75.599	44.875
79.812	58.875
84.021	77.54167
88.227	56.54167
92.429	56.54167
96.628	51.20833
100.823	66.875
105.015	76.20833
109.204	61.875
113.388	68.54167
117.57	76.20833
121.748	79.54167
125.922	74.20833
130.093	93.20833
134.261	85.20833
138.425	89.20833
142.585	128.54167
146.742	118.20833
150.896	142.20833
155.046	168.54167
159.193	267.54167
163.336	447.20833
167.476	813.54167
171.613	1499.20833
175.746	2489.54167
179.875	3709.875
184.002	4841.20833
188.124	5637.875
192.244	5923.20833
196.36	5855.20833
200.472	5713.54167
204.581	5541.875
208.687	5359.875
212.79	5338.54167
216.889	5302.875
220.984	5298.54167
225.077	5308.875
229.165	5250.20833
233.251	5238.54167
237.333	5180.54167
241.412	5104.54167
245.487	5063.20833
249.559	5014.20833
253.628	4994.20833
257.694	4968.20833
261.756	4953.875
265.814	4837.875
269.87	4679.54167
273.922	4576.875
277.97	4530.20833
282.016	4547.875
286.058	4610.54167
290.097	4716.54167
294.132	4821.20833
298.164	4755.20833
302.193	4484.54167
306.219	4167.875
310.241	3887.875
314.26	3578.20833
318.276	3292.54167
322.288	3146.54167
326.297	2985.54167
330.303	2896.54167
334.305	2824.20833
338.305	2776.875
342.301	2735.20833
346.294	2699.875
350.283	2682.875
354.269	2651.875
358.252	2632.20833
362.232	2609.54167
366.209	2585.54167
370.182	2563.20833
374.152	2563.20833
378.119	2574.54167
382.083	2557.54167
386.043	2560.54167
390	2536.20833
393.954	2552.20833
397.905	2549.54167
401.852	2525.54167
405.797	2511.54167
409.738	2479.875
413.676	2483.54167
417.61	2479.54167
421.542	2470.20833
425.47	2450.54167
429.396	2457.54167
433.318	2406.875
437.236	2414.875
441.152	2435.875
445.065	2391.54167
448.974	2374.875
452.88	2354.875
456.783	2343.875
460.683	2324.54167
464.58	2314.54167
468.473	2338.54167
472.364	2350.20833
476.251	2360.875
480.135	2373.20833
484.016	2418.54167
487.894	2431.875
491.769	2429.54167
495.641	2423.20833
499.509	2408.20833
503.375	2416.875
507.237	2416.54167
511.096	2467.875
514.952	2568.54167
518.805	2690.54167
522.655	2732.20833
526.502	2574.54167
530.346	2454.54167
534.187	2442.875
538.024	2437.20833
541.859	2456.54167
545.69	2471.20833
549.519	2470.54167
553.344	2431.20833
557.166	2405.54167
560.985	2342.54167
564.802	2328.20833
568.615	2289.20833
572.425	2247.20833
576.232	2250.54167
580.036	2246.54167
583.836	2239.20833
587.634	2255.54167
591.429	2250.875
595.221	2317.20833
599.01	2328.54167
602.796	2339.20833
606.578	2362.54167
610.358	2367.875
614.135	2336.20833
617.909	2311.875
621.679	2314.875
625.447	2290.20833
629.212	2297.875
632.973	2305.875
636.732	2308.54167
640.488	2302.54167
644.241	2267.20833
647.991	2273.20833
651.737	2291.54167
655.481	2229.20833
659.222	2257.54167
662.96	2243.20833
666.695	2264.875
670.427	2282.54167
674.156	2296.54167
677.882	2295.54167
681.605	2271.54167
685.325	2246.20833
689.043	2260.875
692.757	2236.54167
696.468	2235.875
700.177	2233.875
703.882	2219.20833
707.585	2198.875
711.284	2211.875
714.981	2212.875
718.675	2206.54167
722.366	2223.54167
726.054	2219.875
729.739	2208.54167
733.421	2250.20833
737.1	2228.875
740.777	2229.20833
744.45	2270.54167
748.121	2288.20833
751.789	2334.54167
755.453	2291.875
759.115	2323.20833
762.774	2329.20833
766.431	2358.54167
770.084	2392.875
773.734	2371.54167
777.382	2403.875
781.027	2444.54167
784.669	2448.54167
788.308	2460.20833
791.944	2478.875
795.577	2508.875
799.208	2526.20833
802.835	2528.20833
806.46	2530.20833
810.082	2520.54167
813.701	2537.875
817.317	2560.20833
820.931	2560.20833
824.542	2568.54167
828.149	2534.20833
831.754	2503.875
835.357	2518.20833
838.956	2547.875
842.553	2524.20833
846.146	2514.54167
849.737	2497.20833
853.326	2508.875
856.911	2500.20833
860.493	2531.54167
864.073	2549.54167
867.65	2600.54167
871.225	2621.875
874.796	2618.20833
878.365	2618.54167
881.931	2631.20833
885.494	2656.20833
889.054	2661.875
892.612	2687.20833
896.166	2651.54167
899.719	2625.875
903.268	2588.20833
906.814	2571.54167
910.358	2531.20833
913.899	2531.875
917.438	2497.20833
920.973	2512.20833
924.506	2545.20833
928.036	2588.20833
931.564	2636.875
935.088	2655.20833
938.61	2648.875
942.129	2741.20833
945.646	2782.54167
949.16	2804.20833
952.671	2839.875
956.179	2830.875
959.685	2763.54167
963.188	2765.20833
966.688	2710.875
970.185	2631.54167
973.68	2604.54167
977.173	2571.54167
980.662	2515.54167
984.149	2519.875
987.633	2523.20833
991.114	2576.875
994.593	2610.875
998.069	2685.20833
1001.542	2756.54167
1005.013	2718.20833
1008.481	2559.20833
1011.947	2529.20833
1015.409	2496.54167
1018.869	2524.875
1022.327	2509.54167
1025.782	2482.20833
1029.234	2491.54167
1032.683	2454.875
1036.13	2383.875
1039.574	2292.54167
1043.016	2216.54167
1046.455	2204.54167
1049.891	2195.54167
1053.325	2197.20833
1056.756	2215.54167
1060.184	2203.54167
1063.61	2237.20833
1067.033	2240.20833
1070.454	2248.875
1073.872	2258.54167
1077.287	2264.20833
1080.7	2262.54167
1084.11	2250.20833
1087.517	2231.54167
1090.922	2209.54167
1094.325	2180.875
1097.724	2167.54167
1101.122	2184.875
1104.516	2166.20833
1107.908	2161.875
1111.298	2184.54167
1114.684	2228.54167
1118.069	2273.875
1121.45	2307.875
1124.83	2281.54167
1128.206	2335.875
1131.58	2379.20833
1134.951	2401.875
1138.32	2508.54167
1141.687	2579.54167
1145.05	2618.875
1148.412	2627.875
1151.77	2606.875
1155.126	2594.20833
1158.48	2593.54167
1161.831	2604.875
1165.18	2616.54167
1168.525	2643.20833
1171.869	2651.875
1175.21	2668.20833
1178.548	2701.54167
1181.884	2719.54167
1185.217	2746.875
1188.548	2814.20833
1191.877	2881.54167
1195.202	2932.20833
1198.526	3017.20833
1201.846	3035.20833
1205.165	3036.20833
1208.48	3017.875
1211.794	3015.20833
1215.104	3054.20833
1218.413	3023.54167
1221.719	3014.54167
1225.022	2991.20833
1228.323	2947.54167
1231.621	2899.875
1234.917	2901.20833
1238.21	2901.20833
1241.501	2887.875
1244.79	2865.20833
1248.076	2871.875
1251.359	2903.20833
1254.64	2992.20833
1257.919	2998.54167
1261.195	3037.875
1264.468	3081.20833
1267.74	3119.20833
1271.008	3110.54167
1274.275	3075.875
1277.538	3064.54167
1280.8	3097.54167
1284.059	3070.20833
1287.315	3116.875
1290.569	3157.20833
1293.821	3153.20833
1297.07	3176.875
1300.317	3199.20833
1303.562	3189.54167
1306.803	3138.54167
1310.043	3142.54167
1313.28	3083.20833
1316.515	3056.875
1319.747	3038.875
1322.977	3021.20833
1326.204	2958.875
1329.429	2919.875
1332.652	2872.20833
1335.872	2874.20833
1339.09	2842.54167
1342.306	2824.54167
1345.519	2798.54167
1348.729	2783.875
1351.938	2774.54167
1355.144	2749.20833
1358.347	2705.54167
1361.548	2733.875
1364.747	2709.20833
1367.944	2673.54167
1371.138	2668.20833
1374.329	2695.20833
1377.518	2744.20833
1380.705	2732.875
1383.89	2702.20833
1387.072	2610.54167
1390.252	2509.54167
1393.429	2457.20833
1396.605	2392.54167
1399.777	2309.875
1402.948	2310.20833
1406.116	2294.54167
1409.282	2274.54167
1412.445	2289.20833
1415.606	2327.20833
1418.765	2337.875
1421.921	2389.54167
1425.075	2466.20833
1428.227	2526.54167
1431.376	2634.54167
1434.524	2737.875
1437.668	2800.875
1440.811	2801.54167
1443.951	2856.875
1447.089	2842.20833
1450.224	2824.875
1453.357	2790.54167
1456.488	2784.20833
1459.617	2728.54167
1462.743	2677.54167
1465.867	2615.20833
1468.989	2583.20833
1472.108	2526.20833
1475.225	2484.20833
1478.34	2462.54167
1481.453	2443.875
1484.563	2473.875
1487.671	2503.20833
1490.776	2530.875
1493.88	2567.54167
1496.981	2604.20833
1500.08	2638.20833
1503.176	2665.875
1506.271	2711.20833
1509.363	2734.20833
1512.452	2749.54167
1515.54	2772.875
1518.625	2798.20833
1521.708	2882.875
1524.789	2955.20833
1527.867	3044.875
1530.944	3188.20833
1534.018	3317.20833
1537.089	3446.54167
1540.159	3515.20833
1543.226	3503.875
1546.291	3433.20833
1549.354	3372.54167
1552.415	3302.54167
1555.473	3249.875
1558.529	3208.875
1561.583	3171.54167
1564.634	3151.20833
1567.684	3142.54167
1570.731	3160.54167
1573.776	3177.20833
1576.819	3195.875
1579.859	3224.20833
1582.898	3273.20833
1585.934	3294.54167
1588.968	3335.54167
1591.999	3305.20833
1595.029	3329.875
1598.056	3365.54167
1601.081	3395.875
1604.104	3375.875
1607.125	3347.20833
1610.144	3258.20833
1613.16	3191.20833
1616.174	3128.875
1619.186	3027.20833
1622.196	2950.20833
1625.203	2850.54167
1628.209	2793.875
1631.212	2745.54167
1634.213	2702.54167
1637.212	2733.20833
1640.209	2669.875
1643.203	2603.875
1646.196	2547.875
1649.186	2480.54167
1652.174	2397.875
1655.16	2334.54167
1658.144	2262.875
1661.125	2167.54167
1664.105	2101.54167
1667.082	2008.54167
1670.057	1898.875
1673.03	1780.20833
1676.001	1669.875
1678.97	1585.875
1681.937	1485.54167
1684.901	1407.20833
1687.863	1357.20833
1690.824	1288.20833
1693.782	1276.875
1696.738	1232.54167
1699.692	1197.54167
1702.643	1168.54167
1705.593	1171.20833
1708.54	1147.875
1711.486	1142.54167
1714.429	1108.54167
1717.37	1111.875
1720.309	1077.875
1723.246	1098.54167
1726.181	1062.54167
1729.113	1073.20833
1732.044	1058.20833
1734.972	1045.20833
1737.899	1053.54167
1740.823	1042.20833
1743.745	1016.875
1746.665	1015.875
1749.583	994.875
1752.499	978.54167
1755.413	976.54167
1758.325	951.20833
1761.235	932.20833
1764.142	934.875
1767.048	916.875
1769.951	927.875
1772.852	916.20833
1775.752	905.54167
1778.649	905.875
1781.544	901.20833
1784.437	873.54167
1787.328	897.875
1790.217	878.20833
1793.104	871.875
1795.989	867.54167
1798.872	852.875
1801.753	869.54167
1804.631	872.875
1807.508	868.54167
1810.383	872.20833
1813.255	863.875
1816.126	859.875
1818.994	843.54167
1821.861	853.54167
1824.725	851.54167
1827.587	848.875
1830.448	834.54167
1833.306	819.54167
1836.162	828.54167
1839.017	827.20833
1841.869	827.875
1844.719	816.875
1847.567	794.54167
1850.414	789.875
1853.258	807.20833
1856.1	818.54167
1858.94	817.20833
1861.778	808.54167
1864.614	797.875
1867.448	804.20833
1870.28	791.875
1873.111	825.54167
1875.939	797.54167
1878.765	824.20833
1881.589	792.20833
1884.411	795.20833
1887.231	803.54167
1890.049	796.875
1892.865	799.875
1895.68	780.875
1898.492	799.54167
1901.302	770.875
1904.11	785.54167
1906.916	770.875
1909.721	758.20833
1912.523	772.875
1915.323	758.54167
1918.122	762.875
1920.918	780.875
1923.712	767.54167
1926.505	743.20833
1929.295	757.875
1932.084	774.54167
1934.87	767.20833
1937.655	756.20833
1940.438	749.20833
1943.218	749.20833
1945.997	761.54167
1948.774	775.54167
1951.549	765.54167
1954.322	753.20833
1957.093	761.54167
1959.862	746.875
1962.629	746.875
1965.394	739.875
1968.157	730.875
1970.918	742.54167
1973.678	728.875
1976.435	753.20833
1979.19	738.54167
1981.944	728.20833
1984.696	725.54167
1987.445	724.20833
1990.193	736.875
1992.939	738.20833
1995.683	728.875
1998.425	717.20833
2001.165	748.875
2003.903	711.20833
2006.639	732.54167
2009.374	731.20833
2012.106	724.875
2014.837	703.54167
2017.566	721.54167
2020.292	713.20833
2023.017	707.54167
2025.74	714.20833
2028.461	706.20833
2031.18	708.54167
2033.898	696.20833
2036.613	704.54167
2039.327	709.20833
2042.038	693.875
2044.748	708.54167
2047.456	714.54167
2050.162	689.54167
2052.866	702.875
2055.568	712.54167
2058.268	684.54167
2060.967	695.20833
2063.663	683.875
2066.358	690.54167
2069.051	689.54167
2071.742	704.20833
2074.431	702.875
2077.118	693.20833
2079.804	685.20833
2082.487	682.20833
2085.169	708.54167
2087.849	717.875
2090.527	701.54167
2093.203	700.875
2095.877	714.54167
2098.55	709.20833
2101.22	723.54167
2103.889	725.875
2106.556	741.54167
2109.221	762.20833
2111.884	764.875
2114.546	820.54167
2117.205	859.20833
2119.863	922.875
2122.519	952.875
2125.173	994.54167
2127.825	1051.54167
2130.475	1037.20833
2133.124	988.20833
2135.771	954.875
2138.416	925.875
2141.059	864.875
2143.7	838.54167
2146.339	796.20833
2148.977	761.20833
2151.613	761.20833
2154.247	743.54167
2156.879	726.54167
2159.51	713.875
2162.138	701.875
2164.765	713.20833
2167.39	691.54167
2170.013	694.20833
2172.634	706.54167
2175.254	690.875
2177.872	720.875
2180.488	674.54167
2183.102	690.20833
2185.714	672.54167
2188.325	660.20833
2190.934	674.54167
2193.541	677.54167
2196.146	655.875
2198.75	652.54167
2201.351	654.54167
2203.951	650.20833
2206.549	664.875
2209.146	652.20833
2211.74	656.54167
2214.333	654.54167
2216.924	639.875
2219.514	646.875
2222.101	635.875
2224.687	661.875
2227.271	644.20833
2229.853	625.875
2232.433	635.875
2235.012	643.54167
2237.589	657.875
2240.164	655.875
2242.738	638.54167
2245.309	637.875
2247.879	642.20833
2250.448	655.54167
2253.014	633.875
2255.579	613.875
2258.142	621.20833
2260.703	618.20833
2263.262	627.20833
2265.82	624.875
2268.376	622.20833
2270.93	607.875
2273.483	611.54167
2276.033	614.20833
2278.583	621.20833
2281.13	620.875
2283.675	604.875
2286.219	615.20833
2288.761	614.54167
2291.302	617.20833
2293.841	620.20833
2296.377	614.875
2298.913	607.20833
2301.446	628.20833
2303.978	620.54167
2306.508	606.20833
2309.037	626.54167
2311.563	622.20833
2314.088	623.54167
2316.612	599.54167
2319.133	622.20833
2321.653	611.20833
2324.171	608.20833
2326.688	620.875
2329.202	608.54167
2331.715	602.20833
2334.227	607.54167
2336.736	612.54167
2339.244	611.875
2341.751	591.875
2344.255	617.54167
2346.758	619.20833
2349.259	604.20833
2351.759	617.54167
2354.257	602.20833
2356.753	607.20833
2359.247	621.54167
2361.74	616.54167
2364.231	626.875
2366.721	615.20833
2369.209	604.54167
2371.695	620.20833
2374.179	609.875
2376.662	608.20833
2379.143	633.20833
2381.622	609.54167
2384.1	625.875
2386.576	613.875
2389.051	625.54167
2391.524	640.54167
2393.995	612.875
2396.464	617.54167
2398.932	613.54167
2401.398	623.20833
2403.863	624.54167
2406.325	616.20833
2408.787	628.20833
2411.246	626.54167
2413.704	617.54167
2416.16	620.20833
2418.615	624.54167
2421.068	639.20833
2423.519	644.20833
2425.969	630.54167
2428.417	621.875
2430.863	651.54167
2433.308	637.54167
2435.751	628.20833
2438.193	640.875
2440.633	644.54167
2443.071	636.20833
2445.508	626.875
2447.943	633.20833
2450.376	628.20833
2452.808	636.875
2455.238	615.875
2457.667	670.54167
2460.093	635.875
2462.519	632.875
2464.942	637.20833
2467.365	646.20833
2469.785	653.875
2472.204	647.20833
2474.621	644.875
2477.037	658.54167
2479.451	629.875
2481.863	637.20833
2484.274	649.875
2486.683	649.20833
2489.091	651.54167
2491.497	653.875
2493.901	651.54167
2496.304	649.54167
2498.705	664.875
2501.105	651.875
2503.503	675.20833
2505.899	644.875
2508.294	664.875
2510.687	662.20833
2513.079	664.54167
2515.469	650.875
2517.858	674.875
2520.245	674.54167
2522.63	658.20833
2525.014	648.54167
2527.396	656.20833
2529.776	658.20833
2532.156	673.54167
2534.533	655.54167
2536.909	659.54167
2539.283	652.875
2541.656	657.875
2544.027	695.20833
2546.397	675.20833
2548.765	674.20833
2551.131	677.875
2553.496	673.875
2555.86	692.875
2558.221	682.54167
2560.582	667.54167
2562.94	681.54167
2565.298	677.54167
2567.653	700.20833
2570.007	688.875
2572.36	701.875
2574.711	686.875
2577.06	707.875
2579.408	700.875
2581.754	708.20833
2584.099	699.20833
2586.442	698.54167
2588.784	704.20833
2591.124	712.54167
2593.463	702.20833
2595.8	713.20833
2598.135	688.54167
2600.469	693.875
2602.802	714.54167
2605.133	724.875
2607.462	700.54167
2609.79	690.20833
2612.116	730.54167
2614.441	712.54167
2616.764	714.875
2619.086	721.20833
2621.406	710.20833
2623.725	745.875
2626.042	735.20833
2628.358	722.54167
2630.672	718.875
2632.985	744.875
2635.296	738.20833
2637.606	747.54167
2639.914	723.875
2642.22	743.875
2644.525	743.20833
2646.829	746.20833
2649.131	759.54167
2651.432	761.54167
2653.731	757.20833
2656.028	767.54167
2658.324	784.20833
2660.619	759.20833
2662.912	773.20833
2665.204	758.54167
2667.494	768.54167
2669.782	760.875
2672.07	778.54167
2674.355	788.54167
2676.639	782.54167
2678.922	779.875
2681.203	779.875
2683.483	776.54167
2685.761	780.54167
2688.038	791.20833
2690.313	815.20833
2692.587	797.875
2694.859	783.54167
2697.13	802.20833
2699.399	816.875
2701.667	824.875
2703.933	803.875
2706.198	813.54167
2708.461	818.875
2710.723	830.875
2712.984	824.54167
2715.243	822.20833
2717.5	834.875
2719.757	841.875
2722.011	843.875
2724.264	851.20833
2726.516	863.20833
2728.766	865.20833
2731.015	880.54167
2733.262	851.875
2735.508	853.875
2737.753	873.875
2739.996	854.875
2742.237	855.20833
2744.477	868.875
2746.716	864.875
2748.953	866.20833
2751.189	861.20833
2753.423	860.20833
2755.656	851.54167
2757.887	842.20833
2760.117	856.20833
2762.346	848.54167
2764.573	844.875
2766.798	854.875
2769.022	848.54167
2771.245	857.54167
2773.467	870.20833
2775.686	866.875
2777.905	864.20833
2780.122	868.54167
2782.337	883.20833
2784.552	878.875
2786.764	895.875
2788.976	900.20833
2791.186	888.875
2793.394	915.875
2795.601	910.20833
2797.807	931.875
2800.011	943.54167
2802.214	935.20833
2804.415	941.20833
2806.615	949.875
2808.814	934.54167
2811.011	953.875
2813.206	957.54167
2815.401	972.875
2817.594	960.54167
2819.785	993.54167
2821.975	983.54167
2824.164	976.54167
2826.351	1012.54167
2828.537	1011.54167
2830.722	1018.54167
2832.905	1020.875
2835.086	1046.20833
2837.267	1072.20833
2839.445	1085.20833
2841.623	1107.54167
2843.799	1125.875
2845.974	1166.875
2848.147	1176.875
2850.319	1192.54167
2852.489	1235.20833
2854.659	1241.54167
2856.826	1254.54167
2858.993	1278.875
2861.158	1258.875
2863.321	1248.20833
2865.483	1285.875
2867.644	1264.54167
2869.804	1262.20833
2871.962	1256.20833
2874.118	1259.875
2876.274	1267.20833
2878.428	1253.54167
2880.58	1253.54167
2882.731	1247.875
2884.881	1243.875
2887.03	1252.54167
2889.177	1252.20833
2891.322	1277.54167
2893.467	1271.54167
2895.61	1267.54167
2897.751	1300.20833
2899.892	1284.875
2902.03	1305.875
2904.168	1292.20833
2906.304	1301.20833
2908.439	1302.20833
2910.572	1307.20833
2912.704	1329.20833
2914.835	1324.54167
2916.965	1319.54167
2919.093	1335.875
2921.219	1314.54167
2923.345	1326.20833
2925.469	1307.875
2927.591	1294.54167
2929.712	1268.20833
2931.832	1276.20833
2933.951	1264.54167
2936.068	1236.54167
2938.184	1221.875
2940.299	1198.54167
2942.412	1185.54167
2944.524	1157.875
2946.634	1160.20833
2948.744	1103.54167
2950.851	1141.54167
2952.958	1111.875
2955.063	1115.54167
2957.167	1111.54167
2959.269	1087.54167
2961.371	1106.54167
2963.471	1074.54167
2965.569	1064.54167
2967.666	1061.875
2969.762	1044.20833
2971.857	1039.20833
2973.95	1004.20833
2976.042	1024.54167
2978.133	999.54167
2980.222	990.54167
2982.31	971.54167
2984.396	943.875
2986.482	963.54167
2988.566	944.875
2990.648	939.875
2992.73	955.875
2994.81	941.875
2996.889	950.54167
2998.966	942.875
3001.042	956.54167
3003.117	952.875
3005.191	946.20833
3007.263	938.875
3009.334	927.20833
3011.403	932.875
3013.472	908.875
3015.539	918.54167
3017.604	909.875
3019.669	871.875
3021.732	873.875
3023.794	877.20833
3025.854	875.20833
3027.914	884.20833
3029.971	878.875
3032.028	885.54167
3034.083	869.20833
3036.137	850.20833
3038.19	827.875
3040.242	810.875
3042.292	800.875
3044.341	796.54167
3046.388	816.20833
3048.435	768.875
3050.48	794.875
3052.524	781.875
3054.566	760.54167
3056.607	783.20833
3058.647	763.875
3060.686	731.54167
3062.723	727.875
3064.759	683.875
3066.794	-0.125
3068.828	4.20833
3070.86	2.54167
