-0.839	70.875
3.438	81.20833
7.711	40.20833
11.981	37.20833
16.247	31.20833
20.509	39.20833
24.768	34.20833
29.024	45.54167
33.276	33.875
37.524	40.875
41.769	34.20833
46.01	18.20833
50.247	35.875
54.481	47.54167
58.712	46.54167
62.939	38.875
67.162	49.54167
71.382	40.875
75.599	34.875
79.812	49.54167
84.021	63.20833
88.227	41.875
92.429	42.20833
96.628	34.875
100.823	47.20833
105.015	51.54167
109.204	43.875
113.388	44.20833
117.57	44.54167
121.748	49.54167
125.922	40.20833
130.093	54.54167
134.261	44.54167
138.425	34.54167
142.585	65.875
146.742	43.54167
150.896	48.54167
155.046	37.875
159.193	52.54167
163.336	46.54167
167.476	47.875
171.613	67.20833
175.746	79.20833
179.875	83.54167
184.002	89.20833
188.124	120.875
192.244	105.54167
196.36	97.54167
200.472	114.54167
204.581	122.54167
208.687	94.875
212.79	101.54167
216.889	113.20833
220.984	114.54167
225.077	109.54167
229.165	100.20833
233.251	103.875
237.333	116.875
241.412	119.54167
245.487	120.875
249.559	124.20833
253.628	125.54167
257.694	133.875
261.756	140.54167
265.814	130.20833
269.87	109.54167
273.922	103.54167
277.97	122.875
282.016	113.875
286.058	102.875
290.097	113.875
294.132	115.54167
298.164	117.54167
302.193	108.20833
306.219	104.54167
310.241	109.20833
314.26	102.875
318.276	98.875
322.288	123.20833
326.297	102.875
330.303	100.875
334.305	97.875
338.305	103.875
342.301	99.20833
346.294	107.54167
350.283	96.54167
354.269	85.20833
358.252	85.54167
362.232	101.875
366.209	110.20833
370.182	87.20833
374.152	94.54167
378.119	104.20833
382.083	86.875
386.043	106.20833
390	88.54167
393.954	120.875
397.905	124.20833
401.852	138.20833
405.797	105.20833
409.738	154.875
413.676	212.875
417.61	255.875
421.542	149.20833
425.47	103.875
429.396	94.875
433.318	88.875
437.236	95.20833
441.152	128.20833
445.065	82.20833
448.974	92.20833
452.88	82.20833
456.783	86.20833
460.683	84.20833
464.58	97.875
468.473	97.54167
472.364	98.875
476.251	82.20833
480.135	82.20833
484.016	95.20833
487.894	85.54167
491.769	88.20833
495.641	84.20833
499.509	90.20833
503.375	86.20833
507.237	88.20833
511.096	88.54167
514.952	96.20833
518.805	91.20833
522.655	82.20833
526.502	81.20833
530.346	101.20833
534.187	102.54167
538.024	89.54167
541.859	80.875
545.69	103.54167
549.519	98.875
553.344	97.54167
557.166	84.20833
560.985	87.875
564.802	94.54167
568.615	95.20833
572.425	86.875
576.232	93.54167
580.036	96.20833
583.836	100.20833
587.634	112.54167
591.429	90.875
595.221	113.54167
599.01	94.875
602.796	94.20833
606.578	89.54167
610.358	94.875
614.135	88.54167
617.909	98.20833
621.679	89.20833
625.447	85.54167
629.212	94.20833
632.973	104.54167
636.732	105.875
640.488	116.20833
644.241	83.875
647.991	91.20833
651.737	115.54167
655.481	80.875
659.222	87.54167
662.96	78.20833
666.695	92.875
670.427	85.20833
674.156	90.20833
677.882	87.54167
681.605	94.875
685.325	87.875
689.043	107.54167
692.757	89.875
696.468	98.54167
700.177	101.875
703.882	86.54167
707.585	82.875
711.284	92.875
714.981	95.20833
718.675	87.875
722.366	102.875
726.054	88.54167
729.739	91.20833
733.421	101.54167
737.1	81.875
740.777	93.875
744.45	92.54167
748.121	86.875
751.789	107.20833
755.453	83.54167
759.115	90.20833
762.774	85.875
766.431	81.54167
770.084	84.875
773.734	80.875
777.382	99.20833
781.027	98.875
784.669	90.54167
788.308	87.54167
791.944	95.54167
795.577	90.54167
799.208	89.20833
802.835	87.54167
806.46	91.875
810.082	96.875
813.701	81.54167
817.317	89.875
820.931	86.54167
824.542	96.875
828.149	87.875
831.754	82.875
835.357	91.54167
838.956	110.20833
842.553	127.875
846.146	134.54167
849.737	94.875
853.326	96.20833
856.911	84.54167
860.493	114.54167
864.073	125.54167
867.65	184.20833
871.225	175.20833
874.796	103.875
878.365	89.875
881.931	93.875
885.494	101.20833
889.054	91.875
892.612	102.20833
896.166	85.20833
899.719	87.875
903.268	78.875
906.814	87.54167
910.358	89.54167
913.899	85.54167
917.438	84.875
920.973	67.875
924.506	77.54167
928.036	86.20833
931.564	83.875
935.088	97.54167
938.61	77.875
942.129	78.20833
945.646	87.54167
949.16	76.20833
952.671	78.20833
956.179	85.20833
959.685	71.875
963.188	85.54167
966.688	86.54167
970.185	69.54167
973.68	82.54167
977.173	79.54167
980.662	71.875
984.149	87.875
987.633	62.875
991.114	84.54167
994.593	74.20833
998.069	83.20833
1001.542	92.54167
1005.013	102.875
1008.481	68.54167
1011.947	78.875
1015.409	73.875
1018.869	79.875
1022.327	82.875
1025.782	61.54167
1029.234	59.875
1032.683	62.20833
1036.13	72.20833
1039.574	67.875
1043.016	70.875
1046.455	67.875
1049.891	73.20833
1053.325	85.54167
1056.756	75.20833
1060.184	72.20833
1063.61	55.875
1067.033	63.54167
1070.454	65.20833
1073.872	86.54167
1077.287	61.54167
1080.7	66.54167
1084.11	66.875
1087.517	73.20833
1090.922	66.875
1094.325	70.20833
1097.724	63.54167
1101.122	78.20833
1104.516	69.54167
1107.908	57.875
1111.298	76.20833
1114.684	62.20833
1118.069	59.54167
1121.45	72.875
1124.83	50.54167
1128.206	64.54167
1131.58	68.875
1134.951	68.20833
1138.32	63.54167
1141.687	76.20833
1145.05	73.875
1148.412	68.54167
1151.77	67.54167
1155.126	73.54167
1158.48	60.54167
1161.831	68.54167
1165.18	56.875
1168.525	72.54167
1171.869	67.54167
1175.21	57.54167
1178.548	66.20833
1181.884	70.54167
1185.217	48.20833
1188.548	71.54167
1191.877	52.20833
1195.202	69.20833
1198.526	72.875
1201.846	69.54167
1205.165	71.20833
1208.48	77.875
1211.794	74.875
1215.104	73.54167
1218.413	59.54167
1221.719	68.54167
1225.022	58.875
1228.323	57.20833
1231.621	68.54167
1234.917	71.20833
1238.21	98.54167
1241.501	77.875
1244.79	68.54167
1248.076	52.875
1251.359	66.875
1254.64	93.54167
1257.919	70.20833
1261.195	67.20833
1264.468	69.875
1267.74	81.20833
1271.008	74.54167
1274.275	69.20833
1277.538	65.875
1280.8	69.875
1284.059	60.54167
1287.315	73.20833
1290.569	63.54167
1293.821	67.875
1297.07	62.875
1300.317	67.54167
1303.562	74.875
1306.803	63.20833
1310.043	76.875
1313.28	66.20833
1316.515	61.875
1319.747	75.20833
1322.977	71.875
1326.204	70.20833
1329.429	65.875
1332.652	73.20833
1335.872	69.20833
1339.09	58.20833
1342.306	69.875
1345.519	69.54167
1348.729	65.20833
1351.938	72.875
1355.144	62.875
1358.347	64.54167
1361.548	82.54167
1364.747	79.54167
1367.944	58.54167
1371.138	74.20833
1374.329	71.875
1377.518	63.54167
1380.705	62.54167
1383.89	70.20833
1387.072	70.54167
1390.252	68.875
1393.429	75.20833
1396.605	84.54167
1399.777	60.875
1402.948	67.875
1406.116	60.875
1409.282	66.20833
1412.445	58.54167
1415.606	73.54167
1418.765	70.54167
1421.921	66.875
1425.075	59.875
1428.227	49.875
1431.376	67.20833
1434.524	67.875
1437.668	69.20833
1440.811	64.875
1443.951	68.54167
1447.089	67.20833
1450.224	61.875
1453.357	54.54167
1456.488	65.54167
1459.617	61.875
1462.743	73.20833
1465.867	57.54167
1468.989	66.20833
1472.108	71.54167
1475.225	64.54167
1478.34	60.20833
1481.453	62.54167
1484.563	58.54167
1487.671	65.875
1490.776	71.20833
1493.88	73.875
1496.981	69.875
1500.08	75.54167
1503.176	65.875
1506.271	68.20833
1509.363	77.54167
1512.452	61.875
1515.54	62.54167
1518.625	63.875
1521.708	75.20833
1524.789	74.875
1527.867	61.54167
1530.944	65.875
1534.018	59.20833
1537.089	78.875
1540.159	66.875
1543.226	72.54167
1546.291	62.20833
1549.354	71.54167
1552.415	81.54167
1555.473	72.875
1558.529	80.20833
1561.583	75.54167
1564.634	70.875
1567.684	71.875
1570.731	62.20833
1573.776	73.54167
1576.819	66.54167
1579.859	64.20833
1582.898	69.875
1585.934	74.875
1588.968	75.875
1591.999	66.54167
1595.029	64.54167
1598.056	73.20833
1601.081	83.875
1604.104	68.20833
1607.125	74.54167
1610.144	63.875
1613.16	60.875
1616.174	60.54167
1619.186	68.54167
1622.196	65.20833
1625.203	62.54167
1628.209	66.54167
1631.212	61.54167
1634.213	71.20833
1637.212	70.875
1640.209	71.20833
1643.203	57.875
1646.196	57.20833
1649.186	62.20833
1652.174	79.20833
1655.16	57.875
1658.144	71.20833
1661.125	63.875
1664.105	68.875
1667.082	64.54167
1670.057	59.54167
1673.03	50.20833
1676.001	51.20833
1678.97	64.54167
1681.937	69.875
1684.901	65.20833
1687.863	78.54167
1690.824	60.875
1693.782	84.20833
1696.738	57.54167
1699.692	69.54167
1702.643	51.20833
1705.593	62.875
1708.54	63.54167
1711.486	75.54167
1714.429	52.875
1717.37	70.54167
1720.309	56.20833
1723.246	73.54167
1726.181	56.20833
1729.113	67.20833
1732.044	58.54167
1734.972	56.54167
1737.899	78.20833
1740.823	80.20833
1743.745	58.875
1746.665	60.54167
1749.583	53.54167
1752.499	54.20833
1755.413	66.875
1758.325	55.54167
1761.235	62.54167
1764.142	59.20833
1767.048	56.875
1769.951	67.20833
1772.852	73.20833
1775.752	113.20833
1778.649	154.54167
1781.544	103.54167
1784.437	62.875
1787.328	78.875
1790.217	59.20833
1793.104	42.20833
1795.989	49.875
1798.872	49.54167
1801.753	62.20833
1804.631	58.20833
1807.508	67.20833
1810.383	64.20833
1813.255	59.54167
1816.126	61.54167
1818.994	61.875
1821.861	57.20833
1824.725	63.875
1827.587	69.20833
1830.448	67.20833
1833.306	49.54167
1836.162	67.54167
1839.017	60.875
1841.869	63.20833
1844.719	60.875
1847.567	50.20833
1850.414	39.875
1853.258	48.20833
1856.1	64.54167
1858.94	66.875
1861.778	56.875
1864.614	51.875
1867.448	56.20833
1870.28	46.54167
1873.111	72.54167
1875.939	56.54167
1878.765	69.875
1881.589	48.54167
1884.411	55.875
1887.231	59.875
1890.049	58.54167
1892.865	64.20833
1895.68	55.875
1898.492	79.875
1901.302	69.20833
1904.11	66.54167
1906.916	58.20833
1909.721	54.875
1912.523	66.20833
1915.323	54.20833
1918.122	59.20833
1920.918	67.54167
1923.712	56.54167
1926.505	55.875
1929.295	46.875
1932.084	65.20833
1934.87	60.875
1937.655	54.54167
1940.438	55.54167
1943.218	60.54167
1945.997	61.20833
1948.774	69.20833
1951.549	67.875
1954.322	57.875
1957.093	57.54167
1959.862	51.875
1962.629	54.20833
1965.394	55.54167
1968.157	41.54167
1970.918	55.875
1973.678	47.54167
1976.435	63.20833
1979.19	55.875
1981.944	51.20833
1984.696	53.54167
1987.445	47.54167
1990.193	58.875
1992.939	71.20833
1995.683	55.20833
1998.425	37.875
2001.165	75.20833
2003.903	50.54167
2006.639	54.20833
2009.374	61.20833
2012.106	62.875
2014.837	45.20833
2017.566	59.54167
2020.292	54.875
2023.017	56.20833
2025.74	53.20833
2028.461	48.875
2031.18	53.875
2033.898	45.875
2036.613	56.875
2039.327	57.875
2042.038	46.875
2044.748	51.54167
2047.456	62.54167
2050.162	49.54167
2052.866	55.54167
2055.568	69.20833
2058.268	54.20833
2060.967	58.20833
2063.663	42.875
2066.358	53.875
2069.051	51.875
2071.742	58.54167
2074.431	58.20833
2077.118	52.875
2079.804	43.54167
2082.487	50.54167
2085.169	63.54167
2087.849	73.20833
2090.527	42.875
2093.203	49.875
2095.877	62.20833
2098.55	54.54167
2101.22	62.54167
2103.889	61.54167
2106.556	49.875
2109.221	57.875
2111.884	43.875
2114.546	59.875
2117.205	56.20833
2119.863	62.20833
2122.519	45.54167
2125.173	45.20833
2127.825	71.54167
2130.475	65.20833
2133.124	50.875
2135.771	52.875
2138.416	71.54167
2141.059	57.20833
2143.7	65.875
2146.339	58.875
2148.977	40.875
2151.613	60.54167
2154.247	57.875
2156.879	58.54167
2159.51	48.54167
2162.138	46.54167
2164.765	53.20833
2167.39	44.54167
2170.013	70.875
2172.634	65.54167
2175.254	57.54167
2177.872	94.875
2180.488	51.20833
2183.102	63.54167
2185.714	60.20833
2188.325	43.875
2190.934	57.20833
2193.541	66.20833
2196.146	55.875
2198.75	47.54167
2201.351	49.20833
2203.951	42.54167
2206.549	57.20833
2209.146	49.54167
2211.74	50.20833
2214.333	59.875
2216.924	41.54167
2219.514	54.875
2222.101	49.20833
2224.687	67.54167
2227.271	47.875
2229.853	46.20833
2232.433	35.875
2235.012	55.20833
2237.589	53.20833
2240.164	62.875
2242.738	42.54167
2245.309	44.875
2247.879	56.875
2250.448	65.54167
2253.014	51.54167
2255.579	40.20833
2258.142	52.54167
2260.703	45.54167
2263.262	55.20833
2265.82	48.54167
2268.376	54.875
2270.93	40.20833
2273.483	45.875
2276.033	51.875
2278.583	51.20833
2281.13	46.20833
2283.675	42.54167
2286.219	45.875
2288.761	53.54167
2291.302	56.20833
2293.841	67.20833
2296.377	46.20833
2298.913	51.54167
2301.446	67.20833
2303.978	56.20833
2306.508	42.54167
2309.037	57.54167
2311.563	48.54167
2314.088	55.54167
2316.612	39.875
2319.133	51.54167
2321.653	52.54167
2324.171	42.20833
2326.688	58.20833
2329.202	54.20833
2331.715	56.54167
2334.227	52.54167
2336.736	54.20833
2339.244	52.875
2341.751	38.875
2344.255	60.875
2346.758	52.54167
2349.259	39.54167
2351.759	52.20833
2354.257	44.875
2356.753	40.20833
2359.247	46.875
2361.74	54.20833
2364.231	54.20833
2366.721	53.875
2369.209	46.54167
2371.695	53.54167
2374.179	49.875
2376.662	36.54167
2379.143	57.54167
2381.622	45.20833
2384.1	67.20833
2386.576	53.875
2389.051	67.54167
2391.524	65.875
2393.995	54.54167
2396.464	48.20833
2398.932	48.20833
2401.398	42.875
2403.863	51.20833
2406.325	46.54167
2408.787	51.54167
2411.246	49.875
2413.704	46.20833
2416.16	47.20833
2418.615	44.875
2421.068	57.20833
2423.519	55.875
2425.969	42.54167
2428.417	51.54167
2430.863	70.875
2433.308	64.54167
2435.751	54.875
2438.193	52.875
2440.633	53.54167
2443.071	62.54167
2445.508	50.54167
2447.943	48.20833
2450.376	48.54167
2452.808	48.20833
2455.238	43.875
2457.667	80.20833
2460.093	46.875
2462.519	41.20833
2464.942	50.54167
2467.365	54.875
2469.785	61.20833
2472.204	50.20833
2474.621	44.875
2477.037	69.875
2479.451	44.875
2481.863	44.875
2484.274	51.20833
2486.683	51.54167
2489.091	63.20833
2491.497	48.875
2493.901	61.20833
2496.304	54.20833
2498.705	61.875
2501.105	51.54167
2503.503	79.54167
2505.899	36.875
2508.294	71.875
2510.687	54.20833
2513.079	50.54167
2515.469	45.54167
2517.858	52.54167
2520.245	67.54167
2522.63	53.54167
2525.014	45.54167
2527.396	47.875
2529.776	44.20833
2532.156	64.20833
2534.533	44.875
2536.909	43.20833
2539.283	39.20833
2541.656	44.875
2544.027	70.875
2546.397	47.54167
2548.765	43.875
2551.131	46.54167
2553.496	49.875
2555.86	57.20833
2558.221	50.875
2560.582	48.875
2562.94	41.20833
2565.298	54.875
2567.653	64.54167
2570.007	37.54167
2572.36	55.875
2574.711	43.875
2577.06	63.875
2579.408	54.54167
2581.754	46.875
2584.099	52.54167
2586.442	43.875
2588.784	52.875
2591.124	47.875
2593.463	46.875
2595.8	53.54167
2598.135	37.54167
2600.469	44.54167
2602.802	59.20833
2605.133	56.875
2607.462	44.875
2609.79	38.54167
2612.116	51.54167
2614.441	51.54167
2616.764	50.875
2619.086	48.54167
2621.406	34.875
2623.725	65.54167
2626.042	53.875
2628.358	42.875
2630.672	36.20833
2632.985	59.20833
2635.296	51.20833
2637.606	52.54167
2639.914	39.20833
2642.22	47.875
2644.525	46.20833
2646.829	51.875
2649.131	59.54167
2651.432	55.54167
2653.731	46.54167
2656.028	54.20833
2658.324	61.875
2660.619	41.875
2662.912	55.20833
2665.204	36.20833
2667.494	53.54167
2669.782	40.875
2672.07	53.54167
2674.355	60.54167
2676.639	50.875
2678.922	40.875
2681.203	49.54167
2683.483	39.875
2685.761	42.875
2688.038	54.875
2690.313	64.54167
2692.587	47.875
2694.859	42.54167
2697.13	50.54167
2699.399	57.54167
2701.667	57.875
2703.933	57.875
2706.198	56.20833
2708.461	59.875
2710.723	59.20833
2712.984	53.20833
2715.243	53.54167
2717.5	37.875
2719.757	56.54167
2722.011	40.54167
2724.264	53.20833
2726.516	61.20833
2728.766	45.54167
2731.015	50.875
2733.262	49.875
2735.508	51.20833
2737.753	47.875
2739.996	42.20833
2742.237	45.54167
2744.477	59.875
2746.716	62.875
2748.953	56.20833
2751.189	59.875
2753.423	53.20833
2755.656	49.54167
2757.887	44.20833
2760.117	46.54167
2762.346	43.20833
2764.573	40.20833
2766.798	47.54167
2769.022	43.54167
2771.245	53.54167
2773.467	46.54167
2775.686	53.875
2777.905	50.20833
2780.122	50.20833
2782.337	56.54167
2784.552	47.875
2786.764	39.20833
2788.976	47.20833
2791.186	41.20833
2793.394	46.875
2795.601	43.54167
2797.807	52.20833
2800.011	52.20833
2802.214	50.54167
2804.415	43.875
2806.615	41.875
2808.814	44.20833
2811.011	45.54167
2813.206	41.54167
2815.401	54.875
2817.594	50.20833
2819.785	54.20833
2821.975	41.54167
2824.164	37.54167
2826.351	46.20833
2828.537	51.54167
2830.722	48.20833
2832.905	41.20833
2835.086	52.54167
2837.267	62.20833
2839.445	51.875
2841.623	45.54167
2843.799	42.875
2845.974	44.20833
2848.147	42.875
2850.319	43.20833
2852.489	51.54167
2854.659	49.875
2856.826	43.20833
2858.993	72.875
2861.158	45.20833
2863.321	48.875
2865.483	57.875
2867.644	58.875
2869.804	52.875
2871.962	56.54167
2874.118	79.54167
2876.274	128.20833
2878.428	126.20833
2880.58	90.875
2882.731	73.875
2884.881	71.20833
2887.03	76.20833
2889.177	69.20833
2891.322	71.20833
2893.467	60.20833
2895.61	53.54167
2897.751	64.875
2899.892	47.20833
2902.03	51.54167
2904.168	47.20833
2906.304	42.875
2908.439	55.875
2910.572	40.54167
2912.704	54.875
2914.835	52.20833
2916.965	44.20833
2919.093	63.54167
2921.219	43.54167
2923.345	69.875
2925.469	47.54167
2927.591	57.20833
2929.712	40.54167
2931.832	58.875
2933.951	51.20833
2936.068	52.54167
2938.184	52.54167
2940.299	51.54167
2942.412	53.875
2944.524	37.54167
2946.634	57.54167
2948.744	32.20833
2950.851	69.54167
2952.958	45.54167
2955.063	60.54167
2957.167	54.54167
2959.269	40.20833
2961.371	78.54167
2963.471	42.20833
2965.569	56.54167
2967.666	39.20833
2969.762	43.54167
2971.857	44.20833
2973.95	38.54167
2976.042	49.20833
2978.133	45.20833
2980.222	41.20833
2982.31	38.875
2984.396	30.20833
2986.482	43.54167
2988.566	40.20833
2990.648	44.875
2992.73	48.20833
2994.81	34.20833
2996.889	45.20833
2998.966	42.54167
3001.042	55.20833
3003.117	45.20833
3005.191	48.20833
3007.263	49.875
3009.334	44.20833
3011.403	53.54167
3013.472	43.54167
3015.539	58.875
3017.604	67.54167
3019.669	33.875
3021.732	46.875
3023.794	44.875
3025.854	41.875
3027.914	38.875
3029.971	48.875
3032.028	38.54167
3034.083	39.54167
3036.137	44.54167
3038.19	38.54167
3040.242	37.875
3042.292	34.20833
3044.341	40.875
3046.388	57.20833
3048.435	30.20833
3050.48	51.875
3052.524	45.54167
3054.566	31.54167
3056.607	45.875
3058.647	38.54167
3060.686	33.20833
3062.723	30.20833
3064.759	26.20833
3066.794	0.875
3068.828	1.54167
3070.86	1.875
