-0.839	648.41667
3.438	763.75
7.711	212.08333
11.981	69.75
16.247	46.75
20.509	53.08333
24.768	48.75
29.024	55.75
33.276	47.08333
37.524	51.08333
41.769	48.75
46.01	30.75
50.247	49.08333
54.481	62.41667
58.712	60.41667
62.939	46.41667
67.162	63.75
71.382	58.41667
75.599	45.75
79.812	66.08333
84.021	80.75
88.227	58.41667
92.429	58.41667
96.628	52.08333
100.823	73.41667
105.015	79.08333
109.204	70.75
113.388	78.08333
117.57	76.75
121.748	87.08333
125.922	83.75
130.093	101.75
134.261	103.08333
138.425	100.08333
142.585	141.75
146.742	137.08333
150.896	166.41667
155.046	202.41667
159.193	322.41667
163.336	538.75
167.476	1000.75
171.613	1840.08333
175.746	3065.08333
179.875	4512.75
184.002	5910.41667
188.124	6926.08333
192.244	7252.08333
196.36	7176.08333
200.472	6909.08333
204.581	6716.08333
208.687	6528.08333
212.79	6447.41667
216.889	6420.08333
220.984	6397.41667
225.077	6399.08333
229.165	6375.75
233.251	6386.08333
237.333	6342.08333
241.412	6281.75
245.487	6200.41667
249.559	6129.08333
253.628	6088.41667
257.694	6068.08333
261.756	5955.41667
265.814	5822.75
269.87	5648.41667
273.922	5452.08333
277.97	5327.41667
282.016	5285.08333
286.058	5297.08333
290.097	5386.75
294.132	5487.41667
298.164	5391.41667
302.193	5170.08333
306.219	4795.75
310.241	4432.41667
314.26	4070.08333
318.276	3782.41667
322.288	3596.08333
326.297	3404.08333
330.303	3325.75
334.305	3244.41667
338.305	3163.08333
342.301	3122.08333
346.294	3102.41667
350.283	3069.41667
354.269	3045.75
358.252	3029.41667
362.232	2999.41667
366.209	2970.41667
370.182	2942.75
374.152	2928.41667
378.119	2951.08333
382.083	2929.75
386.043	2927.41667
390	2904.75
393.954	2896.08333
397.905	2895.75
401.852	2889.08333
405.797	2828.41667
409.738	2832.41667
413.676	2820.75
417.61	2818.75
421.542	2776.41667
425.47	2768.41667
429.396	2745.08333
433.318	2731.08333
437.236	2717.41667
441.152	2747.08333
445.065	2684.41667
448.974	2690.41667
452.88	2629.41667
456.783	2632.75
460.683	2637.41667
464.58	2609.41667
468.473	2618.08333
472.364	2626.41667
476.251	2625.41667
480.135	2636.08333
484.016	2686.41667
487.894	2697.08333
491.769	2698.75
495.641	2706.75
499.509	2729.75
503.375	2716.08333
507.237	2709.08333
511.096	2709.41667
514.952	2699.08333
518.805	2704.75
522.655	2707.08333
526.502	2694.41667
530.346	2701.41667
534.187	2708.41667
538.024	2732.08333
541.859	2741.08333
545.69	2778.08333
549.519	2760.08333
553.344	2716.75
557.166	2711.41667
560.985	2655.41667
564.802	2604.41667
568.615	2559.41667
572.425	2527.08333
576.232	2504.75
580.036	2485.41667
583.836	2514.75
587.634	2534.08333
591.429	2531.41667
595.221	2612.75
599.01	2601.08333
602.796	2617.08333
606.578	2659.08333
610.358	2650.08333
614.135	2630.08333
617.909	2628.08333
621.679	2593.08333
625.447	2583.75
629.212	2569.75
632.973	2586.08333
636.732	2583.41667
640.488	2581.75
644.241	2543.75
647.991	2536.08333
651.737	2549.08333
655.481	2532.08333
659.222	2529.08333
662.96	2498.08333
666.695	2550.75
670.427	2560.41667
674.156	2562.41667
677.882	2554.08333
681.605	2552.08333
685.325	2522.08333
689.043	2532.41667
692.757	2515.41667
696.468	2511.75
700.177	2510.75
703.882	2492.75
707.585	2489.41667
711.284	2461.75
714.981	2467.08333
718.675	2480.75
722.366	2492.08333
726.054	2448.75
729.739	2447.08333
733.421	2489.41667
737.1	2467.75
740.777	2495.41667
744.45	2512.75
748.121	2519.41667
751.789	2585.08333
755.453	2543.41667
759.115	2572.41667
762.774	2589.08333
766.431	2621.08333
770.084	2637.75
773.734	2654.08333
777.382	2730.08333
781.027	2768.08333
784.669	2779.41667
788.308	2770.75
791.944	2790.08333
795.577	2797.08333
799.208	2824.75
802.835	2812.08333
806.46	2826.41667
810.082	2820.08333
813.701	2842.08333
817.317	2877.08333
820.931	2865.75
824.542	2867.41667
828.149	2862.08333
831.754	2818.41667
835.357	2827.08333
838.956	2866.08333
842.553	2844.41667
846.146	2841.75
849.737	2811.08333
853.326	2825.08333
856.911	2830.08333
860.493	2870.41667
864.073	2904.08333
867.65	2928.75
871.225	2960.08333
874.796	2962.08333
878.365	2972.08333
881.931	3014.08333
885.494	3024.08333
889.054	3023.41667
892.612	3040.75
896.166	3014.41667
899.719	2985.75
903.268	2968.75
906.814	2947.08333
910.358	2889.08333
913.899	2864.41667
917.438	2897.75
920.973	2857.08333
924.506	2898.41667
928.036	2945.41667
931.564	2993.75
935.088	2997.75
938.61	3022.75
942.129	3067.08333
945.646	3149.75
949.16	3190.41667
952.671	3230.41667
956.179	3243.41667
959.685	3173.41667
963.188	3158.08333
966.688	3104.75
970.185	3027.41667
973.68	2970.41667
977.173	2920.75
980.662	2882.41667
984.149	2857.41667
987.633	2860.41667
991.114	2896.08333
994.593	2963.75
998.069	3034.41667
1001.542	3124.08333
1005.013	3084.75
1008.481	2941.41667
1011.947	2887.75
1015.409	2865.75
1018.869	2870.41667
1022.327	2846.41667
1025.782	2812.08333
1029.234	2798.41667
1032.683	2766.08333
1036.13	2677.41667
1039.574	2590.75
1043.016	2520.75
1046.455	2463.08333
1049.891	2470.41667
1053.325	2491.75
1056.756	2464.41667
1060.184	2486.41667
1063.61	2500.75
1067.033	2495.41667
1070.454	2503.08333
1073.872	2542.41667
1077.287	2533.75
1080.7	2528.75
1084.11	2512.08333
1087.517	2478.41667
1090.922	2453.08333
1094.325	2449.75
1097.724	2444.08333
1101.122	2427.41667
1104.516	2457.08333
1107.908	2453.75
1111.298	2488.08333
1114.684	2509.75
1118.069	2553.08333
1121.45	2590.41667
1124.83	2564.41667
1128.206	2627.75
1131.58	2667.08333
1134.951	2752.41667
1138.32	2818.08333
1141.687	2965.41667
1145.05	3014.08333
1148.412	3059.75
1151.77	3046.08333
1155.126	3024.75
1158.48	3025.41667
1161.831	3058.08333
1165.18	3064.41667
1168.525	3103.75
1171.869	3138.75
1175.21	3144.75
1178.548	3182.75
1181.884	3200.41667
1185.217	3229.08333
1188.548	3299.08333
1191.877	3354.08333
1195.202	3438.75
1198.526	3516.08333
1201.846	3507.08333
1205.165	3494.41667
1208.48	3470.08333
1211.794	3447.75
1215.104	3456.75
1218.413	3450.75
1221.719	3445.08333
1225.022	3397.41667
1228.323	3348.75
1231.621	3338.08333
1234.917	3290.75
1238.21	3296.75
1241.501	3269.41667
1244.79	3270.41667
1248.076	3292.08333
1251.359	3306.75
1254.64	3402.08333
1257.919	3385.75
1261.195	3457.08333
1264.468	3530.75
1267.74	3560.75
1271.008	3584.75
1274.275	3599.75
1277.538	3540.75
1280.8	3538.08333
1284.059	3521.08333
1287.315	3562.08333
1290.569	3588.08333
1293.821	3602.08333
1297.07	3609.75
1300.317	3647.75
1303.562	3626.08333
1306.803	3590.75
1310.043	3577.75
1313.28	3545.08333
1316.515	3488.08333
1319.747	3463.08333
1322.977	3431.75
1326.204	3397.75
1329.429	3347.75
1332.652	3312.41667
1335.872	3288.75
1339.09	3244.75
1342.306	3224.41667
1345.519	3159.75
1348.729	3132.08333
1351.938	3144.41667
1355.144	3075.75
1358.347	3043.08333
1361.548	3033.75
1364.747	3040.41667
1367.944	3018.41667
1371.138	3022.08333
1374.329	3056.41667
1377.518	3085.08333
1380.705	3119.41667
1383.89	3110.75
1387.072	3011.08333
1390.252	2879.75
1393.429	2776.41667
1396.605	2704.41667
1399.777	2634.75
1402.948	2595.41667
1406.116	2555.41667
1409.282	2555.08333
1412.445	2561.41667
1415.606	2586.41667
1418.765	2625.41667
1421.921	2659.75
1425.075	2721.41667
1428.227	2825.75
1431.376	2950.75
1434.524	3044.08333
1437.668	3127.08333
1440.811	3180.75
1443.951	3204.75
1447.089	3188.08333
1450.224	3172.75
1453.357	3184.08333
1456.488	3157.41667
1459.617	3086.75
1462.743	3072.08333
1465.867	2998.75
1468.989	2974.08333
1472.108	2910.08333
1475.225	2855.41667
1478.34	2851.08333
1481.453	2850.08333
1484.563	2849.75
1487.671	2894.41667
1490.776	2964.41667
1493.88	3015.75
1496.981	3087.41667
1500.08	3144.41667
1503.176	3165.41667
1506.271	3197.75
1509.363	3266.08333
1512.452	3281.41667
1515.54	3345.75
1518.625	3385.41667
1521.708	3468.75
1524.789	3569.41667
1527.867	3658.75
1530.944	3844.41667
1534.018	4028.41667
1537.089	4186.75
1540.159	4223.75
1543.226	4188.75
1546.291	4135.41667
1549.354	4052.41667
1552.415	3994.08333
1555.473	3875.08333
1558.529	3809.75
1561.583	3781.08333
1564.634	3736.08333
1567.684	3779.75
1570.731	3803.41667
1573.776	3836.75
1576.819	3881.75
1579.859	3930.08333
1582.898	3968.75
1585.934	4026.75
1588.968	4019.08333
1591.999	4045.75
1595.029	4011.75
1598.056	4032.75
1601.081	4036.75
1604.104	4018.75
1607.125	3955.08333
1610.144	3875.75
1613.16	3816.41667
1616.174	3724.75
1619.186	3637.41667
1622.196	3525.41667
1625.203	3406.08333
1628.209	3353.41667
1631.212	3289.08333
1634.213	3236.41667
1637.212	3207.41667
1640.209	3113.41667
1643.203	3014.75
1646.196	2922.41667
1649.186	2840.75
1652.174	2726.08333
1655.16	2619.08333
1658.144	2521.08333
1661.125	2402.41667
1664.105	2333.75
1667.082	2218.41667
1670.057	2109.75
1673.03	1994.08333
1676.001	1859.75
1678.97	1765.75
1681.937	1646.41667
1684.901	1545.08333
1687.863	1505.08333
1690.824	1456.75
1693.782	1420.75
1696.738	1351.75
1699.692	1310.75
1702.643	1279.08333
1705.593	1267.75
1708.54	1262.08333
1711.486	1243.08333
1714.429	1209.75
1717.37	1191.75
1720.309	1154.41667
1723.246	1175.08333
1726.181	1145.41667
1729.113	1167.41667
1732.044	1124.75
1734.972	1123.75
1737.899	1125.08333
1740.823	1116.08333
1743.745	1075.08333
1746.665	1071.75
1749.583	1057.75
1752.499	1036.75
1755.413	1032.75
1758.325	990.41667
1761.235	993.08333
1764.142	988.08333
1767.048	963.08333
1769.951	975.08333
1772.852	951.75
1775.752	937.08333
1778.649	947.41667
1781.544	954.08333
1784.437	914.75
1787.328	941.08333
1790.217	923.41667
1793.104	893.75
1795.989	902.75
1798.872	879.08333
1801.753	901.75
1804.631	889.41667
1807.508	895.75
1810.383	884.41667
1813.255	888.08333
1816.126	883.75
1818.994	874.75
1821.861	859.08333
1824.725	869.41667
1827.587	868.41667
1830.448	856.75
1833.306	832.75
1836.162	854.41667
1839.017	843.41667
1841.869	837.41667
1844.719	824.08333
1847.567	808.08333
1850.414	812.41667
1853.258	805.75
1856.1	827.41667
1858.94	822.08333
1861.778	817.75
1864.614	814.41667
1867.448	805.41667
1870.28	810.08333
1873.111	843.41667
1875.939	811.75
1878.765	810.75
1881.589	793.75
1884.411	807.75
1887.231	797.41667
1890.049	801.75
1892.865	796.41667
1895.68	788.75
1898.492	798.41667
1901.302	777.08333
1904.11	787.41667
1906.916	779.41667
1909.721	772.41667
1912.523	774.75
1915.323	751.08333
1918.122	756.08333
1920.918	770.75
1923.712	759.41667
1926.505	747.41667
1929.295	730.41667
1932.084	765.75
1934.87	756.41667
1937.655	744.41667
1940.438	745.75
1943.218	750.41667
1945.997	751.41667
1948.774	758.41667
1951.549	747.75
1954.322	731.41667
1957.093	743.41667
1959.862	716.75
1962.629	729.41667
1965.394	729.75
1968.157	722.75
1970.918	715.41667
1973.678	714.75
1976.435	721.41667
1979.19	721.75
1981.944	707.08333
1984.696	700.41667
1987.445	695.08333
1990.193	706.75
1992.939	711.75
1995.683	708.75
1998.425	674.41667
2001.165	705.75
2003.903	689.08333
2006.639	694.08333
2009.374	698.75
2012.106	691.75
2014.837	680.41667
2017.566	697.41667
2020.292	681.08333
2023.017	681.75
2025.74	677.75
2028.461	679.08333
2031.18	668.08333
2033.898	668.75
2036.613	655.75
2039.327	666.75
2042.038	655.41667
2044.748	661.41667
2047.456	665.41667
2050.162	654.75
2052.866	659.08333
2055.568	665.08333
2058.268	653.08333
2060.967	663.41667
2063.663	653.41667
2066.358	646.08333
2069.051	652.08333
2071.742	640.08333
2074.431	641.08333
2077.118	632.41667
2079.804	643.41667
2082.487	634.75
2085.169	649.08333
2087.849	667.75
2090.527	631.41667
2093.203	645.75
2095.877	652.41667
2098.55	655.08333
2101.22	655.75
2103.889	658.75
2106.556	671.75
2109.221	693.08333
2111.884	694.08333
2114.546	757.75
2117.205	791.08333
2119.863	852.75
2122.519	899.41667
2125.173	963.41667
2127.825	1031.08333
2130.475	1022.08333
2133.124	992.41667
2135.771	956.75
2138.416	929.75
2141.059	852.41667
2143.7	796.08333
2146.339	759.75
2148.977	709.08333
2151.613	709.08333
2154.247	681.41667
2156.879	667.08333
2159.51	646.08333
2162.138	628.75
2164.765	639.41667
2167.39	611.08333
2170.013	637.08333
2172.634	625.08333
2175.254	618.08333
2177.872	631.41667
2180.488	598.41667
2183.102	623.75
2185.714	594.41667
2188.325	572.41667
2190.934	590.75
2193.541	599.75
2196.146	578.75
2198.75	559.08333
2201.351	568.41667
2203.951	562.41667
2206.549	578.75
2209.146	563.08333
2211.74	552.08333
2214.333	562.41667
2216.924	544.75
2219.514	549.41667
2222.101	550.08333
2224.687	568.75
2227.271	541.75
2229.853	530.41667
2232.433	521.75
2235.012	549.41667
2237.589	535.75
2240.164	549.75
2242.738	522.08333
2245.309	523.08333
2247.879	522.08333
2250.448	523.08333
2253.014	516.41667
2255.579	492.08333
2258.142	503.41667
2260.703	487.41667
2263.262	500.41667
2265.82	490.75
2268.376	496.75
2270.93	476.75
2273.483	480.08333
2276.033	484.75
2278.583	481.75
2281.13	474.08333
2283.675	472.75
2286.219	478.41667
2288.761	474.75
2291.302	480.75
2293.841	489.41667
2296.377	452.75
2298.913	456.75
2301.446	478.75
2303.978	467.41667
2306.508	453.75
2309.037	459.75
2311.563	467.75
2314.088	475.08333
2316.612	447.08333
2319.133	466.41667
2321.653	457.41667
2324.171	449.41667
2326.688	459.41667
2329.202	443.75
2331.715	436.75
2334.227	435.75
2336.736	442.08333
2339.244	440.08333
2341.751	420.08333
2344.255	451.08333
2346.758	439.75
2349.259	426.08333
2351.759	433.41667
2354.257	430.41667
2356.753	420.08333
2359.247	434.75
2361.74	438.41667
2364.231	424.08333
2366.721	426.41667
2369.209	423.41667
2371.695	424.75
2374.179	425.08333
2376.662	410.75
2379.143	435.08333
2381.622	422.75
2384.1	427.75
2386.576	416.41667
2389.051	433.08333
2391.524	432.41667
2393.995	419.41667
2396.464	407.08333
2398.932	411.08333
2401.398	411.08333
2403.863	413.41667
2406.325	407.08333
2408.787	409.75
2411.246	405.41667
2413.704	403.75
2416.16	394.08333
2418.615	401.41667
2421.068	412.08333
2423.519	404.08333
2425.969	393.41667
2428.417	401.08333
2430.863	419.41667
2433.308	407.08333
2435.751	402.08333
2438.193	400.41667
2440.633	400.08333
2443.071	392.08333
2445.508	399.41667
2447.943	388.41667
2450.376	380.75
2452.808	388.75
2455.238	378.41667
2457.667	419.41667
2460.093	393.75
2462.519	371.41667
2464.942	385.08333
2467.365	382.41667
2469.785	377.75
2472.204	383.41667
2474.621	370.75
2477.037	394.75
2479.451	370.41667
2481.863	361.08333
2484.274	381.75
2486.683	369.41667
2489.091	386.08333
2491.497	369.08333
2493.901	380.08333
2496.304	368.41667
2498.705	384.75
2501.105	365.41667
2503.503	399.08333
2505.899	368.08333
2508.294	386.75
2510.687	373.41667
2513.079	369.08333
2515.469	358.41667
2517.858	369.75
2520.245	374.75
2522.63	364.75
2525.014	359.41667
2527.396	361.41667
2529.776	351.75
2532.156	364.08333
2534.533	354.75
2536.909	349.75
2539.283	342.41667
2541.656	353.08333
2544.027	376.08333
2546.397	354.75
2548.765	344.75
2551.131	354.75
2553.496	357.75
2555.86	359.08333
2558.221	350.08333
2560.582	355.75
2562.94	340.41667
2565.298	347.75
2567.653	366.75
2570.007	340.08333
2572.36	359.08333
2574.711	339.41667
2577.06	356.08333
2579.408	350.41667
2581.754	352.41667
2584.099	357.08333
2586.442	348.41667
2588.784	354.75
2591.124	349.75
2593.463	345.08333
2595.8	355.08333
2598.135	339.08333
2600.469	339.08333
2602.802	347.41667
2605.133	354.08333
2607.462	333.41667
2609.79	336.41667
2612.116	349.41667
2614.441	346.75
2616.764	340.41667
2619.086	339.41667
2621.406	329.41667
2623.725	352.41667
2626.042	350.41667
2628.358	333.75
2630.672	332.41667
2632.985	353.41667
2635.296	345.75
2637.606	344.41667
2639.914	332.41667
2642.22	337.75
2644.525	338.08333
2646.829	334.75
2649.131	352.08333
2651.432	353.08333
2653.731	336.41667
2656.028	356.41667
2658.324	351.08333
2660.619	339.75
2662.912	353.08333
2665.204	336.08333
2667.494	347.08333
2669.782	339.41667
2672.07	350.41667
2674.355	354.08333
2676.639	345.41667
2678.922	336.41667
2681.203	345.75
2683.483	330.08333
2685.761	338.08333
2688.038	349.08333
2690.313	370.08333
2692.587	345.08333
2694.859	334.75
2697.13	345.08333
2699.399	362.41667
2701.667	360.41667
2703.933	351.41667
2706.198	360.75
2708.461	359.08333
2710.723	363.08333
2712.984	360.41667
2715.243	367.41667
2717.5	353.75
2719.757	378.08333
2722.011	362.08333
2724.264	375.41667
2726.516	384.75
2728.766	364.41667
2731.015	385.08333
2733.262	375.75
2735.508	364.75
2737.753	372.75
2739.996	355.08333
2742.237	364.41667
2744.477	369.41667
2746.716	367.08333
2748.953	351.08333
2751.189	364.08333
2753.423	350.75
2755.656	349.41667
2757.887	340.75
2760.117	353.08333
2762.346	345.08333
2764.573	337.08333
2766.798	338.75
2769.022	342.75
2771.245	355.08333
2773.467	347.75
2775.686	356.08333
2777.905	349.75
2780.122	354.75
2782.337	368.41667
2784.552	354.75
2786.764	359.08333
2788.976	368.41667
2791.186	368.75
2793.394	370.75
2795.601	374.41667
2797.807	383.08333
2800.011	390.75
2802.214	397.75
2804.415	388.41667
2806.615	385.08333
2808.814	394.41667
2811.011	408.75
2813.206	403.75
2815.401	419.08333
2817.594	430.08333
2819.785	432.75
2821.975	422.75
2824.164	426.08333
2826.351	445.75
2828.537	459.08333
2830.722	469.75
2832.905	468.41667
2835.086	504.41667
2837.267	530.08333
2839.445	548.41667
2841.623	551.75
2843.799	577.75
2845.974	605.41667
2848.147	631.08333
2850.319	659.08333
2852.489	687.75
2854.659	699.41667
2856.826	699.08333
2858.993	738.75
2861.158	726.41667
2863.321	721.08333
2865.483	730.41667
2867.644	738.75
2869.804	724.41667
2871.962	732.75
2874.118	720.75
2876.274	730.41667
2878.428	729.08333
2880.58	721.41667
2882.731	718.41667
2884.881	718.08333
2887.03	737.75
2889.177	728.41667
2891.322	737.75
2893.467	741.08333
2895.61	728.75
2897.751	749.41667
2899.892	744.08333
2902.03	759.75
2904.168	752.41667
2906.304	767.41667
2908.439	786.75
2910.572	775.08333
2912.704	779.08333
2914.835	778.41667
2916.965	771.41667
2919.093	798.41667
2921.219	761.75
2923.345	797.75
2925.469	762.75
2927.591	763.75
2929.712	731.41667
2931.832	719.08333
2933.951	715.08333
2936.068	707.08333
2938.184	684.75
2940.299	652.08333
2942.412	639.08333
2944.524	608.41667
2946.634	605.08333
2948.744	568.41667
2950.851	578.08333
2952.958	552.08333
2955.063	536.75
2957.167	535.41667
2959.269	496.08333
2961.371	521.08333
2963.471	491.75
2965.569	485.41667
2967.666	459.08333
2969.762	456.41667
2971.857	442.08333
2973.95	428.41667
2976.042	426.75
2978.133	408.75
2980.222	398.41667
2982.31	389.75
2984.396	371.08333
2986.482	374.08333
2988.566	366.75
2990.648	357.08333
2992.73	347.08333
2994.81	341.08333
2996.889	353.75
2998.966	339.08333
3001.042	349.75
3003.117	342.41667
3005.191	332.08333
3007.263	337.41667
3009.334	331.75
3011.403	325.08333
3013.472	319.41667
3015.539	316.08333
3017.604	322.75
3019.669	287.41667
3021.732	300.41667
3023.794	306.41667
3025.854	291.75
3027.914	280.08333
3029.971	295.41667
3032.028	283.41667
3034.083	290.41667
3036.137	286.75
3038.19	272.08333
3040.242	277.41667
3042.292	266.75
3044.341	264.08333
3046.388	270.08333
3048.435	256.41667
3050.48	272.75
3052.524	257.08333
3054.566	243.08333
3056.607	260.08333
3058.647	257.41667
3060.686	233.41667
3062.723	239.41667
3064.759	225.75
3066.794	0.08333
3068.828	1.08333
3070.86	0.75
