-0.839	498.66667
3.438	586.33333
7.711	177.66667
11.981	60.66667
16.247	44
20.509	49.33333
24.768	46.33333
29.024	57
33.276	45.33333
37.524	50.66667
41.769	45
46.01	35
50.247	44.66667
54.481	60.33333
58.712	58.33333
62.939	49.66667
67.162	66.33333
71.382	61.66667
75.599	48
79.812	65
84.021	75.33333
88.227	61.33333
92.429	61
96.628	50.33333
100.823	66.66667
105.015	75.33333
109.204	67.33333
113.388	74.33333
117.57	74
121.748	87.66667
125.922	79.66667
130.093	96.33333
134.261	98.66667
138.425	98
142.585	136.66667
146.742	121.66667
150.896	150.33333
155.046	194.66667
159.193	295.33333
163.336	495.33333
167.476	905.66667
171.613	1671
175.746	2798.33333
179.875	4163.66667
184.002	5419
188.124	6382.33333
192.244	6697.33333
196.36	6633
200.472	6473.33333
204.581	6339
208.687	6173.66667
212.79	6089.33333
216.889	6120.66667
220.984	6129.66667
225.077	6161.66667
229.165	6160
233.251	6176.66667
237.333	6110
241.412	6055.33333
245.487	6036.33333
249.559	5970
253.628	5900.66667
257.694	5906
261.756	5844.33333
265.814	5732.66667
269.87	5563.33333
273.922	5398
277.97	5312
282.016	5279.66667
286.058	5347.66667
290.097	5443
294.132	5576.66667
298.164	5490.66667
302.193	5207
306.219	4835
310.241	4443.66667
314.26	4095
318.276	3810.33333
322.288	3572.33333
326.297	3437
330.303	3313
334.305	3252.66667
338.305	3179.33333
342.301	3141.66667
346.294	3103.33333
350.283	3075
354.269	3051.66667
358.252	3019.66667
362.232	3021.33333
366.209	3016.66667
370.182	2986
374.152	2952.33333
378.119	2973.66667
382.083	2947.33333
386.043	2983.66667
390	2924
393.954	2955
397.905	2947.33333
401.852	2940.33333
405.797	2892.33333
409.738	2888.33333
413.676	2903.33333
417.61	2882.33333
421.542	2863
425.47	2797.33333
429.396	2782.33333
433.318	2801.66667
437.236	2782
441.152	2795
445.065	2759
448.974	2754.33333
452.88	2725.66667
456.783	2727.66667
460.683	2695
464.58	2690.66667
468.473	2698.66667
472.364	2741
476.251	2708.33333
480.135	2743.33333
484.016	2760
487.894	2791.33333
491.769	2796.33333
495.641	2820.33333
499.509	2835.33333
503.375	2831.33333
507.237	2816
511.096	2803.33333
514.952	2858.33333
518.805	2915.33333
522.655	2933.33333
526.502	2853
530.346	2807.33333
534.187	2785
538.024	2791.33333
541.859	2821.66667
545.69	2853
549.519	2824
553.344	2793
557.166	2737.33333
560.985	2733.66667
564.802	2666.33333
568.615	2627
572.425	2600
576.232	2590
580.036	2605.33333
583.836	2591.66667
587.634	2624
591.429	2621.33333
595.221	2677
599.01	2690.33333
602.796	2715.33333
606.578	2753.66667
610.358	2717
614.135	2713.33333
617.909	2711.33333
621.679	2666
625.447	2672
629.212	2648
632.973	2651
636.732	2654
640.488	2646.33333
644.241	2609.33333
647.991	2598
651.737	2629.66667
655.481	2604
659.222	2601
662.96	2582
666.695	2608.66667
670.427	2661.66667
674.156	2652.33333
677.882	2634.33333
681.605	2624
685.325	2599.33333
689.043	2607
692.757	2576.33333
696.468	2581
700.177	2584.33333
703.882	2574.66667
707.585	2545.66667
711.284	2537.66667
714.981	2546.33333
718.675	2552
722.366	2566
726.054	2546.66667
729.739	2567
733.421	2583.33333
737.1	2538
740.777	2584
744.45	2568.66667
748.121	2605
751.789	2656.66667
755.453	2659.33333
759.115	2657.33333
762.774	2680.33333
766.431	2671.33333
770.084	2715
773.734	2733
777.382	2777.66667
781.027	2772
784.669	2806
788.308	2826.66667
791.944	2832.66667
795.577	2852.66667
799.208	2876.66667
802.835	2885.66667
806.46	2915.33333
810.082	2927
813.701	2911.33333
817.317	2944
820.931	2946.33333
824.542	2948.66667
828.149	2904.66667
831.754	2881.33333
835.357	2888.66667
838.956	2890.66667
842.553	2871
846.146	2873.33333
849.737	2855
853.326	2848.66667
856.911	2856.66667
860.493	2884.66667
864.073	2895.66667
867.65	2966.33333
871.225	2974.33333
874.796	2964.33333
878.365	2986.33333
881.931	2995.33333
885.494	3027
889.054	3025.33333
892.612	3045.33333
896.166	2990.33333
899.719	2973.66667
903.268	2928
906.814	2882.33333
910.358	2888.66667
913.899	2846
917.438	2867.33333
920.973	2845
924.506	2898.33333
928.036	2939
931.564	2947.66667
935.088	2999.33333
938.61	3019
942.129	3077
945.646	3104.33333
949.16	3170.66667
952.671	3228.33333
956.179	3201.33333
959.685	3170
963.188	3165.66667
966.688	3130.33333
970.185	3031.66667
973.68	2992.66667
977.173	2922.33333
980.662	2888.66667
984.149	2884
987.633	2863.33333
991.114	2929.33333
994.593	2969.33333
998.069	3048.66667
1001.542	3166.66667
1005.013	3099.33333
1008.481	2941.66667
1011.947	2880.66667
1015.409	2846.33333
1018.869	2871.66667
1022.327	2868.33333
1025.782	2822
1029.234	2828.66667
1032.683	2790
1036.13	2698.66667
1039.574	2596.66667
1043.016	2536.66667
1046.455	2495.33333
1049.891	2466
1053.325	2493.33333
1056.756	2481
1060.184	2510.33333
1063.61	2511
1067.033	2540.33333
1070.454	2525.33333
1073.872	2554.66667
1077.287	2552.33333
1080.7	2557.66667
1084.11	2540.66667
1087.517	2514
1090.922	2475.66667
1094.325	2482
1097.724	2470.33333
1101.122	2468.66667
1104.516	2446.66667
1107.908	2452
1111.298	2486.66667
1114.684	2507.33333
1118.069	2545
1121.45	2578.66667
1124.83	2554
1128.206	2585.33333
1131.58	2604
1134.951	2683
1138.32	2782.33333
1141.687	2888.33333
1145.05	2938.33333
1148.412	2919.33333
1151.77	2922.66667
1155.126	2895
1158.48	2887.66667
1161.831	2897.33333
1165.18	2934.33333
1168.525	2970
1171.869	3007
1175.21	3013.66667
1178.548	3048.33333
1181.884	3096.66667
1185.217	3116.66667
1188.548	3186
1191.877	3253.33333
1195.202	3367.66667
1198.526	3415.33333
1201.846	3430
1205.165	3415
1208.48	3435
1211.794	3374
1215.104	3375.66667
1218.413	3374.66667
1221.719	3381.33333
1225.022	3351.33333
1228.323	3313
1231.621	3260
1234.917	3239
1238.21	3277
1241.501	3229.33333
1244.79	3231
1248.076	3216
1251.359	3252.33333
1254.64	3306.66667
1257.919	3345.33333
1261.195	3382.66667
1264.468	3435.33333
1267.74	3489.66667
1271.008	3450
1274.275	3452
1277.538	3462.66667
1280.8	3450.33333
1284.059	3440.33333
1287.315	3487
1290.569	3491
1293.821	3521.66667
1297.07	3570
1300.317	3570.33333
1303.562	3560.66667
1306.803	3539.66667
1310.043	3511.33333
1313.28	3464.66667
1316.515	3443.66667
1319.747	3417.33333
1322.977	3406.33333
1326.204	3342
1329.429	3303
1332.652	3279.66667
1335.872	3231.66667
1339.09	3212.33333
1342.306	3189.66667
1345.519	3170
1348.729	3121
1351.938	3127.66667
1355.144	3080.66667
1358.347	3025.33333
1361.548	3013.66667
1364.747	3037.33333
1367.944	2978.33333
1371.138	3004.66667
1374.329	3019
1377.518	3039.66667
1380.705	3044.66667
1383.89	3019
1387.072	2937.66667
1390.252	2843
1393.429	2722
1396.605	2637.33333
1399.777	2586
1402.948	2539
1406.116	2518.33333
1409.282	2548.33333
1412.445	2542.66667
1415.606	2573
1418.765	2604.66667
1421.921	2677
1425.075	2706.33333
1428.227	2800.66667
1431.376	2924
1434.524	3024
1437.668	3083
1440.811	3115
1443.951	3152
1447.089	3172.66667
1450.224	3146.33333
1453.357	3111.33333
1456.488	3112.33333
1459.617	3043.66667
1462.743	2985.33333
1465.867	2910
1468.989	2869
1472.108	2837.33333
1475.225	2785.66667
1478.34	2749.66667
1481.453	2735.33333
1484.563	2749.33333
1487.671	2785.33333
1490.776	2812.33333
1493.88	2856.33333
1496.981	2904
1500.08	2964
1503.176	2996.66667
1506.271	3026.66667
1509.363	3077
1512.452	3109.66667
1515.54	3153.66667
1518.625	3191.66667
1521.708	3234.66667
1524.789	3335
1527.867	3457
1530.944	3620
1534.018	3803.66667
1537.089	3959.33333
1540.159	4008
1543.226	4014.33333
1546.291	3931.33333
1549.354	3852
1552.415	3764.33333
1555.473	3685
1558.529	3618.33333
1561.583	3567.66667
1564.634	3545
1567.684	3560
1570.731	3560.66667
1573.776	3604
1576.819	3651.66667
1579.859	3692.66667
1582.898	3724.66667
1585.934	3742
1588.968	3749.33333
1591.999	3743.66667
1595.029	3787.66667
1598.056	3781.66667
1601.081	3818
1604.104	3780
1607.125	3742.33333
1610.144	3684.33333
1613.16	3594.66667
1616.174	3498.66667
1619.186	3448.33333
1622.196	3285
1625.203	3241.66667
1628.209	3168
1631.212	3135.66667
1634.213	3092
1637.212	3079.66667
1640.209	3030.33333
1643.203	2934.33333
1646.196	2846.66667
1649.186	2741
1652.174	2669.66667
1655.16	2574.33333
1658.144	2516.33333
1661.125	2396.66667
1664.105	2289.66667
1667.082	2207
1670.057	2092.66667
1673.03	1972.33333
1676.001	1847.66667
1678.97	1742.66667
1681.937	1637
1684.901	1543.33333
1687.863	1515.66667
1690.824	1417.33333
1693.782	1400
1696.738	1346.33333
1699.692	1305.66667
1702.643	1278.33333
1705.593	1273.66667
1708.54	1260.66667
1711.486	1255
1714.429	1211.33333
1717.37	1215.66667
1720.309	1183.66667
1723.246	1176
1726.181	1160
1729.113	1162.33333
1732.044	1149
1734.972	1129.33333
1737.899	1147.33333
1740.823	1135.66667
1743.745	1095.33333
1746.665	1083.66667
1749.583	1074.66667
1752.499	1053
1755.413	1050.33333
1758.325	1025
1761.235	1013.33333
1764.142	998.33333
1767.048	989.33333
1769.951	996.33333
1772.852	972.33333
1775.752	987
1778.649	981
1781.544	975
1784.437	946.66667
1787.328	962.66667
1790.217	950
1793.104	920
1795.989	917.66667
1798.872	906.33333
1801.753	937
1804.631	926.33333
1807.508	921.33333
1810.383	920.66667
1813.255	919.33333
1816.126	906
1818.994	918
1821.861	902.33333
1824.725	911.33333
1827.587	902
1830.448	891.66667
1833.306	866.33333
1836.162	883.66667
1839.017	871
1841.869	878.66667
1844.719	861
1847.567	858
1850.414	835
1853.258	848
1856.1	867.33333
1858.94	864.66667
1861.778	851.66667
1864.614	834.66667
1867.448	847
1870.28	847.33333
1873.111	862.33333
1875.939	848.66667
1878.765	868.66667
1881.589	831
1884.411	843.33333
1887.231	844.66667
1890.049	838
1892.865	828.33333
1895.68	818.66667
1898.492	842.33333
1901.302	826.66667
1904.11	822.33333
1906.916	811.33333
1909.721	796.33333
1912.523	800.33333
1915.323	801.66667
1918.122	803
1920.918	806.66667
1923.712	791.66667
1926.505	792
1929.295	771.33333
1932.084	802.66667
1934.87	787.33333
1937.655	791.33333
1940.438	783.66667
1943.218	791
1945.997	795
1948.774	785.66667
1951.549	794.33333
1954.322	782.66667
1957.093	778
1959.862	774
1962.629	773
1965.394	769
1968.157	749
1970.918	747
1973.678	754
1976.435	769.66667
1979.19	745.66667
1981.944	751.66667
1984.696	748.66667
1987.445	748.33333
1990.193	743.66667
1992.939	768
1995.683	729.66667
1998.425	714.66667
2001.165	745
2003.903	725
2006.639	730
2009.374	737.66667
2012.106	735.66667
2014.837	717.33333
2017.566	727.33333
2020.292	721
2023.017	717
2025.74	715.33333
2028.461	711.66667
2031.18	731.33333
2033.898	714
2036.613	712.33333
2039.327	721.66667
2042.038	706
2044.748	701
2047.456	711
2050.162	698
2052.866	698.66667
2055.568	713.33333
2058.268	691.66667
2060.967	703.66667
2063.663	691
2066.358	690
2069.051	695.33333
2071.742	690.66667
2074.431	701
2077.118	687.66667
2079.804	680
2082.487	695.33333
2085.169	694
2087.849	713.33333
2090.527	684.66667
2093.203	694.33333
2095.877	713
2098.55	713
2101.22	713.33333
2103.889	724.33333
2106.556	722.66667
2109.221	737
2111.884	756
2114.546	795
2117.205	854.33333
2119.863	911
2122.519	951.33333
2125.173	1019
2127.825	1062
2130.475	1052
2133.124	1013
2135.771	987
2138.416	953.66667
2141.059	880
2143.7	850.66667
2146.339	800
2148.977	761
2151.613	767.33333
2154.247	750.33333
2156.879	709
2159.51	699.33333
2162.138	691.66667
2164.765	692.66667
2167.39	676.33333
2170.013	695.33333
2172.634	681
2175.254	678
2177.872	702.33333
2180.488	656.66667
2183.102	660
2185.714	662
2188.325	634.33333
2190.934	638.66667
2193.541	650
2196.146	627.66667
2198.75	634.33333
2201.351	626.66667
2203.951	617.66667
2206.549	642
2209.146	618
2211.74	614.66667
2214.333	623
2216.924	595
2219.514	612
2222.101	604.33333
2224.687	618.33333
2227.271	603.33333
2229.853	601.33333
2232.433	584
2235.012	615.66667
2237.589	595.66667
2240.164	614.66667
2242.738	601.66667
2245.309	580.33333
2247.879	600.33333
2250.448	610.33333
2253.014	585.33333
2255.579	565
2258.142	576.66667
2260.703	569.66667
2263.262	577.66667
2265.82	560
2268.376	564.33333
2270.93	566
2273.483	555
2276.033	574
2278.583	565.66667
2281.13	553
2283.675	551
2286.219	552
2288.761	546.33333
2291.302	558.33333
2293.841	571.66667
2296.377	541
2298.913	545.66667
2301.446	562
2303.978	569
2306.508	545.66667
2309.037	547
2311.563	558.66667
2314.088	553
2316.612	537
2319.133	541
2321.653	549.66667
2324.171	539.66667
2326.688	551
2329.202	543.66667
2331.715	535
2334.227	542
2336.736	541.66667
2339.244	532.33333
2341.751	517.66667
2344.255	532
2346.758	529.66667
2349.259	519
2351.759	537
2354.257	535.66667
2356.753	520.66667
2359.247	532
2361.74	539
2364.231	531.33333
2366.721	534.33333
2369.209	522.33333
2371.695	532.66667
2374.179	524.66667
2376.662	523
2379.143	547
2381.622	531.66667
2384.1	530.66667
2386.576	528
2389.051	540
2391.524	546.33333
2393.995	534.66667
2396.464	520
2398.932	525
2401.398	528.66667
2403.863	521
2406.325	516.66667
2408.787	528
2411.246	523.66667
2413.704	522.33333
2416.16	523.66667
2418.615	527
2421.068	534
2423.519	540
2425.969	527.33333
2428.417	536.33333
2430.863	544.66667
2433.308	537.66667
2435.751	535.66667
2438.193	519.66667
2440.633	525.33333
2443.071	528.33333
2445.508	515
2447.943	526.33333
2450.376	509.33333
2452.808	513.33333
2455.238	515
2457.667	551.66667
2460.093	527
2462.519	515.33333
2464.942	521.66667
2467.365	530
2469.785	539
2472.204	529.33333
2474.621	511
2477.037	551.66667
2479.451	518.33333
2481.863	511.33333
2484.274	522
2486.683	520.33333
2489.091	534
2491.497	523.33333
2493.901	524.66667
2496.304	530
2498.705	535.33333
2501.105	521.66667
2503.503	556.66667
2505.899	518
2508.294	541.66667
2510.687	531.33333
2513.079	531.33333
2515.469	510.66667
2517.858	528.33333
2520.245	540.33333
2522.63	522.66667
2525.014	519
2527.396	523
2529.776	517.66667
2532.156	542.33333
2534.533	516.33333
2536.909	517
2539.283	511.66667
2541.656	530.33333
2544.027	546.33333
2546.397	535.66667
2548.765	526.33333
2551.131	525.66667
2553.496	524
2555.86	534.66667
2558.221	526.66667
2560.582	535.66667
2562.94	522.33333
2565.298	529
2567.653	546
2570.007	522
2572.36	534.66667
2574.711	528.66667
2577.06	539.33333
2579.408	538.33333
2581.754	533.33333
2584.099	539.33333
2586.442	537.66667
2588.784	549.33333
2591.124	543.33333
2593.463	548.33333
2595.8	544.66667
2598.135	521.33333
2600.469	529.66667
2602.802	542.66667
2605.133	550.66667
2607.462	541.33333
2609.79	534.66667
2612.116	545.66667
2614.441	547.33333
2616.764	541
2619.086	540.33333
2621.406	535
2623.725	567.33333
2626.042	556
2628.358	554.33333
2630.672	541.66667
2632.985	561
2635.296	553.33333
2637.606	557.33333
2639.914	554
2642.22	554
2644.525	555.66667
2646.829	561.66667
2649.131	584
2651.432	579.33333
2653.731	570.33333
2656.028	578.66667
2658.324	583.66667
2660.619	571.33333
2662.912	583
2665.204	555
2667.494	580.66667
2669.782	561.66667
2672.07	584.66667
2674.355	576.33333
2676.639	573.33333
2678.922	574.66667
2681.203	579
2683.483	562
2685.761	569
2688.038	587.33333
2690.313	598.66667
2692.587	585
2694.859	591
2697.13	591.66667
2699.399	616.33333
2701.667	609.33333
2703.933	599
2706.198	614.33333
2708.461	620
2710.723	625.66667
2712.984	610.33333
2715.243	621
2717.5	611.33333
2719.757	633
2722.011	622.33333
2724.264	634.33333
2726.516	644
2728.766	624.33333
2731.015	641
2733.262	644.33333
2735.508	630.66667
2737.753	630.33333
2739.996	626.33333
2742.237	619
2744.477	639.33333
2746.716	634.66667
2748.953	622
2751.189	634.33333
2753.423	615.33333
2755.656	610.33333
2757.887	621.66667
2760.117	618.66667
2762.346	611.33333
2764.573	608.66667
2766.798	613
2769.022	615.66667
2771.245	632.66667
2773.467	629
2775.686	618.66667
2777.905	616.33333
2780.122	648
2782.337	640
2784.552	640.66667
2786.764	644
2788.976	640.66667
2791.186	653.33333
2793.394	657
2795.601	662.33333
2797.807	686
2800.011	684.66667
2802.214	680
2804.415	683.33333
2806.615	694
2808.814	695
2811.011	711.33333
2813.206	706.66667
2815.401	712.66667
2817.594	717.66667
2819.785	731.33333
2821.975	725.66667
2824.164	712.66667
2826.351	739.66667
2828.537	750
2830.722	758.66667
2832.905	759.66667
2835.086	793.66667
2837.267	829.33333
2839.445	831.33333
2841.623	844.66667
2843.799	874
2845.974	895.66667
2848.147	920.66667
2850.319	940.33333
2852.489	978.66667
2854.659	985.33333
2856.826	989.33333
2858.993	1010.66667
2861.158	1008.66667
2863.321	1009.33333
2865.483	1016.33333
2867.644	1035.33333
2869.804	1014.33333
2871.962	1012.33333
2874.118	998.33333
2876.274	1015
2878.428	1020.33333
2880.58	997.33333
2882.731	997.66667
2884.881	991.33333
2887.03	1006.33333
2889.177	1012.33333
2891.322	1014.66667
2893.467	1011
2895.61	1015.66667
2897.751	1037.66667
2899.892	1021.66667
2902.03	1041
2904.168	1034.66667
2906.304	1060
2908.439	1057.33333
2910.572	1056
2912.704	1081.66667
2914.835	1059.33333
2916.965	1061
2919.093	1092.33333
2921.219	1053.66667
2923.345	1071.33333
2925.469	1045.33333
2927.591	1041.66667
2929.712	1011
2931.832	1020.33333
2933.951	1001
2936.068	983.33333
2938.184	962.66667
2940.299	946.33333
2942.412	936
2944.524	892
2946.634	902
2948.744	860
2950.851	880.33333
2952.958	841.66667
2955.063	843.66667
2957.167	843.33333
2959.269	807.33333
2961.371	841
2963.471	803
2965.569	808.33333
2967.666	776.33333
2969.762	781.66667
2971.857	777
2973.95	751
2976.042	749.66667
2978.133	733.66667
2980.222	721.66667
2982.31	711
2984.396	687.33333
2986.482	685
2988.566	686.66667
2990.648	685
2992.73	680.33333
2994.81	664.66667
2996.889	679
2998.966	685.33333
3001.042	681
3003.117	679.66667
3005.191	673
3007.263	671.33333
3009.334	659
3011.403	661
3013.472	638.66667
3015.539	646
3017.604	656.33333
3019.669	613.33333
3021.732	613.66667
3023.794	628.66667
3025.854	612.33333
3027.914	610.66667
3029.971	624.33333
3032.028	622
3034.083	618.66667
3036.137	605
3038.19	589
3040.242	577.66667
3042.292	563.33333
3044.341	562.33333
3046.388	573.33333
3048.435	544.33333
3050.48	561.33333
3052.524	560.33333
3054.566	528
3056.607	551
3058.647	532.33333
3060.686	517.66667
3062.723	509
3064.759	480
3066.794	-0.66667
3068.828	3
3070.86	2.33333
