-0.839	661.04167
3.438	768.375
7.711	216.70833
11.981	70.04167
16.247	49.70833
20.509	51.04167
24.768	46.70833
29.024	57.70833
33.276	47.375
37.524	52.375
41.769	43.375
46.01	33.04167
50.247	45.04167
54.481	62.04167
58.712	59.375
62.939	47.04167
67.162	64.04167
71.382	58.375
75.599	44.375
79.812	64.04167
84.021	83.375
88.227	60.375
92.429	62.04167
96.628	54.70833
100.823	74.04167
105.015	77.70833
109.204	68.70833
113.388	75.04167
117.57	76.375
121.748	87.375
125.922	86.375
130.093	99.04167
134.261	102.375
138.425	97.375
142.585	141.04167
146.742	132.04167
150.896	161.375
155.046	203.04167
159.193	315.70833
163.336	542.375
167.476	991.04167
171.613	1834.04167
175.746	3075.70833
179.875	4559.04167
184.002	5921.70833
188.124	6961.04167
192.244	7283.04167
196.36	7168.70833
200.472	6995.04167
204.581	6774.04167
208.687	6598.375
212.79	6474.375
216.889	6427.375
220.984	6441.04167
225.077	6436.70833
229.165	6419.70833
233.251	6423.70833
237.333	6401.70833
241.412	6314.375
245.487	6254.375
249.559	6186.04167
253.628	6132.375
257.694	6046.375
261.756	6029.375
265.814	5895.04167
269.87	5710.375
273.922	5490.04167
277.97	5403.375
282.016	5314.70833
286.058	5344.70833
290.097	5420.04167
294.132	5524.70833
298.164	5465.375
302.193	5235.04167
306.219	4817.04167
310.241	4448.375
314.26	4113.70833
318.276	3825.04167
322.288	3634.375
326.297	3472.375
330.303	3363.70833
334.305	3254.04167
338.305	3207.70833
342.301	3164.375
346.294	3134.375
350.283	3118.375
354.269	3076.375
358.252	3053.04167
362.232	3041.04167
366.209	3024.70833
370.182	2996.04167
374.152	2959.375
378.119	2999.70833
382.083	2967.70833
386.043	2983.04167
390	2933.04167
393.954	2938.70833
397.905	2933.375
401.852	2947.04167
405.797	2889.375
409.738	2866.04167
413.676	2866.375
417.61	2840.375
421.542	2832.04167
425.47	2800.04167
429.396	2782.70833
433.318	2776.375
437.236	2768.70833
441.152	2784.04167
445.065	2723.04167
448.974	2712.04167
452.88	2688.70833
456.783	2667.70833
460.683	2664.70833
464.58	2654.70833
468.473	2665.70833
472.364	2662.70833
476.251	2660.375
480.135	2685.04167
484.016	2735.04167
487.894	2740.04167
491.769	2759.04167
495.641	2762.04167
499.509	2777.04167
503.375	2771.375
507.237	2748.70833
511.096	2734.375
514.952	2743.375
518.805	2762.04167
522.655	2787.04167
526.502	2734.375
530.346	2748.70833
534.187	2766.375
538.024	2772.70833
541.859	2789.04167
545.69	2818.70833
549.519	2804.375
553.344	2784.70833
557.166	2713.70833
560.985	2708.70833
564.802	2638.70833
568.615	2600.04167
572.425	2563.04167
576.232	2554.375
580.036	2534.375
583.836	2539.04167
587.634	2589.04167
591.429	2578.70833
595.221	2627.04167
599.01	2664.04167
602.796	2677.70833
606.578	2691.375
610.358	2700.70833
614.135	2679.70833
617.909	2642.70833
621.679	2629.04167
625.447	2608.70833
629.212	2607.04167
632.973	2650.375
636.732	2624.375
640.488	2616.04167
644.241	2607.70833
647.991	2587.375
651.737	2612.375
655.481	2586.375
659.222	2559.375
662.96	2566.04167
666.695	2595.375
670.427	2601.04167
674.156	2629.375
677.882	2592.70833
681.605	2586.04167
685.325	2582.04167
689.043	2588.04167
692.757	2547.375
696.468	2553.375
700.177	2534.04167
703.882	2514.375
707.585	2523.04167
711.284	2515.375
714.981	2497.04167
718.675	2498.04167
722.366	2536.70833
726.054	2531.04167
729.739	2516.04167
733.421	2518.375
737.1	2516.04167
740.777	2544.70833
744.45	2551.04167
748.121	2569.375
751.789	2592.375
755.453	2591.375
759.115	2638.70833
762.774	2641.375
766.431	2656.70833
770.084	2690.04167
773.734	2718.70833
777.382	2770.375
781.027	2780.04167
784.669	2803.375
788.308	2800.375
791.944	2820.70833
795.577	2835.70833
799.208	2848.375
802.835	2867.70833
806.46	2874.70833
810.082	2897.375
813.701	2907.70833
817.317	2933.375
820.931	2896.375
824.542	2956.375
828.149	2878.70833
831.754	2873.04167
835.357	2876.04167
838.956	2876.70833
842.553	2859.04167
846.146	2862.04167
849.737	2837.04167
853.326	2860.70833
856.911	2845.04167
860.493	2903.375
864.073	2929.04167
867.65	2977.04167
871.225	2982.04167
874.796	3007.70833
878.365	3001.375
881.931	3025.70833
885.494	3059.375
889.054	3038.375
892.612	3063.375
896.166	3047.375
899.719	3016.375
903.268	2992.04167
906.814	2968.70833
910.358	2933.70833
913.899	2887.375
917.438	2901.04167
920.973	2930.70833
924.506	2916.70833
928.036	2947.70833
931.564	3025.04167
935.088	3048.70833
938.61	3045.375
942.129	3119.70833
945.646	3162.70833
949.16	3229.04167
952.671	3288.70833
956.179	3254.375
959.685	3221.375
963.188	3204.04167
966.688	3173.04167
970.185	3049.04167
973.68	3007.70833
977.173	2959.375
980.662	2928.375
984.149	2899.70833
987.633	2893.375
991.114	2924.04167
994.593	3001.375
998.069	3090.70833
1001.542	3166.04167
1005.013	3108.70833
1008.481	2980.375
1011.947	2923.70833
1015.409	2901.04167
1018.869	2886.04167
1022.327	2864.70833
1025.782	2865.375
1029.234	2843.04167
1032.683	2811.04167
1036.13	2707.70833
1039.574	2618.375
1043.016	2564.04167
1046.455	2528.70833
1049.891	2490.04167
1053.325	2489.04167
1056.756	2518.375
1060.184	2518.04167
1063.61	2526.04167
1067.033	2532.375
1070.454	2531.375
1073.872	2588.70833
1077.287	2570.70833
1080.7	2543.04167
1084.11	2537.375
1087.517	2532.70833
1090.922	2507.04167
1094.325	2494.375
1097.724	2457.70833
1101.122	2470.70833
1104.516	2484.70833
1107.908	2469.375
1111.298	2507.70833
1114.684	2554.375
1118.069	2559.375
1121.45	2618.375
1124.83	2620.04167
1128.206	2684.04167
1131.58	2701.70833
1134.951	2765.04167
1138.32	2862.04167
1141.687	2984.04167
1145.05	3038.04167
1148.412	3063.70833
1151.77	3056.70833
1155.126	3051.375
1158.48	3055.04167
1161.831	3062.375
1165.18	3093.375
1168.525	3133.375
1171.869	3141.375
1175.21	3185.375
1178.548	3184.04167
1181.884	3221.70833
1185.217	3246.04167
1188.548	3326.375
1191.877	3384.04167
1195.202	3449.375
1198.526	3553.375
1201.846	3567.04167
1205.165	3544.04167
1208.48	3509.375
1211.794	3492.375
1215.104	3497.70833
1218.413	3468.70833
1221.719	3471.70833
1225.022	3442.375
1228.323	3354.70833
1231.621	3367.04167
1234.917	3331.70833
1238.21	3337.70833
1241.501	3314.70833
1244.79	3308.04167
1248.076	3339.04167
1251.359	3355.70833
1254.64	3427.70833
1257.919	3435.375
1261.195	3478.375
1264.468	3559.04167
1267.74	3608.70833
1271.008	3605.04167
1274.275	3584.70833
1277.538	3571.04167
1280.8	3569.70833
1284.059	3562.375
1287.315	3593.375
1290.569	3617.70833
1293.821	3644.70833
1297.07	3653.375
1300.317	3640.375
1303.562	3635.375
1306.803	3637.70833
1310.043	3602.70833
1313.28	3556.70833
1316.515	3538.70833
1319.747	3503.70833
1322.977	3481.04167
1326.204	3408.04167
1329.429	3357.04167
1332.652	3338.04167
1335.872	3316.375
1339.09	3293.04167
1342.306	3279.04167
1345.519	3199.375
1348.729	3181.375
1351.938	3159.04167
1355.144	3121.375
1358.347	3043.04167
1361.548	3072.70833
1364.747	3079.375
1367.944	3043.04167
1371.138	3079.70833
1374.329	3079.70833
1377.518	3131.375
1380.705	3161.70833
1383.89	3148.375
1387.072	3019.04167
1390.252	2900.70833
1393.429	2814.70833
1396.605	2734.375
1399.777	2659.70833
1402.948	2594.04167
1406.116	2598.04167
1409.282	2582.04167
1412.445	2594.375
1415.606	2637.04167
1418.765	2658.375
1421.921	2710.70833
1425.075	2749.70833
1428.227	2858.70833
1431.376	2947.04167
1434.524	3066.70833
1437.668	3154.70833
1440.811	3192.375
1443.951	3233.70833
1447.089	3227.375
1450.224	3210.04167
1453.357	3219.04167
1456.488	3175.04167
1459.617	3145.70833
1462.743	3090.04167
1465.867	3022.04167
1468.989	2994.04167
1472.108	2941.70833
1475.225	2899.04167
1478.34	2867.04167
1481.453	2867.375
1484.563	2900.70833
1487.671	2942.70833
1490.776	2972.70833
1493.88	3040.04167
1496.981	3069.375
1500.08	3143.70833
1503.176	3184.375
1506.271	3223.70833
1509.363	3270.70833
1512.452	3327.04167
1515.54	3344.375
1518.625	3418.375
1521.708	3459.375
1524.789	3552.04167
1527.867	3701.04167
1530.944	3870.375
1534.018	4013.375
1537.089	4181.375
1540.159	4244.375
1543.226	4205.04167
1546.291	4155.70833
1549.354	4058.70833
1552.415	3981.70833
1555.473	3890.375
1558.529	3854.70833
1561.583	3815.375
1564.634	3792.70833
1567.684	3831.04167
1570.731	3817.375
1573.776	3882.04167
1576.819	3924.04167
1579.859	3947.04167
1582.898	4003.70833
1585.934	4055.04167
1588.968	4075.04167
1591.999	4026.70833
1595.029	4028.04167
1598.056	4037.70833
1601.081	4071.70833
1604.104	4049.70833
1607.125	3998.70833
1610.144	3914.70833
1613.16	3828.375
1616.174	3740.70833
1619.186	3641.375
1622.196	3547.70833
1625.203	3460.70833
1628.209	3373.70833
1631.212	3302.375
1634.213	3286.375
1637.212	3231.70833
1640.209	3177.375
1643.203	3079.70833
1646.196	2972.375
1649.186	2871.04167
1652.174	2757.375
1655.16	2666.70833
1658.144	2564.375
1661.125	2449.375
1664.105	2337.04167
1667.082	2234.375
1670.057	2138.70833
1673.03	2032.70833
1676.001	1912.70833
1678.97	1789.375
1681.937	1675.04167
1684.901	1583.375
1687.863	1530.375
1690.824	1445.70833
1693.782	1425.70833
1696.738	1338.04167
1699.692	1335.04167
1702.643	1280.04167
1705.593	1268.70833
1708.54	1257.70833
1711.486	1257.375
1714.429	1230.375
1717.37	1223.70833
1720.309	1176.70833
1723.246	1191.70833
1726.181	1175.375
1729.113	1147.375
1732.044	1131.70833
1734.972	1140.375
1737.899	1136.70833
1740.823	1127.375
1743.745	1089.04167
1746.665	1076.375
1749.583	1066.70833
1752.499	1057.70833
1755.413	1048.375
1758.325	1022.70833
1761.235	1007.04167
1764.142	989.04167
1767.048	968.04167
1769.951	981.04167
1772.852	965.04167
1775.752	967.375
1778.649	955.70833
1781.544	954.70833
1784.437	947.04167
1787.328	951.70833
1790.217	928.375
1793.104	906.04167
1795.989	909.375
1798.872	903.70833
1801.753	910.70833
1804.631	906.375
1807.508	924.375
1810.383	916.04167
1813.255	898.04167
1816.126	899.70833
1818.994	900.70833
1821.861	892.70833
1824.725	887.70833
1827.587	871.70833
1830.448	872.70833
1833.306	845.04167
1836.162	865.04167
1839.017	857.375
1841.869	850.04167
1844.719	851.70833
1847.567	832.375
1850.414	818.375
1853.258	814.375
1856.1	848.04167
1858.94	844.70833
1861.778	826.70833
1864.614	819.375
1867.448	836.70833
1870.28	828.70833
1873.111	839.375
1875.939	819.04167
1878.765	834.04167
1881.589	812.375
1884.411	816.375
1887.231	808.04167
1890.049	811.375
1892.865	807.70833
1895.68	805.04167
1898.492	804.70833
1901.302	797.375
1904.11	801.70833
1906.916	786.04167
1909.721	773.04167
1912.523	790.70833
1915.323	767.70833
1918.122	771.375
1920.918	781.375
1923.712	760.70833
1926.505	761.70833
1929.295	749.70833
1932.084	767.04167
1934.87	768.70833
1937.655	766.375
1940.438	748.70833
1943.218	769.375
1945.997	766.70833
1948.774	774.04167
1951.549	765.04167
1954.322	760.70833
1957.093	757.375
1959.862	746.04167
1962.629	723.70833
1965.394	742.70833
1968.157	727.04167
1970.918	728.04167
1973.678	717.04167
1976.435	734.375
1979.19	722.375
1981.944	712.70833
1984.696	717.375
1987.445	696.04167
1990.193	706.04167
1992.939	721.375
1995.683	713.375
1998.425	694.04167
2001.165	717.04167
2003.903	701.375
2006.639	693.375
2009.374	706.375
2012.106	703.04167
2014.837	676.375
2017.566	703.04167
2020.292	710.375
2023.017	699.04167
2025.74	698.70833
2028.461	679.70833
2031.18	685.375
2033.898	672.70833
2036.613	676.375
2039.327	684.70833
2042.038	669.375
2044.748	674.70833
2047.456	692.375
2050.162	660.04167
2052.866	670.04167
2055.568	681.04167
2058.268	668.04167
2060.967	671.70833
2063.663	662.375
2066.358	655.375
2069.051	648.375
2071.742	653.70833
2074.431	662.375
2077.118	657.375
2079.804	642.04167
2082.487	649.70833
2085.169	664.04167
2087.849	680.70833
2090.527	644.04167
2093.203	654.04167
2095.877	663.70833
2098.55	664.375
2101.22	668.375
2103.889	668.375
2106.556	675.70833
2109.221	692.375
2111.884	705.375
2114.546	743.04167
2117.205	809.04167
2119.863	872.375
2122.519	906.375
2125.173	978.70833
2127.825	1042.04167
2130.475	1036.375
2133.124	1007.375
2135.771	960.375
2138.416	932.04167
2141.059	863.70833
2143.7	821.70833
2146.339	760.70833
2148.977	715.70833
2151.613	711.375
2154.247	695.375
2156.879	680.375
2159.51	664.04167
2162.138	638.375
2164.765	644.70833
2167.39	627.70833
2170.013	638.375
2172.634	633.04167
2175.254	610.70833
2177.872	653.70833
2180.488	601.70833
2183.102	616.375
2185.714	613.70833
2188.325	585.375
2190.934	600.70833
2193.541	599.70833
2196.146	581.04167
2198.75	568.70833
2201.351	575.375
2203.951	568.04167
2206.549	587.70833
2209.146	563.04167
2211.74	565.375
2214.333	566.70833
2216.924	546.70833
2219.514	562.70833
2222.101	551.70833
2224.687	567.04167
2227.271	548.04167
2229.853	550.70833
2232.433	527.70833
2235.012	557.375
2237.589	545.04167
2240.164	558.70833
2242.738	534.04167
2245.309	531.375
2247.879	537.04167
2250.448	540.70833
2253.014	505.04167
2255.579	494.04167
2258.142	507.70833
2260.703	499.375
2263.262	503.375
2265.82	489.70833
2268.376	499.70833
2270.93	481.375
2273.483	484.04167
2276.033	491.70833
2278.583	487.04167
2281.13	498.04167
2283.675	477.375
2286.219	477.375
2288.761	484.375
2291.302	482.04167
2293.841	487.375
2296.377	458.04167
2298.913	474.04167
2301.446	482.70833
2303.978	468.375
2306.508	456.375
2309.037	463.375
2311.563	464.70833
2314.088	472.70833
2316.612	448.04167
2319.133	456.375
2321.653	462.70833
2324.171	450.70833
2326.688	462.70833
2329.202	445.04167
2331.715	457.375
2334.227	452.375
2336.736	452.70833
2339.244	447.04167
2341.751	435.375
2344.255	456.375
2346.758	451.375
2349.259	423.375
2351.759	442.70833
2354.257	433.70833
2356.753	424.70833
2359.247	439.04167
2361.74	441.375
2364.231	433.375
2366.721	440.375
2369.209	425.70833
2371.695	432.04167
2374.179	424.375
2376.662	417.375
2379.143	426.04167
2381.622	419.375
2384.1	434.70833
2386.576	416.375
2389.051	438.375
2391.524	438.375
2393.995	426.375
2396.464	420.375
2398.932	417.375
2401.398	415.04167
2403.863	417.04167
2406.325	406.375
2408.787	411.70833
2411.246	412.70833
2413.704	406.70833
2416.16	409.70833
2418.615	401.375
2421.068	416.04167
2423.519	416.70833
2425.969	403.375
2428.417	406.04167
2430.863	428.70833
2433.308	408.04167
2435.751	410.04167
2438.193	399.375
2440.633	404.375
2443.071	414.04167
2445.508	398.70833
2447.943	407.70833
2450.376	398.375
2452.808	395.375
2455.238	388.375
2457.667	421.70833
2460.093	397.70833
2462.519	386.375
2464.942	386.375
2467.365	396.04167
2469.785	399.375
2472.204	390.375
2474.621	373.375
2477.037	395.04167
2479.451	371.70833
2481.863	365.70833
2484.274	382.04167
2486.683	388.04167
2489.091	387.04167
2491.497	383.70833
2493.901	385.70833
2496.304	376.70833
2498.705	388.04167
2501.105	375.04167
2503.503	399.04167
2505.899	366.375
2508.294	390.375
2510.687	373.04167
2513.079	368.70833
2515.469	367.04167
2517.858	371.04167
2520.245	381.04167
2522.63	372.70833
2525.014	363.04167
2527.396	359.375
2529.776	355.04167
2532.156	379.04167
2534.533	359.70833
2536.909	356.375
2539.283	351.375
2541.656	353.04167
2544.027	379.375
2546.397	357.04167
2548.765	352.04167
2551.131	356.375
2553.496	358.04167
2555.86	367.70833
2558.221	355.70833
2560.582	353.04167
2562.94	339.375
2565.298	360.375
2567.653	365.04167
2570.007	346.70833
2572.36	363.375
2574.711	346.04167
2577.06	368.04167
2579.408	362.04167
2581.754	350.70833
2584.099	359.70833
2586.442	345.04167
2588.784	356.04167
2591.124	352.70833
2593.463	349.70833
2595.8	353.375
2598.135	344.70833
2600.469	339.04167
2602.802	352.70833
2605.133	364.375
2607.462	342.375
2609.79	331.04167
2612.116	355.04167
2614.441	336.04167
2616.764	347.04167
2619.086	337.04167
2621.406	329.375
2623.725	355.375
2626.042	345.70833
2628.358	339.70833
2630.672	334.04167
2632.985	352.70833
2635.296	343.04167
2637.606	340.04167
2639.914	331.375
2642.22	341.375
2644.525	338.70833
2646.829	341.375
2649.131	350.70833
2651.432	354.70833
2653.731	347.375
2656.028	348.375
2658.324	351.375
2660.619	340.375
2662.912	352.70833
2665.204	334.04167
2667.494	355.04167
2669.782	336.70833
2672.07	348.375
2674.355	350.375
2676.639	353.04167
2678.922	336.04167
2681.203	350.04167
2683.483	334.70833
2685.761	337.70833
2688.038	346.70833
2690.313	364.04167
2692.587	357.04167
2694.859	343.70833
2697.13	357.375
2699.399	355.70833
2701.667	363.375
2703.933	357.70833
2706.198	355.375
2708.461	368.04167
2710.723	377.375
2712.984	369.04167
2715.243	377.04167
2717.5	357.70833
2719.757	380.70833
2722.011	363.375
2724.264	376.375
2726.516	381.04167
2728.766	365.04167
2731.015	372.70833
2733.262	375.04167
2735.508	373.04167
2737.753	376.70833
2739.996	365.70833
2742.237	353.04167
2744.477	372.70833
2746.716	372.375
2748.953	361.375
2751.189	367.04167
2753.423	353.70833
2755.656	346.04167
2757.887	351.04167
2760.117	352.04167
2762.346	340.375
2764.573	336.04167
2766.798	342.375
2769.022	343.04167
2771.245	353.375
2773.467	350.04167
2775.686	360.70833
2777.905	352.375
2780.122	348.70833
2782.337	367.375
2784.552	360.70833
2786.764	367.375
2788.976	363.70833
2791.186	363.375
2793.394	374.375
2795.601	382.70833
2797.807	386.70833
2800.011	393.04167
2802.214	397.04167
2804.415	394.70833
2806.615	391.375
2808.814	395.04167
2811.011	407.70833
2813.206	405.375
2815.401	429.375
2817.594	425.70833
2819.785	437.70833
2821.975	430.04167
2824.164	432.375
2826.351	450.04167
2828.537	467.70833
2830.722	467.04167
2832.905	472.70833
2835.086	502.375
2837.267	545.375
2839.445	536.04167
2841.623	558.70833
2843.799	574.375
2845.974	603.70833
2848.147	647.70833
2850.319	661.70833
2852.489	678.70833
2854.659	704.04167
2856.826	718.70833
2858.993	742.04167
2861.158	720.04167
2863.321	715.04167
2865.483	730.04167
2867.644	746.04167
2869.804	731.70833
2871.962	729.04167
2874.118	740.70833
2876.274	738.375
2878.428	728.375
2880.58	722.70833
2882.731	716.70833
2884.881	728.70833
2887.03	728.04167
2889.177	733.70833
2891.322	730.70833
2893.467	742.70833
2895.61	741.375
2897.751	761.70833
2899.892	765.70833
2902.03	765.375
2904.168	764.70833
2906.304	763.70833
2908.439	783.70833
2910.572	770.04167
2912.704	781.70833
2914.835	783.70833
2916.965	776.04167
2919.093	784.70833
2921.219	765.70833
2923.345	798.70833
2925.469	765.04167
2927.591	767.04167
2929.712	733.70833
2931.832	737.04167
2933.951	723.375
2936.068	703.70833
2938.184	676.04167
2940.299	666.04167
2942.412	653.375
2944.524	609.04167
2946.634	614.70833
2948.744	568.70833
2950.851	585.375
2952.958	545.375
2955.063	548.04167
2957.167	528.375
2959.269	507.375
2961.371	519.375
2963.471	482.70833
2965.569	478.04167
2967.666	458.70833
2969.762	459.04167
2971.857	444.375
2973.95	429.375
2976.042	427.70833
2978.133	404.04167
2980.222	401.04167
2982.31	383.70833
2984.396	370.04167
2986.482	371.375
2988.566	363.375
2990.648	367.04167
2992.73	358.70833
2994.81	348.375
2996.889	349.375
2998.966	349.04167
3001.042	348.04167
3003.117	341.70833
3005.191	342.375
3007.263	338.04167
3009.334	329.70833
3011.403	330.70833
3013.472	320.375
3015.539	327.375
3017.604	328.04167
3019.669	290.70833
3021.732	295.70833
3023.794	302.04167
3025.854	295.04167
3027.914	289.70833
3029.971	297.70833
3032.028	290.04167
3034.083	297.04167
3036.137	287.375
3038.19	275.04167
3040.242	276.04167
3042.292	260.70833
3044.341	275.375
3046.388	282.70833
3048.435	261.04167
3050.48	279.70833
3052.524	269.04167
3054.566	250.04167
3056.607	258.375
3058.647	244.375
3060.686	238.70833
3062.723	239.375
3064.759	224.04167
3066.794	0.70833
3068.828	2.04167
3070.86	2.70833
