-0.839	412.16667
3.438	498.16667
7.711	145.83333
11.981	58.16667
16.247	45.16667
20.509	45.83333
24.768	40.5
29.024	53.83333
33.276	41.83333
37.524	48.16667
41.769	46.83333
46.01	34.5
50.247	45.5
54.481	54.83333
58.712	62.16667
62.939	46.83333
67.162	61.5
71.382	55.16667
75.599	42.83333
79.812	63.16667
84.021	79.16667
88.227	57.5
92.429	56.83333
96.628	49.83333
100.823	69.83333
105.015	73.83333
109.204	65.83333
113.388	70.83333
117.57	68.5
121.748	83.16667
125.922	71.5
130.093	96.16667
134.261	87.5
138.425	92.83333
142.585	131.5
146.742	118.5
150.896	137.16667
155.046	166.5
159.193	270.83333
163.336	447.16667
167.476	808.83333
171.613	1482.16667
175.746	2498.16667
179.875	3681.16667
184.002	4834.5
188.124	5634.16667
192.244	5860.5
196.36	5844.16667
200.472	5675.5
204.581	5520.5
208.687	5340.83333
212.79	5233.16667
216.889	5225.16667
220.984	5238.83333
225.077	5212.5
229.165	5173.5
233.251	5162.16667
237.333	5113.16667
241.412	5041.5
245.487	4965.83333
249.559	4937.16667
253.628	4914.83333
257.694	4887.5
261.756	4857.16667
265.814	4731.5
269.87	4599.5
273.922	4515.83333
277.97	4463.5
282.016	4453.16667
286.058	4535.16667
290.097	4674.16667
294.132	4712.83333
298.164	4668.16667
302.193	4426.83333
306.219	4102.16667
310.241	3780.5
314.26	3498.83333
318.276	3244.5
322.288	3075.16667
326.297	2922.16667
330.303	2820.83333
334.305	2758.83333
338.305	2692.5
342.301	2648.5
346.294	2646.5
350.283	2624.5
354.269	2584.5
358.252	2552.5
362.232	2548.5
366.209	2555.83333
370.182	2513.83333
374.152	2515.5
378.119	2507.5
382.083	2491.83333
386.043	2496.83333
390	2475.83333
393.954	2467.83333
397.905	2459.16667
401.852	2443.83333
405.797	2413.5
409.738	2428.16667
413.676	2422.16667
417.61	2430.16667
421.542	2386.16667
425.47	2391.16667
429.396	2355.16667
433.318	2349.5
437.236	2327.5
441.152	2366.83333
445.065	2309.5
448.974	2316.83333
452.88	2279.16667
456.783	2276.5
460.683	2248.16667
464.58	2258.16667
468.473	2243.16667
472.364	2263.5
476.251	2259.5
480.135	2274.83333
484.016	2323.5
487.894	2351.83333
491.769	2336.5
495.641	2334.83333
499.509	2356.16667
503.375	2353.5
507.237	2355.5
511.096	2342.16667
514.952	2491.83333
518.805	2612.16667
522.655	2675.5
526.502	2502.83333
530.346	2362.16667
534.187	2356.83333
538.024	2350.5
541.859	2364.5
545.69	2397.5
549.519	2364.83333
553.344	2361.5
557.166	2323.16667
560.985	2278.16667
564.802	2252.83333
568.615	2219.5
572.425	2173.83333
576.232	2163.83333
580.036	2163.5
583.836	2162.83333
587.634	2184.5
591.429	2193.16667
595.221	2242.83333
599.01	2282.83333
602.796	2280.5
606.578	2286.5
610.358	2292.83333
614.135	2250.5
617.909	2251.5
621.679	2229.16667
625.447	2230.16667
629.212	2232.83333
632.973	2225.5
636.732	2218.16667
640.488	2221.16667
644.241	2202.16667
647.991	2195.83333
651.737	2207.5
655.481	2150.16667
659.222	2157.5
662.96	2157.16667
666.695	2189.5
670.427	2198.16667
674.156	2195.16667
677.882	2216.16667
681.605	2184.16667
685.325	2169.16667
689.043	2170.83333
692.757	2169.83333
696.468	2149.83333
700.177	2182.83333
703.882	2170.5
707.585	2146.5
711.284	2130.5
714.981	2150.83333
718.675	2153.5
722.366	2147.83333
726.054	2137.16667
729.739	2152.16667
733.421	2166.16667
737.1	2154.16667
740.777	2185.83333
744.45	2169.16667
748.121	2200.5
751.789	2244.5
755.453	2237.5
759.115	2251.16667
762.774	2239.5
766.431	2262.16667
770.084	2289.5
773.734	2297.83333
777.382	2338.83333
781.027	2369.5
784.669	2384.83333
788.308	2407.16667
791.944	2410.83333
795.577	2413.83333
799.208	2444.16667
802.835	2474.5
806.46	2470.16667
810.082	2468.83333
813.701	2480.16667
817.317	2478.5
820.931	2492.5
824.542	2465.16667
828.149	2463.16667
831.754	2473.16667
835.357	2443.16667
838.956	2467.16667
842.553	2473.16667
846.146	2453.83333
849.737	2426.83333
853.326	2463.83333
856.911	2447.16667
860.493	2476.16667
864.073	2486.83333
867.65	2525.83333
871.225	2566.16667
874.796	2572.5
878.365	2573.16667
881.931	2593.83333
885.494	2619.83333
889.054	2601.83333
892.612	2622.5
896.166	2585.5
899.719	2572.5
903.268	2523.5
906.814	2507.83333
910.358	2458.5
913.899	2445.5
917.438	2466.5
920.973	2456.5
924.506	2488.16667
928.036	2515.5
931.564	2551.5
935.088	2603.83333
938.61	2614.16667
942.129	2663.16667
945.646	2716.16667
949.16	2756.83333
952.671	2766.5
956.179	2749.16667
959.685	2714.5
963.188	2693.5
966.688	2652.5
970.185	2593.83333
973.68	2550.5
977.173	2515.16667
980.662	2474.16667
984.149	2454.5
987.633	2463.5
991.114	2510.16667
994.593	2547.5
998.069	2618.16667
1001.542	2700.5
1005.013	2649.83333
1008.481	2515.16667
1011.947	2468.83333
1015.409	2463.16667
1018.869	2458.83333
1022.327	2452.83333
1025.782	2443.83333
1029.234	2421.83333
1032.683	2379.5
1036.13	2314.5
1039.574	2228.16667
1043.016	2169.83333
1046.455	2128.5
1049.891	2117.83333
1053.325	2128.83333
1056.756	2163.83333
1060.184	2153.5
1063.61	2172.16667
1067.033	2205.83333
1070.454	2190.5
1073.872	2227.83333
1077.287	2213.5
1080.7	2230.83333
1084.11	2217.83333
1087.517	2187.5
1090.922	2157.16667
1094.325	2152.16667
1097.724	2137.16667
1101.122	2126.83333
1104.516	2118.5
1107.908	2116.83333
1111.298	2154.83333
1114.684	2209.5
1118.069	2226.83333
1121.45	2273.16667
1124.83	2236.5
1128.206	2284.16667
1131.58	2315.5
1134.951	2371.83333
1138.32	2457.16667
1141.687	2526.16667
1145.05	2584.83333
1148.412	2561.16667
1151.77	2557.83333
1155.126	2556.16667
1158.48	2532.5
1161.831	2554.5
1165.18	2535.83333
1168.525	2614.5
1171.869	2603.16667
1175.21	2634.83333
1178.548	2637.16667
1181.884	2674.5
1185.217	2700.83333
1188.548	2772.83333
1191.877	2827.83333
1195.202	2917.5
1198.526	2993.5
1201.846	3008.5
1205.165	2996.5
1208.48	2994.16667
1211.794	2963.16667
1215.104	2963.83333
1218.413	2982.83333
1221.719	2993.83333
1225.022	2951.16667
1228.323	2923.16667
1231.621	2887.16667
1234.917	2869.16667
1238.21	2902.16667
1241.501	2870.83333
1244.79	2855.83333
1248.076	2834.83333
1251.359	2858.83333
1254.64	2933.16667
1257.919	2942.5
1261.195	2967.16667
1264.468	3063.5
1267.74	3071.16667
1271.008	3066.16667
1274.275	3054.16667
1277.538	3022.83333
1280.8	3023.16667
1284.059	3013.16667
1287.315	3073.83333
1290.569	3081.5
1293.821	3126.5
1297.07	3130.16667
1300.317	3131.5
1303.562	3127.5
1306.803	3119.16667
1310.043	3102.5
1313.28	3048.83333
1316.515	3021.16667
1319.747	2972.5
1322.977	2957.5
1326.204	2935.16667
1329.429	2859.5
1332.652	2845.5
1335.872	2835.83333
1339.09	2789.5
1342.306	2776.5
1345.519	2749.16667
1348.729	2730.5
1351.938	2731.5
1355.144	2698.16667
1358.347	2677.5
1361.548	2656.83333
1364.747	2646.5
1367.944	2623.5
1371.138	2639.83333
1374.329	2676.83333
1377.518	2694.83333
1380.705	2702.5
1383.89	2643.5
1387.072	2565.83333
1390.252	2473.5
1393.429	2383.5
1396.605	2314.16667
1399.777	2286.83333
1402.948	2250.83333
1406.116	2236.16667
1409.282	2254.5
1412.445	2233.83333
1415.606	2281.83333
1418.765	2307.5
1421.921	2352.16667
1425.075	2405.83333
1428.227	2481.5
1431.376	2575.16667
1434.524	2674.83333
1437.668	2741.16667
1440.811	2756.5
1443.951	2786.83333
1447.089	2798.83333
1450.224	2774.16667
1453.357	2771.16667
1456.488	2743.16667
1459.617	2701.83333
1462.743	2643.5
1465.867	2569.83333
1468.989	2539.5
1472.108	2467.83333
1475.225	2453.83333
1478.34	2408.83333
1481.453	2423.5
1484.563	2389.16667
1487.671	2468.5
1490.776	2483.16667
1493.88	2532.16667
1496.981	2546.5
1500.08	2610.16667
1503.176	2629.83333
1506.271	2647.83333
1509.363	2700.16667
1512.452	2730.16667
1515.54	2771.5
1518.625	2773.16667
1521.708	2860.5
1524.789	2932.83333
1527.867	3017.83333
1530.944	3129.83333
1534.018	3282.83333
1537.089	3423.5
1540.159	3470.16667
1543.226	3482.16667
1546.291	3417.5
1549.354	3353.83333
1552.415	3302.16667
1555.473	3234.83333
1558.529	3194.5
1561.583	3139.5
1564.634	3117.83333
1567.684	3119.16667
1570.731	3160.83333
1573.776	3147.16667
1576.819	3185.16667
1579.859	3214.83333
1582.898	3245.5
1585.934	3286.83333
1588.968	3296.16667
1591.999	3272.5
1595.029	3295.83333
1598.056	3344.16667
1601.081	3357.83333
1604.104	3310.16667
1607.125	3320.16667
1610.144	3236.83333
1613.16	3161.5
1616.174	3066.83333
1619.186	2976.16667
1622.196	2902.5
1625.203	2784.16667
1628.209	2745.5
1631.212	2710.5
1634.213	2669.5
1637.212	2662.83333
1640.209	2599.16667
1643.203	2541.5
1646.196	2484.5
1649.186	2399.5
1652.174	2378.83333
1655.16	2283.5
1658.144	2196.5
1661.125	2133.83333
1664.105	2046.16667
1667.082	1954.83333
1670.057	1854.83333
1673.03	1747.83333
1676.001	1641.16667
1678.97	1528.83333
1681.937	1435.83333
1684.901	1367.16667
1687.863	1334.83333
1690.824	1280.5
1693.782	1255.83333
1696.738	1194.5
1699.692	1186.16667
1702.643	1136.16667
1705.593	1143.16667
1708.54	1118.16667
1711.486	1123.83333
1714.429	1091.5
1717.37	1092.83333
1720.309	1053.16667
1723.246	1060.5
1726.181	1041.83333
1729.113	1047.16667
1732.044	1031.16667
1734.972	1026.16667
1737.899	1022.5
1740.823	1023.16667
1743.745	984.16667
1746.665	976.16667
1749.583	968.83333
1752.499	946.83333
1755.413	945.5
1758.325	932.5
1761.235	920.16667
1764.142	904.5
1767.048	895.83333
1769.951	897.83333
1772.852	898.16667
1775.752	879.16667
1778.649	878.83333
1781.544	882.16667
1784.437	847.16667
1787.328	879.16667
1790.217	867.16667
1793.104	838.16667
1795.989	841.5
1798.872	834.83333
1801.753	857.83333
1804.631	839.16667
1807.508	864.16667
1810.383	848.16667
1813.255	833.83333
1816.126	837.5
1818.994	832.83333
1821.861	829.5
1824.725	824.5
1827.587	830.5
1830.448	821.83333
1833.306	796.5
1836.162	813.5
1839.017	801.83333
1841.869	807.83333
1844.719	795.5
1847.567	782.5
1850.414	779.83333
1853.258	780.83333
1856.1	794.5
1858.94	800.5
1861.778	782.83333
1864.614	791.83333
1867.448	777.5
1870.28	767.16667
1873.111	793.83333
1875.939	775.16667
1878.765	800.83333
1881.589	781.16667
1884.411	781.83333
1887.231	790.83333
1890.049	767.83333
1892.865	773.5
1895.68	772.83333
1898.492	767.83333
1901.302	758.83333
1904.11	769.5
1906.916	762.83333
1909.721	756.5
1912.523	761.83333
1915.323	743.5
1918.122	742.83333
1920.918	750.83333
1923.712	738.83333
1926.505	733.83333
1929.295	726.83333
1932.084	742.5
1934.87	759.16667
1937.655	746.5
1940.438	734.5
1943.218	736.16667
1945.997	745.16667
1948.774	753.5
1951.549	754.83333
1954.322	734.16667
1957.093	730.16667
1959.862	739.16667
1962.629	725.83333
1965.394	738.83333
1968.157	724.5
1970.918	726.83333
1973.678	715.5
1976.435	737.16667
1979.19	704.83333
1981.944	706.16667
1984.696	714.83333
1987.445	705.83333
1990.193	712.5
1992.939	727.16667
1995.683	706.83333
1998.425	693.16667
2001.165	729.16667
2003.903	697.83333
2006.639	717.5
2009.374	713.16667
2012.106	702.83333
2014.837	696.5
2017.566	698.83333
2020.292	704.83333
2023.017	697.83333
2025.74	704.16667
2028.461	697.5
2031.18	704.5
2033.898	694.16667
2036.613	692.83333
2039.327	700.5
2042.038	680.16667
2044.748	690.5
2047.456	690.5
2050.162	681.5
2052.866	690.83333
2055.568	693.83333
2058.268	685.83333
2060.967	706.83333
2063.663	668.5
2066.358	677.83333
2069.051	682.16667
2071.742	691.16667
2074.431	696.5
2077.118	685.5
2079.804	677.16667
2082.487	685.83333
2085.169	699.16667
2087.849	721.5
2090.527	684.5
2093.203	694.5
2095.877	700.5
2098.55	695.83333
2101.22	718.5
2103.889	717.16667
2106.556	711.83333
2109.221	739.16667
2111.884	755.5
2114.546	819.83333
2117.205	847.83333
2119.863	912.16667
2122.519	955.5
2125.173	990.16667
2127.825	1028.16667
2130.475	1029.16667
2133.124	956.5
2135.771	927.83333
2138.416	913.16667
2141.059	849.16667
2143.7	833.5
2146.339	799.83333
2148.977	752.5
2151.613	749.5
2154.247	727.16667
2156.879	726.16667
2159.51	713.5
2162.138	690.5
2164.765	687.16667
2167.39	672.83333
2170.013	699.16667
2172.634	693.5
2175.254	676.83333
2177.872	726.16667
2180.488	666.16667
2183.102	688.16667
2185.714	663.83333
2188.325	657.16667
2190.934	669.5
2193.541	661.16667
2196.146	665.5
2198.75	650.83333
2201.351	651.5
2203.951	639.83333
2206.549	663.5
2209.146	643.16667
2211.74	653.16667
2214.333	646.16667
2216.924	630.16667
2219.514	641.83333
2222.101	634.5
2224.687	652.16667
2227.271	636.5
2229.853	636.5
2232.433	622.5
2235.012	649.16667
2237.589	634.16667
2240.164	653.83333
2242.738	635.16667
2245.309	631.83333
2247.879	636.5
2250.448	644.5
2253.014	623.16667
2255.579	614.5
2258.142	628.5
2260.703	616.16667
2263.262	623.16667
2265.82	608.83333
2268.376	623.5
2270.93	603.16667
2273.483	605.5
2276.033	620.16667
2278.583	610.83333
2281.13	609.83333
2283.675	613.5
2286.219	607.5
2288.761	622.83333
2291.302	607.83333
2293.841	618.83333
2296.377	600.5
2298.913	620.16667
2301.446	629.16667
2303.978	618.16667
2306.508	607.83333
2309.037	615.83333
2311.563	617.16667
2314.088	621.83333
2316.612	600.16667
2319.133	608.5
2321.653	607.5
2324.171	610.16667
2326.688	622.16667
2329.202	606.16667
2331.715	609.16667
2334.227	606.5
2336.736	621.16667
2339.244	607.5
2341.751	593.16667
2344.255	617.83333
2346.758	621.16667
2349.259	606.5
2351.759	607.5
2354.257	604.16667
2356.753	593.5
2359.247	615.16667
2361.74	625.5
2364.231	608.83333
2366.721	612.16667
2369.209	607.83333
2371.695	624.16667
2374.179	613.83333
2376.662	609.5
2379.143	632.16667
2381.622	608.83333
2384.1	632.16667
2386.576	609.16667
2389.051	634.5
2391.524	636.5
2393.995	629.5
2396.464	613.16667
2398.932	622.5
2401.398	621.16667
2403.863	615.5
2406.325	617.83333
2408.787	629.83333
2411.246	623.16667
2413.704	624.16667
2416.16	622.16667
2418.615	624.16667
2421.068	640.16667
2423.519	637.83333
2425.969	622.83333
2428.417	633.16667
2430.863	655.16667
2433.308	634.5
2435.751	645.5
2438.193	639.83333
2440.633	643.83333
2443.071	640.16667
2445.508	627.16667
2447.943	631.5
2450.376	641.16667
2452.808	632.5
2455.238	633.16667
2457.667	682.83333
2460.093	641.83333
2462.519	632.83333
2464.942	644.83333
2467.365	640.83333
2469.785	647.16667
2472.204	649.16667
2474.621	645.16667
2477.037	666.5
2479.451	639.16667
2481.863	636.5
2484.274	656.83333
2486.683	660.5
2489.091	668.83333
2491.497	659.83333
2493.901	652.83333
2496.304	657.16667
2498.705	656.5
2501.105	657.83333
2503.503	675.83333
2505.899	646.16667
2508.294	672.83333
2510.687	672.83333
2513.079	662.83333
2515.469	664.16667
2517.858	671.16667
2520.245	682.5
2522.63	677.5
2525.014	656.83333
2527.396	671.16667
2529.776	671.83333
2532.156	679.5
2534.533	672.16667
2536.909	673.83333
2539.283	663.16667
2541.656	675.5
2544.027	686.83333
2546.397	674.83333
2548.765	680.16667
2551.131	680.83333
2553.496	674.5
2555.86	691.16667
2558.221	680.16667
2560.582	693.5
2562.94	675.5
2565.298	693.16667
2567.653	709.83333
2570.007	677.16667
2572.36	704.5
2574.711	699.16667
2577.06	716.83333
2579.408	722.83333
2581.754	714.16667
2584.099	715.83333
2586.442	710.16667
2588.784	725.83333
2591.124	705.16667
2593.463	714.16667
2595.8	711.16667
2598.135	712.83333
2600.469	707.5
2602.802	721.16667
2605.133	725.83333
2607.462	708.16667
2609.79	710.16667
2612.116	743.16667
2614.441	724.83333
2616.764	722.83333
2619.086	727.5
2621.406	727.16667
2623.725	741.5
2626.042	732.83333
2628.358	734.5
2630.672	730.5
2632.985	749.83333
2635.296	757.5
2637.606	744.83333
2639.914	736.5
2642.22	751.16667
2644.525	754.5
2646.829	759.5
2649.131	770.5
2651.432	779.83333
2653.731	768.83333
2656.028	784.16667
2658.324	789.16667
2660.619	770.5
2662.912	790.16667
2665.204	788.83333
2667.494	775.83333
2669.782	784.83333
2672.07	791.5
2674.355	785.83333
2676.639	799.16667
2678.922	778.16667
2681.203	796.16667
2683.483	790.83333
2685.761	795.16667
2688.038	797.83333
2690.313	814.83333
2692.587	819.5
2694.859	800.83333
2697.13	825.5
2699.399	828.5
2701.667	829.83333
2703.933	829.83333
2706.198	821.16667
2708.461	845.5
2710.723	845.83333
2712.984	844.83333
2715.243	860.83333
2717.5	826.83333
2719.757	855.16667
2722.011	855.5
2724.264	874.83333
2726.516	879.5
2728.766	869.83333
2731.015	889.83333
2733.262	882.5
2735.508	871.83333
2737.753	876.16667
2739.996	866.83333
2742.237	865.16667
2744.477	881.83333
2746.716	871.16667
2748.953	868.16667
2751.189	875.16667
2753.423	857.5
2755.656	861.5
2757.887	857.16667
2760.117	865.16667
2762.346	856.16667
2764.573	855.16667
2766.798	870.16667
2769.022	865.83333
2771.245	874.16667
2773.467	877.5
2775.686	883.83333
2777.905	888.5
2780.122	897.5
2782.337	891.16667
2784.552	904.16667
2786.764	905.16667
2788.976	899.83333
2791.186	907.5
2793.394	911.16667
2795.601	931.83333
2797.807	941.5
2800.011	950.5
2802.214	958.83333
2804.415	952.5
2806.615	965.5
2808.814	969.5
2811.011	976.5
2813.206	973.83333
2815.401	995.5
2817.594	990.5
2819.785	999.5
2821.975	992.16667
2824.164	1002.5
2826.351	1025.83333
2828.537	1028.83333
2830.722	1039.83333
2832.905	1049.5
2835.086	1062.83333
2837.267	1090.5
2839.445	1114.16667
2841.623	1119.83333
2843.799	1149.5
2845.974	1167.16667
2848.147	1205.16667
2850.319	1224.16667
2852.489	1241.16667
2854.659	1260.5
2856.826	1277.5
2858.993	1287.16667
2861.158	1285.83333
2863.321	1276.5
2865.483	1305.5
2867.644	1296.83333
2869.804	1290.83333
2871.962	1284.16667
2874.118	1285.83333
2876.274	1279.5
2878.428	1274.5
2880.58	1269.5
2882.731	1255.16667
2884.881	1268.83333
2887.03	1278.83333
2889.177	1270.5
2891.322	1291.83333
2893.467	1283.5
2895.61	1285.5
2897.751	1313.16667
2899.892	1296.83333
2902.03	1304.83333
2904.168	1317.83333
2906.304	1321.16667
2908.439	1344.16667
2910.572	1328.5
2912.704	1352.83333
2914.835	1360.5
2916.965	1333.16667
2919.093	1351.16667
2921.219	1334.16667
2923.345	1351.5
2925.469	1312.5
2927.591	1325.5
2929.712	1271.5
2931.832	1287.16667
2933.951	1260.83333
2936.068	1259.5
2938.184	1251.16667
2940.299	1233.16667
2942.412	1210.5
2944.524	1179.83333
2946.634	1191.16667
2948.744	1139.5
2950.851	1162.83333
2952.958	1139.83333
2955.063	1137.16667
2957.167	1138.83333
2959.269	1088.83333
2961.371	1141.16667
2963.471	1089.5
2965.569	1107.83333
2967.666	1073.16667
2969.762	1085.5
2971.857	1068.5
2973.95	1044.5
2976.042	1049.16667
2978.133	1020.5
2980.222	1005.5
2982.31	988.16667
2984.396	985.5
2986.482	970.16667
2988.566	983.83333
2990.648	971.83333
2992.73	973.16667
2994.81	961.16667
2996.889	972.16667
2998.966	962.83333
3001.042	975.16667
3003.117	971.16667
3005.191	971.16667
3007.263	964.83333
3009.334	949.83333
3011.403	955.83333
3013.472	924.16667
3015.539	922.5
3017.604	943.5
3019.669	894.5
3021.732	901.83333
3023.794	902.16667
3025.854	915.16667
3027.914	903.16667
3029.971	900.5
3032.028	888.83333
3034.083	896.83333
3036.137	891.16667
3038.19	861.5
3040.242	832.83333
3042.292	820.5
3044.341	824.5
3046.388	825.5
3048.435	803.5
3050.48	823.16667
3052.524	812.83333
3054.566	788.5
3056.607	790.5
3058.647	784.83333
3060.686	757.16667
3062.723	732.5
3064.759	707.83333
3066.794	-0.5
3068.828	0.83333
3070.86	2.83333
