-0.839	661.08333
3.438	761.41667
7.711	220.41667
11.981	66.41667
16.247	49.08333
20.509	54.75
24.768	47.41667
29.024	56.75
33.276	45.75
37.524	50.41667
41.769	48.08333
46.01	33.41667
50.247	51.08333
54.481	59.75
58.712	64.08333
62.939	50.75
67.162	65.75
71.382	56.08333
75.599	49.41667
79.812	60.75
84.021	79.08333
88.227	61.08333
92.429	61.08333
96.628	58.75
100.823	69.41667
105.015	77.75
109.204	70.75
113.388	77.41667
117.57	78.75
121.748	87.75
125.922	82.75
130.093	102.08333
134.261	103.08333
138.425	97.41667
142.585	138.08333
146.742	128.75
150.896	161.08333
155.046	211.75
159.193	319.08333
163.336	542.08333
167.476	1001.75
171.613	1846.41667
175.746	3060.08333
179.875	4522.75
184.002	5942.08333
188.124	6927.75
192.244	7253.75
196.36	7159.41667
200.472	6946.75
204.581	6714.41667
208.687	6535.75
212.79	6419.08333
216.889	6412.41667
220.984	6418.41667
225.077	6411.08333
229.165	6369.41667
233.251	6338.75
237.333	6351.08333
241.412	6283.08333
245.487	6223.75
249.559	6152.08333
253.628	6088.75
257.694	6037.41667
261.756	5963.41667
265.814	5861.08333
269.87	5667.08333
273.922	5446.75
277.97	5342.08333
282.016	5316.41667
286.058	5292.41667
290.097	5403.08333
294.132	5464.75
298.164	5425.08333
302.193	5188.08333
306.219	4776.75
310.241	4404.08333
314.26	4084.08333
318.276	3818.41667
322.288	3604.75
326.297	3423.41667
330.303	3312.75
334.305	3235.08333
338.305	3164.41667
342.301	3120.08333
346.294	3108.08333
350.283	3078.41667
354.269	3051.08333
358.252	3026.08333
362.232	3024.41667
366.209	2967.41667
370.182	2942.75
374.152	2944.75
378.119	2934.75
382.083	2928.08333
386.043	2918.75
390	2891.08333
393.954	2904.41667
397.905	2891.41667
401.852	2871.08333
405.797	2835.41667
409.738	2831.75
413.676	2832.08333
417.61	2834.08333
421.542	2795.08333
425.47	2769.75
429.396	2746.41667
433.318	2724.08333
437.236	2720.75
441.152	2752.08333
445.065	2692.75
448.974	2677.75
452.88	2643.41667
456.783	2622.41667
460.683	2614.75
464.58	2616.41667
468.473	2635.08333
472.364	2637.75
476.251	2636.75
480.135	2655.41667
484.016	2701.41667
487.894	2691.08333
491.769	2723.75
495.641	2729.75
499.509	2711.75
503.375	2720.75
507.237	2694.41667
511.096	2698.75
514.952	2694.75
518.805	2722.41667
522.655	2731.41667
526.502	2711.08333
530.346	2710.41667
534.187	2727.08333
538.024	2745.08333
541.859	2743.41667
545.69	2771.41667
549.519	2768.08333
553.344	2734.41667
557.166	2681.41667
560.985	2664.08333
564.802	2610.08333
568.615	2553.75
572.425	2515.41667
576.232	2499.08333
580.036	2507.41667
583.836	2529.41667
587.634	2535.41667
591.429	2535.08333
595.221	2613.75
599.01	2624.41667
602.796	2642.75
606.578	2647.41667
610.358	2666.75
614.135	2622.41667
617.909	2610.41667
621.679	2595.75
625.447	2577.41667
629.212	2575.41667
632.973	2576.08333
636.732	2593.08333
640.488	2579.75
644.241	2550.41667
647.991	2571.75
651.737	2562.08333
655.481	2520.08333
659.222	2524.41667
662.96	2516.08333
666.695	2554.75
670.427	2588.08333
674.156	2590.41667
677.882	2561.41667
681.605	2557.08333
685.325	2563.08333
689.043	2554.41667
692.757	2513.41667
696.468	2525.75
700.177	2506.41667
703.882	2495.41667
707.585	2471.75
711.284	2491.41667
714.981	2469.41667
718.675	2470.75
722.366	2486.75
726.054	2476.41667
729.739	2493.08333
733.421	2473.41667
737.1	2481.75
740.777	2500.75
744.45	2506.75
748.121	2534.75
751.789	2578.75
755.453	2586.75
759.115	2579.75
762.774	2598.08333
766.431	2617.08333
770.084	2652.75
773.734	2696.75
777.382	2732.08333
781.027	2750.75
784.669	2787.75
788.308	2782.41667
791.944	2800.75
795.577	2784.75
799.208	2802.08333
802.835	2819.41667
806.46	2835.75
810.082	2852.41667
813.701	2851.75
817.317	2875.08333
820.931	2900.08333
824.542	2875.41667
828.149	2861.75
831.754	2838.08333
835.357	2831.41667
838.956	2843.08333
842.553	2833.41667
846.146	2829.08333
849.737	2813.41667
853.326	2837.41667
856.911	2818.41667
860.493	2864.41667
864.073	2886.41667
867.65	2917.75
871.225	2963.41667
874.796	2942.08333
878.365	2962.08333
881.931	3008.41667
885.494	2999.41667
889.054	3015.75
892.612	3039.75
896.166	3002.75
899.719	3007.41667
903.268	2951.08333
906.814	2921.75
910.358	2898.75
913.899	2860.75
917.438	2887.08333
920.973	2880.41667
924.506	2899.75
928.036	2933.08333
931.564	2971.41667
935.088	3016.41667
938.61	3024.75
942.129	3070.75
945.646	3142.75
949.16	3177.75
952.671	3222.41667
956.179	3235.75
959.685	3183.41667
963.188	3151.41667
966.688	3118.08333
970.185	3043.08333
973.68	2977.75
977.173	2909.75
980.662	2873.75
984.149	2876.08333
987.633	2856.41667
991.114	2919.08333
994.593	2982.41667
998.069	3005.08333
1001.542	3121.75
1005.013	3066.75
1008.481	2928.75
1011.947	2871.41667
1015.409	2877.41667
1018.869	2859.08333
1022.327	2854.75
1025.782	2816.08333
1029.234	2795.41667
1032.683	2751.75
1036.13	2685.75
1039.574	2595.08333
1043.016	2534.75
1046.455	2461.75
1049.891	2459.75
1053.325	2478.08333
1056.756	2485.08333
1060.184	2489.08333
1063.61	2471.75
1067.033	2518.75
1070.454	2509.41667
1073.872	2565.08333
1077.287	2530.75
1080.7	2535.75
1084.11	2522.41667
1087.517	2495.41667
1090.922	2465.75
1094.325	2453.75
1097.724	2444.08333
1101.122	2440.75
1104.516	2451.75
1107.908	2431.08333
1111.298	2493.08333
1114.684	2513.08333
1118.069	2541.41667
1121.45	2566.75
1124.83	2567.08333
1128.206	2624.41667
1131.58	2675.75
1134.951	2737.08333
1138.32	2835.41667
1141.687	2940.75
1145.05	3012.75
1148.412	3043.75
1151.77	3023.41667
1155.126	3027.41667
1158.48	3004.08333
1161.831	3048.08333
1165.18	3044.75
1168.525	3110.41667
1171.869	3124.08333
1175.21	3160.75
1178.548	3173.08333
1181.884	3197.08333
1185.217	3218.08333
1188.548	3309.08333
1191.877	3365.75
1195.202	3440.41667
1198.526	3521.75
1201.846	3513.75
1205.165	3509.75
1208.48	3502.08333
1211.794	3444.41667
1215.104	3470.75
1218.413	3450.41667
1221.719	3465.41667
1225.022	3403.41667
1228.323	3358.08333
1231.621	3316.75
1234.917	3310.41667
1238.21	3340.41667
1241.501	3297.41667
1244.79	3308.75
1248.076	3298.41667
1251.359	3310.08333
1254.64	3387.08333
1257.919	3398.08333
1261.195	3436.08333
1264.468	3544.41667
1267.74	3561.75
1271.008	3581.08333
1274.275	3556.75
1277.538	3542.75
1280.8	3526.75
1284.059	3519.41667
1287.315	3580.41667
1290.569	3565.41667
1293.821	3597.08333
1297.07	3630.41667
1300.317	3632.08333
1303.562	3621.75
1306.803	3602.41667
1310.043	3584.08333
1313.28	3549.08333
1316.515	3497.08333
1319.747	3471.41667
1322.977	3450.75
1326.204	3403.75
1329.429	3311.75
1332.652	3322.41667
1335.872	3289.41667
1339.09	3261.08333
1342.306	3222.75
1345.519	3170.08333
1348.729	3150.41667
1351.938	3135.08333
1355.144	3086.08333
1358.347	3029.08333
1361.548	3033.75
1364.747	3057.08333
1367.944	3040.75
1371.138	3029.41667
1374.329	3060.75
1377.518	3107.08333
1380.705	3156.75
1383.89	3088.08333
1387.072	3015.75
1390.252	2879.75
1393.429	2770.75
1396.605	2706.08333
1399.777	2613.75
1402.948	2616.75
1406.116	2572.08333
1409.282	2561.75
1412.445	2551.75
1415.606	2595.41667
1418.765	2618.75
1421.921	2671.08333
1425.075	2744.41667
1428.227	2830.41667
1431.376	2932.41667
1434.524	3047.75
1437.668	3124.08333
1440.811	3175.08333
1443.951	3189.41667
1447.089	3199.75
1450.224	3176.08333
1453.357	3185.75
1456.488	3183.41667
1459.617	3100.41667
1462.743	3077.41667
1465.867	2998.08333
1468.989	2966.75
1472.108	2903.08333
1475.225	2860.41667
1478.34	2833.41667
1481.453	2833.75
1484.563	2850.08333
1487.671	2910.41667
1490.776	2957.08333
1493.88	3025.41667
1496.981	3049.08333
1500.08	3122.41667
1503.176	3166.75
1506.271	3216.41667
1509.363	3246.75
1512.452	3289.08333
1515.54	3324.08333
1518.625	3393.75
1521.708	3452.75
1524.789	3562.41667
1527.867	3670.41667
1530.944	3839.75
1534.018	4027.75
1537.089	4170.75
1540.159	4196.08333
1543.226	4194.75
1546.291	4112.08333
1549.354	4043.75
1552.415	3968.08333
1555.473	3880.41667
1558.529	3838.41667
1561.583	3772.08333
1564.634	3763.08333
1567.684	3795.41667
1570.731	3759.75
1573.776	3840.75
1576.819	3866.41667
1579.859	3910.41667
1582.898	3992.41667
1585.934	3999.41667
1588.968	4009.75
1591.999	3993.75
1595.029	4023.08333
1598.056	4025.41667
1601.081	4044.75
1604.104	4008.08333
1607.125	3983.75
1610.144	3868.08333
1613.16	3796.08333
1616.174	3696.75
1619.186	3632.08333
1622.196	3508.75
1625.203	3427.41667
1628.209	3340.75
1631.212	3268.08333
1634.213	3244.41667
1637.212	3210.08333
1640.209	3126.08333
1643.203	3031.41667
1646.196	2953.75
1649.186	2816.08333
1652.174	2731.75
1655.16	2623.75
1658.144	2531.75
1661.125	2434.08333
1664.105	2331.75
1667.082	2208.41667
1670.057	2090.75
1673.03	1993.08333
1676.001	1860.75
1678.97	1755.75
1681.937	1643.75
1684.901	1562.41667
1687.863	1511.08333
1690.824	1423.41667
1693.782	1400.08333
1696.738	1355.08333
1699.692	1322.41667
1702.643	1289.08333
1705.593	1263.75
1708.54	1260.41667
1711.486	1248.41667
1714.429	1208.75
1717.37	1206.75
1720.309	1186.41667
1723.246	1185.08333
1726.181	1154.75
1729.113	1153.75
1732.044	1124.08333
1734.972	1132.75
1737.899	1113.41667
1740.823	1124.75
1743.745	1080.08333
1746.665	1063.08333
1749.583	1059.75
1752.499	1040.08333
1755.413	1031.41667
1758.325	1009.08333
1761.235	993.41667
1764.142	979.41667
1767.048	964.08333
1769.951	978.08333
1772.852	964.75
1775.752	951.41667
1778.649	946.75
1781.544	952.41667
1784.437	929.75
1787.328	945.75
1790.217	925.08333
1793.104	901.08333
1795.989	894.75
1798.872	894.75
1801.753	912.75
1804.631	894.08333
1807.508	908.41667
1810.383	889.08333
1813.255	880.08333
1816.126	885.75
1818.994	879.08333
1821.861	856.08333
1824.725	884.08333
1827.587	863.08333
1830.448	861.08333
1833.306	839.75
1836.162	853.75
1839.017	850.08333
1841.869	843.41667
1844.719	833.75
1847.567	817.75
1850.414	817.08333
1853.258	818.75
1856.1	830.75
1858.94	831.41667
1861.778	825.75
1864.614	816.75
1867.448	812.41667
1870.28	803.41667
1873.111	843.08333
1875.939	808.75
1878.765	826.08333
1881.589	810.75
1884.411	809.41667
1887.231	813.41667
1890.049	797.08333
1892.865	806.75
1895.68	793.08333
1898.492	796.08333
1901.302	791.75
1904.11	790.41667
1906.916	773.41667
1909.721	766.41667
1912.523	783.08333
1915.323	755.41667
1918.122	761.75
1920.918	768.08333
1923.712	758.41667
1926.505	747.75
1929.295	742.75
1932.084	763.75
1934.87	747.08333
1937.655	756.41667
1940.438	755.41667
1943.218	749.08333
1945.997	749.41667
1948.774	752.75
1951.549	749.08333
1954.322	745.41667
1957.093	738.08333
1959.862	728.08333
1962.629	741.75
1965.394	728.08333
1968.157	711.41667
1970.918	724.41667
1973.678	697.75
1976.435	727.75
1979.19	713.41667
1981.944	708.08333
1984.696	703.08333
1987.445	697.75
1990.193	702.41667
1992.939	716.41667
1995.683	700.75
1998.425	681.75
2001.165	710.75
2003.903	696.41667
2006.639	686.08333
2009.374	687.75
2012.106	696.08333
2014.837	671.08333
2017.566	691.08333
2020.292	695.41667
2023.017	685.08333
2025.74	677.75
2028.461	663.41667
2031.18	681.41667
2033.898	669.41667
2036.613	673.41667
2039.327	684.08333
2042.038	651.41667
2044.748	660.41667
2047.456	672.75
2050.162	660.08333
2052.866	654.41667
2055.568	669.75
2058.268	657.41667
2060.967	659.41667
2063.663	651.08333
2066.358	657.08333
2069.051	645.41667
2071.742	649.75
2074.431	658.75
2077.118	647.75
2079.804	642.08333
2082.487	641.08333
2085.169	648.08333
2087.849	658.41667
2090.527	635.41667
2093.203	648.08333
2095.877	654.75
2098.55	649.41667
2101.22	666.41667
2103.889	680.08333
2106.556	679.41667
2109.221	696.75
2111.884	705.75
2114.546	752.75
2117.205	790.75
2119.863	861.75
2122.519	912.75
2125.173	976.08333
2127.825	1038.41667
2130.475	1025.75
2133.124	999.41667
2135.771	956.75
2138.416	915.08333
2141.059	845.41667
2143.7	811.75
2146.339	767.41667
2148.977	714.75
2151.613	704.41667
2154.247	690.41667
2156.879	673.75
2159.51	652.08333
2162.138	637.41667
2164.765	634.08333
2167.39	621.75
2170.013	648.41667
2172.634	623.75
2175.254	617.75
2177.872	646.41667
2180.488	592.75
2183.102	607.41667
2185.714	602.08333
2188.325	581.41667
2190.934	591.75
2193.541	597.75
2196.146	586.41667
2198.75	572.08333
2201.351	569.75
2203.951	561.08333
2206.549	589.08333
2209.146	559.08333
2211.74	561.41667
2214.333	571.41667
2216.924	534.75
2219.514	552.08333
2222.101	544.08333
2224.687	565.08333
2227.271	536.41667
2229.853	524.08333
2232.433	527.75
2235.012	544.75
2237.589	537.41667
2240.164	543.08333
2242.738	528.41667
2245.309	518.41667
2247.879	523.75
2250.448	531.41667
2253.014	518.41667
2255.579	496.08333
2258.142	503.08333
2260.703	495.75
2263.262	497.41667
2265.82	489.75
2268.376	494.41667
2270.93	474.08333
2273.483	484.08333
2276.033	483.75
2278.583	473.75
2281.13	486.41667
2283.675	460.75
2286.219	480.75
2288.761	472.08333
2291.302	473.41667
2293.841	487.75
2296.377	471.41667
2298.913	465.75
2301.446	477.41667
2303.978	469.41667
2306.508	454.08333
2309.037	460.41667
2311.563	460.41667
2314.088	462.08333
2316.612	445.75
2319.133	461.41667
2321.653	447.75
2324.171	441.08333
2326.688	460.08333
2329.202	441.75
2331.715	452.75
2334.227	449.75
2336.736	450.75
2339.244	428.75
2341.751	423.75
2344.255	449.75
2346.758	441.08333
2349.259	428.75
2351.759	432.75
2354.257	434.75
2356.753	419.75
2359.247	433.08333
2361.74	436.75
2364.231	425.75
2366.721	434.08333
2369.209	426.75
2371.695	421.41667
2374.179	418.08333
2376.662	411.41667
2379.143	433.41667
2381.622	414.75
2384.1	425.75
2386.576	410.08333
2389.051	433.08333
2391.524	432.75
2393.995	425.75
2396.464	411.41667
2398.932	409.08333
2401.398	412.75
2403.863	400.75
2406.325	407.08333
2408.787	408.75
2411.246	411.08333
2413.704	408.08333
2416.16	404.75
2418.615	409.75
2421.068	413.75
2423.519	411.08333
2425.969	397.41667
2428.417	415.41667
2430.863	429.08333
2433.308	413.08333
2435.751	408.75
2438.193	399.75
2440.633	396.41667
2443.071	401.75
2445.508	388.41667
2447.943	388.41667
2450.376	380.41667
2452.808	394.41667
2455.238	384.41667
2457.667	416.75
2460.093	387.75
2462.519	383.75
2464.942	378.75
2467.365	391.75
2469.785	397.41667
2472.204	380.41667
2474.621	380.08333
2477.037	395.08333
2479.451	368.41667
2481.863	367.75
2484.274	377.41667
2486.683	375.41667
2489.091	384.75
2491.497	379.75
2493.901	387.75
2496.304	370.75
2498.705	381.08333
2501.105	376.75
2503.503	402.75
2505.899	360.08333
2508.294	384.41667
2510.687	374.75
2513.079	373.41667
2515.469	357.41667
2517.858	363.08333
2520.245	376.75
2522.63	362.75
2525.014	357.41667
2527.396	358.41667
2529.776	346.75
2532.156	371.41667
2534.533	356.75
2536.909	357.75
2539.283	342.41667
2541.656	353.75
2544.027	365.75
2546.397	356.75
2548.765	356.08333
2551.131	355.75
2553.496	360.41667
2555.86	364.08333
2558.221	351.08333
2560.582	352.75
2562.94	345.75
2565.298	350.41667
2567.653	360.41667
2570.007	348.08333
2572.36	356.08333
2574.711	340.75
2577.06	357.41667
2579.408	356.08333
2581.754	354.75
2584.099	353.08333
2586.442	346.75
2588.784	356.75
2591.124	345.08333
2593.463	350.41667
2595.8	350.75
2598.135	329.75
2600.469	345.08333
2602.802	350.41667
2605.133	351.41667
2607.462	340.75
2609.79	338.08333
2612.116	348.75
2614.441	347.08333
2616.764	343.75
2619.086	341.75
2621.406	333.08333
2623.725	354.08333
2626.042	348.41667
2628.358	336.08333
2630.672	329.75
2632.985	351.08333
2635.296	348.08333
2637.606	344.41667
2639.914	333.75
2642.22	343.08333
2644.525	344.75
2646.829	349.08333
2649.131	353.41667
2651.432	351.75
2653.731	343.41667
2656.028	357.41667
2658.324	351.41667
2660.619	340.41667
2662.912	349.08333
2665.204	337.08333
2667.494	352.08333
2669.782	340.08333
2672.07	349.41667
2674.355	352.08333
2676.639	338.08333
2678.922	339.41667
2681.203	340.08333
2683.483	337.41667
2685.761	336.08333
2688.038	351.08333
2690.313	358.08333
2692.587	349.08333
2694.859	339.08333
2697.13	357.75
2699.399	355.41667
2701.667	365.08333
2703.933	349.41667
2706.198	363.75
2708.461	365.75
2710.723	373.08333
2712.984	361.41667
2715.243	365.08333
2717.5	354.41667
2719.757	380.75
2722.011	358.08333
2724.264	380.41667
2726.516	381.08333
2728.766	361.08333
2731.015	374.08333
2733.262	372.08333
2735.508	380.75
2737.753	368.75
2739.996	359.41667
2742.237	354.75
2744.477	370.75
2746.716	369.08333
2748.953	356.08333
2751.189	354.41667
2753.423	357.41667
2755.656	355.08333
2757.887	345.75
2760.117	348.75
2762.346	339.08333
2764.573	338.08333
2766.798	341.41667
2769.022	341.08333
2771.245	350.08333
2773.467	349.75
2775.686	354.08333
2777.905	348.08333
2780.122	363.41667
2782.337	362.41667
2784.552	353.75
2786.764	358.41667
2788.976	363.41667
2791.186	365.08333
2793.394	366.41667
2795.601	369.41667
2797.807	394.75
2800.011	391.41667
2802.214	386.08333
2804.415	385.75
2806.615	391.75
2808.814	395.41667
2811.011	401.08333
2813.206	402.08333
2815.401	423.08333
2817.594	424.75
2819.785	432.75
2821.975	420.75
2824.164	431.41667
2826.351	443.41667
2828.537	460.08333
2830.722	471.08333
2832.905	473.41667
2835.086	490.08333
2837.267	530.75
2839.445	539.08333
2841.623	552.75
2843.799	575.08333
2845.974	599.75
2848.147	624.08333
2850.319	647.75
2852.489	688.75
2854.659	691.41667
2856.826	709.41667
2858.993	745.75
2861.158	713.41667
2863.321	729.75
2865.483	746.41667
2867.644	734.08333
2869.804	739.41667
2871.962	726.41667
2874.118	729.75
2876.274	726.75
2878.428	725.08333
2880.58	729.08333
2882.731	718.75
2884.881	710.41667
2887.03	731.08333
2889.177	738.75
2891.322	735.75
2893.467	745.75
2895.61	747.75
2897.751	761.75
2899.892	748.41667
2902.03	756.75
2904.168	765.75
2906.304	780.08333
2908.439	787.41667
2910.572	769.41667
2912.704	786.75
2914.835	794.08333
2916.965	768.41667
2919.093	793.41667
2921.219	762.41667
2923.345	800.75
2925.469	754.75
2927.591	774.41667
2929.712	739.41667
2931.832	736.08333
2933.951	714.08333
2936.068	705.41667
2938.184	683.08333
2940.299	663.75
2942.412	651.75
2944.524	599.08333
2946.634	608.08333
2948.744	555.08333
2950.851	586.08333
2952.958	536.75
2955.063	539.75
2957.167	536.08333
2959.269	499.41667
2961.371	526.41667
2963.471	482.08333
2965.569	493.41667
2967.666	459.08333
2969.762	454.08333
2971.857	444.75
2973.95	426.41667
2976.042	428.08333
2978.133	423.75
2980.222	401.75
2982.31	378.75
2984.396	369.08333
2986.482	364.08333
2988.566	365.75
2990.648	357.08333
2992.73	350.75
2994.81	345.75
2996.889	338.75
2998.966	346.75
3001.042	343.08333
3003.117	335.41667
3005.191	340.41667
3007.263	339.08333
3009.334	325.41667
3011.403	326.41667
3013.472	315.08333
3015.539	324.08333
3017.604	323.41667
3019.669	294.75
3021.732	302.08333
3023.794	299.75
3025.854	290.41667
3027.914	286.41667
3029.971	298.08333
3032.028	291.75
3034.083	295.08333
3036.137	289.41667
3038.19	277.08333
3040.242	268.41667
3042.292	266.41667
3044.341	267.41667
3046.388	266.75
3048.435	257.41667
3050.48	280.75
3052.524	264.75
3054.566	248.08333
3056.607	254.41667
3058.647	251.08333
3060.686	239.41667
3062.723	233.41667
3064.759	220.41667
3066.794	1.41667
3068.828	2.08333
3070.86	2.41667
