-0.839	621.04167
3.438	733.70833
7.711	207.04167
11.981	62.04167
16.247	49.375
20.509	53.70833
24.768	50.375
29.024	57.70833
33.276	45.04167
37.524	50.375
41.769	50.04167
46.01	33.70833
50.247	47.70833
54.481	59.04167
58.712	64.04167
62.939	50.375
67.162	65.375
71.382	58.70833
75.599	49.375
79.812	64.70833
84.021	82.70833
88.227	63.70833
92.429	60.70833
96.628	51.70833
100.823	73.04167
105.015	74.04167
109.204	69.375
113.388	78.04167
117.57	77.04167
121.748	86.04167
125.922	81.70833
130.093	96.04167
134.261	101.375
138.425	96.70833
142.585	136.375
146.742	132.70833
150.896	161.375
155.046	199.04167
159.193	310.04167
163.336	532.04167
167.476	943.04167
171.613	1741.70833
175.746	2923.70833
179.875	4369.375
184.002	5638.70833
188.124	6556.70833
192.244	6921.04167
196.36	6797.04167
200.472	6568.375
204.581	6348.375
208.687	6166.04167
212.79	6044.70833
216.889	6037.70833
220.984	6026.04167
225.077	6019.70833
229.165	5966.375
233.251	5925.04167
237.333	5908.04167
241.412	5800.70833
245.487	5711.375
249.559	5689.70833
253.628	5601.70833
257.694	5559.70833
261.756	5498.70833
265.814	5410.70833
269.87	5222.04167
273.922	5067.70833
277.97	4976.70833
282.016	4905.04167
286.058	4928.70833
290.097	5012.70833
294.132	5062.04167
298.164	5014.04167
302.193	4807.375
306.219	4488.375
310.241	4120.70833
314.26	3808.04167
318.276	3565.375
322.288	3440.375
326.297	3266.375
330.303	3148.70833
334.305	3067.375
338.305	3027.375
342.301	2976.04167
346.294	2956.70833
350.283	2924.70833
354.269	2906.70833
358.252	2886.70833
362.232	2870.70833
366.209	2835.375
370.182	2806.04167
374.152	2812.04167
378.119	2813.375
382.083	2802.04167
386.043	2828.375
390	2778.70833
393.954	2773.375
397.905	2743.04167
401.852	2736.375
405.797	2730.70833
409.738	2720.375
413.676	2740.70833
417.61	2711.70833
421.542	2684.375
425.47	2644.04167
429.396	2635.375
433.318	2603.04167
437.236	2617.70833
441.152	2659.70833
445.065	2589.04167
448.974	2586.375
452.88	2542.04167
456.783	2528.04167
460.683	2512.04167
464.58	2515.375
468.473	2518.04167
472.364	2535.375
476.251	2503.70833
480.135	2550.04167
484.016	2590.04167
487.894	2583.70833
491.769	2623.70833
495.641	2624.70833
499.509	2615.375
503.375	2629.375
507.237	2622.375
511.096	2623.04167
514.952	2701.70833
518.805	2809.04167
522.655	2833.70833
526.502	2730.375
530.346	2622.70833
534.187	2635.70833
538.024	2630.375
541.859	2616.375
545.69	2650.375
549.519	2627.04167
553.344	2600.70833
557.166	2572.375
560.985	2528.375
564.802	2489.375
568.615	2460.04167
572.425	2429.375
576.232	2415.04167
580.036	2417.375
583.836	2418.375
587.634	2440.375
591.429	2430.375
595.221	2483.375
599.01	2504.375
602.796	2535.70833
606.578	2551.04167
610.358	2564.04167
614.135	2529.04167
617.909	2512.70833
621.679	2485.375
625.447	2498.04167
629.212	2478.375
632.973	2487.375
636.732	2463.04167
640.488	2467.04167
644.241	2437.04167
647.991	2449.375
651.737	2462.04167
655.481	2423.70833
659.222	2429.04167
662.96	2412.04167
666.695	2452.375
670.427	2487.375
674.156	2485.70833
677.882	2466.375
681.605	2448.375
685.325	2431.04167
689.043	2436.70833
692.757	2411.70833
696.468	2411.04167
700.177	2403.70833
703.882	2392.70833
707.585	2383.04167
711.284	2373.70833
714.981	2376.04167
718.675	2369.70833
722.366	2386.04167
726.054	2388.375
729.739	2377.04167
733.421	2391.70833
737.1	2378.70833
740.777	2389.375
744.45	2402.70833
748.121	2425.375
751.789	2465.375
755.453	2461.04167
759.115	2487.70833
762.774	2510.375
766.431	2517.375
770.084	2537.70833
773.734	2551.04167
777.382	2593.375
781.027	2624.04167
784.669	2639.70833
788.308	2652.375
791.944	2673.04167
795.577	2675.04167
799.208	2693.375
802.835	2722.70833
806.46	2716.375
810.082	2728.70833
813.701	2766.375
817.317	2752.375
820.931	2754.375
824.542	2770.375
828.149	2705.375
831.754	2697.04167
835.357	2707.375
838.956	2727.04167
842.553	2703.375
846.146	2696.70833
849.737	2683.04167
853.326	2702.375
856.911	2699.70833
860.493	2721.70833
864.073	2742.70833
867.65	2778.375
871.225	2818.04167
874.796	2817.375
878.365	2830.375
881.931	2852.04167
885.494	2884.04167
889.054	2863.04167
892.612	2893.375
896.166	2860.375
899.719	2842.70833
903.268	2807.04167
906.814	2765.04167
910.358	2767.04167
913.899	2731.375
917.438	2729.70833
920.973	2736.375
924.506	2770.375
928.036	2784.375
931.564	2841.70833
935.088	2874.04167
938.61	2884.70833
942.129	2913.04167
945.646	2984.375
949.16	3030.375
952.671	3062.375
956.179	3049.04167
959.685	3024.70833
963.188	3002.70833
966.688	2957.375
970.185	2878.70833
973.68	2845.375
977.173	2775.70833
980.662	2740.70833
984.149	2741.04167
987.633	2712.70833
991.114	2782.04167
994.593	2820.70833
998.069	2877.70833
1001.542	2984.04167
1005.013	2933.70833
1008.481	2766.04167
1011.947	2751.375
1015.409	2708.375
1018.869	2700.70833
1022.327	2730.04167
1025.782	2674.375
1029.234	2661.04167
1032.683	2623.04167
1036.13	2536.375
1039.574	2462.375
1043.016	2385.04167
1046.455	2332.04167
1049.891	2343.70833
1053.325	2335.04167
1056.756	2338.70833
1060.184	2351.70833
1063.61	2370.70833
1067.033	2378.375
1070.454	2378.70833
1073.872	2426.375
1077.287	2397.04167
1080.7	2414.04167
1084.11	2392.70833
1087.517	2396.375
1090.922	2374.70833
1094.325	2335.375
1097.724	2325.70833
1101.122	2337.70833
1104.516	2317.70833
1107.908	2335.04167
1111.298	2367.375
1114.684	2388.375
1118.069	2423.375
1121.45	2466.70833
1124.83	2462.375
1128.206	2483.375
1131.58	2530.375
1134.951	2603.375
1138.32	2717.375
1141.687	2802.375
1145.05	2855.375
1148.412	2877.04167
1151.77	2879.70833
1155.126	2879.04167
1158.48	2867.04167
1161.831	2897.375
1165.18	2920.04167
1168.525	2965.04167
1171.869	2984.70833
1175.21	3022.04167
1178.548	3028.70833
1181.884	3052.70833
1185.217	3072.04167
1188.548	3114.375
1191.877	3179.04167
1195.202	3270.04167
1198.526	3327.375
1201.846	3320.375
1205.165	3341.04167
1208.48	3301.70833
1211.794	3276.375
1215.104	3277.70833
1218.413	3256.70833
1221.719	3290.70833
1225.022	3215.375
1228.323	3169.70833
1231.621	3148.70833
1234.917	3129.70833
1238.21	3121.70833
1241.501	3134.04167
1244.79	3134.70833
1248.076	3100.70833
1251.359	3126.04167
1254.64	3210.70833
1257.919	3201.04167
1261.195	3265.375
1264.468	3330.375
1267.74	3373.70833
1271.008	3383.70833
1274.275	3366.04167
1277.538	3366.04167
1280.8	3334.70833
1284.059	3351.375
1287.315	3359.375
1290.569	3412.04167
1293.821	3409.375
1297.07	3431.375
1300.317	3423.375
1303.562	3444.375
1306.803	3413.375
1310.043	3391.04167
1313.28	3353.70833
1316.515	3324.04167
1319.747	3299.70833
1322.977	3264.375
1326.204	3242.375
1329.429	3190.375
1332.652	3166.375
1335.872	3151.375
1339.09	3106.70833
1342.306	3106.70833
1345.519	3062.375
1348.729	3027.04167
1351.938	3013.375
1355.144	2971.04167
1358.347	2933.70833
1361.548	2904.70833
1364.747	2918.375
1367.944	2897.04167
1371.138	2913.375
1374.329	2933.70833
1377.518	2962.70833
1380.705	2967.04167
1383.89	2962.04167
1387.072	2859.70833
1390.252	2767.375
1393.429	2661.70833
1396.605	2571.375
1399.777	2499.375
1402.948	2480.70833
1406.116	2449.04167
1409.282	2463.70833
1412.445	2445.375
1415.606	2492.375
1418.765	2517.04167
1421.921	2567.375
1425.075	2612.70833
1428.227	2679.375
1431.376	2788.375
1434.524	2874.04167
1437.668	2963.375
1440.811	2999.70833
1443.951	3016.375
1447.089	3036.375
1450.224	3017.04167
1453.357	2997.04167
1456.488	3022.70833
1459.617	2956.375
1462.743	2917.375
1465.867	2869.375
1468.989	2807.375
1472.108	2763.04167
1475.225	2734.70833
1478.34	2693.70833
1481.453	2727.375
1484.563	2734.375
1487.671	2755.04167
1490.776	2799.04167
1493.88	2849.375
1496.981	2927.375
1500.08	2983.04167
1503.176	2995.375
1506.271	3039.375
1509.363	3081.70833
1512.452	3126.70833
1515.54	3170.04167
1518.625	3199.04167
1521.708	3265.04167
1524.789	3354.375
1527.867	3469.70833
1530.944	3642.04167
1534.018	3792.375
1537.089	3928.04167
1540.159	4012.70833
1543.226	3970.70833
1546.291	3916.375
1549.354	3867.375
1552.415	3784.04167
1555.473	3725.04167
1558.529	3657.04167
1561.583	3626.04167
1564.634	3622.70833
1567.684	3592.375
1570.731	3621.04167
1573.776	3668.04167
1576.819	3733.70833
1579.859	3782.375
1582.898	3784.04167
1585.934	3822.70833
1588.968	3848.70833
1591.999	3812.70833
1595.029	3823.04167
1598.056	3835.375
1601.081	3867.70833
1604.104	3859.04167
1607.125	3792.70833
1610.144	3716.04167
1613.16	3628.375
1616.174	3553.04167
1619.186	3444.70833
1622.196	3365.70833
1625.203	3241.04167
1628.209	3193.70833
1631.212	3141.375
1634.213	3113.70833
1637.212	3078.70833
1640.209	3029.70833
1643.203	2933.375
1646.196	2841.04167
1649.186	2727.70833
1652.174	2623.375
1655.16	2527.375
1658.144	2451.70833
1661.125	2338.375
1664.105	2228.375
1667.082	2132.70833
1670.057	2040.375
1673.03	1884.375
1676.001	1779.375
1678.97	1695.375
1681.937	1576.04167
1684.901	1504.375
1687.863	1464.70833
1690.824	1375.70833
1693.782	1363.375
1696.738	1301.375
1699.692	1284.04167
1702.643	1241.04167
1705.593	1355.04167
1708.54	1334.70833
1711.486	1393.04167
1714.429	1234.70833
1717.37	1169.375
1720.309	1125.70833
1723.246	1142.375
1726.181	1128.04167
1729.113	1109.375
1732.044	1096.04167
1734.972	1095.70833
1737.899	1099.70833
1740.823	1090.04167
1743.745	1061.375
1746.665	1042.04167
1749.583	1026.04167
1752.499	1012.70833
1755.413	1008.70833
1758.325	995.375
1761.235	965.375
1764.142	961.70833
1767.048	945.04167
1769.951	949.04167
1772.852	937.375
1775.752	934.04167
1778.649	942.04167
1781.544	928.70833
1784.437	908.70833
1787.328	935.70833
1790.217	900.375
1793.104	885.375
1795.989	895.70833
1798.872	878.375
1801.753	895.70833
1804.631	893.04167
1807.508	890.70833
1810.383	879.375
1813.255	869.70833
1816.126	877.04167
1818.994	879.375
1821.861	862.04167
1824.725	857.04167
1827.587	859.70833
1830.448	867.375
1833.306	829.70833
1836.162	848.70833
1839.017	841.04167
1841.869	834.04167
1844.719	824.70833
1847.567	817.375
1850.414	816.70833
1853.258	815.375
1856.1	833.375
1858.94	834.70833
1861.778	817.375
1864.614	816.375
1867.448	817.04167
1870.28	807.70833
1873.111	831.375
1875.939	802.375
1878.765	825.375
1881.589	802.375
1884.411	805.04167
1887.231	806.04167
1890.049	800.70833
1892.865	801.70833
1895.68	786.04167
1898.492	789.375
1901.302	786.70833
1904.11	789.375
1906.916	765.04167
1909.721	765.70833
1912.523	769.70833
1915.323	774.375
1918.122	768.70833
1920.918	775.70833
1923.712	755.375
1926.505	762.375
1929.295	745.04167
1932.084	772.04167
1934.87	762.04167
1937.655	750.70833
1940.438	752.375
1943.218	745.70833
1945.997	758.375
1948.774	767.375
1951.549	759.375
1954.322	743.70833
1957.093	745.70833
1959.862	744.70833
1962.629	733.375
1965.394	731.70833
1968.157	728.04167
1970.918	733.04167
1973.678	721.70833
1976.435	730.375
1979.19	710.70833
1981.944	713.375
1984.696	714.70833
1987.445	707.375
1990.193	710.375
1992.939	742.375
1995.683	721.04167
1998.425	691.375
2001.165	730.375
2003.903	707.04167
2006.639	706.375
2009.374	720.04167
2012.106	718.70833
2014.837	687.70833
2017.566	714.375
2020.292	704.375
2023.017	690.70833
2025.74	700.375
2028.461	694.70833
2031.18	701.375
2033.898	680.04167
2036.613	686.375
2039.327	678.04167
2042.038	676.70833
2044.748	671.375
2047.456	686.70833
2050.162	671.04167
2052.866	678.375
2055.568	683.70833
2058.268	671.04167
2060.967	668.70833
2063.663	654.375
2066.358	676.04167
2069.051	657.04167
2071.742	668.375
2074.431	672.04167
2077.118	656.375
2079.804	645.70833
2082.487	671.04167
2085.169	673.70833
2087.849	690.04167
2090.527	665.375
2093.203	675.04167
2095.877	678.70833
2098.55	682.04167
2101.22	690.70833
2103.889	697.04167
2106.556	699.70833
2109.221	719.70833
2111.884	733.04167
2114.546	790.70833
2117.205	833.375
2119.863	901.70833
2122.519	941.04167
2125.173	1009.70833
2127.825	1057.375
2130.475	1065.70833
2133.124	1037.70833
2135.771	1000.375
2138.416	961.70833
2141.059	887.375
2143.7	847.70833
2146.339	814.70833
2148.977	767.04167
2151.613	754.04167
2154.247	730.04167
2156.879	719.70833
2159.51	702.375
2162.138	689.70833
2164.765	685.04167
2167.39	663.375
2170.013	677.70833
2172.634	667.375
2175.254	654.04167
2177.872	687.375
2180.488	648.70833
2183.102	661.04167
2185.714	647.70833
2188.325	624.70833
2190.934	631.04167
2193.541	645.04167
2196.146	630.375
2198.75	619.375
2201.351	615.70833
2203.951	607.04167
2206.549	625.04167
2209.146	616.04167
2211.74	609.04167
2214.333	612.04167
2216.924	593.375
2219.514	587.375
2222.101	586.70833
2224.687	599.04167
2227.271	593.04167
2229.853	578.375
2232.433	574.04167
2235.012	596.04167
2237.589	582.04167
2240.164	600.375
2242.738	582.04167
2245.309	563.70833
2247.879	579.375
2250.448	583.04167
2253.014	560.375
2255.579	555.04167
2258.142	555.04167
2260.703	555.70833
2263.262	554.375
2265.82	536.375
2268.376	550.375
2270.93	524.375
2273.483	547.04167
2276.033	548.375
2278.583	531.04167
2281.13	537.70833
2283.675	534.04167
2286.219	529.70833
2288.761	532.04167
2291.302	536.375
2293.841	534.375
2296.377	513.70833
2298.913	522.70833
2301.446	545.04167
2303.978	534.70833
2306.508	526.70833
2309.037	531.375
2311.563	529.375
2314.088	527.70833
2316.612	513.375
2319.133	520.04167
2321.653	519.375
2324.171	508.375
2326.688	528.04167
2329.202	508.70833
2331.715	512.04167
2334.227	511.70833
2336.736	515.70833
2339.244	504.375
2341.751	497.04167
2344.255	517.04167
2346.758	509.70833
2349.259	490.04167
2351.759	512.70833
2354.257	503.70833
2356.753	493.04167
2359.247	501.70833
2361.74	517.70833
2364.231	516.375
2366.721	507.375
2369.209	496.70833
2371.695	511.70833
2374.179	497.375
2376.662	508.04167
2379.143	508.375
2381.622	499.70833
2384.1	506.375
2386.576	488.375
2389.051	506.375
2391.524	506.375
2393.995	492.70833
2396.464	492.04167
2398.932	502.04167
2401.398	496.375
2403.863	501.375
2406.325	492.70833
2408.787	495.04167
2411.246	494.04167
2413.704	489.375
2416.16	489.04167
2418.615	493.375
2421.068	497.04167
2423.519	498.04167
2425.969	499.70833
2428.417	491.375
2430.863	516.04167
2433.308	510.04167
2435.751	503.04167
2438.193	492.375
2440.633	499.70833
2443.071	499.04167
2445.508	488.375
2447.943	489.70833
2450.376	486.70833
2452.808	494.04167
2455.238	479.375
2457.667	519.375
2460.093	490.04167
2462.519	481.375
2464.942	488.04167
2467.365	492.375
2469.785	497.375
2472.204	489.70833
2474.621	475.04167
2477.037	509.04167
2479.451	484.04167
2481.863	478.04167
2484.274	489.70833
2486.683	488.04167
2489.091	497.04167
2491.497	495.375
2493.901	496.04167
2496.304	487.70833
2498.705	503.04167
2501.105	486.04167
2503.503	509.375
2505.899	479.375
2508.294	502.70833
2510.687	492.70833
2513.079	495.70833
2515.469	485.04167
2517.858	490.375
2520.245	491.04167
2522.63	490.375
2525.014	482.04167
2527.396	482.375
2529.776	476.70833
2532.156	491.70833
2534.533	477.04167
2536.909	474.04167
2539.283	460.70833
2541.656	473.70833
2544.027	505.70833
2546.397	487.70833
2548.765	482.70833
2551.131	486.70833
2553.496	487.70833
2555.86	489.70833
2558.221	492.04167
2560.582	486.04167
2562.94	475.375
2565.298	492.04167
2567.653	497.04167
2570.007	476.70833
2572.36	489.04167
2574.711	480.375
2577.06	503.375
2579.408	496.04167
2581.754	482.375
2584.099	495.375
2586.442	493.04167
2588.784	504.70833
2591.124	488.375
2593.463	487.70833
2595.8	492.375
2598.135	474.70833
2600.469	492.70833
2602.802	500.70833
2605.133	499.70833
2607.462	481.04167
2609.79	479.70833
2612.116	502.70833
2614.441	494.375
2616.764	487.375
2619.086	497.70833
2621.406	480.70833
2623.725	512.375
2626.042	497.70833
2628.358	499.375
2630.672	485.70833
2632.985	506.70833
2635.296	491.70833
2637.606	492.04167
2639.914	493.70833
2642.22	503.70833
2644.525	509.375
2646.829	513.70833
2649.131	512.375
2651.432	522.375
2653.731	516.70833
2656.028	523.04167
2658.324	534.70833
2660.619	515.70833
2662.912	526.04167
2665.204	510.70833
2667.494	519.375
2669.782	511.375
2672.07	527.70833
2674.355	522.375
2676.639	519.04167
2678.922	513.375
2681.203	525.375
2683.483	516.375
2685.761	514.375
2688.038	526.70833
2690.313	549.04167
2692.587	529.70833
2694.859	527.375
2697.13	525.375
2699.399	542.04167
2701.667	543.04167
2703.933	539.375
2706.198	543.70833
2708.461	545.04167
2710.723	551.375
2712.984	547.70833
2715.243	556.70833
2717.5	554.375
2719.757	567.04167
2722.011	557.375
2724.264	562.04167
2726.516	587.04167
2728.766	563.70833
2731.015	564.375
2733.262	579.04167
2735.508	570.70833
2737.753	564.375
2739.996	558.375
2742.237	554.375
2744.477	569.04167
2746.716	569.04167
2748.953	550.70833
2751.189	556.70833
2753.423	561.04167
2755.656	544.375
2757.887	544.04167
2760.117	547.375
2762.346	549.04167
2764.573	549.04167
2766.798	551.375
2769.022	557.375
2771.245	558.70833
2773.467	556.04167
2775.686	562.04167
2777.905	561.70833
2780.122	573.70833
2782.337	573.375
2784.552	566.70833
2786.764	566.70833
2788.976	591.04167
2791.186	583.04167
2793.394	584.375
2795.601	591.70833
2797.807	604.375
2800.011	615.70833
2802.214	607.375
2804.415	604.375
2806.615	616.70833
2808.814	619.70833
2811.011	625.70833
2813.206	615.375
2815.401	643.70833
2817.594	640.04167
2819.785	659.375
2821.975	637.375
2824.164	647.04167
2826.351	666.375
2828.537	685.375
2830.722	689.375
2832.905	690.04167
2835.086	706.04167
2837.267	741.04167
2839.445	743.375
2841.623	767.04167
2843.799	791.70833
2845.974	815.70833
2848.147	842.04167
2850.319	858.375
2852.489	902.70833
2854.659	895.375
2856.826	895.375
2858.993	937.04167
2861.158	911.04167
2863.321	922.04167
2865.483	934.375
2867.644	945.70833
2869.804	926.04167
2871.962	916.70833
2874.118	924.375
2876.274	917.375
2878.428	926.04167
2880.58	918.375
2882.731	903.375
2884.881	911.70833
2887.03	933.375
2889.177	931.70833
2891.322	922.70833
2893.467	937.04167
2895.61	929.70833
2897.751	936.04167
2899.892	940.375
2902.03	954.375
2904.168	966.04167
2906.304	966.04167
2908.439	992.04167
2910.572	958.70833
2912.704	981.70833
2914.835	982.04167
2916.965	985.04167
2919.093	995.70833
2921.219	975.375
2923.345	984.70833
2925.469	962.70833
2927.591	956.04167
2929.712	933.70833
2931.832	920.375
2933.951	926.04167
2936.068	904.04167
2938.184	880.70833
2940.299	870.375
2942.412	861.70833
2944.524	824.70833
2946.634	816.70833
2948.744	785.70833
2950.851	805.04167
2952.958	762.375
2955.063	768.375
2957.167	766.70833
2959.269	734.70833
2961.371	758.04167
2963.471	728.70833
2965.569	728.04167
2967.666	703.375
2969.762	687.70833
2971.857	693.70833
2973.95	667.04167
2976.042	663.375
2978.133	649.04167
2980.222	650.04167
2982.31	631.04167
2984.396	603.04167
2986.482	615.70833
2988.566	602.375
2990.648	596.04167
2992.73	604.04167
2994.81	588.375
2996.889	601.375
2998.966	581.04167
3001.042	595.70833
3003.117	588.70833
3005.191	582.04167
3007.263	592.375
3009.334	581.04167
3011.403	569.70833
3013.472	564.375
3015.539	564.70833
3017.604	571.04167
3019.669	534.04167
3021.732	546.375
3023.794	532.70833
3025.854	531.375
3027.914	538.04167
3029.971	539.70833
3032.028	543.375
3034.083	543.04167
3036.137	519.70833
3038.19	506.04167
3040.242	494.04167
3042.292	498.375
3044.341	500.70833
3046.388	489.70833
3048.435	468.375
3050.48	493.04167
3052.524	491.375
3054.566	471.70833
3056.607	480.70833
3058.647	461.70833
3060.686	444.70833
3062.723	428.375
3064.759	418.70833
3066.794	-1.95833
3068.828	2.70833
3070.86	2.375
