-0.839	414.5
3.438	496.16667
7.711	152.83333
11.981	57.83333
16.247	45.16667
20.509	49.5
24.768	46.83333
29.024	52.83333
33.276	41.5
37.524	49.83333
41.769	46.5
46.01	34.16667
50.247	44.83333
54.481	57.83333
58.712	62.83333
62.939	49.5
67.162	64.5
71.382	56.5
75.599	41.5
79.812	63.5
84.021	78.16667
88.227	56.83333
92.429	56.83333
96.628	52.16667
100.823	69.16667
105.015	74.16667
109.204	63.83333
113.388	74.16667
117.57	72.5
121.748	82.5
125.922	75.16667
130.093	93.83333
134.261	94.83333
138.425	87.5
142.585	127.16667
146.742	117.5
150.896	141.83333
155.046	173.16667
159.193	259.83333
163.336	449.16667
167.476	819.83333
171.613	1489.16667
175.746	2504.16667
179.875	3721.5
184.002	4859.5
188.124	5645.16667
192.244	5927.83333
196.36	5886.83333
200.472	5716.83333
204.581	5542.16667
208.687	5369.5
212.79	5335.16667
216.889	5326.16667
220.984	5296.5
225.077	5298.16667
229.165	5242.5
233.251	5277.16667
237.333	5208.83333
241.412	5115.83333
245.487	5054.83333
249.559	5026.16667
253.628	5020.5
257.694	4965.16667
261.756	4938.16667
265.814	4826.16667
269.87	4710.5
273.922	4576.5
277.97	4535.5
282.016	4551.83333
286.058	4595.83333
290.097	4724.5
294.132	4826.5
298.164	4780.5
302.193	4534.16667
306.219	4200.16667
310.241	3891.16667
314.26	3567.83333
318.276	3298.83333
322.288	3143.83333
326.297	3020.16667
330.303	2886.16667
334.305	2828.5
338.305	2773.16667
342.301	2731.5
346.294	2742.5
350.283	2691.5
354.269	2663.5
358.252	2651.16667
362.232	2624.83333
366.209	2618.83333
370.182	2581.83333
374.152	2563.16667
378.119	2564.83333
382.083	2555.5
386.043	2573.16667
390	2526.16667
393.954	2541.16667
397.905	2536.16667
401.852	2558.16667
405.797	2517.83333
409.738	2516.83333
413.676	2503.16667
417.61	2491.83333
421.542	2478.83333
425.47	2459.5
429.396	2432.83333
433.318	2438.5
437.236	2426.16667
441.152	2460.5
445.065	2412.16667
448.974	2395.16667
452.88	2388.83333
456.783	2373.5
460.683	2361.16667
464.58	2335.16667
468.473	2356.16667
472.364	2374.16667
476.251	2351.16667
480.135	2392.5
484.016	2419.5
487.894	2443.16667
491.769	2434.16667
495.641	2441.16667
499.509	2454.16667
503.375	2439.5
507.237	2436.5
511.096	2469.16667
514.952	2577.83333
518.805	2701.16667
522.655	2762.16667
526.502	2580.83333
530.346	2464.16667
534.187	2453.16667
538.024	2459.5
541.859	2454.83333
545.69	2469.16667
549.519	2479.83333
553.344	2434.83333
557.166	2396.83333
560.985	2369.5
564.802	2341.16667
568.615	2313.5
572.425	2252.16667
576.232	2245.5
580.036	2240.83333
583.836	2254.5
587.634	2275.5
591.429	2280.5
595.221	2334.5
599.01	2342.83333
602.796	2369.16667
606.578	2366.83333
610.358	2385.83333
614.135	2348.16667
617.909	2352.83333
621.679	2323.16667
625.447	2290.16667
629.212	2333.16667
632.973	2315.5
636.732	2313.83333
640.488	2299.5
644.241	2285.5
647.991	2288.83333
651.737	2264.83333
655.481	2259.16667
659.222	2257.83333
662.96	2240.16667
666.695	2287.16667
670.427	2290.5
674.156	2302.16667
677.882	2287.83333
681.605	2264.16667
685.325	2263.16667
689.043	2266.5
692.757	2247.16667
696.468	2250.83333
700.177	2252.83333
703.882	2222.16667
707.585	2223.16667
711.284	2226.5
714.981	2234.83333
718.675	2224.83333
722.366	2238.5
726.054	2235.5
729.739	2221.83333
733.421	2232.5
737.1	2234.5
740.777	2245.16667
744.45	2269.16667
748.121	2265.83333
751.789	2330.16667
755.453	2317.5
759.115	2333.5
762.774	2338.5
766.431	2356.16667
770.084	2378.16667
773.734	2398.5
777.382	2402.5
781.027	2442.83333
784.669	2443.16667
788.308	2460.5
791.944	2505.16667
795.577	2511.16667
799.208	2543.16667
802.835	2534.5
806.46	2555.83333
810.082	2564.83333
813.701	2535.83333
817.317	2563.83333
820.931	2573.5
824.542	2572.5
828.149	2531.5
831.754	2524.16667
835.357	2526.5
838.956	2542.83333
842.553	2556.16667
846.146	2508.83333
849.737	2490.83333
853.326	2509.16667
856.911	2521.83333
860.493	2534.16667
864.073	2550.16667
867.65	2593.5
871.225	2635.5
874.796	2620.5
878.365	2615.83333
881.931	2641.16667
885.494	2677.5
889.054	2673.5
892.612	2674.5
896.166	2630.5
899.719	2638.83333
903.268	2605.5
906.814	2550.83333
910.358	2536.5
913.899	2539.83333
917.438	2507.83333
920.973	2505.83333
924.506	2544.83333
928.036	2582.16667
931.564	2598.83333
935.088	2647.83333
938.61	2665.5
942.129	2714.5
945.646	2773.16667
949.16	2808.83333
952.671	2856.16667
956.179	2799.83333
959.685	2773.83333
963.188	2737.5
966.688	2721.16667
970.185	2644.5
973.68	2625.5
977.173	2559.16667
980.662	2522.5
984.149	2518.83333
987.633	2513.16667
991.114	2580.16667
994.593	2603.16667
998.069	2690.83333
1001.542	2751.83333
1005.013	2720.83333
1008.481	2586.16667
1011.947	2520.83333
1015.409	2532.16667
1018.869	2518.5
1022.327	2499.5
1025.782	2497.83333
1029.234	2492.5
1032.683	2457.5
1036.13	2369.83333
1039.574	2286.83333
1043.016	2232.16667
1046.455	2197.5
1049.891	2190.83333
1053.325	2187.5
1056.756	2205.83333
1060.184	2189.16667
1063.61	2235.5
1067.033	2241.83333
1070.454	2237.5
1073.872	2284.5
1077.287	2264.83333
1080.7	2269.83333
1084.11	2240.16667
1087.517	2241.16667
1090.922	2216.83333
1094.325	2186.16667
1097.724	2180.83333
1101.122	2159.83333
1104.516	2155.5
1107.908	2167.5
1111.298	2213.5
1114.684	2221.83333
1118.069	2266.83333
1121.45	2308.5
1124.83	2303.16667
1128.206	2318.5
1131.58	2380.83333
1134.951	2418.16667
1138.32	2485.83333
1141.687	2594.5
1145.05	2616.16667
1148.412	2607.83333
1151.77	2602.16667
1155.126	2602.5
1158.48	2596.16667
1161.831	2605.5
1165.18	2615.16667
1168.525	2653.83333
1171.869	2636.16667
1175.21	2666.16667
1178.548	2679.83333
1181.884	2723.16667
1185.217	2759.16667
1188.548	2788.83333
1191.877	2859.5
1195.202	2939.5
1198.526	2998.5
1201.846	3036.16667
1205.165	3034.5
1208.48	3045.83333
1211.794	3024.5
1215.104	3020.5
1218.413	3019.83333
1221.719	3026.5
1225.022	3004.83333
1228.323	2952.5
1231.621	2949.5
1234.917	2881.5
1238.21	2916.5
1241.501	2882.16667
1244.79	2875.83333
1248.076	2891.5
1251.359	2917.16667
1254.64	2975.5
1257.919	2990.5
1261.195	3016.5
1264.468	3073.5
1267.74	3087.16667
1271.008	3107.5
1274.275	3081.83333
1277.538	3088.16667
1280.8	3071.5
1284.059	3074.5
1287.315	3109.5
1290.569	3138.83333
1293.821	3159.5
1297.07	3204.5
1300.317	3203.16667
1303.562	3195.83333
1306.803	3118.83333
1310.043	3126.5
1313.28	3086.5
1316.515	3084.16667
1319.747	3049.83333
1322.977	3014.83333
1326.204	2955.16667
1329.429	2916.83333
1332.652	2913.5
1335.872	2867.5
1339.09	2835.16667
1342.306	2815.83333
1345.519	2799.5
1348.729	2794.5
1351.938	2795.5
1355.144	2752.16667
1358.347	2738.16667
1361.548	2721.5
1364.747	2713.5
1367.944	2664.83333
1371.138	2697.83333
1374.329	2707.5
1377.518	2733.16667
1380.705	2744.83333
1383.89	2692.16667
1387.072	2636.16667
1390.252	2512.5
1393.429	2443.83333
1396.605	2371.83333
1399.777	2302.83333
1402.948	2297.16667
1406.116	2285.5
1409.282	2279.83333
1412.445	2285.5
1415.606	2304.83333
1418.765	2355.5
1421.921	2419.5
1425.075	2444.83333
1428.227	2531.16667
1431.376	2629.16667
1434.524	2739.5
1437.668	2802.16667
1440.811	2806.83333
1443.951	2848.16667
1447.089	2839.83333
1450.224	2827.16667
1453.357	2807.16667
1456.488	2783.5
1459.617	2723.5
1462.743	2685.16667
1465.867	2613.5
1468.989	2587.83333
1472.108	2526.16667
1475.225	2492.83333
1478.34	2457.16667
1481.453	2449.83333
1484.563	2454.16667
1487.671	2490.16667
1490.776	2520.83333
1493.88	2562.5
1496.981	2607.5
1500.08	2634.83333
1503.176	2663.83333
1506.271	2703.16667
1509.363	2722.16667
1512.452	2756.16667
1515.54	2792.5
1518.625	2825.5
1521.708	2888.5
1524.789	2949.16667
1527.867	3024.5
1530.944	3182.16667
1534.018	3337.83333
1537.089	3448.83333
1540.159	3507.83333
1543.226	3487.16667
1546.291	3438.83333
1549.354	3370.5
1552.415	3318.5
1555.473	3230.16667
1558.529	3192.83333
1561.583	3153.16667
1564.634	3145.5
1567.684	3143.16667
1570.731	3150.16667
1573.776	3172.16667
1576.819	3213.83333
1579.859	3246.5
1582.898	3253.83333
1585.934	3328.5
1588.968	3311.5
1591.999	3322.5
1595.029	3306.83333
1598.056	3350.16667
1601.081	3372.5
1604.104	3381.5
1607.125	3361.83333
1610.144	3261.16667
1613.16	3195.5
1616.174	3116.83333
1619.186	3028.83333
1622.196	2941.83333
1625.203	2860.5
1628.209	2811.5
1631.212	2764.16667
1634.213	2740.5
1637.212	2716.5
1640.209	2665.5
1643.203	2617.5
1646.196	2572.5
1649.186	2480.16667
1652.174	2417.5
1655.16	2338.5
1658.144	2285.5
1661.125	2181.5
1664.105	2105.83333
1667.082	2002.16667
1670.057	1901.83333
1673.03	1784.5
1676.001	1673.5
1678.97	1572.83333
1681.937	1480.83333
1684.901	1412.83333
1687.863	1357.83333
1690.824	1298.16667
1693.782	1278.16667
1696.738	1235.5
1699.692	1195.5
1702.643	1172.83333
1705.593	1159.5
1708.54	1150.83333
1711.486	1151.83333
1714.429	1102.5
1717.37	1115.83333
1720.309	1089.83333
1723.246	1091.5
1726.181	1063.16667
1729.113	1067.5
1732.044	1055.5
1734.972	1055.83333
1737.899	1047.83333
1740.823	1047.16667
1743.745	1018.16667
1746.665	1017.83333
1749.583	986.83333
1752.499	962.5
1755.413	990.83333
1758.325	945.5
1761.235	939.5
1764.142	931.5
1767.048	918.16667
1769.951	899.83333
1772.852	904.83333
1775.752	906.16667
1778.649	908.83333
1781.544	913.83333
1784.437	891.5
1787.328	893.5
1790.217	890.83333
1793.104	877.16667
1795.989	872.16667
1798.872	865.83333
1801.753	875.16667
1804.631	864.5
1807.508	874.83333
1810.383	886.16667
1813.255	860.16667
1816.126	862.5
1818.994	857.5
1821.861	847.16667
1824.725	838.5
1827.587	844.5
1830.448	850.5
1833.306	813.83333
1836.162	830.83333
1839.017	821.5
1841.869	818.83333
1844.719	819.83333
1847.567	805.83333
1850.414	797.83333
1853.258	803.16667
1856.1	817.16667
1858.94	822.5
1861.778	812.83333
1864.614	806.16667
1867.448	815.16667
1870.28	796.5
1873.111	822.83333
1875.939	805.16667
1878.765	808.5
1881.589	814.5
1884.411	798.83333
1887.231	811.5
1890.049	786.83333
1892.865	820.16667
1895.68	789.83333
1898.492	794.83333
1901.302	783.83333
1904.11	782.83333
1906.916	782.83333
1909.721	774.16667
1912.523	779.83333
1915.323	771.16667
1918.122	768.83333
1920.918	774.5
1923.712	758.16667
1926.505	757.5
1929.295	752.16667
1932.084	777.16667
1934.87	764.5
1937.655	774.16667
1940.438	760.83333
1943.218	772.5
1945.997	757.16667
1948.774	763.16667
1951.549	780.83333
1954.322	760.16667
1957.093	756.5
1959.862	745.5
1962.629	747.5
1965.394	757.16667
1968.157	742.5
1970.918	752.83333
1973.678	731.16667
1976.435	751.83333
1979.19	738.16667
1981.944	730.83333
1984.696	717.5
1987.445	719.83333
1990.193	729.16667
1992.939	728.83333
1995.683	733.16667
1998.425	711.5
2001.165	735.83333
2003.903	713.5
2006.639	718.83333
2009.374	732.83333
2012.106	729.5
2014.837	703.16667
2017.566	724.16667
2020.292	719.5
2023.017	710.83333
2025.74	726.16667
2028.461	709.16667
2031.18	711.16667
2033.898	705.83333
2036.613	712.16667
2039.327	711.16667
2042.038	699.16667
2044.748	696.5
2047.456	688.16667
2050.162	705.16667
2052.866	704.16667
2055.568	712.5
2058.268	688.83333
2060.967	714.16667
2063.663	697.83333
2066.358	696.5
2069.051	700.5
2071.742	690.83333
2074.431	707.83333
2077.118	707.5
2079.804	694.5
2082.487	702.83333
2085.169	697.5
2087.849	721.5
2090.527	700.83333
2093.203	701.83333
2095.877	708.83333
2098.55	709.83333
2101.22	718.16667
2103.889	733.5
2106.556	738.16667
2109.221	754.5
2111.884	771.16667
2114.546	829.5
2117.205	851.83333
2119.863	919.5
2122.519	959.5
2125.173	1004.5
2127.825	1037.5
2130.475	1041.83333
2133.124	994.16667
2135.771	943.16667
2138.416	912.16667
2141.059	871.83333
2143.7	838.5
2146.339	804.5
2148.977	757.16667
2151.613	767.83333
2154.247	739.16667
2156.879	730.16667
2159.51	711.16667
2162.138	710.5
2164.765	712.16667
2167.39	688.5
2170.013	709.5
2172.634	706.16667
2175.254	708.16667
2177.872	717.5
2180.488	677.16667
2183.102	687.83333
2185.714	683.16667
2188.325	652.16667
2190.934	680.83333
2193.541	680.16667
2196.146	671.5
2198.75	665.16667
2201.351	659.5
2203.951	656.16667
2206.549	676.83333
2209.146	665.16667
2211.74	645.16667
2214.333	662.83333
2216.924	648.83333
2219.514	654.83333
2222.101	641.16667
2224.687	668.83333
2227.271	649.5
2229.853	640.16667
2232.433	632.5
2235.012	652.5
2237.589	656.16667
2240.164	669.5
2242.738	641.5
2245.309	633.16667
2247.879	642.83333
2250.448	663.83333
2253.014	622.16667
2255.579	614.16667
2258.142	633.83333
2260.703	617.83333
2263.262	625.16667
2265.82	620.16667
2268.376	634.16667
2270.93	604.83333
2273.483	612.5
2276.033	626.83333
2278.583	608.5
2281.13	616.5
2283.675	607.16667
2286.219	607.16667
2288.761	616.83333
2291.302	609.83333
2293.841	629.16667
2296.377	609.5
2298.913	609.16667
2301.446	630.5
2303.978	610.83333
2306.508	614.83333
2309.037	615.16667
2311.563	619.16667
2314.088	625.16667
2316.612	612.16667
2319.133	613.83333
2321.653	614.5
2324.171	604.83333
2326.688	623.83333
2329.202	612.5
2331.715	612.5
2334.227	612.5
2336.736	613.5
2339.244	602.16667
2341.751	609.5
2344.255	617.16667
2346.758	614.16667
2349.259	598.5
2351.759	611.5
2354.257	610.16667
2356.753	607.16667
2359.247	616.16667
2361.74	618.5
2364.231	619.83333
2366.721	621.16667
2369.209	607.5
2371.695	630.5
2374.179	622.5
2376.662	602.83333
2379.143	623.83333
2381.622	618.16667
2384.1	618.83333
2386.576	628.83333
2389.051	631.83333
2391.524	637.5
2393.995	630.16667
2396.464	626.5
2398.932	625.16667
2401.398	613.16667
2403.863	621.83333
2406.325	618.5
2408.787	619.16667
2411.246	625.16667
2413.704	620.5
2416.16	623.5
2418.615	623.83333
2421.068	635.83333
2423.519	633.16667
2425.969	626.16667
2428.417	640.16667
2430.863	655.16667
2433.308	647.83333
2435.751	644.5
2438.193	640.16667
2440.633	628.83333
2443.071	643.83333
2445.508	632.16667
2447.943	635.83333
2450.376	618.83333
2452.808	638.16667
2455.238	619.16667
2457.667	666.83333
2460.093	645.83333
2462.519	625.83333
2464.942	652.5
2467.365	636.5
2469.785	652.16667
2472.204	652.83333
2474.621	641.16667
2477.037	655.83333
2479.451	635.83333
2481.863	640.16667
2484.274	644.83333
2486.683	643.16667
2489.091	660.5
2491.497	649.83333
2493.901	646.83333
2496.304	639.83333
2498.705	666.83333
2501.105	654.83333
2503.503	690.83333
2505.899	648.16667
2508.294	680.16667
2510.687	663.83333
2513.079	661.16667
2515.469	662.16667
2517.858	660.5
2520.245	669.5
2522.63	671.5
2525.014	658.16667
2527.396	663.5
2529.776	654.16667
2532.156	684.5
2534.533	658.5
2536.909	669.5
2539.283	661.83333
2541.656	661.16667
2544.027	691.83333
2546.397	676.83333
2548.765	671.5
2551.131	690.5
2553.496	673.83333
2555.86	677.83333
2558.221	670.16667
2560.582	676.5
2562.94	669.5
2565.298	685.16667
2567.653	688.5
2570.007	674.83333
2572.36	695.83333
2574.711	692.83333
2577.06	702.5
2579.408	693.16667
2581.754	697.83333
2584.099	705.16667
2586.442	689.5
2588.784	707.16667
2591.124	708.83333
2593.463	703.16667
2595.8	722.83333
2598.135	692.83333
2600.469	700.16667
2602.802	719.16667
2605.133	716.16667
2607.462	709.5
2609.79	696.16667
2612.116	715.16667
2614.441	729.16667
2616.764	723.16667
2619.086	716.83333
2621.406	714.16667
2623.725	730.83333
2626.042	736.83333
2628.358	720.5
2630.672	730.83333
2632.985	748.83333
2635.296	730.5
2637.606	742.5
2639.914	732.5
2642.22	729.5
2644.525	749.5
2646.829	747.83333
2649.131	760.16667
2651.432	770.5
2653.731	751.83333
2656.028	780.5
2658.324	781.16667
2660.619	774.5
2662.912	780.83333
2665.204	766.16667
2667.494	787.5
2669.782	761.5
2672.07	776.83333
2674.355	790.5
2676.639	761.83333
2678.922	780.5
2681.203	779.16667
2683.483	772.5
2685.761	781.83333
2688.038	785.16667
2690.313	810.5
2692.587	791.16667
2694.859	788.5
2697.13	793.83333
2699.399	807.5
2701.667	813.16667
2703.933	821.83333
2706.198	824.83333
2708.461	829.5
2710.723	825.16667
2712.984	822.83333
2715.243	840.83333
2717.5	826.83333
2719.757	848.83333
2722.011	839.16667
2724.264	862.5
2726.516	873.5
2728.766	856.5
2731.015	864.16667
2733.262	868.5
2735.508	872.5
2737.753	857.16667
2739.996	862.5
2742.237	852.5
2744.477	869.83333
2746.716	872.83333
2748.953	859.83333
2751.189	875.83333
2753.423	850.83333
2755.656	835.83333
2757.887	842.5
2760.117	835.16667
2762.346	841.83333
2764.573	843.16667
2766.798	854.83333
2769.022	845.5
2771.245	859.16667
2773.467	868.16667
2775.686	867.83333
2777.905	863.16667
2780.122	889.83333
2782.337	888.83333
2784.552	877.83333
2786.764	883.5
2788.976	894.5
2791.186	893.83333
2793.394	903.16667
2795.601	918.5
2797.807	935.83333
2800.011	938.16667
2802.214	936.5
2804.415	933.16667
2806.615	945.16667
2808.814	942.16667
2811.011	960.16667
2813.206	952.83333
2815.401	964.5
2817.594	981.83333
2819.785	996.5
2821.975	981.5
2824.164	970.16667
2826.351	985.83333
2828.537	1004.83333
2830.722	1018.83333
2832.905	1011.83333
2835.086	1062.83333
2837.267	1072.16667
2839.445	1081.16667
2841.623	1102.16667
2843.799	1123.16667
2845.974	1161.5
2848.147	1185.16667
2850.319	1196.83333
2852.489	1238.16667
2854.659	1240.5
2856.826	1246.5
2858.993	1299.16667
2861.158	1258.5
2863.321	1278.16667
2865.483	1274.5
2867.644	1268.83333
2869.804	1278.5
2871.962	1273.5
2874.118	1275.16667
2876.274	1265.16667
2878.428	1258.16667
2880.58	1242.5
2882.731	1244.5
2884.881	1258.83333
2887.03	1247.5
2889.177	1251.5
2891.322	1280.5
2893.467	1281.5
2895.61	1275.5
2897.751	1286.5
2899.892	1280.16667
2902.03	1305.5
2904.168	1293.16667
2906.304	1306.5
2908.439	1326.83333
2910.572	1309.83333
2912.704	1335.83333
2914.835	1321.16667
2916.965	1322.83333
2919.093	1339.83333
2921.219	1307.83333
2923.345	1347.16667
2925.469	1304.5
2927.591	1300.16667
2929.712	1255.5
2931.832	1268.5
2933.951	1247.16667
2936.068	1235.16667
2938.184	1234.83333
2940.299	1195.83333
2942.412	1180.16667
2944.524	1158.83333
2946.634	1162.5
2948.744	1127.16667
2950.851	1129.16667
2952.958	1114.83333
2955.063	1119.16667
2957.167	1105.83333
2959.269	1081.83333
2961.371	1104.5
2963.471	1063.16667
2965.569	1078.5
2967.666	1057.83333
2969.762	1044.16667
2971.857	1045.5
2973.95	1023.83333
2976.042	1021.5
2978.133	1002.5
2980.222	995.83333
2982.31	974.83333
2984.396	947.5
2986.482	944.5
2988.566	944.5
2990.648	949.83333
2992.73	954.16667
2994.81	930.16667
2996.889	947.83333
2998.966	925.83333
3001.042	936.5
3003.117	938.16667
3005.191	942.16667
3007.263	951.5
3009.334	920.5
3011.403	928.83333
3013.472	916.16667
3015.539	915.5
3017.604	908.5
3019.669	868.5
3021.732	888.16667
3023.794	878.83333
3025.854	870.83333
3027.914	879.83333
3029.971	882.5
3032.028	877.83333
3034.083	874.5
3036.137	864.83333
3038.19	824.16667
3040.242	825.16667
3042.292	792.16667
3044.341	810.16667
3046.388	816.83333
3048.435	776.16667
3050.48	797.16667
3052.524	776.16667
3054.566	773.83333
3056.607	768.83333
3058.647	756.83333
3060.686	728.16667
3062.723	723.5
3064.759	687.16667
3066.794	-1.5
3068.828	1.5
3070.86	3.5
