-0.839	593.08333
3.438	713.41667
7.711	205.75
11.981	64.08333
16.247	44.08333
20.509	51.75
24.768	41.75
29.024	52.75
33.276	45.08333
37.524	47.75
41.769	49.75
46.01	33.08333
50.247	46.75
54.481	59.41667
58.712	65.41667
62.939	52.08333
67.162	63.41667
71.382	56.41667
75.599	44.08333
79.812	59.41667
84.021	78.08333
88.227	60.41667
92.429	60.75
96.628	54.08333
100.823	68.41667
105.015	76.08333
109.204	66.75
113.388	75.75
117.57	73.41667
121.748	91.08333
125.922	77.75
130.093	97.41667
134.261	102.08333
138.425	103.41667
142.585	144.41667
146.742	135.41667
150.896	159.41667
155.046	201.08333
159.193	318.75
163.336	548.75
167.476	988.08333
171.613	1825.41667
175.746	3040.75
179.875	4468.08333
184.002	5848.41667
188.124	6776.75
192.244	7135.41667
196.36	7002.08333
200.472	6836.41667
204.581	6611.41667
208.687	6420.41667
212.79	6340.75
216.889	6355.75
220.984	6314.41667
225.077	6309.41667
229.165	6330.75
233.251	6319.41667
237.333	6297.75
241.412	6222.75
245.487	6170.08333
249.559	6076.41667
253.628	6085.08333
257.694	6032.41667
261.756	5938.41667
265.814	5809.08333
269.87	5620.41667
273.922	5442.75
277.97	5366.41667
282.016	5301.41667
286.058	5285.08333
290.097	5402.41667
294.132	5487.75
298.164	5416.75
302.193	5148.41667
306.219	4762.08333
310.241	4390.41667
314.26	4045.75
318.276	3759.41667
322.288	3578.08333
326.297	3418.41667
330.303	3274.08333
334.305	3195.08333
338.305	3136.41667
342.301	3076.41667
346.294	3058.08333
350.283	3022.41667
354.269	2998.08333
358.252	2958.08333
362.232	2960.41667
366.209	2932.08333
370.182	2884.41667
374.152	2869.75
378.119	2875.75
382.083	2865.75
386.043	2872.08333
390	2840.75
393.954	2849.75
397.905	2848.41667
401.852	2817.75
405.797	2791.41667
409.738	2778.08333
413.676	2765.75
417.61	2757.41667
421.542	2714.41667
425.47	2713.41667
429.396	2686.08333
433.318	2657.08333
437.236	2659.41667
441.152	2686.75
445.065	2618.41667
448.974	2628.75
452.88	2576.08333
456.783	2568.41667
460.683	2538.41667
464.58	2544.08333
468.473	2554.08333
472.364	2559.75
476.251	2573.75
480.135	2576.08333
484.016	2616.08333
487.894	2624.75
491.769	2636.75
495.641	2663.75
499.509	2633.08333
503.375	2643.41667
507.237	2626.41667
511.096	2624.08333
514.952	2633.75
518.805	2666.08333
522.655	2678.41667
526.502	2627.08333
530.346	2630.08333
534.187	2643.08333
538.024	2676.41667
541.859	2705.08333
545.69	2710.41667
549.519	2705.75
553.344	2662.75
557.166	2620.41667
560.985	2593.75
564.802	2526.08333
568.615	2492.08333
572.425	2451.08333
576.232	2441.75
580.036	2449.41667
583.836	2433.75
587.634	2448.08333
591.429	2471.08333
595.221	2516.41667
599.01	2553.08333
602.796	2586.41667
606.578	2613.75
610.358	2585.08333
614.135	2553.08333
617.909	2542.08333
621.679	2535.41667
625.447	2528.75
629.212	2519.75
632.973	2523.75
636.732	2526.41667
640.488	2505.41667
644.241	2483.41667
647.991	2491.08333
651.737	2489.41667
655.481	2458.41667
659.222	2441.75
662.96	2445.08333
666.695	2476.41667
670.427	2479.75
674.156	2508.75
677.882	2494.08333
681.605	2499.41667
685.325	2469.41667
689.043	2471.41667
692.757	2444.08333
696.468	2438.41667
700.177	2447.75
703.882	2419.41667
707.585	2413.75
711.284	2424.75
714.981	2428.08333
718.675	2413.08333
722.366	2432.08333
726.054	2412.08333
729.739	2419.08333
733.421	2404.41667
737.1	2404.41667
740.777	2424.41667
744.45	2446.75
748.121	2445.75
751.789	2522.08333
755.453	2496.75
759.115	2537.41667
762.774	2538.08333
766.431	2568.08333
770.084	2598.75
773.734	2615.08333
777.382	2675.41667
781.027	2727.75
784.669	2716.41667
788.308	2721.08333
791.944	2723.08333
795.577	2749.75
799.208	2764.75
802.835	2775.08333
806.46	2766.41667
810.082	2827.75
813.701	2800.08333
817.317	2827.41667
820.931	2824.08333
824.542	2811.41667
828.149	2792.75
831.754	2789.41667
835.357	2805.75
838.956	2813.08333
842.553	2803.41667
846.146	2785.08333
849.737	2779.75
853.326	2803.41667
856.911	2804.75
860.493	2845.41667
864.073	2867.75
867.65	2887.75
871.225	2915.08333
874.796	2936.08333
878.365	2959.75
881.931	2948.41667
885.494	2988.41667
889.054	2990.08333
892.612	3031.75
896.166	2990.75
899.719	2982.41667
903.268	2928.75
906.814	2915.41667
910.358	2902.75
913.899	2872.08333
917.438	2853.08333
920.973	2858.75
924.506	2888.75
928.036	2897.75
931.564	2952.41667
935.088	2971.41667
938.61	2990.08333
942.129	3035.08333
945.646	3103.75
949.16	3140.41667
952.671	3221.08333
956.179	3223.75
959.685	3162.41667
963.188	3135.08333
966.688	3048.08333
970.185	2990.08333
973.68	2934.08333
977.173	2869.75
980.662	2847.75
984.149	2858.41667
987.633	2795.41667
991.114	2860.08333
994.593	2914.08333
998.069	3008.41667
1001.542	3091.08333
1005.013	3027.75
1008.481	2878.41667
1011.947	2852.75
1015.409	2839.41667
1018.869	2841.08333
1022.327	2829.75
1025.782	2780.75
1029.234	2792.41667
1032.683	2723.08333
1036.13	2631.75
1039.574	2551.08333
1043.016	2493.41667
1046.455	2434.41667
1049.891	2422.08333
1053.325	2426.41667
1056.756	2441.41667
1060.184	2454.41667
1063.61	2456.41667
1067.033	2474.75
1070.454	2480.75
1073.872	2530.08333
1077.287	2485.08333
1080.7	2496.75
1084.11	2474.75
1087.517	2476.41667
1090.922	2460.08333
1094.325	2438.41667
1097.724	2396.08333
1101.122	2431.41667
1104.516	2416.41667
1107.908	2424.75
1111.298	2467.41667
1114.684	2487.08333
1118.069	2537.75
1121.45	2589.75
1124.83	2590.41667
1128.206	2609.41667
1131.58	2649.41667
1134.951	2751.75
1138.32	2850.41667
1141.687	2960.75
1145.05	3035.41667
1148.412	3042.08333
1151.77	3040.41667
1155.126	3054.75
1158.48	3053.75
1161.831	3046.41667
1165.18	3090.08333
1168.525	3156.75
1171.869	3148.41667
1175.21	3169.41667
1178.548	3201.41667
1181.884	3226.75
1185.217	3259.08333
1188.548	3326.75
1191.877	3367.41667
1195.202	3485.41667
1198.526	3502.41667
1201.846	3543.75
1205.165	3505.08333
1208.48	3461.41667
1211.794	3463.75
1215.104	3441.75
1218.413	3426.75
1221.719	3439.08333
1225.022	3388.75
1228.323	3337.08333
1231.621	3317.08333
1234.917	3285.75
1238.21	3283.75
1241.501	3267.08333
1244.79	3270.08333
1248.076	3271.75
1251.359	3318.08333
1254.64	3373.41667
1257.919	3417.08333
1261.195	3448.08333
1264.468	3497.41667
1267.74	3563.75
1271.008	3564.75
1274.275	3558.41667
1277.538	3536.08333
1280.8	3528.08333
1284.059	3509.75
1287.315	3545.08333
1290.569	3554.08333
1293.821	3595.75
1297.07	3607.08333
1300.317	3641.75
1303.562	3645.75
1306.803	3593.41667
1310.043	3569.08333
1313.28	3506.08333
1316.515	3493.08333
1319.747	3460.75
1322.977	3417.08333
1326.204	3391.08333
1329.429	3327.41667
1332.652	3288.08333
1335.872	3270.41667
1339.09	3239.75
1342.306	3199.41667
1345.519	3166.75
1348.729	3134.08333
1351.938	3102.75
1355.144	3057.08333
1358.347	3022.41667
1361.548	3028.41667
1364.747	3008.41667
1367.944	2983.41667
1371.138	2996.41667
1374.329	3048.41667
1377.518	3100.75
1380.705	3115.41667
1383.89	3078.08333
1387.072	2991.08333
1390.252	2856.08333
1393.429	2752.41667
1396.605	2696.75
1399.777	2591.41667
1402.948	2565.41667
1406.116	2557.75
1409.282	2537.08333
1412.445	2539.41667
1415.606	2574.75
1418.765	2609.41667
1421.921	2653.41667
1425.075	2712.08333
1428.227	2806.08333
1431.376	2933.08333
1434.524	3005.41667
1437.668	3084.75
1440.811	3147.75
1443.951	3163.75
1447.089	3184.75
1450.224	3190.08333
1453.357	3151.75
1456.488	3149.75
1459.617	3098.08333
1462.743	3060.08333
1465.867	2997.75
1468.989	2956.08333
1472.108	2911.75
1475.225	2875.75
1478.34	2859.41667
1481.453	2874.41667
1484.563	2894.75
1487.671	2915.75
1490.776	2985.08333
1493.88	3039.75
1496.981	3088.75
1500.08	3151.08333
1503.176	3206.08333
1506.271	3229.75
1509.363	3307.08333
1512.452	3322.08333
1515.54	3360.41667
1518.625	3404.75
1521.708	3508.08333
1524.789	3573.75
1527.867	3714.41667
1530.944	3896.41667
1534.018	4040.75
1537.089	4171.75
1540.159	4233.41667
1543.226	4230.41667
1546.291	4147.41667
1549.354	4083.08333
1552.415	4007.75
1555.473	3930.75
1558.529	3860.75
1561.583	3834.75
1564.634	3829.08333
1567.684	3827.75
1570.731	3828.08333
1573.776	3891.41667
1576.819	3943.75
1579.859	3970.08333
1582.898	4020.08333
1585.934	4019.75
1588.968	4071.41667
1591.999	4073.75
1595.029	4099.08333
1598.056	4078.41667
1601.081	4117.75
1604.104	4044.75
1607.125	4028.41667
1610.144	3932.08333
1613.16	3815.75
1616.174	3750.08333
1619.186	3648.08333
1622.196	3528.75
1625.203	3409.08333
1628.209	3339.41667
1631.212	3271.75
1634.213	3202.75
1637.212	3161.75
1640.209	3089.75
1643.203	2989.75
1646.196	2890.08333
1649.186	2776.08333
1652.174	2670.41667
1655.16	2569.08333
1658.144	2481.08333
1661.125	2375.08333
1664.105	2296.41667
1667.082	2183.75
1670.057	2081.08333
1673.03	1952.08333
1676.001	1834.41667
1678.97	1726.41667
1681.937	1632.08333
1684.901	1531.41667
1687.863	1478.75
1690.824	1426.75
1693.782	1395.41667
1696.738	1334.75
1699.692	1290.75
1702.643	1264.41667
1705.593	1241.41667
1708.54	1239.08333
1711.486	1239.08333
1714.429	1192.75
1717.37	1194.75
1720.309	1151.08333
1723.246	1162.41667
1726.181	1142.75
1729.113	1130.75
1732.044	1106.41667
1734.972	1091.75
1737.899	1089.75
1740.823	1103.41667
1743.745	1047.75
1746.665	1050.75
1749.583	1027.75
1752.499	1013.41667
1755.413	1009.08333
1758.325	980.75
1761.235	988.41667
1764.142	959.41667
1767.048	944.75
1769.951	938.75
1772.852	939.41667
1775.752	924.41667
1778.649	933.08333
1781.544	927.08333
1784.437	900.41667
1787.328	910.08333
1790.217	907.41667
1793.104	880.08333
1795.989	887.08333
1798.872	877.41667
1801.753	884.41667
1804.631	868.08333
1807.508	882.41667
1810.383	891.75
1813.255	861.41667
1816.126	859.75
1818.994	853.75
1821.861	843.08333
1824.725	851.08333
1827.587	843.41667
1830.448	842.75
1833.306	824.75
1836.162	812.08333
1839.017	820.41667
1841.869	827.75
1844.719	814.75
1847.567	800.75
1850.414	799.41667
1853.258	801.08333
1856.1	818.75
1858.94	809.75
1861.778	798.41667
1864.614	795.41667
1867.448	805.75
1870.28	785.75
1873.111	797.41667
1875.939	783.41667
1878.765	812.41667
1881.589	790.08333
1884.411	780.75
1887.231	776.08333
1890.049	774.08333
1892.865	775.41667
1895.68	769.41667
1898.492	777.75
1901.302	769.08333
1904.11	765.08333
1906.916	762.41667
1909.721	746.75
1912.523	753.08333
1915.323	744.41667
1918.122	740.75
1920.918	751.08333
1923.712	738.41667
1926.505	731.08333
1929.295	722.75
1932.084	743.08333
1934.87	739.41667
1937.655	736.41667
1940.438	732.08333
1943.218	726.75
1945.997	736.41667
1948.774	738.41667
1951.549	737.75
1954.322	726.08333
1957.093	715.08333
1959.862	711.08333
1962.629	708.41667
1965.394	706.41667
1968.157	690.41667
1970.918	700.08333
1973.678	699.08333
1976.435	711.41667
1979.19	703.75
1981.944	690.75
1984.696	687.08333
1987.445	674.75
1990.193	690.41667
1992.939	703.41667
1995.683	695.08333
1998.425	665.75
2001.165	705.08333
2003.903	682.41667
2006.639	681.75
2009.374	682.75
2012.106	668.41667
2014.837	657.75
2017.566	680.08333
2020.292	682.75
2023.017	666.75
2025.74	661.75
2028.461	653.08333
2031.18	660.75
2033.898	647.75
2036.613	649.08333
2039.327	656.75
2042.038	647.41667
2044.748	641.41667
2047.456	649.41667
2050.162	642.08333
2052.866	647.75
2055.568	641.41667
2058.268	634.75
2060.967	643.41667
2063.663	626.41667
2066.358	626.41667
2069.051	631.41667
2071.742	629.75
2074.431	640.08333
2077.118	630.41667
2079.804	610.41667
2082.487	633.75
2085.169	641.41667
2087.849	650.75
2090.527	620.41667
2093.203	622.08333
2095.877	651.75
2098.55	647.75
2101.22	651.08333
2103.889	661.08333
2106.556	651.41667
2109.221	677.75
2111.884	683.75
2114.546	738.08333
2117.205	785.08333
2119.863	853.75
2122.519	909.41667
2125.173	974.08333
2127.825	1028.75
2130.475	1025.08333
2133.124	982.75
2135.771	948.08333
2138.416	910.75
2141.059	829.41667
2143.7	806.75
2146.339	752.08333
2148.977	705.08333
2151.613	699.41667
2154.247	676.75
2156.879	665.41667
2159.51	643.75
2162.138	624.08333
2164.765	626.41667
2167.39	603.08333
2170.013	632.75
2172.634	623.75
2175.254	607.08333
2177.872	640.08333
2180.488	601.08333
2183.102	607.08333
2185.714	588.75
2188.325	575.41667
2190.934	578.08333
2193.541	592.08333
2196.146	582.41667
2198.75	567.75
2201.351	561.75
2203.951	557.08333
2206.549	581.41667
2209.146	557.08333
2211.74	552.75
2214.333	554.41667
2216.924	531.08333
2219.514	539.08333
2222.101	537.41667
2224.687	548.75
2227.271	527.75
2229.853	520.75
2232.433	519.08333
2235.012	532.75
2237.589	536.41667
2240.164	539.75
2242.738	522.41667
2245.309	504.08333
2247.879	533.41667
2250.448	522.41667
2253.014	501.08333
2255.579	488.41667
2258.142	497.41667
2260.703	484.08333
2263.262	486.08333
2265.82	483.41667
2268.376	488.75
2270.93	468.08333
2273.483	465.41667
2276.033	475.08333
2278.583	473.08333
2281.13	474.41667
2283.675	458.08333
2286.219	461.75
2288.761	469.08333
2291.302	471.41667
2293.841	472.08333
2296.377	455.75
2298.913	451.75
2301.446	470.75
2303.978	456.41667
2306.508	444.75
2309.037	454.08333
2311.563	456.41667
2314.088	455.41667
2316.612	437.75
2319.133	446.41667
2321.653	453.08333
2324.171	444.41667
2326.688	450.41667
2329.202	441.08333
2331.715	443.08333
2334.227	439.41667
2336.736	441.75
2339.244	439.08333
2341.751	420.75
2344.255	436.08333
2346.758	429.41667
2349.259	414.75
2351.759	431.75
2354.257	425.41667
2356.753	414.41667
2359.247	419.41667
2361.74	426.41667
2364.231	430.41667
2366.721	440.08333
2369.209	421.08333
2371.695	419.75
2374.179	413.08333
2376.662	412.75
2379.143	422.41667
2381.622	416.75
2384.1	414.41667
2386.576	410.08333
2389.051	425.75
2391.524	431.08333
2393.995	420.08333
2396.464	407.08333
2398.932	412.41667
2401.398	400.75
2403.863	407.75
2406.325	404.08333
2408.787	401.41667
2411.246	404.41667
2413.704	401.41667
2416.16	397.08333
2418.615	397.75
2421.068	409.75
2423.519	404.41667
2425.969	391.41667
2428.417	401.75
2430.863	418.41667
2433.308	396.08333
2435.751	406.41667
2438.193	390.75
2440.633	392.75
2443.071	394.08333
2445.508	392.75
2447.943	380.75
2450.376	378.41667
2452.808	384.08333
2455.238	378.75
2457.667	417.41667
2460.093	382.41667
2462.519	375.41667
2464.942	376.08333
2467.365	384.41667
2469.785	392.75
2472.204	379.41667
2474.621	375.41667
2477.037	394.41667
2479.451	361.08333
2481.863	363.41667
2484.274	368.08333
2486.683	368.75
2489.091	379.41667
2491.497	373.08333
2493.901	389.75
2496.304	371.75
2498.705	380.75
2501.105	372.75
2503.503	397.08333
2505.899	352.41667
2508.294	380.08333
2510.687	367.75
2513.079	363.75
2515.469	362.41667
2517.858	366.08333
2520.245	377.75
2522.63	358.75
2525.014	349.75
2527.396	349.08333
2529.776	358.41667
2532.156	363.75
2534.533	349.08333
2536.909	344.41667
2539.283	335.75
2541.656	351.08333
2544.027	374.08333
2546.397	351.75
2548.765	351.08333
2551.131	351.08333
2553.496	355.41667
2555.86	359.41667
2558.221	344.08333
2560.582	351.08333
2562.94	340.75
2565.298	346.41667
2567.653	365.75
2570.007	337.75
2572.36	351.08333
2574.711	345.08333
2577.06	364.75
2579.408	351.08333
2581.754	344.41667
2584.099	356.41667
2586.442	346.75
2588.784	348.08333
2591.124	344.75
2593.463	339.08333
2595.8	352.75
2598.135	336.08333
2600.469	340.41667
2602.802	351.75
2605.133	341.08333
2607.462	333.08333
2609.79	333.75
2612.116	340.75
2614.441	348.08333
2616.764	343.08333
2619.086	342.41667
2621.406	333.75
2623.725	345.75
2626.042	337.75
2628.358	325.41667
2630.672	333.41667
2632.985	351.75
2635.296	343.08333
2637.606	336.75
2639.914	329.75
2642.22	335.41667
2644.525	333.75
2646.829	342.08333
2649.131	348.08333
2651.432	347.41667
2653.731	343.41667
2656.028	352.08333
2658.324	360.08333
2660.619	335.75
2662.912	343.75
2665.204	329.75
2667.494	346.75
2669.782	340.75
2672.07	352.08333
2674.355	343.75
2676.639	337.75
2678.922	331.75
2681.203	343.41667
2683.483	332.08333
2685.761	333.41667
2688.038	350.08333
2690.313	359.41667
2692.587	348.41667
2694.859	335.75
2697.13	347.41667
2699.399	353.75
2701.667	365.08333
2703.933	356.75
2706.198	360.41667
2708.461	371.08333
2710.723	363.41667
2712.984	367.75
2715.243	363.75
2717.5	356.75
2719.757	366.41667
2722.011	365.08333
2724.264	376.41667
2726.516	381.75
2728.766	362.08333
2731.015	363.08333
2733.262	368.41667
2735.508	367.08333
2737.753	379.08333
2739.996	361.41667
2742.237	353.08333
2744.477	370.41667
2746.716	369.75
2748.953	357.75
2751.189	363.41667
2753.423	353.75
2755.656	342.41667
2757.887	339.41667
2760.117	338.75
2762.346	338.08333
2764.573	338.75
2766.798	340.75
2769.022	337.75
2771.245	345.08333
2773.467	354.75
2775.686	356.41667
2777.905	351.75
2780.122	358.08333
2782.337	364.75
2784.552	354.41667
2786.764	356.08333
2788.976	366.41667
2791.186	366.08333
2793.394	370.75
2795.601	375.08333
2797.807	381.75
2800.011	401.08333
2802.214	393.08333
2804.415	394.75
2806.615	396.75
2808.814	401.75
2811.011	407.75
2813.206	410.41667
2815.401	428.41667
2817.594	431.41667
2819.785	438.08333
2821.975	423.08333
2824.164	429.75
2826.351	448.08333
2828.537	471.41667
2830.722	470.41667
2832.905	469.41667
2835.086	497.75
2837.267	533.08333
2839.445	530.75
2841.623	555.41667
2843.799	589.08333
2845.974	615.75
2848.147	640.75
2850.319	665.08333
2852.489	690.41667
2854.659	700.75
2856.826	719.08333
2858.993	744.08333
2861.158	715.08333
2863.321	730.08333
2865.483	735.75
2867.644	746.75
2869.804	731.41667
2871.962	733.75
2874.118	736.41667
2876.274	739.75
2878.428	728.75
2880.58	734.08333
2882.731	708.75
2884.881	723.08333
2887.03	725.41667
2889.177	744.08333
2891.322	738.41667
2893.467	741.75
2895.61	746.75
2897.751	763.41667
2899.892	741.75
2902.03	759.41667
2904.168	767.08333
2906.304	767.75
2908.439	790.75
2910.572	773.08333
2912.704	794.41667
2914.835	778.75
2916.965	774.75
2919.093	785.08333
2921.219	778.75
2923.345	791.41667
2925.469	770.08333
2927.591	757.75
2929.712	716.08333
2931.832	734.08333
2933.951	722.08333
2936.068	700.75
2938.184	682.41667
2940.299	662.75
2942.412	650.75
2944.524	609.41667
2946.634	612.08333
2948.744	553.75
2950.851	591.75
2952.958	543.08333
2955.063	541.41667
2957.167	522.75
2959.269	495.08333
2961.371	521.41667
2963.471	483.75
2965.569	485.08333
2967.666	462.75
2969.762	452.08333
2971.857	443.41667
2973.95	428.41667
2976.042	422.41667
2978.133	409.08333
2980.222	399.41667
2982.31	384.75
2984.396	367.08333
2986.482	371.75
2988.566	359.08333
2990.648	357.08333
2992.73	355.41667
2994.81	345.08333
2996.889	345.08333
2998.966	344.08333
3001.042	344.75
3003.117	342.08333
3005.191	339.75
3007.263	337.75
3009.334	323.41667
3011.403	331.41667
3013.472	313.75
3015.539	325.75
3017.604	329.41667
3019.669	295.08333
3021.732	299.75
3023.794	303.41667
3025.854	296.75
3027.914	295.08333
3029.971	296.75
3032.028	290.75
3034.083	295.41667
3036.137	283.41667
3038.19	278.41667
3040.242	265.08333
3042.292	260.41667
3044.341	268.41667
3046.388	281.08333
3048.435	255.08333
3050.48	266.75
3052.524	262.75
3054.566	251.75
3056.607	262.41667
3058.647	251.75
3060.686	243.08333
3062.723	230.08333
3064.759	226.08333
3066.794	-0.58333
3068.828	2.08333
3070.86	3.08333
