-0.839	666.375
3.438	763.04167
7.711	209.70833
11.981	68.04167
16.247	48.70833
20.509	53.70833
24.768	43.04167
29.024	53.70833
33.276	48.375
37.524	50.04167
41.769	46.04167
46.01	35.04167
50.247	48.375
54.481	60.04167
58.712	62.70833
62.939	51.70833
67.162	65.70833
71.382	58.04167
75.599	44.04167
79.812	62.375
84.021	77.70833
88.227	63.70833
92.429	58.70833
96.628	54.70833
100.823	74.04167
105.015	79.70833
109.204	70.04167
113.388	79.04167
117.57	76.375
121.748	88.70833
125.922	84.04167
130.093	95.04167
134.261	98.70833
138.425	100.70833
142.585	142.70833
146.742	133.70833
150.896	160.70833
155.046	204.375
159.193	320.375
163.336	535.70833
167.476	997.70833
171.613	1823.375
175.746	3055.04167
179.875	4498.04167
184.002	5908.04167
188.124	6886.70833
192.244	7210.70833
196.36	7134.04167
200.472	6913.04167
204.581	6710.375
208.687	6530.70833
212.79	6427.70833
216.889	6409.375
220.984	6424.70833
225.077	6387.70833
229.165	6359.375
233.251	6341.70833
237.333	6339.70833
241.412	6237.375
245.487	6183.04167
249.559	6118.375
253.628	6064.70833
257.694	6031.375
261.756	5945.375
265.814	5798.70833
269.87	5617.04167
273.922	5470.70833
277.97	5338.70833
282.016	5293.70833
286.058	5285.375
290.097	5384.04167
294.132	5442.375
298.164	5412.375
302.193	5163.375
306.219	4768.04167
310.241	4426.375
314.26	4076.04167
318.276	3789.375
322.288	3578.375
326.297	3437.375
330.303	3309.04167
334.305	3204.70833
338.305	3163.70833
342.301	3117.04167
346.294	3081.04167
350.283	3058.04167
354.269	3033.375
358.252	2998.375
362.232	2980.70833
366.209	2959.375
370.182	2929.04167
374.152	2928.70833
378.119	2925.04167
382.083	2903.70833
386.043	2931.04167
390	2872.70833
393.954	2891.04167
397.905	2883.375
401.852	2862.04167
405.797	2843.70833
409.738	2825.04167
413.676	2804.04167
417.61	2800.375
421.542	2769.04167
425.47	2745.04167
429.396	2742.04167
433.318	2718.70833
437.236	2699.70833
441.152	2754.375
445.065	2682.70833
448.974	2680.04167
452.88	2624.70833
456.783	2614.04167
460.683	2607.70833
464.58	2608.375
468.473	2627.04167
472.364	2616.04167
476.251	2596.04167
480.135	2627.70833
484.016	2684.04167
487.894	2674.70833
491.769	2708.70833
495.641	2699.375
499.509	2708.70833
503.375	2703.04167
507.237	2692.70833
511.096	2693.04167
514.952	2674.375
518.805	2698.375
522.655	2705.70833
526.502	2701.375
530.346	2670.04167
534.187	2698.04167
538.024	2687.70833
541.859	2716.04167
545.69	2734.04167
549.519	2716.04167
553.344	2711.70833
557.166	2670.70833
560.985	2620.375
564.802	2574.70833
568.615	2531.375
572.425	2504.70833
576.232	2488.70833
580.036	2484.375
583.836	2510.70833
587.634	2509.70833
591.429	2524.70833
595.221	2603.04167
599.01	2592.70833
602.796	2653.04167
606.578	2643.70833
610.358	2641.04167
614.135	2613.04167
617.909	2604.70833
621.679	2582.70833
625.447	2562.375
629.212	2564.375
632.973	2582.375
636.732	2571.04167
640.488	2578.375
644.241	2555.04167
647.991	2537.04167
651.737	2538.375
655.481	2493.70833
659.222	2518.04167
662.96	2515.70833
666.695	2548.375
670.427	2541.04167
674.156	2563.04167
677.882	2562.04167
681.605	2544.375
685.325	2518.375
689.043	2512.70833
692.757	2487.70833
696.468	2503.04167
700.177	2484.70833
703.882	2491.04167
707.585	2455.375
711.284	2457.70833
714.981	2468.70833
718.675	2464.70833
722.366	2456.70833
726.054	2464.70833
729.739	2448.375
733.421	2466.70833
737.1	2460.04167
740.777	2487.70833
744.45	2507.04167
748.121	2519.375
751.789	2566.04167
755.453	2569.375
759.115	2563.04167
762.774	2587.375
766.431	2619.70833
770.084	2624.04167
773.734	2671.70833
777.382	2728.70833
781.027	2726.375
784.669	2778.375
788.308	2758.375
791.944	2780.70833
795.577	2800.04167
799.208	2788.375
802.835	2814.375
806.46	2816.70833
810.082	2853.375
813.701	2837.04167
817.317	2863.04167
820.931	2866.375
824.542	2853.70833
828.149	2826.04167
831.754	2813.375
835.357	2838.375
838.956	2841.04167
842.553	2836.375
846.146	2817.04167
849.737	2824.375
853.326	2819.375
856.911	2820.375
860.493	2856.04167
864.073	2885.04167
867.65	2912.04167
871.225	2954.70833
874.796	2949.70833
878.365	2950.70833
881.931	2983.375
885.494	3005.04167
889.054	3013.375
892.612	3013.70833
896.166	3008.04167
899.719	2996.04167
903.268	2953.04167
906.814	2922.70833
910.358	2876.04167
913.899	2884.375
917.438	2876.04167
920.973	2844.70833
924.506	2877.375
928.036	2932.04167
931.564	2970.70833
935.088	3014.04167
938.61	3012.04167
942.129	3060.70833
945.646	3133.04167
949.16	3187.04167
952.671	3242.70833
956.179	3243.04167
959.685	3183.04167
963.188	3154.375
966.688	3112.04167
970.185	3008.375
973.68	2964.375
977.173	2905.04167
980.662	2855.375
984.149	2842.04167
987.633	2848.04167
991.114	2901.04167
994.593	2940.375
998.069	3023.375
1001.542	3082.70833
1005.013	3073.70833
1008.481	2925.375
1011.947	2878.04167
1015.409	2830.70833
1018.869	2853.04167
1022.327	2851.70833
1025.782	2805.70833
1029.234	2801.375
1032.683	2779.04167
1036.13	2670.70833
1039.574	2574.70833
1043.016	2517.70833
1046.455	2446.375
1049.891	2439.70833
1053.325	2451.70833
1056.756	2460.375
1060.184	2471.04167
1063.61	2479.375
1067.033	2517.04167
1070.454	2490.04167
1073.872	2522.70833
1077.287	2542.70833
1080.7	2529.04167
1084.11	2501.70833
1087.517	2495.375
1090.922	2461.70833
1094.325	2439.375
1097.724	2423.375
1101.122	2451.375
1104.516	2433.70833
1107.908	2436.375
1111.298	2471.375
1114.684	2517.70833
1118.069	2552.70833
1121.45	2583.04167
1124.83	2598.375
1128.206	2641.70833
1131.58	2665.04167
1134.951	2733.70833
1138.32	2809.70833
1141.687	2953.375
1145.05	3032.375
1148.412	3044.375
1151.77	3020.04167
1155.126	3043.375
1158.48	3023.70833
1161.831	3064.375
1165.18	3079.70833
1168.525	3142.375
1171.869	3149.70833
1175.21	3137.04167
1178.548	3182.70833
1181.884	3229.375
1185.217	3225.375
1188.548	3312.70833
1191.877	3337.70833
1195.202	3449.375
1198.526	3492.70833
1201.846	3521.375
1205.165	3475.70833
1208.48	3484.375
1211.794	3445.04167
1215.104	3485.70833
1218.413	3441.375
1221.719	3423.04167
1225.022	3401.70833
1228.323	3344.70833
1231.621	3315.04167
1234.917	3306.04167
1238.21	3311.04167
1241.501	3293.04167
1244.79	3268.04167
1248.076	3282.375
1251.359	3331.04167
1254.64	3399.375
1257.919	3407.375
1261.195	3442.375
1264.468	3524.70833
1267.74	3561.70833
1271.008	3569.04167
1274.275	3571.04167
1277.538	3531.70833
1280.8	3518.70833
1284.059	3521.375
1287.315	3545.375
1290.569	3581.70833
1293.821	3592.04167
1297.07	3612.375
1300.317	3617.375
1303.562	3621.375
1306.803	3612.375
1310.043	3570.70833
1313.28	3515.375
1316.515	3509.375
1319.747	3479.70833
1322.977	3446.04167
1326.204	3384.70833
1329.429	3326.375
1332.652	3339.375
1335.872	3303.375
1339.09	3242.04167
1342.306	3208.70833
1345.519	3175.70833
1348.729	3123.70833
1351.938	3125.70833
1355.144	3072.375
1358.347	3025.70833
1361.548	3057.04167
1364.747	3024.375
1367.944	2996.375
1371.138	3031.375
1374.329	3065.375
1377.518	3113.70833
1380.705	3115.04167
1383.89	3106.04167
1387.072	2991.375
1390.252	2900.375
1393.429	2767.375
1396.605	2699.04167
1399.777	2615.70833
1402.948	2587.04167
1406.116	2574.04167
1409.282	2564.70833
1412.445	2558.375
1415.606	2570.70833
1418.765	2618.375
1421.921	2681.375
1425.075	2719.04167
1428.227	2838.70833
1431.376	2934.375
1434.524	3031.04167
1437.668	3122.70833
1440.811	3154.70833
1443.951	3176.375
1447.089	3202.70833
1450.224	3190.70833
1453.357	3175.375
1456.488	3149.375
1459.617	3093.70833
1462.743	3064.375
1465.867	3001.375
1468.989	2958.375
1472.108	2914.04167
1475.225	2869.04167
1478.34	2855.04167
1481.453	2819.70833
1484.563	2856.04167
1487.671	2911.70833
1490.776	2964.70833
1493.88	3010.70833
1496.981	3059.70833
1500.08	3133.70833
1503.176	3178.70833
1506.271	3208.04167
1509.363	3258.70833
1512.452	3281.04167
1515.54	3345.04167
1518.625	3357.70833
1521.708	3479.04167
1524.789	3526.04167
1527.867	3690.70833
1530.944	3847.70833
1534.018	4041.04167
1537.089	4177.70833
1540.159	4204.70833
1543.226	4220.375
1546.291	4096.70833
1549.354	4046.04167
1552.415	3953.04167
1555.473	3862.70833
1558.529	3832.375
1561.583	3784.70833
1564.634	3770.375
1567.684	3784.04167
1570.731	3800.375
1573.776	3857.375
1576.819	3904.375
1579.859	3942.04167
1582.898	3981.04167
1585.934	4008.04167
1588.968	4047.70833
1591.999	4031.70833
1595.029	4017.04167
1598.056	4053.04167
1601.081	4051.70833
1604.104	4002.70833
1607.125	3978.375
1610.144	3911.375
1613.16	3780.04167
1616.174	3706.70833
1619.186	3639.70833
1622.196	3510.375
1625.203	3410.70833
1628.209	3345.375
1631.212	3252.70833
1634.213	3226.70833
1637.212	3184.04167
1640.209	3119.04167
1643.203	3017.375
1646.196	2926.04167
1649.186	2826.375
1652.174	2718.375
1655.16	2605.70833
1658.144	2511.04167
1661.125	2428.04167
1664.105	2342.04167
1667.082	2195.04167
1670.057	2101.04167
1673.03	1981.70833
1676.001	1848.04167
1678.97	1740.375
1681.937	1644.375
1684.901	1551.375
1687.863	1496.04167
1690.824	1428.04167
1693.782	1404.04167
1696.738	1341.04167
1699.692	1329.375
1702.643	1266.375
1705.593	1259.70833
1708.54	1243.04167
1711.486	1244.70833
1714.429	1194.04167
1717.37	1197.375
1720.309	1168.375
1723.246	1176.375
1726.181	1152.375
1729.113	1140.375
1732.044	1125.04167
1734.972	1122.04167
1737.899	1115.70833
1740.823	1112.70833
1743.745	1080.375
1746.665	1067.70833
1749.583	1047.04167
1752.499	1031.70833
1755.413	1034.375
1758.325	998.375
1761.235	999.04167
1764.142	963.70833
1767.048	959.70833
1769.951	960.04167
1772.852	948.04167
1775.752	943.04167
1778.649	943.04167
1781.544	951.375
1784.437	918.04167
1787.328	925.04167
1790.217	925.70833
1793.104	888.375
1795.989	901.04167
1798.872	882.375
1801.753	904.04167
1804.631	894.375
1807.508	905.04167
1810.383	901.04167
1813.255	887.04167
1816.126	863.375
1818.994	892.70833
1821.861	861.70833
1824.725	861.375
1827.587	861.04167
1830.448	856.70833
1833.306	840.375
1836.162	844.375
1839.017	835.375
1841.869	830.375
1844.719	825.04167
1847.567	819.04167
1850.414	810.375
1853.258	809.70833
1856.1	835.375
1858.94	825.375
1861.778	818.375
1864.614	813.375
1867.448	803.04167
1870.28	804.70833
1873.111	828.375
1875.939	804.375
1878.765	815.375
1881.589	789.04167
1884.411	787.04167
1887.231	789.70833
1890.049	787.375
1892.865	800.04167
1895.68	794.04167
1898.492	800.04167
1901.302	794.70833
1904.11	768.375
1906.916	764.04167
1909.721	756.375
1912.523	769.70833
1915.323	748.04167
1918.122	754.70833
1920.918	759.70833
1923.712	751.70833
1926.505	751.04167
1929.295	741.70833
1932.084	757.375
1934.87	757.375
1937.655	748.70833
1940.438	739.04167
1943.218	740.375
1945.997	750.04167
1948.774	748.375
1951.549	755.70833
1954.322	743.70833
1957.093	742.04167
1959.862	719.04167
1962.629	725.04167
1965.394	723.375
1968.157	701.70833
1970.918	719.70833
1973.678	701.375
1976.435	727.70833
1979.19	705.375
1981.944	703.04167
1984.696	700.70833
1987.445	690.04167
1990.193	703.375
1992.939	712.04167
1995.683	695.04167
1998.425	673.375
2001.165	708.04167
2003.903	686.70833
2006.639	696.375
2009.374	701.375
2012.106	695.04167
2014.837	669.04167
2017.566	687.375
2020.292	680.70833
2023.017	684.70833
2025.74	673.70833
2028.461	671.70833
2031.18	679.70833
2033.898	666.375
2036.613	663.70833
2039.327	670.70833
2042.038	647.70833
2044.748	655.04167
2047.456	662.04167
2050.162	650.04167
2052.866	651.04167
2055.568	663.70833
2058.268	646.04167
2060.967	658.375
2063.663	638.70833
2066.358	646.70833
2069.051	647.04167
2071.742	645.70833
2074.431	639.70833
2077.118	646.04167
2079.804	623.375
2082.487	633.375
2085.169	658.375
2087.849	660.04167
2090.527	633.04167
2093.203	650.04167
2095.877	654.70833
2098.55	655.70833
2101.22	658.375
2103.889	667.04167
2106.556	662.375
2109.221	690.375
2111.884	700.70833
2114.546	750.70833
2117.205	790.04167
2119.863	873.375
2122.519	910.375
2125.173	964.375
2127.825	1033.04167
2130.475	1043.70833
2133.124	1006.375
2135.771	967.04167
2138.416	903.375
2141.059	842.04167
2143.7	816.375
2146.339	758.375
2148.977	709.04167
2151.613	701.04167
2154.247	677.375
2156.879	671.375
2159.51	647.70833
2162.138	636.375
2164.765	627.375
2167.39	608.70833
2170.013	629.70833
2172.634	630.04167
2175.254	606.375
2177.872	643.70833
2180.488	587.375
2183.102	607.04167
2185.714	605.70833
2188.325	573.70833
2190.934	591.04167
2193.541	599.375
2196.146	577.375
2198.75	572.375
2201.351	564.375
2203.951	562.04167
2206.549	578.04167
2209.146	557.04167
2211.74	560.04167
2214.333	554.04167
2216.924	541.04167
2219.514	557.04167
2222.101	535.04167
2224.687	553.04167
2227.271	537.375
2229.853	536.04167
2232.433	518.375
2235.012	540.70833
2237.589	533.375
2240.164	545.04167
2242.738	542.375
2245.309	519.70833
2247.879	519.70833
2250.448	526.375
2253.014	520.70833
2255.579	493.04167
2258.142	494.375
2260.703	492.375
2263.262	497.70833
2265.82	491.70833
2268.376	492.04167
2270.93	487.04167
2273.483	485.70833
2276.033	485.70833
2278.583	475.70833
2281.13	481.375
2283.675	474.70833
2286.219	468.375
2288.761	476.04167
2291.302	474.375
2293.841	481.70833
2296.377	457.04167
2298.913	473.04167
2301.446	474.375
2303.978	461.04167
2306.508	456.04167
2309.037	459.70833
2311.563	460.70833
2314.088	461.375
2316.612	433.375
2319.133	456.375
2321.653	460.70833
2324.171	441.375
2326.688	453.04167
2329.202	445.04167
2331.715	444.70833
2334.227	442.70833
2336.736	442.70833
2339.244	431.04167
2341.751	427.04167
2344.255	445.70833
2346.758	435.70833
2349.259	419.70833
2351.759	431.04167
2354.257	427.375
2356.753	420.375
2359.247	430.375
2361.74	433.375
2364.231	415.70833
2366.721	438.70833
2369.209	415.375
2371.695	421.375
2374.179	425.04167
2376.662	414.375
2379.143	426.375
2381.622	416.70833
2384.1	416.70833
2386.576	420.70833
2389.051	432.70833
2391.524	427.70833
2393.995	424.375
2396.464	413.04167
2398.932	411.70833
2401.398	408.04167
2403.863	406.70833
2406.325	410.375
2408.787	403.375
2411.246	407.70833
2413.704	403.375
2416.16	398.04167
2418.615	393.375
2421.068	409.375
2423.519	411.70833
2425.969	396.04167
2428.417	402.375
2430.863	422.04167
2433.308	410.70833
2435.751	407.375
2438.193	400.04167
2440.633	407.04167
2443.071	400.04167
2445.508	391.375
2447.943	394.70833
2450.376	384.375
2452.808	385.375
2455.238	381.70833
2457.667	419.375
2460.093	386.70833
2462.519	375.04167
2464.942	379.04167
2467.365	384.375
2469.785	388.04167
2472.204	387.70833
2474.621	387.04167
2477.037	396.375
2479.451	362.375
2481.863	364.70833
2484.274	380.04167
2486.683	375.70833
2489.091	392.04167
2491.497	371.70833
2493.901	383.70833
2496.304	378.04167
2498.705	381.70833
2501.105	367.70833
2503.503	399.375
2505.899	356.04167
2508.294	386.04167
2510.687	379.70833
2513.079	373.375
2515.469	357.04167
2517.858	364.70833
2520.245	379.375
2522.63	366.04167
2525.014	366.70833
2527.396	353.70833
2529.776	357.04167
2532.156	367.70833
2534.533	362.70833
2536.909	352.375
2539.283	335.70833
2541.656	350.375
2544.027	368.70833
2546.397	359.04167
2548.765	345.70833
2551.131	355.04167
2553.496	356.375
2555.86	361.04167
2558.221	348.375
2560.582	346.04167
2562.94	339.70833
2565.298	350.04167
2567.653	366.04167
2570.007	334.70833
2572.36	361.04167
2574.711	342.375
2577.06	366.375
2579.408	351.375
2581.754	345.375
2584.099	354.04167
2586.442	347.375
2588.784	356.70833
2591.124	351.70833
2593.463	349.375
2595.8	345.375
2598.135	341.04167
2600.469	334.375
2602.802	347.04167
2605.133	356.70833
2607.462	328.04167
2609.79	331.375
2612.116	344.70833
2614.441	342.70833
2616.764	334.70833
2619.086	337.04167
2621.406	320.375
2623.725	350.04167
2626.042	347.04167
2628.358	333.375
2630.672	330.70833
2632.985	349.70833
2635.296	338.375
2637.606	344.375
2639.914	328.04167
2642.22	338.70833
2644.525	336.04167
2646.829	343.375
2649.131	348.375
2651.432	350.70833
2653.731	348.70833
2656.028	342.375
2658.324	360.375
2660.619	341.375
2662.912	344.04167
2665.204	333.04167
2667.494	347.375
2669.782	341.70833
2672.07	343.04167
2674.355	348.70833
2676.639	342.375
2678.922	334.70833
2681.203	337.375
2683.483	331.04167
2685.761	341.375
2688.038	350.70833
2690.313	357.70833
2692.587	350.70833
2694.859	333.04167
2697.13	351.04167
2699.399	353.04167
2701.667	362.04167
2703.933	357.04167
2706.198	359.375
2708.461	358.70833
2710.723	370.04167
2712.984	361.04167
2715.243	367.70833
2717.5	360.70833
2719.757	377.70833
2722.011	366.70833
2724.264	382.375
2726.516	389.70833
2728.766	366.04167
2731.015	378.70833
2733.262	383.04167
2735.508	373.375
2737.753	367.04167
2739.996	358.375
2742.237	352.375
2744.477	358.04167
2746.716	367.04167
2748.953	360.375
2751.189	367.375
2753.423	351.04167
2755.656	343.375
2757.887	341.04167
2760.117	345.04167
2762.346	335.70833
2764.573	329.04167
2766.798	334.375
2769.022	341.375
2771.245	352.70833
2773.467	342.04167
2775.686	358.04167
2777.905	356.70833
2780.122	351.04167
2782.337	366.04167
2784.552	355.70833
2786.764	356.70833
2788.976	357.70833
2791.186	365.70833
2793.394	381.04167
2795.601	374.70833
2797.807	382.375
2800.011	388.70833
2802.214	383.375
2804.415	397.04167
2806.615	394.375
2808.814	389.04167
2811.011	404.70833
2813.206	404.375
2815.401	423.04167
2817.594	426.375
2819.785	435.04167
2821.975	427.70833
2824.164	435.04167
2826.351	450.04167
2828.537	463.04167
2830.722	465.375
2832.905	470.04167
2835.086	497.04167
2837.267	520.375
2839.445	536.375
2841.623	550.375
2843.799	579.04167
2845.974	605.70833
2848.147	637.70833
2850.319	661.70833
2852.489	688.70833
2854.659	709.04167
2856.826	710.375
2858.993	740.375
2861.158	709.70833
2863.321	720.04167
2865.483	734.375
2867.644	724.375
2869.804	714.375
2871.962	726.70833
2874.118	734.375
2876.274	733.70833
2878.428	726.04167
2880.58	735.375
2882.731	717.70833
2884.881	720.375
2887.03	737.375
2889.177	732.70833
2891.322	744.04167
2893.467	734.70833
2895.61	739.375
2897.751	766.375
2899.892	734.375
2902.03	747.04167
2904.168	764.70833
2906.304	766.70833
2908.439	781.04167
2910.572	766.70833
2912.704	781.70833
2914.835	775.375
2916.965	778.04167
2919.093	781.70833
2921.219	768.04167
2923.345	795.70833
2925.469	755.375
2927.591	757.375
2929.712	741.70833
2931.832	733.375
2933.951	718.375
2936.068	697.70833
2938.184	689.70833
2940.299	668.04167
2942.412	652.04167
2944.524	616.375
2946.634	608.70833
2948.744	559.04167
2950.851	584.375
2952.958	548.70833
2955.063	541.04167
2957.167	526.04167
2959.269	501.04167
2961.371	518.70833
2963.471	476.70833
2965.569	483.70833
2967.666	455.04167
2969.762	458.70833
2971.857	447.70833
2973.95	423.04167
2976.042	426.04167
2978.133	406.04167
2980.222	401.375
2982.31	384.70833
2984.396	369.375
2986.482	376.375
2988.566	363.375
2990.648	362.04167
2992.73	351.70833
2994.81	339.70833
2996.889	345.70833
2998.966	345.04167
3001.042	342.375
3003.117	329.70833
3005.191	344.375
3007.263	334.375
3009.334	324.04167
3011.403	326.375
3013.472	313.70833
3015.539	315.04167
3017.604	327.70833
3019.669	295.04167
3021.732	302.04167
3023.794	299.70833
3025.854	293.375
3027.914	285.375
3029.971	299.375
3032.028	288.375
3034.083	292.375
3036.137	288.04167
3038.19	276.70833
3040.242	264.04167
3042.292	260.375
3044.341	262.04167
3046.388	278.70833
3048.435	257.375
3050.48	273.04167
3052.524	265.70833
3054.566	251.04167
3056.607	266.04167
3058.647	251.375
3060.686	237.70833
3062.723	232.375
3064.759	219.70833
3066.794	0.70833
3068.828	3.70833
3070.86	4.70833
