-0.839	414.95833
3.438	501.625
7.711	149.29167
11.981	58.625
16.247	44.29167
20.509	45.29167
24.768	44.625
29.024	55.29167
33.276	44.95833
37.524	51.29167
41.769	45.625
46.01	33.95833
50.247	45.95833
54.481	61.29167
58.712	58.95833
62.939	49.625
67.162	59.29167
71.382	56.29167
75.599	47.95833
79.812	62.95833
84.021	82.29167
88.227	59.95833
92.429	59.29167
96.628	51.95833
100.823	66.95833
105.015	74.95833
109.204	66.95833
113.388	72.29167
117.57	70.29167
121.748	86.29167
125.922	75.29167
130.093	87.95833
134.261	92.29167
138.425	91.95833
142.585	128.625
146.742	117.95833
150.896	146.625
155.046	182.95833
159.193	269.29167
163.336	456.29167
167.476	826.95833
171.613	1503.95833
175.746	2518.29167
179.875	3760.95833
184.002	4921.625
188.124	5745.29167
192.244	6003.29167
196.36	5966.95833
200.472	5776.625
204.581	5636.625
208.687	5495.95833
212.79	5397.29167
216.889	5384.29167
220.984	5362.625
225.077	5378.95833
229.165	5370.95833
233.251	5331.625
237.333	5297.625
241.412	5217.95833
245.487	5118.29167
249.559	5088.95833
253.628	5077.625
257.694	5052.95833
261.756	5033.29167
265.814	4931.29167
269.87	4774.625
273.922	4635.625
277.97	4620.625
282.016	4603.625
286.058	4685.625
290.097	4804.95833
294.132	4899.95833
298.164	4866.95833
302.193	4600.95833
306.219	4259.625
310.241	3928.625
314.26	3633.625
318.276	3388.95833
322.288	3222.29167
326.297	3081.95833
330.303	2969.625
334.305	2910.29167
338.305	2852.95833
342.301	2835.625
346.294	2789.625
350.283	2771.29167
354.269	2757.29167
358.252	2722.625
362.232	2732.95833
366.209	2689.29167
370.182	2668.29167
374.152	2657.29167
378.119	2668.625
382.083	2629.29167
386.043	2652.95833
390	2625.95833
393.954	2634.625
397.905	2616.95833
401.852	2635.625
405.797	2608.625
409.738	2583.29167
413.676	2608.95833
417.61	2580.95833
421.542	2613.95833
425.47	2551.29167
429.396	2535.95833
433.318	2528.29167
437.236	2506.95833
441.152	2537.29167
445.065	2486.95833
448.974	2514.625
452.88	2448.95833
456.783	2454.625
460.683	2434.95833
464.58	2440.29167
468.473	2445.95833
472.364	2468.29167
476.251	2482.625
480.135	2497.625
484.016	2544.625
487.894	2536.625
491.769	2534.625
495.641	2533.625
499.509	2564.625
503.375	2559.625
507.237	2536.95833
511.096	2557.625
514.952	2665.625
518.805	2797.29167
522.655	2864.625
526.502	2698.29167
530.346	2565.29167
534.187	2549.29167
538.024	2549.95833
541.859	2544.29167
545.69	2589.29167
549.519	2545.625
553.344	2538.95833
557.166	2488.29167
560.985	2456.29167
564.802	2433.95833
568.615	2381.625
572.425	2356.95833
576.232	2353.29167
580.036	2323.29167
583.836	2350.625
587.634	2365.95833
591.429	2354.29167
595.221	2412.95833
599.01	2453.625
602.796	2464.29167
606.578	2492.95833
610.358	2460.625
614.135	2433.95833
617.909	2437.29167
621.679	2410.625
625.447	2393.29167
629.212	2408.95833
632.973	2409.29167
636.732	2397.95833
640.488	2389.29167
644.241	2379.29167
647.991	2364.95833
651.737	2368.95833
655.481	2338.625
659.222	2342.29167
662.96	2347.95833
666.695	2360.95833
670.427	2368.625
674.156	2402.625
677.882	2389.95833
681.605	2382.625
685.325	2353.95833
689.043	2351.29167
692.757	2335.95833
696.468	2329.29167
700.177	2325.95833
703.882	2302.95833
707.585	2320.29167
711.284	2305.95833
714.981	2314.29167
718.675	2310.29167
722.366	2317.29167
726.054	2313.29167
729.739	2311.29167
733.421	2325.95833
737.1	2327.29167
740.777	2345.95833
744.45	2330.29167
748.121	2354.625
751.789	2388.29167
755.453	2404.29167
759.115	2412.95833
762.774	2409.95833
766.431	2439.29167
770.084	2471.95833
773.734	2465.29167
777.382	2505.625
781.027	2516.95833
784.669	2544.625
788.308	2559.29167
791.944	2590.29167
795.577	2576.625
799.208	2614.95833
802.835	2615.29167
806.46	2629.95833
810.082	2638.625
813.701	2630.29167
817.317	2636.29167
820.931	2633.29167
824.542	2648.625
828.149	2627.625
831.754	2576.625
835.357	2596.29167
838.956	2603.95833
842.553	2603.29167
846.146	2591.95833
849.737	2566.625
853.326	2552.29167
856.911	2583.29167
860.493	2596.29167
864.073	2639.29167
867.65	2654.29167
871.225	2692.95833
874.796	2689.29167
878.365	2678.625
881.931	2694.625
885.494	2716.625
889.054	2734.29167
892.612	2738.95833
896.166	2707.625
899.719	2688.29167
903.268	2640.625
906.814	2614.95833
910.358	2599.95833
913.899	2588.625
917.438	2567.29167
920.973	2553.95833
924.506	2604.95833
928.036	2627.625
931.564	2656.29167
935.088	2724.625
938.61	2761.95833
942.129	2765.29167
945.646	2818.29167
949.16	2878.29167
952.671	2908.29167
956.179	2879.29167
959.685	2835.625
963.188	2824.29167
966.688	2773.625
970.185	2728.625
973.68	2688.29167
977.173	2640.625
980.662	2615.625
984.149	2608.95833
987.633	2582.29167
991.114	2644.625
994.593	2668.625
998.069	2744.29167
1001.542	2828.29167
1005.013	2792.95833
1008.481	2641.625
1011.947	2583.625
1015.409	2584.29167
1018.869	2553.95833
1022.327	2572.625
1025.782	2537.625
1029.234	2547.29167
1032.683	2487.625
1036.13	2428.625
1039.574	2347.29167
1043.016	2309.29167
1046.455	2254.625
1049.891	2235.29167
1053.325	2254.29167
1056.756	2264.625
1060.184	2285.95833
1063.61	2301.95833
1067.033	2310.95833
1070.454	2303.95833
1073.872	2344.625
1077.287	2328.29167
1080.7	2346.625
1084.11	2329.625
1087.517	2296.95833
1090.922	2267.625
1094.325	2242.625
1097.724	2212.29167
1101.122	2221.95833
1104.516	2209.95833
1107.908	2223.95833
1111.298	2259.95833
1114.684	2292.625
1118.069	2313.95833
1121.45	2340.95833
1124.83	2341.625
1128.206	2366.95833
1131.58	2397.625
1134.951	2466.95833
1138.32	2512.625
1141.687	2605.95833
1145.05	2659.625
1148.412	2654.625
1151.77	2631.95833
1155.126	2647.29167
1158.48	2633.29167
1161.831	2621.625
1165.18	2620.625
1168.525	2663.95833
1171.869	2699.625
1175.21	2728.29167
1178.548	2724.29167
1181.884	2761.29167
1185.217	2778.95833
1188.548	2854.95833
1191.877	2887.625
1195.202	2978.625
1198.526	3064.29167
1201.846	3103.95833
1205.165	3080.29167
1208.48	3091.625
1211.794	3063.29167
1215.104	3060.625
1218.413	3071.95833
1221.719	3093.625
1225.022	3060.95833
1228.323	2992.95833
1231.621	2971.625
1234.917	2937.625
1238.21	2947.625
1241.501	2948.95833
1244.79	2938.625
1248.076	2930.625
1251.359	2967.29167
1254.64	3024.29167
1257.919	3007.29167
1261.195	3087.29167
1264.468	3118.95833
1267.74	3149.95833
1271.008	3157.95833
1274.275	3112.95833
1277.538	3127.95833
1280.8	3099.95833
1284.059	3121.95833
1287.315	3160.625
1290.569	3185.625
1293.821	3212.95833
1297.07	3232.95833
1300.317	3220.625
1303.562	3205.625
1306.803	3169.29167
1310.043	3156.625
1313.28	3100.625
1316.515	3129.95833
1319.747	3088.625
1322.977	3032.29167
1326.204	3023.95833
1329.429	2975.95833
1332.652	2961.95833
1335.872	2916.625
1339.09	2895.95833
1342.306	2895.29167
1345.519	2860.29167
1348.729	2822.95833
1351.938	2833.625
1355.144	2816.95833
1358.347	2759.95833
1361.548	2770.29167
1364.747	2762.95833
1367.944	2710.625
1371.138	2725.625
1374.329	2757.625
1377.518	2771.95833
1380.705	2789.625
1383.89	2766.625
1387.072	2659.625
1390.252	2562.29167
1393.429	2485.29167
1396.605	2419.625
1399.777	2352.29167
1402.948	2328.95833
1406.116	2308.625
1409.282	2311.625
1412.445	2316.29167
1415.606	2353.95833
1418.765	2386.29167
1421.921	2440.95833
1425.075	2497.625
1428.227	2570.29167
1431.376	2655.625
1434.524	2770.625
1437.668	2844.625
1440.811	2878.29167
1443.951	2865.29167
1447.089	2882.95833
1450.224	2878.95833
1453.357	2850.625
1456.488	2820.29167
1459.617	2754.625
1462.743	2720.625
1465.867	2649.95833
1468.989	2616.625
1472.108	2567.625
1475.225	2493.95833
1478.34	2459.95833
1481.453	2460.95833
1484.563	2486.625
1487.671	2510.29167
1490.776	2543.625
1493.88	2594.625
1496.981	2627.625
1500.08	2650.29167
1503.176	2698.29167
1506.271	2703.625
1509.363	2767.29167
1512.452	2781.625
1515.54	2808.95833
1518.625	2840.95833
1521.708	2897.29167
1524.789	2989.625
1527.867	3068.29167
1530.944	3202.95833
1534.018	3349.625
1537.089	3503.29167
1540.159	3545.625
1543.226	3516.625
1546.291	3497.29167
1549.354	3399.625
1552.415	3339.29167
1555.473	3256.625
1558.529	3202.29167
1561.583	3190.95833
1564.634	3154.95833
1567.684	3160.29167
1570.731	3173.29167
1573.776	3185.95833
1576.819	3214.95833
1579.859	3249.625
1582.898	3286.95833
1585.934	3336.29167
1588.968	3352.625
1591.999	3312.625
1595.029	3332.29167
1598.056	3357.625
1601.081	3437.29167
1604.104	3402.625
1607.125	3368.95833
1610.144	3298.95833
1613.16	3189.625
1616.174	3124.29167
1619.186	3062.625
1622.196	2984.29167
1625.203	2862.29167
1628.209	2840.95833
1631.212	2795.29167
1634.213	2805.95833
1637.212	2790.95833
1640.209	2724.625
1643.203	2674.29167
1646.196	2597.29167
1649.186	2519.95833
1652.174	2453.29167
1655.16	2380.29167
1658.144	2336.625
1661.125	2238.625
1664.105	2138.625
1667.082	2049.625
1670.057	1942.625
1673.03	1831.625
1676.001	1708.95833
1678.97	1597.29167
1681.937	1533.29167
1684.901	1440.625
1687.863	1388.29167
1690.824	1334.625
1693.782	1311.29167
1696.738	1256.29167
1699.692	1224.29167
1702.643	1214.625
1705.593	1187.29167
1708.54	1179.625
1711.486	1170.95833
1714.429	1132.29167
1717.37	1147.95833
1720.309	1113.95833
1723.246	1129.95833
1726.181	1100.95833
1729.113	1093.29167
1732.044	1088.95833
1734.972	1084.625
1737.899	1092.625
1740.823	1078.625
1743.745	1051.29167
1746.665	1035.29167
1749.583	1027.95833
1752.499	1021.95833
1755.413	995.95833
1758.325	981.95833
1761.235	983.29167
1764.142	961.95833
1767.048	932.625
1769.951	945.95833
1772.852	940.29167
1775.752	937.625
1778.649	940.29167
1781.544	937.29167
1784.437	909.95833
1787.328	934.95833
1790.217	927.625
1793.104	888.625
1795.989	895.29167
1798.872	902.625
1801.753	908.29167
1804.631	896.95833
1807.508	909.625
1810.383	905.95833
1813.255	873.95833
1816.126	887.95833
1818.994	890.95833
1821.861	868.625
1824.725	874.625
1827.587	881.29167
1830.448	862.625
1833.306	845.29167
1836.162	862.29167
1839.017	862.625
1841.869	843.95833
1844.719	845.625
1847.567	829.625
1850.414	826.29167
1853.258	829.29167
1856.1	852.625
1858.94	841.625
1861.778	842.29167
1864.614	830.95833
1867.448	840.625
1870.28	827.95833
1873.111	842.625
1875.939	831.95833
1878.765	851.625
1881.589	821.95833
1884.411	826.95833
1887.231	825.29167
1890.049	821.29167
1892.865	824.95833
1895.68	813.95833
1898.492	840.29167
1901.302	813.625
1904.11	797.625
1906.916	798.625
1909.721	790.625
1912.523	798.625
1915.323	792.95833
1918.122	794.95833
1920.918	799.625
1923.712	786.29167
1926.505	786.95833
1929.295	783.95833
1932.084	787.95833
1934.87	790.625
1937.655	790.29167
1940.438	793.29167
1943.218	777.625
1945.997	793.29167
1948.774	794.625
1951.549	792.625
1954.322	787.29167
1957.093	781.95833
1959.862	775.95833
1962.629	774.625
1965.394	776.29167
1968.157	765.625
1970.918	758.625
1973.678	749.29167
1976.435	774.95833
1979.19	754.625
1981.944	758.625
1984.696	756.625
1987.445	741.95833
1990.193	750.29167
1992.939	771.625
1995.683	757.29167
1998.425	740.95833
2001.165	762.95833
2003.903	733.95833
2006.639	744.95833
2009.374	755.29167
2012.106	736.95833
2014.837	724.29167
2017.566	738.29167
2020.292	747.95833
2023.017	736.625
2025.74	735.29167
2028.461	731.625
2031.18	733.29167
2033.898	724.95833
2036.613	737.625
2039.327	739.29167
2042.038	727.95833
2044.748	721.29167
2047.456	732.625
2050.162	715.29167
2052.866	723.95833
2055.568	736.95833
2058.268	721.95833
2060.967	730.95833
2063.663	711.29167
2066.358	719.29167
2069.051	716.95833
2071.742	716.95833
2074.431	729.29167
2077.118	714.95833
2079.804	708.29167
2082.487	703.625
2085.169	730.95833
2087.849	734.625
2090.527	713.625
2093.203	719.29167
2095.877	735.95833
2098.55	741.95833
2101.22	743.95833
2103.889	749.95833
2106.556	752.95833
2109.221	781.29167
2111.884	781.95833
2114.546	841.625
2117.205	881.29167
2119.863	939.29167
2122.519	974.95833
2125.173	1018.625
2127.825	1051.625
2130.475	1055.625
2133.124	1026.625
2135.771	968.625
2138.416	942.625
2141.059	881.29167
2143.7	851.625
2146.339	821.625
2148.977	783.95833
2151.613	785.29167
2154.247	765.625
2156.879	753.29167
2159.51	732.625
2162.138	719.625
2164.765	722.29167
2167.39	703.625
2170.013	720.29167
2172.634	720.625
2175.254	710.95833
2177.872	737.95833
2180.488	688.29167
2183.102	706.29167
2185.714	692.29167
2188.325	681.625
2190.934	683.625
2193.541	700.95833
2196.146	672.625
2198.75	667.95833
2201.351	676.95833
2203.951	668.625
2206.549	682.95833
2209.146	665.625
2211.74	669.625
2214.333	672.95833
2216.924	653.95833
2219.514	665.29167
2222.101	666.29167
2224.687	669.625
2227.271	655.29167
2229.853	647.625
2232.433	633.95833
2235.012	669.625
2237.589	662.29167
2240.164	665.95833
2242.738	668.625
2245.309	656.625
2247.879	659.29167
2250.448	656.625
2253.014	646.29167
2255.579	631.625
2258.142	642.95833
2260.703	629.95833
2263.262	636.625
2265.82	637.95833
2268.376	633.625
2270.93	615.625
2273.483	631.625
2276.033	630.95833
2278.583	627.625
2281.13	633.29167
2283.675	621.625
2286.219	630.625
2288.761	632.29167
2291.302	636.95833
2293.841	635.95833
2296.377	614.29167
2298.913	631.95833
2301.446	638.625
2303.978	636.29167
2306.508	622.95833
2309.037	628.95833
2311.563	634.625
2314.088	633.625
2316.612	616.625
2319.133	624.625
2321.653	627.29167
2324.171	623.625
2326.688	643.625
2329.202	626.29167
2331.715	617.625
2334.227	607.95833
2336.736	621.95833
2339.244	625.95833
2341.751	609.29167
2344.255	636.29167
2346.758	629.625
2349.259	611.625
2351.759	627.625
2354.257	610.29167
2356.753	624.29167
2359.247	624.95833
2361.74	619.95833
2364.231	627.625
2366.721	639.95833
2369.209	617.95833
2371.695	621.95833
2374.179	621.95833
2376.662	615.29167
2379.143	628.625
2381.622	631.625
2384.1	641.95833
2386.576	630.625
2389.051	640.95833
2391.524	651.95833
2393.995	646.29167
2396.464	636.625
2398.932	636.625
2401.398	630.625
2403.863	641.29167
2406.325	626.29167
2408.787	636.29167
2411.246	633.29167
2413.704	614.625
2416.16	633.625
2418.615	634.95833
2421.068	657.95833
2423.519	651.625
2425.969	631.625
2428.417	642.95833
2430.863	658.29167
2433.308	653.95833
2435.751	644.625
2438.193	641.29167
2440.633	638.95833
2443.071	648.95833
2445.508	643.95833
2447.943	637.625
2450.376	642.625
2452.808	649.29167
2455.238	646.95833
2457.667	679.95833
2460.093	650.29167
2462.519	648.95833
2464.942	646.29167
2467.365	654.95833
2469.785	663.95833
2472.204	656.95833
2474.621	654.29167
2477.037	672.625
2479.451	646.625
2481.863	638.95833
2484.274	656.95833
2486.683	664.95833
2489.091	671.95833
2491.497	660.29167
2493.901	665.29167
2496.304	662.95833
2498.705	663.29167
2501.105	665.29167
2503.503	696.29167
2505.899	649.29167
2508.294	686.95833
2510.687	673.29167
2513.079	667.29167
2515.469	662.625
2517.858	675.95833
2520.245	681.95833
2522.63	670.29167
2525.014	666.95833
2527.396	674.625
2529.776	661.625
2532.156	683.95833
2534.533	661.95833
2536.909	675.625
2539.283	653.625
2541.656	672.625
2544.027	699.95833
2546.397	672.29167
2548.765	673.625
2551.131	687.95833
2553.496	690.95833
2555.86	685.625
2558.221	683.29167
2560.582	690.625
2562.94	688.95833
2565.298	699.95833
2567.653	694.29167
2570.007	685.29167
2572.36	713.29167
2574.711	680.95833
2577.06	714.29167
2579.408	706.625
2581.754	694.625
2584.099	709.95833
2586.442	701.625
2588.784	717.625
2591.124	710.29167
2593.463	710.625
2595.8	715.29167
2598.135	710.625
2600.469	712.29167
2602.802	720.625
2605.133	730.29167
2607.462	715.29167
2609.79	708.29167
2612.116	727.29167
2614.441	720.95833
2616.764	722.625
2619.086	734.625
2621.406	711.625
2623.725	742.29167
2626.042	745.625
2628.358	719.95833
2630.672	727.95833
2632.985	743.95833
2635.296	744.95833
2637.606	747.95833
2639.914	738.29167
2642.22	756.95833
2644.525	745.95833
2646.829	752.95833
2649.131	770.29167
2651.432	777.95833
2653.731	773.625
2656.028	782.95833
2658.324	784.29167
2660.619	768.95833
2662.912	799.29167
2665.204	770.95833
2667.494	789.29167
2669.782	769.625
2672.07	782.625
2674.355	781.625
2676.639	782.625
2678.922	781.625
2681.203	781.95833
2683.483	774.29167
2685.761	784.625
2688.038	796.95833
2690.313	805.95833
2692.587	797.625
2694.859	787.95833
2697.13	797.29167
2699.399	811.625
2701.667	827.625
2703.933	819.29167
2706.198	823.29167
2708.461	831.625
2710.723	838.95833
2712.984	827.29167
2715.243	844.29167
2717.5	832.29167
2719.757	856.625
2722.011	842.95833
2724.264	868.625
2726.516	863.29167
2728.766	849.29167
2731.015	867.29167
2733.262	872.95833
2735.508	860.95833
2737.753	876.29167
2739.996	860.29167
2742.237	857.95833
2744.477	877.29167
2746.716	871.625
2748.953	869.29167
2751.189	864.29167
2753.423	853.29167
2755.656	847.625
2757.887	850.95833
2760.117	842.625
2762.346	849.625
2764.573	842.29167
2766.798	860.95833
2769.022	855.625
2771.245	870.29167
2773.467	871.95833
2775.686	872.95833
2777.905	876.29167
2780.122	888.625
2782.337	877.95833
2784.552	884.625
2786.764	891.95833
2788.976	889.625
2791.186	910.625
2793.394	909.625
2795.601	922.625
2797.807	931.95833
2800.011	946.29167
2802.214	945.95833
2804.415	941.29167
2806.615	937.29167
2808.814	938.29167
2811.011	968.625
2813.206	970.625
2815.401	971.29167
2817.594	980.95833
2819.785	993.95833
2821.975	982.95833
2824.164	980.625
2826.351	1006.95833
2828.537	1027.95833
2830.722	1014.95833
2832.905	1024.29167
2835.086	1046.625
2837.267	1078.95833
2839.445	1103.95833
2841.623	1094.29167
2843.799	1123.625
2845.974	1148.95833
2848.147	1182.95833
2850.319	1210.625
2852.489	1237.625
2854.659	1250.95833
2856.826	1242.95833
2858.993	1284.29167
2861.158	1251.625
2863.321	1263.29167
2865.483	1293.29167
2867.644	1282.625
2869.804	1286.95833
2871.962	1274.625
2874.118	1264.29167
2876.274	1261.95833
2878.428	1271.625
2880.58	1255.29167
2882.731	1246.29167
2884.881	1250.625
2887.03	1260.625
2889.177	1258.95833
2891.322	1259.95833
2893.467	1267.625
2895.61	1271.29167
2897.751	1298.95833
2899.892	1284.29167
2902.03	1290.95833
2904.168	1318.625
2906.304	1311.29167
2908.439	1327.625
2910.572	1322.625
2912.704	1315.625
2914.835	1323.95833
2916.965	1306.95833
2919.093	1348.95833
2921.219	1302.625
2923.345	1325.95833
2925.469	1303.95833
2927.591	1300.95833
2929.712	1261.95833
2931.832	1276.95833
2933.951	1260.29167
2936.068	1235.95833
2938.184	1222.625
2940.299	1207.625
2942.412	1182.29167
2944.524	1152.625
2946.634	1171.625
2948.744	1118.29167
2950.851	1144.95833
2952.958	1118.29167
2955.063	1116.95833
2957.167	1114.29167
2959.269	1082.625
2961.371	1112.625
2963.471	1076.625
2965.569	1076.625
2967.666	1063.29167
2969.762	1054.29167
2971.857	1036.95833
2973.95	1029.29167
2976.042	1026.29167
2978.133	1024.95833
2980.222	990.29167
2982.31	965.29167
2984.396	953.29167
2986.482	958.29167
2988.566	954.625
2990.648	942.625
2992.73	954.95833
2994.81	951.29167
2996.889	953.29167
2998.966	949.95833
3001.042	953.625
3003.117	954.95833
3005.191	948.625
3007.263	942.95833
3009.334	932.625
3011.403	937.625
3013.472	900.625
3015.539	903.29167
3017.604	909.95833
3019.669	878.29167
3021.732	881.95833
3023.794	875.625
3025.854	870.29167
3027.914	887.625
3029.971	898.29167
3032.028	877.625
3034.083	882.625
3036.137	862.625
3038.19	837.29167
3040.242	813.625
3042.292	813.95833
3044.341	806.29167
3046.388	800.95833
3048.435	788.95833
3050.48	790.95833
3052.524	787.95833
3054.566	778.625
3056.607	773.29167
3058.647	760.95833
3060.686	739.625
3062.723	711.625
3064.759	697.29167
3066.794	-0.04167
3068.828	3.625
3070.86	3.29167
