-0.839	412.54167
3.438	493.54167
7.711	149.54167
11.981	56.20833
16.247	41.20833
20.509	46.54167
24.768	45.875
29.024	50.875
33.276	43.54167
37.524	50.20833
41.769	44.54167
46.01	34.54167
50.247	47.875
54.481	58.875
58.712	62.20833
62.939	47.875
67.162	63.20833
71.382	53.875
75.599	46.54167
79.812	62.54167
84.021	81.875
88.227	59.54167
92.429	57.875
96.628	47.54167
100.823	66.20833
105.015	74.54167
109.204	61.20833
113.388	70.20833
117.57	71.875
121.748	87.20833
125.922	70.54167
130.093	89.54167
134.261	87.20833
138.425	89.20833
142.585	131.875
146.742	117.875
150.896	147.875
155.046	176.54167
159.193	268.54167
163.336	447.54167
167.476	818.20833
171.613	1489.875
175.746	2469.20833
179.875	3693.54167
184.002	4833.54167
188.124	5601.875
192.244	5876.54167
196.36	5817.875
200.472	5651.20833
204.581	5500.875
208.687	5366.875
212.79	5273.54167
216.889	5260.54167
220.984	5233.54167
225.077	5238.20833
229.165	5231.20833
233.251	5166.20833
237.333	5095.20833
241.412	5050.875
245.487	4996.20833
249.559	4946.20833
253.628	4931.20833
257.694	4899.875
261.756	4843.20833
265.814	4744.54167
269.87	4628.875
273.922	4520.20833
277.97	4492.875
282.016	4490.20833
286.058	4522.875
290.097	4687.20833
294.132	4758.875
298.164	4676.54167
302.193	4459.875
306.219	4117.875
310.241	3816.54167
314.26	3512.54167
318.276	3252.875
322.288	3100.54167
326.297	2937.20833
330.303	2846.875
334.305	2759.875
338.305	2718.54167
342.301	2661.875
346.294	2669.875
350.283	2635.54167
354.269	2606.54167
358.252	2588.875
362.232	2565.875
366.209	2553.20833
370.182	2537.54167
374.152	2511.20833
378.119	2509.20833
382.083	2519.20833
386.043	2512.875
390	2497.20833
393.954	2469.54167
397.905	2486.875
401.852	2475.54167
405.797	2439.54167
409.738	2445.20833
413.676	2431.54167
417.61	2452.875
421.542	2408.20833
425.47	2383.20833
429.396	2375.54167
433.318	2355.875
437.236	2363.875
441.152	2392.20833
445.065	2319.20833
448.974	2338.875
452.88	2323.54167
456.783	2293.20833
460.683	2266.20833
464.58	2280.54167
468.473	2282.54167
472.364	2297.54167
476.251	2296.20833
480.135	2325.20833
484.016	2350.875
487.894	2358.54167
491.769	2366.20833
495.641	2376.20833
499.509	2352.875
503.375	2355.20833
507.237	2377.54167
511.096	2391.20833
514.952	2503.54167
518.805	2646.875
522.655	2683.875
526.502	2510.20833
530.346	2384.875
534.187	2383.875
538.024	2387.54167
541.859	2392.20833
545.69	2417.54167
549.519	2412.875
553.344	2384.20833
557.166	2352.20833
560.985	2314.20833
564.802	2254.54167
568.615	2231.54167
572.425	2190.20833
576.232	2186.54167
580.036	2180.875
583.836	2168.54167
587.634	2202.20833
591.429	2200.20833
595.221	2246.54167
599.01	2257.875
602.796	2302.20833
606.578	2297.875
610.358	2316.54167
614.135	2289.20833
617.909	2254.54167
621.679	2244.875
625.447	2251.54167
629.212	2257.20833
632.973	2238.54167
636.732	2227.54167
640.488	2243.20833
644.241	2228.54167
647.991	2223.20833
651.737	2228.875
655.481	2177.54167
659.222	2186.20833
662.96	2166.20833
666.695	2207.875
670.427	2214.20833
674.156	2234.54167
677.882	2223.54167
681.605	2221.875
685.325	2205.54167
689.043	2199.20833
692.757	2160.875
696.468	2196.20833
700.177	2190.875
703.882	2175.54167
707.585	2183.54167
711.284	2157.20833
714.981	2152.20833
718.675	2165.20833
722.366	2198.20833
726.054	2147.875
729.739	2160.20833
733.421	2163.20833
737.1	2171.54167
740.777	2212.54167
744.45	2206.20833
748.121	2210.54167
751.789	2260.20833
755.453	2250.875
759.115	2255.875
762.774	2266.875
766.431	2267.875
770.084	2320.54167
773.734	2330.20833
777.382	2366.54167
781.027	2379.54167
784.669	2396.875
788.308	2407.20833
791.944	2422.875
795.577	2444.20833
799.208	2461.54167
802.835	2468.875
806.46	2499.54167
810.082	2491.54167
813.701	2487.54167
817.317	2519.875
820.931	2506.20833
824.542	2506.20833
828.149	2464.54167
831.754	2458.20833
835.357	2473.54167
838.956	2492.20833
842.553	2462.54167
846.146	2452.875
849.737	2428.20833
853.326	2475.875
856.911	2452.875
860.493	2507.54167
864.073	2511.875
867.65	2534.54167
871.225	2570.20833
874.796	2589.875
878.365	2585.875
881.931	2602.20833
885.494	2588.54167
889.054	2622.54167
892.612	2609.875
896.166	2587.54167
899.719	2580.875
903.268	2552.54167
906.814	2526.54167
910.358	2482.20833
913.899	2473.875
917.438	2461.875
920.973	2453.875
924.506	2494.875
928.036	2510.20833
931.564	2564.875
935.088	2592.20833
938.61	2625.54167
942.129	2667.54167
945.646	2729.54167
949.16	2775.20833
952.671	2774.20833
956.179	2754.20833
959.685	2732.875
963.188	2711.54167
966.688	2667.875
970.185	2598.875
973.68	2565.54167
977.173	2518.54167
980.662	2475.875
984.149	2482.20833
987.633	2466.875
991.114	2531.20833
994.593	2585.20833
998.069	2637.875
1001.542	2707.875
1005.013	2672.20833
1008.481	2530.20833
1011.947	2477.54167
1015.409	2453.20833
1018.869	2477.20833
1022.327	2458.875
1025.782	2429.875
1029.234	2452.875
1032.683	2416.20833
1036.13	2311.20833
1039.574	2236.20833
1043.016	2194.54167
1046.455	2144.20833
1049.891	2154.875
1053.325	2139.20833
1056.756	2151.875
1060.184	2184.54167
1063.61	2164.875
1067.033	2202.875
1070.454	2206.54167
1073.872	2254.20833
1077.287	2232.20833
1080.7	2241.875
1084.11	2217.875
1087.517	2207.875
1090.922	2161.875
1094.325	2147.875
1097.724	2139.875
1101.122	2146.20833
1104.516	2143.875
1107.908	2147.54167
1111.298	2190.54167
1114.684	2204.875
1118.069	2234.875
1121.45	2271.20833
1124.83	2253.875
1128.206	2299.875
1131.58	2307.20833
1134.951	2387.875
1138.32	2440.875
1141.687	2552.20833
1145.05	2581.875
1148.412	2570.20833
1151.77	2563.54167
1155.126	2572.875
1158.48	2554.20833
1161.831	2546.54167
1165.18	2558.20833
1168.525	2603.54167
1171.869	2623.54167
1175.21	2638.875
1178.548	2671.875
1181.884	2701.54167
1185.217	2715.20833
1188.548	2799.54167
1191.877	2825.54167
1195.202	2935.54167
1198.526	2987.875
1201.846	3016.54167
1205.165	3018.875
1208.48	3006.20833
1211.794	2992.875
1215.104	2988.875
1218.413	2995.54167
1221.719	3006.20833
1225.022	2964.20833
1228.323	2920.54167
1231.621	2922.875
1234.917	2905.54167
1238.21	2913.20833
1241.501	2876.54167
1244.79	2821.54167
1248.076	2850.20833
1251.359	2854.875
1254.64	2957.875
1257.919	2942.20833
1261.195	2988.20833
1264.468	3055.54167
1267.74	3092.875
1271.008	3077.54167
1274.275	3069.54167
1277.538	3050.54167
1280.8	3038.54167
1284.059	3047.20833
1287.315	3089.875
1290.569	3066.20833
1293.821	3151.875
1297.07	3138.875
1300.317	3175.875
1303.562	3158.54167
1306.803	3125.875
1310.043	3111.54167
1313.28	3049.54167
1316.515	3007.875
1319.747	2987.54167
1322.977	2968.20833
1326.204	2935.875
1329.429	2869.54167
1332.652	2853.20833
1335.872	2832.875
1339.09	2778.20833
1342.306	2791.875
1345.519	2774.54167
1348.729	2753.54167
1351.938	2750.54167
1355.144	2731.54167
1358.347	2686.20833
1361.548	2668.20833
1364.747	2686.54167
1367.944	2604.20833
1371.138	2641.875
1374.329	2672.875
1377.518	2698.20833
1380.705	2707.20833
1383.89	2663.875
1387.072	2571.20833
1390.252	2468.875
1393.429	2403.875
1396.605	2335.875
1399.777	2281.875
1402.948	2249.54167
1406.116	2251.20833
1409.282	2245.875
1412.445	2244.54167
1415.606	2267.875
1418.765	2341.20833
1421.921	2349.875
1425.075	2407.875
1428.227	2497.54167
1431.376	2575.875
1434.524	2673.875
1437.668	2742.54167
1440.811	2775.20833
1443.951	2801.54167
1447.089	2800.20833
1450.224	2776.20833
1453.357	2771.875
1456.488	2736.875
1459.617	2688.54167
1462.743	2667.20833
1465.867	2572.54167
1468.989	2544.875
1472.108	2515.20833
1475.225	2443.875
1478.34	2417.875
1481.453	2440.875
1484.563	2419.875
1487.671	2472.54167
1490.776	2479.20833
1493.88	2540.54167
1496.981	2544.20833
1500.08	2604.20833
1503.176	2629.54167
1506.271	2666.20833
1509.363	2701.875
1512.452	2718.875
1515.54	2759.20833
1518.625	2803.20833
1521.708	2866.54167
1524.789	2934.875
1527.867	3036.20833
1530.944	3149.875
1534.018	3306.20833
1537.089	3432.875
1540.159	3482.20833
1543.226	3483.875
1546.291	3419.20833
1549.354	3364.875
1552.415	3321.54167
1555.473	3228.54167
1558.529	3169.20833
1561.583	3157.54167
1564.634	3135.875
1567.684	3146.20833
1570.731	3132.20833
1573.776	3159.875
1576.819	3212.20833
1579.859	3232.875
1582.898	3259.875
1585.934	3275.875
1588.968	3280.20833
1591.999	3281.875
1595.029	3300.20833
1598.056	3309.875
1601.081	3363.54167
1604.104	3337.875
1607.125	3303.54167
1610.144	3255.54167
1613.16	3153.54167
1616.174	3100.20833
1619.186	3009.875
1622.196	2924.54167
1625.203	2815.875
1628.209	2756.54167
1631.212	2712.875
1634.213	2695.20833
1637.212	2659.54167
1640.209	2622.875
1643.203	2568.20833
1646.196	2517.20833
1649.186	2429.875
1652.174	2383.20833
1655.16	2276.54167
1658.144	2249.54167
1661.125	2122.20833
1664.105	2056.54167
1667.082	1948.20833
1670.057	1860.875
1673.03	1761.875
1676.001	1648.20833
1678.97	1556.20833
1681.937	1456.875
1684.901	1370.54167
1687.863	1347.875
1690.824	1275.875
1693.782	1261.20833
1696.738	1200.54167
1699.692	1184.54167
1702.643	1148.54167
1705.593	1135.54167
1708.54	1124.875
1711.486	1136.875
1714.429	1083.875
1717.37	1097.20833
1720.309	1071.20833
1723.246	1086.875
1726.181	1051.875
1729.113	1050.54167
1732.044	1023.875
1734.972	1030.875
1737.899	1034.54167
1740.823	1029.20833
1743.745	996.54167
1746.665	994.20833
1749.583	964.875
1752.499	958.54167
1755.413	952.875
1758.325	919.20833
1761.235	928.875
1764.142	926.54167
1767.048	900.20833
1769.951	898.54167
1772.852	901.20833
1775.752	880.54167
1778.649	893.20833
1781.544	901.20833
1784.437	863.54167
1787.328	884.54167
1790.217	867.875
1793.104	835.875
1795.989	843.54167
1798.872	831.875
1801.753	859.54167
1804.631	851.875
1807.508	860.20833
1810.383	847.54167
1813.255	842.875
1816.126	847.20833
1818.994	821.54167
1821.861	832.54167
1824.725	826.875
1827.587	833.875
1830.448	824.875
1833.306	807.54167
1836.162	811.54167
1839.017	798.54167
1841.869	801.54167
1844.719	796.20833
1847.567	777.54167
1850.414	780.875
1853.258	789.875
1856.1	805.54167
1858.94	798.875
1861.778	789.54167
1864.614	788.875
1867.448	793.875
1870.28	776.20833
1873.111	797.54167
1875.939	771.875
1878.765	803.54167
1881.589	772.875
1884.411	790.20833
1887.231	784.54167
1890.049	779.54167
1892.865	783.54167
1895.68	769.54167
1898.492	770.875
1901.302	775.875
1904.11	774.20833
1906.916	760.54167
1909.721	748.20833
1912.523	774.875
1915.323	741.20833
1918.122	744.20833
1920.918	765.20833
1923.712	747.875
1926.505	745.20833
1929.295	736.875
1932.084	770.20833
1934.87	744.875
1937.655	736.875
1940.438	740.875
1943.218	747.875
1945.997	753.20833
1948.774	757.20833
1951.549	750.20833
1954.322	743.20833
1957.093	737.54167
1959.862	733.875
1962.629	722.875
1965.394	724.54167
1968.157	720.20833
1970.918	730.54167
1973.678	712.20833
1976.435	732.875
1979.19	714.20833
1981.944	708.54167
1984.696	723.20833
1987.445	698.20833
1990.193	717.20833
1992.939	725.54167
1995.683	712.20833
1998.425	706.54167
2001.165	729.875
2003.903	707.20833
2006.639	706.875
2009.374	722.54167
2012.106	708.875
2014.837	700.875
2017.566	715.875
2020.292	704.54167
2023.017	695.875
2025.74	697.20833
2028.461	712.54167
2031.18	699.20833
2033.898	687.54167
2036.613	702.20833
2039.327	703.875
2042.038	698.20833
2044.748	689.20833
2047.456	702.54167
2050.162	671.54167
2052.866	688.54167
2055.568	694.875
2058.268	696.20833
2060.967	693.875
2063.663	672.54167
2066.358	690.20833
2069.051	678.54167
2071.742	695.20833
2074.431	681.875
2077.118	683.20833
2079.804	687.20833
2082.487	694.54167
2085.169	706.54167
2087.849	709.20833
2090.527	689.875
2093.203	688.875
2095.877	702.20833
2098.55	714.875
2101.22	716.20833
2103.889	717.875
2106.556	720.20833
2109.221	752.20833
2111.884	755.20833
2114.546	815.54167
2117.205	853.875
2119.863	909.875
2122.519	935.20833
2125.173	985.875
2127.825	1038.54167
2130.475	1025.20833
2133.124	984.20833
2135.771	945.20833
2138.416	907.875
2141.059	862.875
2143.7	838.20833
2146.339	794.20833
2148.977	750.875
2151.613	747.875
2154.247	735.20833
2156.879	720.20833
2159.51	705.20833
2162.138	699.20833
2164.765	694.54167
2167.39	683.20833
2170.013	696.20833
2172.634	686.20833
2175.254	685.875
2177.872	704.54167
2180.488	683.54167
2183.102	687.54167
2185.714	672.54167
2188.325	651.875
2190.934	664.875
2193.541	672.54167
2196.146	670.20833
2198.75	655.54167
2201.351	664.875
2203.951	643.20833
2206.549	653.20833
2209.146	646.54167
2211.74	647.54167
2214.333	645.54167
2216.924	629.54167
2219.514	649.54167
2222.101	635.875
2224.687	649.54167
2227.271	642.875
2229.853	635.54167
2232.433	621.20833
2235.012	642.875
2237.589	639.20833
2240.164	653.54167
2242.738	635.20833
2245.309	632.54167
2247.879	641.875
2250.448	651.875
2253.014	618.54167
2255.579	619.20833
2258.142	617.20833
2260.703	619.875
2263.262	615.875
2265.82	602.875
2268.376	630.875
2270.93	599.54167
2273.483	604.20833
2276.033	611.875
2278.583	614.54167
2281.13	605.54167
2283.675	606.54167
2286.219	606.54167
2288.761	615.54167
2291.302	607.54167
2293.841	632.875
2296.377	612.54167
2298.913	618.20833
2301.446	632.54167
2303.978	617.875
2306.508	618.20833
2309.037	615.875
2311.563	610.54167
2314.088	607.875
2316.612	600.54167
2319.133	611.20833
2321.653	619.875
2324.171	610.875
2326.688	614.54167
2329.202	607.20833
2331.715	610.20833
2334.227	608.875
2336.736	611.20833
2339.244	616.20833
2341.751	593.54167
2344.255	621.54167
2346.758	612.875
2349.259	604.20833
2351.759	604.875
2354.257	605.20833
2356.753	597.875
2359.247	603.54167
2361.74	616.20833
2364.231	618.875
2366.721	618.20833
2369.209	612.20833
2371.695	614.54167
2374.179	606.54167
2376.662	615.875
2379.143	625.875
2381.622	609.20833
2384.1	625.20833
2386.576	617.20833
2389.051	637.875
2391.524	628.20833
2393.995	632.875
2396.464	609.20833
2398.932	623.54167
2401.398	631.20833
2403.863	618.875
2406.325	627.20833
2408.787	633.875
2411.246	623.54167
2413.704	625.54167
2416.16	619.54167
2418.615	624.54167
2421.068	632.875
2423.519	628.875
2425.969	632.20833
2428.417	644.54167
2430.863	653.54167
2433.308	642.875
2435.751	626.875
2438.193	636.54167
2440.633	642.54167
2443.071	642.54167
2445.508	631.875
2447.943	641.875
2450.376	638.54167
2452.808	633.875
2455.238	628.875
2457.667	679.875
2460.093	639.20833
2462.519	629.54167
2464.942	651.875
2467.365	639.54167
2469.785	654.20833
2472.204	651.20833
2474.621	632.54167
2477.037	665.54167
2479.451	640.54167
2481.863	634.875
2484.274	643.20833
2486.683	672.20833
2489.091	657.20833
2491.497	654.20833
2493.901	660.20833
2496.304	660.20833
2498.705	668.54167
2501.105	658.54167
2503.503	698.20833
2505.899	635.54167
2508.294	684.54167
2510.687	670.20833
2513.079	668.20833
2515.469	658.20833
2517.858	671.875
2520.245	679.54167
2522.63	660.875
2525.014	655.20833
2527.396	659.54167
2529.776	663.20833
2532.156	684.875
2534.533	659.875
2536.909	657.875
2539.283	656.20833
2541.656	662.20833
2544.027	691.20833
2546.397	678.20833
2548.765	677.20833
2551.131	683.54167
2553.496	676.875
2555.86	694.20833
2558.221	689.20833
2560.582	677.20833
2562.94	674.54167
2565.298	684.20833
2567.653	702.20833
2570.007	677.20833
2572.36	701.875
2574.711	690.20833
2577.06	708.875
2579.408	710.54167
2581.754	703.875
2584.099	715.54167
2586.442	710.54167
2588.784	718.20833
2591.124	717.54167
2593.463	709.54167
2595.8	723.20833
2598.135	698.54167
2600.469	713.875
2602.802	730.20833
2605.133	725.875
2607.462	710.20833
2609.79	703.875
2612.116	725.875
2614.441	731.20833
2616.764	716.54167
2619.086	735.20833
2621.406	715.875
2623.725	744.20833
2626.042	741.20833
2628.358	724.54167
2630.672	738.875
2632.985	743.54167
2635.296	750.54167
2637.606	745.20833
2639.914	737.20833
2642.22	743.20833
2644.525	750.875
2646.829	760.54167
2649.131	779.20833
2651.432	765.54167
2653.731	762.20833
2656.028	780.20833
2658.324	784.875
2660.619	760.54167
2662.912	787.875
2665.204	764.875
2667.494	788.20833
2669.782	779.20833
2672.07	786.875
2674.355	789.875
2676.639	784.20833
2678.922	780.875
2681.203	777.20833
2683.483	780.20833
2685.761	784.20833
2688.038	805.20833
2690.313	811.20833
2692.587	801.54167
2694.859	793.20833
2697.13	810.875
2699.399	822.20833
2701.667	827.54167
2703.933	828.20833
2706.198	827.875
2708.461	839.54167
2710.723	839.54167
2712.984	841.54167
2715.243	842.875
2717.5	846.20833
2719.757	858.54167
2722.011	842.20833
2724.264	861.54167
2726.516	886.875
2728.766	867.20833
2731.015	862.54167
2733.262	872.875
2735.508	875.875
2737.753	874.20833
2739.996	870.875
2742.237	855.20833
2744.477	868.54167
2746.716	881.20833
2748.953	865.875
2751.189	873.20833
2753.423	860.20833
2755.656	852.54167
2757.887	855.54167
2760.117	871.20833
2762.346	858.20833
2764.573	850.875
2766.798	854.20833
2769.022	865.875
2771.245	870.20833
2773.467	877.875
2775.686	874.875
2777.905	879.54167
2780.122	882.875
2782.337	899.875
2784.552	898.875
2786.764	894.54167
2788.976	907.875
2791.186	912.875
2793.394	931.54167
2795.601	935.20833
2797.807	940.54167
2800.011	944.20833
2802.214	954.875
2804.415	952.54167
2806.615	959.875
2808.814	956.20833
2811.011	965.54167
2813.206	960.20833
2815.401	993.20833
2817.594	987.54167
2819.785	1003.875
2821.975	993.54167
2824.164	995.20833
2826.351	1007.54167
2828.537	1022.54167
2830.722	1042.875
2832.905	1026.20833
2835.086	1065.20833
2837.267	1081.54167
2839.445	1107.54167
2841.623	1114.875
2843.799	1140.54167
2845.974	1176.54167
2848.147	1192.20833
2850.319	1224.54167
2852.489	1256.20833
2854.659	1253.54167
2856.826	1261.875
2858.993	1297.20833
2861.158	1284.54167
2863.321	1277.875
2865.483	1287.54167
2867.644	1293.54167
2869.804	1279.875
2871.962	1279.54167
2874.118	1277.875
2876.274	1285.20833
2878.428	1280.54167
2880.58	1283.20833
2882.731	1252.20833
2884.881	1267.20833
2887.03	1267.875
2889.177	1279.20833
2891.322	1283.875
2893.467	1276.54167
2895.61	1283.875
2897.751	1309.20833
2899.892	1293.20833
2902.03	1312.875
2904.168	1310.20833
2906.304	1302.54167
2908.439	1338.875
2910.572	1320.54167
2912.704	1337.54167
2914.835	1347.54167
2916.965	1339.20833
2919.093	1347.54167
2921.219	1324.875
2923.345	1336.20833
2925.469	1313.875
2927.591	1316.54167
2929.712	1288.20833
2931.832	1290.54167
2933.951	1265.875
2936.068	1258.20833
2938.184	1227.54167
2940.299	1227.875
2942.412	1193.875
2944.524	1167.875
2946.634	1170.875
2948.744	1129.20833
2950.851	1168.875
2952.958	1133.54167
2955.063	1130.875
2957.167	1125.875
2959.269	1106.54167
2961.371	1114.54167
2963.471	1107.875
2965.569	1106.54167
2967.666	1079.20833
2969.762	1076.875
2971.857	1066.54167
2973.95	1039.20833
2976.042	1032.54167
2978.133	1019.875
2980.222	998.54167
2982.31	977.875
2984.396	965.875
2986.482	973.54167
2988.566	965.54167
2990.648	963.875
2992.73	974.54167
2994.81	963.875
2996.889	956.20833
2998.966	957.20833
3001.042	985.54167
3003.117	966.875
3005.191	965.20833
3007.263	960.54167
3009.334	949.875
3011.403	944.54167
3013.472	916.54167
3015.539	936.875
3017.604	928.875
3019.669	883.54167
3021.732	895.875
3023.794	894.54167
3025.854	880.20833
3027.914	891.20833
3029.971	906.875
3032.028	896.20833
3034.083	881.20833
3036.137	879.20833
3038.19	847.875
3040.242	831.20833
3042.292	825.875
3044.341	805.20833
3046.388	826.20833
3048.435	793.54167
3050.48	810.20833
3052.524	809.20833
3054.566	784.54167
3056.607	791.875
3058.647	768.54167
3060.686	752.875
3062.723	717.54167
3064.759	704.875
3066.794	-0.125
3068.828	2.54167
3070.86	1.875
