-0.839	502.41667
3.438	586.08333
7.711	177.08333
11.981	64.41667
16.247	48.41667
20.509	52.75
24.768	47.08333
29.024	56.41667
33.276	47.41667
37.524	51.75
41.769	48.08333
46.01	33.75
50.247	47.75
54.481	56.75
58.712	61.08333
62.939	49.08333
67.162	62.41667
71.382	55.75
75.599	44.75
79.812	64.08333
84.021	80.08333
88.227	59.75
92.429	57.75
96.628	56.41667
100.823	69.75
105.015	77.41667
109.204	68.75
113.388	75.41667
117.57	75.75
121.748	88.41667
125.922	81.08333
130.093	98.75
134.261	95.75
138.425	94.41667
142.585	138.41667
146.742	125.08333
150.896	153.08333
155.046	185.41667
159.193	291.41667
163.336	500.75
167.476	904.75
171.613	1669.41667
175.746	2783.08333
179.875	4112.75
184.002	5411.41667
188.124	6359.41667
192.244	6679.08333
196.36	6629.08333
200.472	6456.08333
204.581	6281.08333
208.687	6134.41667
212.79	6108.41667
216.889	6083.41667
220.984	6129.41667
225.077	6124.41667
229.165	6140.75
233.251	6173.41667
237.333	6123.08333
241.412	6058.41667
245.487	5961.41667
249.559	5942.08333
253.628	5896.08333
257.694	5871.75
261.756	5814.75
265.814	5698.41667
269.87	5545.08333
273.922	5354.08333
277.97	5296.08333
282.016	5266.75
286.058	5323.41667
290.097	5449.08333
294.132	5524.08333
298.164	5467.08333
302.193	5184.41667
306.219	4805.41667
310.241	4420.75
314.26	4047.75
318.276	3742.08333
322.288	3584.75
326.297	3399.08333
330.303	3287.41667
334.305	3196.41667
338.305	3160.08333
342.301	3103.41667
346.294	3082.75
350.283	3056.75
354.269	3041.08333
358.252	3013.08333
362.232	2973.41667
366.209	2968.08333
370.182	2936.41667
374.152	2908.41667
378.119	2928.75
382.083	2931.41667
386.043	2937.08333
390	2918.41667
393.954	2911.41667
397.905	2914.41667
401.852	2901.41667
405.797	2868.08333
409.738	2854.08333
413.676	2857.08333
417.61	2867.08333
421.542	2829.75
425.47	2796.08333
429.396	2778.75
433.318	2752.75
437.236	2753.75
441.152	2790.41667
445.065	2719.08333
448.974	2744.41667
452.88	2676.41667
456.783	2677.75
460.683	2682.08333
464.58	2670.41667
468.473	2694.41667
472.364	2688.75
476.251	2690.08333
480.135	2732.08333
484.016	2750.41667
487.894	2762.75
491.769	2792.08333
495.641	2787.08333
499.509	2794.75
503.375	2771.75
507.237	2771.75
511.096	2770.41667
514.952	2803.41667
518.805	2869.08333
522.655	2897.41667
526.502	2822.08333
530.346	2766.75
534.187	2736.08333
538.024	2761.75
541.859	2797.41667
545.69	2805.08333
549.519	2767.41667
553.344	2763.41667
557.166	2714.75
560.985	2700.41667
564.802	2654.75
568.615	2623.08333
572.425	2562.75
576.232	2557.41667
580.036	2560.41667
583.836	2567.08333
587.634	2588.08333
591.429	2585.08333
595.221	2643.41667
599.01	2679.08333
602.796	2697.75
606.578	2701.08333
610.358	2684.08333
614.135	2674.41667
617.909	2667.41667
621.679	2630.75
625.447	2626.41667
629.212	2643.41667
632.973	2614.41667
636.732	2631.08333
640.488	2613.41667
644.241	2609.41667
647.991	2585.75
651.737	2605.75
655.481	2578.08333
659.222	2577.08333
662.96	2562.75
666.695	2612.75
670.427	2598.08333
674.156	2641.08333
677.882	2608.75
681.605	2606.08333
685.325	2568.41667
689.043	2575.75
692.757	2568.75
696.468	2558.41667
700.177	2552.08333
703.882	2541.08333
707.585	2537.08333
711.284	2533.08333
714.981	2526.75
718.675	2519.75
722.366	2554.08333
726.054	2510.08333
729.739	2515.41667
733.421	2517.41667
737.1	2525.08333
740.777	2537.41667
744.45	2558.08333
748.121	2566.41667
751.789	2614.08333
755.453	2634.41667
759.115	2623.75
762.774	2637.75
766.431	2663.08333
770.084	2664.75
773.734	2718.75
777.382	2742.08333
781.027	2768.41667
784.669	2774.08333
788.308	2775.41667
791.944	2816.41667
795.577	2825.08333
799.208	2842.41667
802.835	2846.08333
806.46	2874.41667
810.082	2894.41667
813.701	2892.08333
817.317	2909.41667
820.931	2920.75
824.542	2894.41667
828.149	2858.08333
831.754	2847.75
835.357	2839.75
838.956	2863.41667
842.553	2857.08333
846.146	2853.75
849.737	2824.08333
853.326	2829.41667
856.911	2837.08333
860.493	2852.75
864.073	2900.08333
867.65	2920.75
871.225	2978.75
874.796	2957.08333
878.365	2947.08333
881.931	2981.08333
885.494	3003.75
889.054	3000.08333
892.612	3008.75
896.166	2979.75
899.719	2955.08333
903.268	2916.41667
906.814	2891.08333
910.358	2877.41667
913.899	2843.75
917.438	2858.41667
920.973	2847.41667
924.506	2856.41667
928.036	2922.41667
931.564	2954.41667
935.088	2964.08333
938.61	2996.41667
942.129	3042.08333
945.646	3096.08333
949.16	3161.75
952.671	3226.08333
956.179	3189.75
959.685	3143.08333
963.188	3148.08333
966.688	3094.08333
970.185	3023.41667
973.68	2968.75
977.173	2914.08333
980.662	2875.41667
984.149	2880.08333
987.633	2850.08333
991.114	2919.75
994.593	2965.41667
998.069	3039.08333
1001.542	3154.75
1005.013	3077.41667
1008.481	2929.08333
1011.947	2845.41667
1015.409	2835.41667
1018.869	2857.75
1022.327	2832.75
1025.782	2823.75
1029.234	2814.75
1032.683	2772.75
1036.13	2680.08333
1039.574	2607.08333
1043.016	2517.08333
1046.455	2487.41667
1049.891	2448.75
1053.325	2458.08333
1056.756	2490.75
1060.184	2478.41667
1063.61	2489.41667
1067.033	2536.41667
1070.454	2502.41667
1073.872	2540.08333
1077.287	2527.08333
1080.7	2538.75
1084.11	2526.41667
1087.517	2496.75
1090.922	2447.41667
1094.325	2460.08333
1097.724	2446.75
1101.122	2419.75
1104.516	2428.41667
1107.908	2423.08333
1111.298	2479.08333
1114.684	2498.41667
1118.069	2537.08333
1121.45	2561.75
1124.83	2569.75
1128.206	2592.75
1131.58	2613.75
1134.951	2675.08333
1138.32	2775.08333
1141.687	2850.75
1145.05	2904.75
1148.412	2914.75
1151.77	2904.08333
1155.126	2897.41667
1158.48	2884.41667
1161.831	2914.08333
1165.18	2922.08333
1168.525	2973.75
1171.869	2993.75
1175.21	2995.41667
1178.548	3052.75
1181.884	3073.75
1185.217	3114.41667
1188.548	3203.41667
1191.877	3227.75
1195.202	3320.41667
1198.526	3410.75
1201.846	3408.75
1205.165	3410.75
1208.48	3401.08333
1211.794	3377.41667
1215.104	3389.75
1218.413	3364.08333
1221.719	3352.08333
1225.022	3313.41667
1228.323	3307.41667
1231.621	3254.41667
1234.917	3211.75
1238.21	3220.08333
1241.501	3215.41667
1244.79	3201.41667
1248.076	3198.41667
1251.359	3249.75
1254.64	3314.75
1257.919	3341.08333
1261.195	3364.75
1264.468	3411.75
1267.74	3466.08333
1271.008	3462.41667
1274.275	3476.41667
1277.538	3444.41667
1280.8	3411.08333
1284.059	3426.75
1287.315	3454.75
1290.569	3483.41667
1293.821	3512.75
1297.07	3536.41667
1300.317	3543.08333
1303.562	3525.08333
1306.803	3517.08333
1310.043	3502.41667
1313.28	3451.75
1316.515	3409.75
1319.747	3393.08333
1322.977	3339.41667
1326.204	3333.41667
1329.429	3255.08333
1332.652	3256.75
1335.872	3230.75
1339.09	3197.08333
1342.306	3193.75
1345.519	3145.75
1348.729	3091.08333
1351.938	3082.08333
1355.144	3059.41667
1358.347	3005.08333
1361.548	3011.08333
1364.747	3001.75
1367.944	2958.41667
1371.138	2980.08333
1374.329	2993.08333
1377.518	3034.75
1380.705	3025.08333
1383.89	2988.08333
1387.072	2909.08333
1390.252	2808.08333
1393.429	2726.08333
1396.605	2625.41667
1399.777	2565.75
1402.948	2537.08333
1406.116	2522.08333
1409.282	2528.08333
1412.445	2527.75
1415.606	2554.08333
1418.765	2583.08333
1421.921	2630.75
1425.075	2697.75
1428.227	2794.41667
1431.376	2892.41667
1434.524	2982.08333
1437.668	3068.08333
1440.811	3091.08333
1443.951	3153.41667
1447.089	3123.41667
1450.224	3120.75
1453.357	3089.75
1456.488	3086.41667
1459.617	3046.08333
1462.743	2980.75
1465.867	2903.41667
1468.989	2848.41667
1472.108	2800.08333
1475.225	2751.08333
1478.34	2730.75
1481.453	2721.41667
1484.563	2719.41667
1487.671	2758.41667
1490.776	2820.75
1493.88	2836.41667
1496.981	2879.08333
1500.08	2949.41667
1503.176	2982.75
1506.271	3001.08333
1509.363	3037.41667
1512.452	3068.41667
1515.54	3111.08333
1518.625	3153.08333
1521.708	3248.08333
1524.789	3328.41667
1527.867	3444.08333
1530.944	3631.41667
1534.018	3809.75
1537.089	3939.08333
1540.159	3996.41667
1543.226	3980.08333
1546.291	3919.41667
1549.354	3846.08333
1552.415	3746.08333
1555.473	3648.08333
1558.529	3615.75
1561.583	3562.08333
1564.634	3548.08333
1567.684	3508.75
1570.731	3542.41667
1573.776	3598.75
1576.819	3630.41667
1579.859	3670.75
1582.898	3695.08333
1585.934	3726.75
1588.968	3746.75
1591.999	3762.75
1595.029	3752.08333
1598.056	3784.08333
1601.081	3787.75
1604.104	3781.41667
1607.125	3757.41667
1610.144	3656.75
1613.16	3595.08333
1616.174	3506.08333
1619.186	3409.41667
1622.196	3320.08333
1625.203	3216.75
1628.209	3158.08333
1631.212	3102.75
1634.213	3063.75
1637.212	3041.41667
1640.209	2990.41667
1643.203	2904.75
1646.196	2816.08333
1649.186	2730.41667
1652.174	2630.08333
1655.16	2554.08333
1658.144	2502.41667
1661.125	2372.08333
1664.105	2281.41667
1667.082	2178.08333
1670.057	2091.41667
1673.03	1952.75
1676.001	1837.08333
1678.97	1736.08333
1681.937	1610.41667
1684.901	1525.75
1687.863	1469.08333
1690.824	1415.41667
1693.782	1386.08333
1696.738	1315.41667
1699.692	1305.08333
1702.643	1274.41667
1705.593	1256.75
1708.54	1259.41667
1711.486	1234.75
1714.429	1207.41667
1717.37	1203.41667
1720.309	1175.08333
1723.246	1176.08333
1726.181	1140.75
1729.113	1151.08333
1732.044	1129.08333
1734.972	1121.75
1737.899	1132.41667
1740.823	1110.08333
1743.745	1086.75
1746.665	1070.75
1749.583	1049.41667
1752.499	1042.75
1755.413	1044.41667
1758.325	1015.75
1761.235	1010.41667
1764.142	988.08333
1767.048	975.08333
1769.951	967.08333
1772.852	971.41667
1775.752	966.41667
1778.649	979.08333
1781.544	966.08333
1784.437	933.75
1787.328	951.08333
1790.217	943.41667
1793.104	909.41667
1795.989	913.75
1798.872	905.08333
1801.753	927.41667
1804.631	907.41667
1807.508	916.75
1810.383	907.41667
1813.255	901.41667
1816.126	905.41667
1818.994	895.75
1821.861	891.08333
1824.725	897.75
1827.587	883.75
1830.448	880.08333
1833.306	865.08333
1836.162	867.41667
1839.017	863.41667
1841.869	865.41667
1844.719	857.41667
1847.567	840.41667
1850.414	834.75
1853.258	836.41667
1856.1	862.08333
1858.94	851.41667
1861.778	838.41667
1864.614	835.41667
1867.448	836.75
1870.28	826.08333
1873.111	855.08333
1875.939	849.41667
1878.765	844.08333
1881.589	835.08333
1884.411	831.75
1887.231	829.08333
1890.049	820.75
1892.865	831.75
1895.68	826.75
1898.492	816.41667
1901.302	804.75
1904.11	818.75
1906.916	804.41667
1909.721	781.41667
1912.523	807.08333
1915.323	801.08333
1918.122	784.41667
1920.918	805.75
1923.712	789.75
1926.505	785.75
1929.295	768.41667
1932.084	787.41667
1934.87	786.41667
1937.655	775.08333
1940.438	777.75
1943.218	769.08333
1945.997	788.41667
1948.774	781.75
1951.549	791.41667
1954.322	765.41667
1957.093	764.08333
1959.862	755.41667
1962.629	759.08333
1965.394	757.75
1968.157	746.75
1970.918	756.75
1973.678	731.41667
1976.435	764.41667
1979.19	748.41667
1981.944	739.08333
1984.696	736.75
1987.445	722.08333
1990.193	734.41667
1992.939	743.41667
1995.683	721.41667
1998.425	719.75
2001.165	752.41667
2003.903	723.08333
2006.639	733.08333
2009.374	738.41667
2012.106	718.75
2014.837	704.41667
2017.566	731.41667
2020.292	727.75
2023.017	717.08333
2025.74	712.75
2028.461	713.75
2031.18	714.41667
2033.898	695.75
2036.613	702.08333
2039.327	708.75
2042.038	700.08333
2044.748	686.08333
2047.456	711.08333
2050.162	694.75
2052.866	692.08333
2055.568	707.75
2058.268	688.08333
2060.967	689.08333
2063.663	685.41667
2066.358	683.41667
2069.051	686.75
2071.742	687.08333
2074.431	680.41667
2077.118	690.08333
2079.804	685.41667
2082.487	674.08333
2085.169	695.08333
2087.849	699.08333
2090.527	683.08333
2093.203	683.75
2095.877	705.08333
2098.55	696.41667
2101.22	711.41667
2103.889	719.41667
2106.556	717.08333
2109.221	728.41667
2111.884	754.08333
2114.546	802.41667
2117.205	839.41667
2119.863	911.75
2122.519	929.41667
2125.173	1003.75
2127.825	1051.08333
2130.475	1053.75
2133.124	1013.41667
2135.771	972.41667
2138.416	932.75
2141.059	872.08333
2143.7	843.41667
2146.339	798.75
2148.977	749.75
2151.613	744.75
2154.247	735.08333
2156.879	722.75
2159.51	699.08333
2162.138	683.75
2164.765	681.08333
2167.39	664.75
2170.013	695.41667
2172.634	680.41667
2175.254	659.41667
2177.872	689.08333
2180.488	654.41667
2183.102	657.75
2185.714	650.75
2188.325	624.75
2190.934	638.08333
2193.541	651.75
2196.146	639.75
2198.75	624.08333
2201.351	625.75
2203.951	614.75
2206.549	626.75
2209.146	615.08333
2211.74	618.75
2214.333	622.08333
2216.924	603.41667
2219.514	599.08333
2222.101	601.41667
2224.687	616.75
2227.271	607.41667
2229.853	591.41667
2232.433	580.08333
2235.012	599.75
2237.589	601.75
2240.164	609.75
2242.738	595.41667
2245.309	576.41667
2247.879	601.75
2250.448	595.75
2253.014	571.41667
2255.579	561.75
2258.142	573.75
2260.703	563.41667
2263.262	560.75
2265.82	559.41667
2268.376	566.41667
2270.93	549.41667
2273.483	560.08333
2276.033	553.08333
2278.583	561.08333
2281.13	558.08333
2283.675	546.08333
2286.219	540.75
2288.761	548.41667
2291.302	560.41667
2293.841	562.08333
2296.377	543.08333
2298.913	546.08333
2301.446	552.41667
2303.978	549.41667
2306.508	535.41667
2309.037	554.75
2311.563	544.75
2314.088	544.08333
2316.612	530.41667
2319.133	545.08333
2321.653	550.41667
2324.171	529.08333
2326.688	552.08333
2329.202	534.08333
2331.715	537.08333
2334.227	534.75
2336.736	528.41667
2339.244	532.41667
2341.751	523.08333
2344.255	536.08333
2346.758	530.75
2349.259	529.08333
2351.759	517.75
2354.257	514.75
2356.753	518.41667
2359.247	529.41667
2361.74	534.08333
2364.231	524.41667
2366.721	533.41667
2369.209	522.08333
2371.695	532.75
2374.179	516.41667
2376.662	519.75
2379.143	532.41667
2381.622	523.08333
2384.1	536.08333
2386.576	521.08333
2389.051	527.75
2391.524	541.41667
2393.995	532.41667
2396.464	521.08333
2398.932	519.75
2401.398	517.41667
2403.863	527.75
2406.325	510.75
2408.787	521.08333
2411.246	529.75
2413.704	516.75
2416.16	520.75
2418.615	524.75
2421.068	530.08333
2423.519	524.41667
2425.969	524.08333
2428.417	524.41667
2430.863	550.75
2433.308	544.75
2435.751	532.41667
2438.193	513.41667
2440.633	520.08333
2443.071	529.41667
2445.508	518.41667
2447.943	520.41667
2450.376	512.75
2452.808	520.08333
2455.238	519.75
2457.667	554.75
2460.093	509.41667
2462.519	508.75
2464.942	533.75
2467.365	532.41667
2469.785	532.08333
2472.204	518.08333
2474.621	510.08333
2477.037	538.75
2479.451	506.41667
2481.863	510.08333
2484.274	519.75
2486.683	529.08333
2489.091	541.08333
2491.497	517.08333
2493.901	538.41667
2496.304	525.75
2498.705	531.75
2501.105	511.75
2503.503	549.41667
2505.899	506.08333
2508.294	542.41667
2510.687	518.41667
2513.079	530.08333
2515.469	517.41667
2517.858	525.41667
2520.245	530.08333
2522.63	514.08333
2525.014	513.41667
2527.396	515.41667
2529.776	511.08333
2532.156	528.41667
2534.533	519.75
2536.909	517.75
2539.283	505.08333
2541.656	518.75
2544.027	542.41667
2546.397	526.08333
2548.765	525.08333
2551.131	522.08333
2553.496	517.08333
2555.86	532.41667
2558.221	528.08333
2560.582	521.08333
2562.94	514.08333
2565.298	533.41667
2567.653	545.08333
2570.007	513.08333
2572.36	530.08333
2574.711	516.08333
2577.06	543.08333
2579.408	539.08333
2581.754	531.08333
2584.099	527.41667
2586.442	521.75
2588.784	532.08333
2591.124	536.41667
2593.463	533.08333
2595.8	538.08333
2598.135	533.08333
2600.469	524.41667
2602.802	542.75
2605.133	548.08333
2607.462	526.08333
2609.79	525.08333
2612.116	541.75
2614.441	547.75
2616.764	547.08333
2619.086	544.08333
2621.406	530.08333
2623.725	560.08333
2626.042	555.08333
2628.358	540.75
2630.672	540.08333
2632.985	565.41667
2635.296	558.08333
2637.606	553.41667
2639.914	539.75
2642.22	551.41667
2644.525	552.75
2646.829	569.75
2649.131	564.08333
2651.432	581.75
2653.731	569.41667
2656.028	570.08333
2658.324	579.08333
2660.619	570.41667
2662.912	564.75
2665.204	557.75
2667.494	571.08333
2669.782	554.41667
2672.07	588.75
2674.355	575.08333
2676.639	587.08333
2678.922	563.41667
2681.203	570.75
2683.483	567.08333
2685.761	570.75
2688.038	590.41667
2690.313	593.41667
2692.587	586.08333
2694.859	582.41667
2697.13	587.41667
2699.399	596.41667
2701.667	609.08333
2703.933	590.08333
2706.198	610.08333
2708.461	611.08333
2710.723	619.75
2712.984	617.08333
2715.243	616.08333
2717.5	609.08333
2719.757	622.41667
2722.011	619.75
2724.264	618.75
2726.516	640.41667
2728.766	629.75
2731.015	640.41667
2733.262	638.41667
2735.508	625.08333
2737.753	632.08333
2739.996	624.75
2742.237	619.41667
2744.477	641.08333
2746.716	626.41667
2748.953	633.08333
2751.189	630.75
2753.423	620.75
2755.656	611.75
2757.887	611.08333
2760.117	617.41667
2762.346	605.08333
2764.573	599.41667
2766.798	615.08333
2769.022	609.41667
2771.245	614.41667
2773.467	613.08333
2775.686	634.08333
2777.905	633.08333
2780.122	639.75
2782.337	642.75
2784.552	634.75
2786.764	645.08333
2788.976	642.41667
2791.186	652.08333
2793.394	659.41667
2795.601	653.75
2797.807	678.75
2800.011	686.08333
2802.214	678.08333
2804.415	681.08333
2806.615	682.41667
2808.814	686.08333
2811.011	691.41667
2813.206	694.08333
2815.401	715.75
2817.594	710.08333
2819.785	718.41667
2821.975	710.75
2824.164	720.41667
2826.351	735.41667
2828.537	747.75
2830.722	758.08333
2832.905	763.08333
2835.086	800.08333
2837.267	825.41667
2839.445	818.75
2841.623	850.41667
2843.799	865.75
2845.974	885.41667
2848.147	914.08333
2850.319	939.41667
2852.489	969.75
2854.659	982.75
2856.826	989.08333
2858.993	1010.41667
2861.158	1000.41667
2863.321	995.41667
2865.483	1019.41667
2867.644	1020.08333
2869.804	997.41667
2871.962	1011.41667
2874.118	1005.41667
2876.274	998.41667
2878.428	1011.41667
2880.58	995.41667
2882.731	994.75
2884.881	1004.41667
2887.03	1000.41667
2889.177	996.08333
2891.322	1011.08333
2893.467	1019.75
2895.61	1012.41667
2897.751	1029.75
2899.892	1030.41667
2902.03	1038.75
2904.168	1061.75
2906.304	1050.08333
2908.439	1066.08333
2910.572	1061.41667
2912.704	1055.41667
2914.835	1067.41667
2916.965	1060.41667
2919.093	1079.08333
2921.219	1037.75
2923.345	1064.75
2925.469	1041.41667
2927.591	1046.41667
2929.712	1010.75
2931.832	1012.41667
2933.951	999.41667
2936.068	985.41667
2938.184	959.75
2940.299	930.08333
2942.412	916.75
2944.524	904.08333
2946.634	895.41667
2948.744	856.08333
2950.851	870.75
2952.958	840.08333
2955.063	848.08333
2957.167	839.41667
2959.269	810.08333
2961.371	827.41667
2963.471	801.75
2965.569	798.75
2967.666	777.08333
2969.762	771.41667
2971.857	767.41667
2973.95	741.08333
2976.042	744.08333
2978.133	728.41667
2980.222	710.08333
2982.31	700.75
2984.396	690.41667
2986.482	688.75
2988.566	684.41667
2990.648	687.08333
2992.73	684.08333
2994.81	660.08333
2996.889	674.75
2998.966	673.75
3001.042	676.41667
3003.117	676.41667
3005.191	679.75
3007.263	669.08333
3009.334	653.75
3011.403	653.75
3013.472	641.41667
3015.539	643.08333
3017.604	640.75
3019.669	613.08333
3021.732	619.41667
3023.794	617.75
3025.854	609.08333
3027.914	610.41667
3029.971	625.41667
3032.028	614.41667
3034.083	605.75
3036.137	602.08333
3038.19	577.08333
3040.242	576.08333
3042.292	565.08333
3044.341	557.08333
3046.388	567.41667
3048.435	543.75
3050.48	566.41667
3052.524	559.08333
3054.566	534.75
3056.607	548.75
3058.647	531.75
3060.686	516.41667
3062.723	493.41667
3064.759	475.41667
3066.794	-2.91667
3068.828	2.08333
3070.86	1.08333
