-0.839	408.79167
3.438	491.125
7.711	146.45833
11.981	55.79167
16.247	43.79167
20.509	52.125
24.768	44.125
29.024	53.125
33.276	43.125
37.524	50.45833
41.769	44.79167
46.01	30.79167
50.247	43.125
54.481	53.45833
58.712	57.45833
62.939	45.79167
67.162	61.125
71.382	53.125
75.599	45.125
79.812	59.79167
84.021	73.45833
88.227	58.45833
92.429	56.45833
96.628	47.45833
100.823	68.45833
105.015	75.79167
109.204	61.45833
113.388	70.45833
117.57	74.125
121.748	79.45833
125.922	74.79167
130.093	91.125
134.261	97.125
138.425	90.79167
142.585	133.45833
146.742	116.79167
150.896	144.45833
155.046	168.45833
159.193	267.79167
163.336	445.125
167.476	821.45833
171.613	1489.79167
175.746	2506.79167
179.875	3742.79167
184.002	4850.45833
188.124	5678.45833
192.244	5951.79167
196.36	5888.125
200.472	5733.125
204.581	5593.45833
208.687	5405.125
212.79	5352.45833
216.889	5324.79167
220.984	5314.79167
225.077	5302.125
229.165	5270.79167
233.251	5280.125
237.333	5240.79167
241.412	5154.125
245.487	5124.125
249.559	5026.45833
253.628	5029.79167
257.694	4972.125
261.756	4950.79167
265.814	4842.45833
269.87	4732.125
273.922	4603.79167
277.97	4561.125
282.016	4564.79167
286.058	4629.79167
290.097	4767.45833
294.132	4818.125
298.164	4797.125
302.193	4534.125
306.219	4214.79167
310.241	3879.125
314.26	3582.45833
318.276	3321.125
322.288	3159.125
326.297	3006.125
330.303	2918.79167
334.305	2849.45833
338.305	2812.45833
342.301	2741.125
346.294	2741.79167
350.283	2730.79167
354.269	2697.79167
358.252	2666.45833
362.232	2648.79167
366.209	2630.125
370.182	2600.45833
374.152	2600.125
378.119	2593.45833
382.083	2590.125
386.043	2601.79167
390	2562.125
393.954	2595.79167
397.905	2581.45833
401.852	2558.79167
405.797	2533.79167
409.738	2512.79167
413.676	2526.45833
417.61	2528.79167
421.542	2495.125
425.47	2475.79167
429.396	2461.45833
433.318	2439.45833
437.236	2450.79167
441.152	2468.79167
445.065	2428.125
448.974	2404.125
452.88	2386.125
456.783	2370.125
460.683	2363.125
464.58	2346.79167
468.473	2350.45833
472.364	2393.45833
476.251	2375.125
480.135	2408.125
484.016	2439.79167
487.894	2450.45833
491.769	2459.79167
495.641	2470.125
499.509	2440.79167
503.375	2452.79167
507.237	2461.125
511.096	2484.45833
514.952	2586.45833
518.805	2724.45833
522.655	2788.45833
526.502	2600.45833
530.346	2502.79167
534.187	2458.45833
538.024	2464.125
541.859	2485.79167
545.69	2515.45833
549.519	2477.45833
553.344	2468.45833
557.166	2423.45833
560.985	2387.125
564.802	2363.79167
568.615	2330.45833
572.425	2275.45833
576.232	2277.125
580.036	2268.45833
583.836	2299.45833
587.634	2279.79167
591.429	2297.79167
595.221	2359.125
599.01	2358.45833
602.796	2376.79167
606.578	2393.125
610.358	2402.45833
614.135	2380.45833
617.909	2358.79167
621.679	2348.45833
625.447	2328.45833
629.212	2313.125
632.973	2333.79167
636.732	2340.125
640.488	2328.45833
644.241	2294.79167
647.991	2301.125
651.737	2318.79167
655.481	2251.45833
659.222	2281.45833
662.96	2255.45833
666.695	2299.79167
670.427	2310.125
674.156	2308.45833
677.882	2306.79167
681.605	2276.125
685.325	2272.45833
689.043	2289.45833
692.757	2278.79167
696.468	2259.125
700.177	2233.45833
703.882	2261.125
707.585	2243.125
711.284	2225.45833
714.981	2226.125
718.675	2253.79167
722.366	2263.45833
726.054	2210.125
729.739	2233.45833
733.421	2253.125
737.1	2261.45833
740.777	2285.125
744.45	2277.45833
748.121	2309.79167
751.789	2349.45833
755.453	2339.45833
759.115	2355.79167
762.774	2370.125
766.431	2368.45833
770.084	2394.45833
773.734	2414.125
777.382	2454.125
781.027	2463.45833
784.669	2471.79167
788.308	2491.45833
791.944	2517.79167
795.577	2528.45833
799.208	2544.45833
802.835	2559.45833
806.46	2551.79167
810.082	2567.125
813.701	2563.79167
817.317	2583.125
820.931	2597.125
824.542	2571.125
828.149	2557.45833
831.754	2539.45833
835.357	2534.79167
838.956	2564.45833
842.553	2576.125
846.146	2547.45833
849.737	2502.45833
853.326	2504.45833
856.911	2510.125
860.493	2542.125
864.073	2570.79167
867.65	2612.45833
871.225	2649.125
874.796	2639.125
878.365	2648.45833
881.931	2647.125
885.494	2676.45833
889.054	2669.79167
892.612	2702.45833
896.166	2653.125
899.719	2633.125
903.268	2588.79167
906.814	2571.45833
910.358	2555.45833
913.899	2530.45833
917.438	2529.125
920.973	2515.125
924.506	2536.125
928.036	2577.45833
931.564	2613.125
935.088	2662.79167
938.61	2700.125
942.129	2713.45833
945.646	2799.45833
949.16	2830.125
952.671	2840.125
956.179	2845.45833
959.685	2773.45833
963.188	2766.79167
966.688	2757.45833
970.185	2665.79167
973.68	2641.125
977.173	2589.45833
980.662	2552.125
984.149	2562.125
987.633	2519.125
991.114	2581.79167
994.593	2638.79167
998.069	2851.79167
1001.542	2784.79167
1005.013	2715.125
1008.481	2579.45833
1011.947	2538.125
1015.409	2516.125
1018.869	2524.79167
1022.327	2511.45833
1025.782	2501.79167
1029.234	2500.79167
1032.683	2457.45833
1036.13	2376.79167
1039.574	2282.45833
1043.016	2246.125
1046.455	2200.79167
1049.891	2201.125
1053.325	2196.45833
1056.756	2204.79167
1060.184	2229.125
1063.61	2228.125
1067.033	2256.45833
1070.454	2237.79167
1073.872	2282.125
1077.287	2273.79167
1080.7	2285.125
1084.11	2273.79167
1087.517	2239.79167
1090.922	2232.45833
1094.325	2202.125
1097.724	2166.45833
1101.122	2172.45833
1104.516	2174.79167
1107.908	2169.45833
1111.298	2220.79167
1114.684	2237.45833
1118.069	2262.79167
1121.45	2288.45833
1124.83	2292.79167
1128.206	2324.45833
1131.58	2378.125
1134.951	2419.125
1138.32	2515.125
1141.687	2574.45833
1145.05	2625.45833
1148.412	2626.125
1151.77	2598.125
1155.126	2600.79167
1158.48	2604.79167
1161.831	2585.125
1165.18	2586.45833
1168.525	2647.79167
1171.869	2667.45833
1175.21	2668.79167
1178.548	2689.125
1181.884	2732.45833
1185.217	2738.79167
1188.548	2803.79167
1191.877	2877.79167
1195.202	2968.125
1198.526	3026.79167
1201.846	3065.79167
1205.165	3017.79167
1208.48	3056.125
1211.794	3023.79167
1215.104	3037.45833
1218.413	3055.125
1221.719	3057.79167
1225.022	3009.79167
1228.323	2960.45833
1231.621	2926.125
1234.917	2928.125
1238.21	2921.45833
1241.501	2912.45833
1244.79	2889.125
1248.076	2895.125
1251.359	2946.45833
1254.64	2985.125
1257.919	3003.45833
1261.195	3020.79167
1264.468	3080.79167
1267.74	3108.79167
1271.008	3112.79167
1274.275	3100.125
1277.538	3070.45833
1280.8	3100.79167
1284.059	3093.125
1287.315	3130.45833
1290.569	3150.125
1293.821	3183.125
1297.07	3166.45833
1300.317	3183.79167
1303.562	3174.79167
1306.803	3175.79167
1310.043	3141.45833
1313.28	3100.125
1316.515	3086.79167
1319.747	3062.45833
1322.977	3034.125
1326.204	2985.125
1329.429	2922.125
1332.652	2914.79167
1335.872	2875.125
1339.09	2859.45833
1342.306	2847.45833
1345.519	2837.125
1348.729	2784.125
1351.938	2782.125
1355.144	2782.45833
1358.347	2748.45833
1361.548	2729.79167
1364.747	2709.125
1367.944	2680.79167
1371.138	2694.125
1374.329	2713.125
1377.518	2760.79167
1380.705	2738.79167
1383.89	2746.45833
1387.072	2646.79167
1390.252	2528.45833
1393.429	2457.79167
1396.605	2394.45833
1399.777	2326.125
1402.948	2290.45833
1406.116	2286.79167
1409.282	2280.79167
1412.445	2286.125
1415.606	2345.45833
1418.765	2355.45833
1421.921	2412.79167
1425.075	2474.45833
1428.227	2514.45833
1431.376	2635.79167
1434.524	2729.45833
1437.668	2783.45833
1440.811	2838.125
1443.951	2859.125
1447.089	2851.125
1450.224	2838.45833
1453.357	2848.125
1456.488	2789.45833
1459.617	2738.45833
1462.743	2689.79167
1465.867	2619.79167
1468.989	2583.125
1472.108	2539.125
1475.225	2491.45833
1478.34	2459.45833
1481.453	2466.125
1484.563	2440.125
1487.671	2514.45833
1490.776	2540.79167
1493.88	2570.125
1496.981	2602.125
1500.08	2651.45833
1503.176	2684.125
1506.271	2721.79167
1509.363	2726.45833
1512.452	2757.125
1515.54	2796.45833
1518.625	2826.45833
1521.708	2886.125
1524.789	2957.79167
1527.867	3050.79167
1530.944	3189.45833
1534.018	3339.125
1537.089	3484.125
1540.159	3511.79167
1543.226	3492.125
1546.291	3477.79167
1549.354	3393.125
1552.415	3339.45833
1555.473	3248.79167
1558.529	3199.79167
1561.583	3181.125
1564.634	3153.79167
1567.684	3154.125
1570.731	3155.45833
1573.776	3176.79167
1576.819	3204.79167
1579.859	3232.125
1582.898	3255.45833
1585.934	3300.125
1588.968	3313.79167
1591.999	3304.79167
1595.029	3324.125
1598.056	3369.125
1601.081	3398.45833
1604.104	3396.79167
1607.125	3383.79167
1610.144	3269.125
1613.16	3215.125
1616.174	3088.79167
1619.186	3034.79167
1622.196	2941.45833
1625.203	2857.125
1628.209	2808.125
1631.212	2767.45833
1634.213	2744.125
1637.212	2742.125
1640.209	2702.79167
1643.203	2625.79167
1646.196	2554.125
1649.186	2486.79167
1652.174	2425.45833
1655.16	2360.79167
1658.144	2279.125
1661.125	2194.45833
1664.105	2115.125
1667.082	2022.125
1670.057	1905.79167
1673.03	1791.79167
1676.001	1673.79167
1678.97	1593.45833
1681.937	1489.45833
1684.901	1407.45833
1687.863	1359.45833
1690.824	1310.125
1693.782	1285.79167
1696.738	1236.79167
1699.692	1217.79167
1702.643	1179.125
1705.593	1161.45833
1708.54	1155.125
1711.486	1147.45833
1714.429	1116.79167
1717.37	1116.79167
1720.309	1096.79167
1723.246	1103.125
1726.181	1065.45833
1729.113	1081.79167
1732.044	1057.125
1734.972	1048.45833
1737.899	1055.45833
1740.823	1049.79167
1743.745	1010.45833
1746.665	1025.125
1749.583	988.79167
1752.499	979.45833
1755.413	984.125
1758.325	960.79167
1761.235	952.79167
1764.142	944.125
1767.048	922.79167
1769.951	930.125
1772.852	934.125
1775.752	921.45833
1778.649	916.79167
1781.544	925.125
1784.437	892.45833
1787.328	904.125
1790.217	895.45833
1793.104	866.125
1795.989	868.79167
1798.872	878.45833
1801.753	889.125
1804.631	868.79167
1807.508	870.125
1810.383	877.79167
1813.255	852.45833
1816.126	863.79167
1818.994	860.45833
1821.861	855.79167
1824.725	855.125
1827.587	844.45833
1830.448	854.79167
1833.306	827.125
1836.162	839.79167
1839.017	845.125
1841.869	833.125
1844.719	830.79167
1847.567	806.45833
1850.414	812.125
1853.258	809.125
1856.1	832.125
1858.94	833.45833
1861.778	806.45833
1864.614	809.79167
1867.448	812.45833
1870.28	794.125
1873.111	823.45833
1875.939	813.125
1878.765	838.45833
1881.589	803.45833
1884.411	814.125
1887.231	813.125
1890.049	801.45833
1892.865	806.45833
1895.68	802.125
1898.492	796.125
1901.302	796.125
1904.11	798.45833
1906.916	791.45833
1909.721	774.79167
1912.523	786.45833
1915.323	761.45833
1918.122	773.79167
1920.918	792.45833
1923.712	775.125
1926.505	770.45833
1929.295	762.125
1932.084	774.45833
1934.87	758.45833
1937.655	769.125
1940.438	754.79167
1943.218	766.45833
1945.997	786.125
1948.774	780.125
1951.549	764.125
1954.322	766.79167
1957.093	758.125
1959.862	748.125
1962.629	750.45833
1965.394	750.79167
1968.157	744.79167
1970.918	745.45833
1973.678	740.125
1976.435	741.79167
1979.19	741.125
1981.944	729.125
1984.696	740.45833
1987.445	730.125
1990.193	740.45833
1992.939	735.45833
1995.683	723.125
1998.425	716.125
2001.165	740.79167
2003.903	725.45833
2006.639	714.79167
2009.374	737.125
2012.106	734.45833
2014.837	715.79167
2017.566	729.125
2020.292	718.125
2023.017	727.125
2025.74	730.45833
2028.461	710.45833
2031.18	721.45833
2033.898	711.79167
2036.613	718.79167
2039.327	725.79167
2042.038	704.79167
2044.748	703.45833
2047.456	713.79167
2050.162	703.79167
2052.866	704.125
2055.568	712.79167
2058.268	705.125
2060.967	711.79167
2063.663	693.125
2066.358	698.125
2069.051	695.45833
2071.742	695.79167
2074.431	709.45833
2077.118	698.45833
2079.804	687.45833
2082.487	709.45833
2085.169	711.125
2087.849	722.125
2090.527	703.125
2093.203	702.125
2095.877	715.125
2098.55	721.79167
2101.22	716.79167
2103.889	744.125
2106.556	736.45833
2109.221	763.125
2111.884	769.45833
2114.546	832.45833
2117.205	869.79167
2119.863	939.125
2122.519	967.125
2125.173	1004.79167
2127.825	1035.125
2130.475	1056.79167
2133.124	994.45833
2135.771	958.79167
2138.416	932.45833
2141.059	883.79167
2143.7	858.125
2146.339	808.125
2148.977	773.125
2151.613	765.45833
2154.247	757.125
2156.879	727.125
2159.51	709.45833
2162.138	718.45833
2164.765	701.125
2167.39	691.79167
2170.013	714.79167
2172.634	698.45833
2175.254	696.125
2177.872	733.45833
2180.488	682.79167
2183.102	698.79167
2185.714	677.45833
2188.325	663.79167
2190.934	672.79167
2193.541	692.79167
2196.146	676.125
2198.75	666.125
2201.351	668.79167
2203.951	654.45833
2206.549	676.125
2209.146	652.125
2211.74	666.125
2214.333	663.125
2216.924	637.79167
2219.514	655.125
2222.101	650.79167
2224.687	655.125
2227.271	653.125
2229.853	634.125
2232.433	634.125
2235.012	650.79167
2237.589	647.125
2240.164	657.79167
2242.738	642.125
2245.309	637.79167
2247.879	661.45833
2250.448	652.45833
2253.014	628.125
2255.579	623.125
2258.142	626.79167
2260.703	616.79167
2263.262	635.125
2265.82	623.125
2268.376	627.45833
2270.93	615.45833
2273.483	622.45833
2276.033	620.125
2278.583	618.45833
2281.13	620.45833
2283.675	612.79167
2286.219	611.45833
2288.761	623.45833
2291.302	628.45833
2293.841	641.79167
2296.377	616.125
2298.913	610.45833
2301.446	639.79167
2303.978	631.45833
2306.508	615.125
2309.037	617.79167
2311.563	630.45833
2314.088	618.125
2316.612	608.125
2319.133	631.125
2321.653	620.125
2324.171	615.125
2326.688	633.125
2329.202	611.45833
2331.715	617.79167
2334.227	616.79167
2336.736	614.45833
2339.244	608.45833
2341.751	603.125
2344.255	620.79167
2346.758	617.79167
2349.259	607.45833
2351.759	619.125
2354.257	623.79167
2356.753	605.125
2359.247	620.125
2361.74	616.79167
2364.231	620.45833
2366.721	629.125
2369.209	621.125
2371.695	615.125
2374.179	613.79167
2376.662	611.79167
2379.143	624.125
2381.622	619.79167
2384.1	631.45833
2386.576	628.79167
2389.051	626.79167
2391.524	634.79167
2393.995	633.125
2396.464	630.45833
2398.932	620.125
2401.398	625.125
2403.863	627.79167
2406.325	618.125
2408.787	633.125
2411.246	636.45833
2413.704	632.125
2416.16	627.79167
2418.615	629.79167
2421.068	651.125
2423.519	631.79167
2425.969	622.45833
2428.417	643.79167
2430.863	659.125
2433.308	647.79167
2435.751	644.79167
2438.193	633.79167
2440.633	651.45833
2443.071	644.79167
2445.508	643.45833
2447.943	641.45833
2450.376	638.45833
2452.808	635.45833
2455.238	634.79167
2457.667	676.45833
2460.093	647.125
2462.519	628.125
2464.942	644.125
2467.365	646.45833
2469.785	660.125
2472.204	649.45833
2474.621	641.125
2477.037	658.45833
2479.451	643.79167
2481.863	635.125
2484.274	653.45833
2486.683	651.125
2489.091	660.125
2491.497	660.79167
2493.901	651.45833
2496.304	647.79167
2498.705	669.79167
2501.105	662.79167
2503.503	682.45833
2505.899	650.125
2508.294	683.125
2510.687	654.79167
2513.079	661.79167
2515.469	658.125
2517.858	664.45833
2520.245	678.125
2522.63	663.125
2525.014	663.79167
2527.396	663.45833
2529.776	652.125
2532.156	674.125
2534.533	656.125
2536.909	661.45833
2539.283	655.45833
2541.656	665.45833
2544.027	701.125
2546.397	672.79167
2548.765	670.79167
2551.131	686.79167
2553.496	665.79167
2555.86	691.79167
2558.221	673.125
2560.582	685.79167
2562.94	662.45833
2565.298	679.45833
2567.653	701.45833
2570.007	678.79167
2572.36	699.45833
2574.711	685.45833
2577.06	719.79167
2579.408	703.125
2581.754	693.125
2584.099	707.45833
2586.442	700.45833
2588.784	706.79167
2591.124	711.79167
2593.463	711.79167
2595.8	711.79167
2598.135	696.79167
2600.469	701.79167
2602.802	718.45833
2605.133	722.125
2607.462	700.79167
2609.79	708.45833
2612.116	719.125
2614.441	718.125
2616.764	725.79167
2619.086	724.125
2621.406	716.125
2623.725	749.125
2626.042	734.45833
2628.358	724.125
2630.672	726.125
2632.985	747.45833
2635.296	742.125
2637.606	741.45833
2639.914	730.45833
2642.22	745.125
2644.525	746.125
2646.829	757.125
2649.131	767.45833
2651.432	766.79167
2653.731	770.79167
2656.028	777.125
2658.324	779.45833
2660.619	766.79167
2662.912	789.125
2665.204	772.79167
2667.494	789.79167
2669.782	770.79167
2672.07	781.45833
2674.355	785.79167
2676.639	773.45833
2678.922	773.125
2681.203	791.79167
2683.483	770.45833
2685.761	786.79167
2688.038	793.45833
2690.313	812.45833
2692.587	796.79167
2694.859	801.79167
2697.13	801.125
2699.399	816.79167
2701.667	820.45833
2703.933	821.125
2706.198	815.45833
2708.461	836.79167
2710.723	832.79167
2712.984	824.45833
2715.243	838.45833
2717.5	835.79167
2719.757	859.45833
2722.011	840.125
2724.264	862.79167
2726.516	870.125
2728.766	853.45833
2731.015	873.125
2733.262	874.45833
2735.508	865.45833
2737.753	872.45833
2739.996	858.125
2742.237	856.45833
2744.477	870.125
2746.716	872.125
2748.953	859.79167
2751.189	876.45833
2753.423	859.45833
2755.656	846.79167
2757.887	844.125
2760.117	861.125
2762.346	846.45833
2764.573	838.125
2766.798	857.79167
2769.022	855.125
2771.245	863.125
2773.467	861.79167
2775.686	874.125
2777.905	875.79167
2780.122	883.45833
2782.337	891.79167
2784.552	876.45833
2786.764	894.79167
2788.976	897.45833
2791.186	893.45833
2793.394	909.125
2795.601	913.79167
2797.807	936.45833
2800.011	935.45833
2802.214	942.125
2804.415	941.45833
2806.615	951.125
2808.814	958.45833
2811.011	952.45833
2813.206	957.45833
2815.401	968.79167
2817.594	977.79167
2819.785	989.79167
2821.975	970.79167
2824.164	983.79167
2826.351	1005.79167
2828.537	1017.125
2830.722	1027.125
2832.905	1028.125
2835.086	1065.79167
2837.267	1087.79167
2839.445	1097.45833
2841.623	1111.45833
2843.799	1124.125
2845.974	1157.125
2848.147	1183.45833
2850.319	1215.125
2852.489	1234.79167
2854.659	1245.45833
2856.826	1253.125
2858.993	1289.125
2861.158	1258.45833
2863.321	1283.45833
2865.483	1290.45833
2867.644	1300.45833
2869.804	1266.45833
2871.962	1270.79167
2874.118	1263.45833
2876.274	1276.125
2878.428	1255.45833
2880.58	1260.45833
2882.731	1253.125
2884.881	1252.45833
2887.03	1265.45833
2889.177	1270.125
2891.322	1284.45833
2893.467	1260.79167
2895.61	1272.79167
2897.751	1292.79167
2899.892	1268.79167
2902.03	1297.45833
2904.168	1297.125
2906.304	1307.125
2908.439	1328.45833
2910.572	1326.79167
2912.704	1325.79167
2914.835	1322.45833
2916.965	1335.125
2919.093	1344.45833
2921.219	1321.45833
2923.345	1335.79167
2925.469	1312.125
2927.591	1303.45833
2929.712	1276.125
2931.832	1272.45833
2933.951	1250.45833
2936.068	1241.79167
2938.184	1221.125
2940.299	1208.125
2942.412	1199.45833
2944.524	1166.45833
2946.634	1176.45833
2948.744	1136.45833
2950.851	1149.125
2952.958	1125.79167
2955.063	1107.79167
2957.167	1120.45833
2959.269	1088.125
2961.371	1116.79167
2963.471	1078.45833
2965.569	1079.79167
2967.666	1061.125
2969.762	1047.125
2971.857	1046.79167
2973.95	1044.45833
2976.042	1029.125
2978.133	1016.45833
2980.222	996.79167
2982.31	969.125
2984.396	958.125
2986.482	967.45833
2988.566	951.45833
2990.648	953.45833
2992.73	947.125
2994.81	945.79167
2996.889	948.125
2998.966	954.45833
3001.042	964.45833
3003.117	959.45833
3005.191	954.79167
3007.263	945.125
3009.334	929.79167
3011.403	933.125
3013.472	916.125
3015.539	921.79167
3017.604	918.125
3019.669	877.45833
3021.732	875.125
3023.794	897.79167
3025.854	886.79167
3027.914	872.79167
3029.971	897.125
3032.028	878.79167
3034.083	873.125
3036.137	882.125
3038.19	836.45833
3040.242	812.45833
3042.292	809.125
3044.341	797.125
3046.388	811.79167
3048.435	773.79167
3050.48	800.45833
3052.524	789.45833
3054.566	760.45833
3056.607	780.79167
3058.647	769.125
3060.686	739.125
3062.723	728.79167
3064.759	693.45833
3066.794	-1.20833
3068.828	1.125
3070.86	2.79167
