-0.839	615.54167
3.438	733.54167
7.711	212.54167
11.981	65.54167
16.247	45.20833
20.509	54.20833
24.768	44.875
29.024	54.875
33.276	46.875
37.524	50.875
41.769	48.20833
46.01	34.54167
50.247	48.54167
54.481	60.20833
58.712	63.20833
62.939	48.875
67.162	66.875
71.382	58.20833
75.599	46.875
79.812	63.54167
84.021	80.54167
88.227	60.875
92.429	59.54167
96.628	52.54167
100.823	71.54167
105.015	76.875
109.204	68.54167
113.388	72.875
117.57	75.875
121.748	88.20833
125.922	81.875
130.093	99.875
134.261	100.20833
138.425	100.20833
142.585	143.20833
146.742	135.54167
150.896	168.54167
155.046	203.20833
159.193	317.20833
163.336	538.20833
167.476	992.54167
171.613	1827.875
175.746	3031.20833
179.875	4505.54167
184.002	5880.20833
188.124	6860.54167
192.244	7186.54167
196.36	7070.20833
200.472	6895.54167
204.581	6685.875
208.687	6502.54167
212.79	6403.20833
216.889	6364.20833
220.984	6364.875
225.077	6368.20833
229.165	6349.54167
233.251	6334.20833
237.333	6309.20833
241.412	6267.875
245.487	6161.20833
249.559	6113.54167
253.628	6047.20833
257.694	6034.54167
261.756	5958.54167
265.814	5802.20833
269.87	5654.875
273.922	5452.54167
277.97	5317.20833
282.016	5284.875
286.058	5299.54167
290.097	5374.54167
294.132	5479.875
298.164	5387.875
302.193	5152.875
306.219	4776.20833
310.241	4414.875
314.26	4036.54167
318.276	3755.20833
322.288	3558.20833
326.297	3408.875
330.303	3296.54167
334.305	3201.875
338.305	3140.20833
342.301	3085.54167
346.294	3063.54167
350.283	3030.54167
354.269	3016.54167
358.252	2999.20833
362.232	2961.875
366.209	2928.20833
370.182	2896.54167
374.152	2881.54167
378.119	2896.54167
382.083	2886.20833
386.043	2888.20833
390	2839.54167
393.954	2863.875
397.905	2852.20833
401.852	2844.54167
405.797	2802.20833
409.738	2788.54167
413.676	2780.875
417.61	2783.54167
421.542	2736.54167
425.47	2720.20833
429.396	2678.20833
433.318	2667.875
437.236	2686.20833
441.152	2693.875
445.065	2629.54167
448.974	2595.54167
452.88	2617.875
456.783	2577.20833
460.683	2551.54167
464.58	2559.875
468.473	2563.20833
472.364	2589.20833
476.251	2553.875
480.135	2592.54167
484.016	2607.20833
487.894	2640.875
491.769	2656.875
495.641	2666.875
499.509	2640.875
503.375	2643.20833
507.237	2630.875
511.096	2620.875
514.952	2632.875
518.805	2664.20833
522.655	2679.54167
526.502	2668.20833
530.346	2636.20833
534.187	2642.20833
538.024	2656.54167
541.859	2671.54167
545.69	2720.54167
549.519	2685.20833
553.344	2692.54167
557.166	2640.20833
560.985	2617.875
564.802	2518.54167
568.615	2476.54167
572.425	2463.20833
576.232	2471.875
580.036	2448.875
583.836	2437.875
587.634	2474.875
591.429	2456.54167
595.221	2549.875
599.01	2574.875
602.796	2601.20833
606.578	2620.20833
610.358	2579.875
614.135	2559.875
617.909	2569.20833
621.679	2545.875
625.447	2524.54167
629.212	2533.20833
632.973	2547.875
636.732	2522.20833
640.488	2526.20833
644.241	2515.54167
647.991	2483.875
651.737	2513.20833
655.481	2471.54167
659.222	2472.54167
662.96	2471.875
666.695	2495.20833
670.427	2499.20833
674.156	2522.20833
677.882	2502.54167
681.605	2498.20833
685.325	2485.875
689.043	2498.20833
692.757	2453.20833
696.468	2489.875
700.177	2462.875
703.882	2439.20833
707.585	2421.20833
711.284	2410.20833
714.981	2414.875
718.675	2424.875
722.366	2445.875
726.054	2416.54167
729.739	2402.54167
733.421	2434.20833
737.1	2413.20833
740.777	2441.875
744.45	2457.875
748.121	2461.54167
751.789	2521.20833
755.453	2502.54167
759.115	2528.54167
762.774	2554.54167
766.431	2585.20833
770.084	2600.20833
773.734	2628.875
777.382	2683.54167
781.027	2699.54167
784.669	2729.875
788.308	2739.875
791.944	2747.20833
795.577	2745.54167
799.208	2762.20833
802.835	2767.20833
806.46	2768.54167
810.082	2787.875
813.701	2804.20833
817.317	2843.54167
820.931	2829.875
824.542	2833.54167
828.149	2807.54167
831.754	2787.54167
835.357	2802.20833
838.956	2801.20833
842.553	2797.54167
846.146	2784.875
849.737	2764.54167
853.326	2798.54167
856.911	2814.20833
860.493	2856.54167
864.073	2894.875
867.65	2902.875
871.225	2906.54167
874.796	2943.54167
878.365	2957.54167
881.931	2954.54167
885.494	2986.54167
889.054	2998.54167
892.612	3005.875
896.166	2993.54167
899.719	2960.875
903.268	2892.54167
906.814	2883.54167
910.358	2879.875
913.899	2848.20833
917.438	2858.20833
920.973	2829.54167
924.506	2862.54167
928.036	2907.20833
931.564	2954.54167
935.088	2976.54167
938.61	3029.20833
942.129	3056.875
945.646	3109.54167
949.16	3169.875
952.671	3228.20833
956.179	3198.875
959.685	3132.54167
963.188	3132.54167
966.688	3049.54167
970.185	2981.54167
973.68	2928.20833
977.173	2872.54167
980.662	2842.54167
984.149	2814.20833
987.633	2804.875
991.114	2884.54167
994.593	2918.54167
998.069	2999.54167
1001.542	3093.875
1005.013	3032.54167
1008.481	2900.875
1011.947	2863.54167
1015.409	2844.20833
1018.869	2829.875
1022.327	2810.54167
1025.782	2808.875
1029.234	2775.875
1032.683	2731.20833
1036.13	2635.54167
1039.574	2552.20833
1043.016	2486.20833
1046.455	2449.875
1049.891	2414.20833
1053.325	2432.54167
1056.756	2420.875
1060.184	2472.875
1063.61	2448.875
1067.033	2474.20833
1070.454	2477.875
1073.872	2517.875
1077.287	2492.20833
1080.7	2474.875
1084.11	2482.875
1087.517	2457.875
1090.922	2422.54167
1094.325	2441.54167
1097.724	2408.20833
1101.122	2419.20833
1104.516	2424.20833
1107.908	2426.20833
1111.298	2465.20833
1114.684	2507.875
1118.069	2540.875
1121.45	2592.20833
1124.83	2584.20833
1128.206	2630.54167
1131.58	2676.54167
1134.951	2736.875
1138.32	2833.20833
1141.687	2948.54167
1145.05	3019.54167
1148.412	3039.20833
1151.77	3060.54167
1155.126	3031.54167
1158.48	3052.54167
1161.831	3051.20833
1165.18	3073.54167
1168.525	3134.20833
1171.869	3158.875
1175.21	3161.875
1178.548	3212.54167
1181.884	3192.875
1185.217	3243.54167
1188.548	3297.54167
1191.877	3361.875
1195.202	3436.875
1198.526	3499.875
1201.846	3518.875
1205.165	3512.20833
1208.48	3471.20833
1211.794	3431.20833
1215.104	3422.54167
1218.413	3418.54167
1221.719	3402.20833
1225.022	3395.20833
1228.323	3311.20833
1231.621	3284.875
1234.917	3270.54167
1238.21	3295.875
1241.501	3281.875
1244.79	3267.20833
1248.076	3272.20833
1251.359	3311.875
1254.64	3369.875
1257.919	3404.875
1261.195	3444.20833
1264.468	3495.20833
1267.74	3560.875
1271.008	3585.54167
1274.275	3542.54167
1277.538	3525.20833
1280.8	3537.875
1284.059	3499.875
1287.315	3561.875
1290.569	3559.20833
1293.821	3588.20833
1297.07	3610.54167
1300.317	3609.54167
1303.562	3616.20833
1306.803	3588.20833
1310.043	3564.54167
1313.28	3537.20833
1316.515	3515.20833
1319.747	3452.20833
1322.977	3435.54167
1326.204	3357.875
1329.429	3339.20833
1332.652	3288.875
1335.872	3247.54167
1339.09	3222.875
1342.306	3215.54167
1345.519	3151.875
1348.729	3109.54167
1351.938	3102.54167
1355.144	3071.54167
1358.347	3018.875
1361.548	3006.54167
1364.747	3020.54167
1367.944	2993.875
1371.138	3029.54167
1374.329	3026.20833
1377.518	3083.875
1380.705	3100.875
1383.89	3082.54167
1387.072	2986.875
1390.252	2874.54167
1393.429	2769.54167
1396.605	2672.54167
1399.777	2594.20833
1402.948	2580.54167
1406.116	2550.20833
1409.282	2533.54167
1412.445	2524.54167
1415.606	2574.54167
1418.765	2595.20833
1421.921	2664.875
1425.075	2714.875
1428.227	2800.20833
1431.376	2925.20833
1434.524	3035.20833
1437.668	3093.54167
1440.811	3148.20833
1443.951	3170.54167
1447.089	3190.54167
1450.224	3168.20833
1453.357	3184.54167
1456.488	3146.20833
1459.617	3088.20833
1462.743	3066.54167
1465.867	2980.54167
1468.989	2960.54167
1472.108	2922.875
1475.225	2867.20833
1478.34	2874.875
1481.453	2860.20833
1484.563	2863.20833
1487.671	2919.20833
1490.776	2960.875
1493.88	3043.875
1496.981	3073.875
1500.08	3151.54167
1503.176	3172.875
1506.271	3222.875
1509.363	3255.875
1512.452	3289.54167
1515.54	3341.20833
1518.625	3392.875
1521.708	3459.54167
1524.789	3564.875
1527.867	3673.20833
1530.944	3853.54167
1534.018	4017.20833
1537.089	4194.875
1540.159	4213.20833
1543.226	4200.54167
1546.291	4132.875
1549.354	4084.20833
1552.415	3977.54167
1555.473	3904.54167
1558.529	3845.54167
1561.583	3832.54167
1564.634	3809.20833
1567.684	3797.20833
1570.731	3838.54167
1573.776	3859.875
1576.819	3905.54167
1579.859	3965.54167
1582.898	4014.54167
1585.934	4064.54167
1588.968	4045.20833
1591.999	4040.54167
1595.029	4056.20833
1598.056	4063.20833
1601.081	4077.54167
1604.104	4030.20833
1607.125	3990.54167
1610.144	3907.54167
1613.16	3779.54167
1616.174	3716.875
1619.186	3605.875
1622.196	3503.875
1625.203	3378.54167
1628.209	3311.54167
1631.212	3277.875
1634.213	3194.20833
1637.212	3148.875
1640.209	3085.20833
1643.203	2987.875
1646.196	2890.875
1649.186	2781.20833
1652.174	2686.54167
1655.16	2581.20833
1658.144	2478.875
1661.125	2381.20833
1664.105	2302.875
1667.082	2175.875
1670.057	2080.20833
1673.03	1961.54167
1676.001	1846.20833
1678.97	1730.20833
1681.937	1645.20833
1684.901	1532.875
1687.863	1498.54167
1690.824	1408.20833
1693.782	1390.20833
1696.738	1326.20833
1699.692	1318.20833
1702.643	1261.20833
1705.593	1253.20833
1708.54	1233.54167
1711.486	1230.875
1714.429	1187.20833
1717.37	1189.875
1720.309	1170.54167
1723.246	1151.20833
1726.181	1141.54167
1729.113	1133.875
1732.044	1123.20833
1734.972	1115.54167
1737.899	1106.20833
1740.823	1106.54167
1743.745	1050.875
1746.665	1071.54167
1749.583	1041.54167
1752.499	1015.875
1755.413	1012.875
1758.325	983.20833
1761.235	969.875
1764.142	954.875
1767.048	940.875
1769.951	942.20833
1772.852	943.20833
1775.752	927.875
1778.649	934.20833
1781.544	945.54167
1784.437	905.54167
1787.328	919.875
1790.217	899.20833
1793.104	875.54167
1795.989	878.20833
1798.872	869.875
1801.753	878.20833
1804.631	889.54167
1807.508	892.875
1810.383	871.54167
1813.255	872.20833
1816.126	882.54167
1818.994	873.875
1821.861	863.54167
1824.725	853.54167
1827.587	858.875
1830.448	842.54167
1833.306	830.875
1836.162	829.54167
1839.017	826.20833
1841.869	829.875
1844.719	811.20833
1847.567	804.875
1850.414	782.20833
1853.258	799.20833
1856.1	813.20833
1858.94	815.20833
1861.778	801.54167
1864.614	789.875
1867.448	796.54167
1870.28	769.875
1873.111	814.20833
1875.939	792.20833
1878.765	797.54167
1881.589	791.20833
1884.411	781.54167
1887.231	797.20833
1890.049	784.875
1892.865	790.54167
1895.68	770.20833
1898.492	783.54167
1901.302	774.875
1904.11	775.20833
1906.916	756.875
1909.721	753.54167
1912.523	767.20833
1915.323	742.54167
1918.122	745.20833
1920.918	762.875
1923.712	743.20833
1926.505	736.20833
1929.295	726.875
1932.084	735.20833
1934.87	739.54167
1937.655	734.875
1940.438	736.54167
1943.218	733.20833
1945.997	744.875
1948.774	747.54167
1951.549	735.20833
1954.322	730.875
1957.093	710.875
1959.862	714.875
1962.629	719.875
1965.394	712.54167
1968.157	711.54167
1970.918	710.875
1973.678	699.54167
1976.435	715.54167
1979.19	705.54167
1981.944	699.20833
1984.696	694.20833
1987.445	677.875
1990.193	682.54167
1992.939	702.875
1995.683	688.54167
1998.425	669.875
2001.165	700.54167
2003.903	690.54167
2006.639	681.20833
2009.374	690.875
2012.106	683.54167
2014.837	662.875
2017.566	676.20833
2020.292	682.875
2023.017	665.20833
2025.74	672.54167
2028.461	655.20833
2031.18	675.54167
2033.898	656.875
2036.613	670.875
2039.327	661.54167
2042.038	645.54167
2044.748	643.875
2047.456	653.54167
2050.162	634.875
2052.866	653.875
2055.568	653.54167
2058.268	628.20833
2060.967	649.875
2063.663	630.20833
2066.358	623.875
2069.051	627.875
2071.742	630.20833
2074.431	640.54167
2077.118	630.20833
2079.804	632.20833
2082.487	638.54167
2085.169	640.875
2087.849	660.20833
2090.527	631.54167
2093.203	641.20833
2095.877	653.54167
2098.55	643.875
2101.22	650.875
2103.889	653.20833
2106.556	656.54167
2109.221	681.54167
2111.884	687.875
2114.546	745.20833
2117.205	785.54167
2119.863	848.20833
2122.519	900.54167
2125.173	964.54167
2127.825	1019.20833
2130.475	1038.54167
2133.124	992.20833
2135.771	947.54167
2138.416	925.54167
2141.059	851.20833
2143.7	798.54167
2146.339	751.875
2148.977	714.875
2151.613	702.875
2154.247	677.20833
2156.879	656.20833
2159.51	645.54167
2162.138	627.875
2164.765	630.20833
2167.39	620.875
2170.013	632.54167
2172.634	620.20833
2175.254	607.875
2177.872	641.875
2180.488	600.875
2183.102	605.875
2185.714	596.20833
2188.325	566.875
2190.934	573.20833
2193.541	590.54167
2196.146	570.54167
2198.75	557.875
2201.351	566.875
2203.951	556.54167
2206.549	575.20833
2209.146	555.54167
2211.74	544.20833
2214.333	554.54167
2216.924	536.875
2219.514	539.20833
2222.101	540.54167
2224.687	554.875
2227.271	530.875
2229.853	525.54167
2232.433	508.54167
2235.012	543.54167
2237.589	528.875
2240.164	544.20833
2242.738	523.875
2245.309	514.20833
2247.879	520.875
2250.448	525.20833
2253.014	490.54167
2255.579	489.875
2258.142	497.875
2260.703	479.20833
2263.262	487.20833
2265.82	476.875
2268.376	483.875
2270.93	474.20833
2273.483	471.20833
2276.033	478.20833
2278.583	477.20833
2281.13	468.20833
2283.675	458.54167
2286.219	465.54167
2288.761	465.54167
2291.302	469.875
2293.841	469.54167
2296.377	451.875
2298.913	466.875
2301.446	477.54167
2303.978	460.20833
2306.508	446.54167
2309.037	462.875
2311.563	448.875
2314.088	465.20833
2316.612	433.20833
2319.133	445.875
2321.653	454.875
2324.171	438.875
2326.688	458.875
2329.202	440.875
2331.715	449.54167
2334.227	441.54167
2336.736	442.20833
2339.244	436.20833
2341.751	426.54167
2344.255	437.54167
2346.758	430.20833
2349.259	414.54167
2351.759	430.20833
2354.257	429.875
2356.753	415.20833
2359.247	422.875
2361.74	433.54167
2364.231	425.875
2366.721	429.54167
2369.209	421.54167
2371.695	431.875
2374.179	420.20833
2376.662	403.20833
2379.143	427.54167
2381.622	406.20833
2384.1	422.20833
2386.576	413.20833
2389.051	432.20833
2391.524	433.54167
2393.995	419.875
2396.464	403.20833
2398.932	410.54167
2401.398	405.54167
2403.863	409.54167
2406.325	391.20833
2408.787	401.20833
2411.246	403.875
2413.704	391.54167
2416.16	406.54167
2418.615	401.20833
2421.068	401.875
2423.519	410.20833
2425.969	389.20833
2428.417	400.54167
2430.863	421.875
2433.308	406.875
2435.751	395.20833
2438.193	395.54167
2440.633	399.20833
2443.071	402.54167
2445.508	387.54167
2447.943	382.54167
2450.376	386.875
2452.808	388.54167
2455.238	382.54167
2457.667	418.54167
2460.093	380.54167
2462.519	385.20833
2464.942	384.875
2467.365	389.20833
2469.785	391.54167
2472.204	381.20833
2474.621	359.875
2477.037	395.54167
2479.451	357.54167
2481.863	362.54167
2484.274	367.54167
2486.683	379.54167
2489.091	389.875
2491.497	368.54167
2493.901	379.20833
2496.304	373.54167
2498.705	378.54167
2501.105	371.20833
2503.503	401.20833
2505.899	355.20833
2508.294	380.875
2510.687	362.20833
2513.079	373.20833
2515.469	360.54167
2517.858	367.54167
2520.245	375.875
2522.63	361.20833
2525.014	353.54167
2527.396	349.54167
2529.776	347.54167
2532.156	376.875
2534.533	349.20833
2536.909	347.20833
2539.283	346.875
2541.656	350.875
2544.027	368.54167
2546.397	348.54167
2548.765	349.20833
2551.131	353.20833
2553.496	352.20833
2555.86	354.875
2558.221	344.875
2560.582	355.20833
2562.94	340.20833
2565.298	351.20833
2567.653	366.54167
2570.007	337.20833
2572.36	351.20833
2574.711	342.20833
2577.06	358.20833
2579.408	356.54167
2581.754	343.875
2584.099	346.20833
2586.442	346.20833
2588.784	349.875
2591.124	337.875
2593.463	346.20833
2595.8	347.20833
2598.135	340.875
2600.469	339.54167
2602.802	349.54167
2605.133	351.54167
2607.462	329.875
2609.79	330.54167
2612.116	339.875
2614.441	345.875
2616.764	339.54167
2619.086	340.875
2621.406	334.20833
2623.725	348.54167
2626.042	343.20833
2628.358	338.20833
2630.672	333.54167
2632.985	352.875
2635.296	342.54167
2637.606	339.54167
2639.914	337.54167
2642.22	334.54167
2644.525	334.54167
2646.829	336.54167
2649.131	352.54167
2651.432	347.20833
2653.731	340.875
2656.028	352.875
2658.324	349.875
2660.619	337.20833
2662.912	351.20833
2665.204	337.20833
2667.494	346.875
2669.782	343.54167
2672.07	351.20833
2674.355	353.54167
2676.639	351.54167
2678.922	330.20833
2681.203	342.54167
2683.483	333.54167
2685.761	335.875
2688.038	336.54167
2690.313	355.875
2692.587	343.54167
2694.859	330.875
2697.13	358.20833
2699.399	351.20833
2701.667	366.875
2703.933	357.20833
2706.198	363.875
2708.461	365.20833
2710.723	366.20833
2712.984	362.20833
2715.243	370.54167
2717.5	364.875
2719.757	368.54167
2722.011	369.54167
2724.264	375.54167
2726.516	388.875
2728.766	364.54167
2731.015	373.875
2733.262	372.875
2735.508	373.20833
2737.753	376.20833
2739.996	356.54167
2742.237	353.54167
2744.477	371.54167
2746.716	367.875
2748.953	357.20833
2751.189	361.875
2753.423	358.20833
2755.656	342.54167
2757.887	343.875
2760.117	350.875
2762.346	341.875
2764.573	332.875
2766.798	344.20833
2769.022	343.875
2771.245	347.54167
2773.467	342.875
2775.686	354.54167
2777.905	355.20833
2780.122	356.875
2782.337	367.20833
2784.552	360.54167
2786.764	359.54167
2788.976	363.20833
2791.186	369.54167
2793.394	366.875
2795.601	368.54167
2797.807	388.875
2800.011	393.54167
2802.214	387.875
2804.415	391.875
2806.615	387.20833
2808.814	399.20833
2811.011	411.20833
2813.206	398.54167
2815.401	427.875
2817.594	428.875
2819.785	443.54167
2821.975	431.875
2824.164	433.20833
2826.351	440.875
2828.537	463.54167
2830.722	466.54167
2832.905	471.20833
2835.086	501.20833
2837.267	527.875
2839.445	546.875
2841.623	557.20833
2843.799	575.54167
2845.974	624.20833
2848.147	636.54167
2850.319	671.875
2852.489	683.875
2854.659	695.54167
2856.826	706.875
2858.993	747.20833
2861.158	710.54167
2863.321	727.20833
2865.483	731.875
2867.644	747.20833
2869.804	732.54167
2871.962	723.875
2874.118	726.20833
2876.274	735.20833
2878.428	732.20833
2880.58	731.20833
2882.731	719.54167
2884.881	732.875
2887.03	735.20833
2889.177	726.875
2891.322	730.875
2893.467	741.875
2895.61	729.54167
2897.751	755.875
2899.892	748.875
2902.03	757.54167
2904.168	777.20833
2906.304	769.54167
2908.439	785.54167
2910.572	780.54167
2912.704	780.20833
2914.835	789.875
2916.965	774.54167
2919.093	786.875
2921.219	769.20833
2923.345	795.54167
2925.469	765.20833
2927.591	771.20833
2929.712	725.875
2931.832	726.20833
2933.951	707.20833
2936.068	708.20833
2938.184	680.54167
2940.299	663.54167
2942.412	647.875
2944.524	613.875
2946.634	611.20833
2948.744	559.20833
2950.851	579.875
2952.958	545.875
2955.063	539.875
2957.167	539.54167
2959.269	494.54167
2961.371	530.54167
2963.471	481.54167
2965.569	491.875
2967.666	461.20833
2969.762	452.875
2971.857	447.54167
2973.95	416.875
2976.042	427.54167
2978.133	415.875
2980.222	401.875
2982.31	388.875
2984.396	374.875
2986.482	375.54167
2988.566	370.20833
2990.648	360.20833
2992.73	359.875
2994.81	343.54167
2996.889	341.20833
2998.966	347.54167
3001.042	344.875
3003.117	346.20833
3005.191	336.20833
3007.263	335.875
3009.334	329.20833
3011.403	328.875
3013.472	321.20833
3015.539	324.875
3017.604	329.20833
3019.669	291.875
3021.732	304.875
3023.794	299.20833
3025.854	289.875
3027.914	292.875
3029.971	300.875
3032.028	294.54167
3034.083	293.875
3036.137	289.20833
3038.19	273.54167
3040.242	266.54167
3042.292	260.20833
3044.341	263.54167
3046.388	277.20833
3048.435	258.875
3050.48	268.54167
3052.524	263.875
3054.566	248.875
3056.607	258.54167
3058.647	244.875
3060.686	233.20833
3062.723	237.54167
3064.759	218.20833
3066.794	-0.79167
3068.828	1.20833
3070.86	1.875
