-0.839	625.20833
3.438	727.54167
7.711	205.54167
11.981	63.54167
16.247	46.875
20.509	52.875
24.768	48.20833
29.024	55.54167
33.276	43.875
37.524	49.54167
41.769	45.875
46.01	33.20833
50.247	47.875
54.481	55.20833
58.712	55.20833
62.939	50.20833
67.162	59.20833
71.382	59.875
75.599	45.54167
79.812	63.875
84.021	77.875
88.227	61.54167
92.429	60.875
96.628	45.20833
100.823	72.54167
105.015	73.54167
109.204	66.875
113.388	70.875
117.57	75.875
121.748	85.875
125.922	74.875
130.093	95.875
134.261	98.20833
138.425	94.54167
142.585	132.875
146.742	127.20833
150.896	159.20833
155.046	199.54167
159.193	305.875
163.336	513.875
167.476	955.20833
171.613	1755.20833
175.746	2910.54167
179.875	4296.54167
184.002	5592.875
188.124	6502.20833
192.244	6808.20833
196.36	6725.54167
200.472	6506.875
204.581	6263.20833
208.687	6094.20833
212.79	5970.54167
216.889	5930.54167
220.984	5884.875
225.077	5857.54167
229.165	5857.54167
233.251	5842.20833
237.333	5734.875
241.412	5695.54167
245.487	5601.875
249.559	5542.875
253.628	5500.20833
257.694	5427.20833
261.756	5387.20833
265.814	5286.54167
269.87	5079.54167
273.922	4932.54167
277.97	4847.20833
282.016	4828.20833
286.058	4805.875
290.097	4902.875
294.132	4935.875
298.164	4888.54167
302.193	4673.54167
306.219	4341.875
310.241	4032.875
314.26	3714.54167
318.276	3458.875
322.288	3315.20833
326.297	3149.54167
330.303	3044.54167
334.305	2974.20833
338.305	2921.875
342.301	2858.875
346.294	2836.20833
350.283	2812.20833
354.269	2780.20833
358.252	2760.875
362.232	2763.875
366.209	2739.54167
370.182	2697.54167
374.152	2682.54167
378.119	2680.20833
382.083	2700.875
386.043	2707.875
390	2639.54167
393.954	2655.20833
397.905	2659.54167
401.852	2644.875
405.797	2597.875
409.738	2595.20833
413.676	2595.875
417.61	2586.20833
421.542	2562.54167
425.47	2530.54167
429.396	2483.20833
433.318	2507.20833
437.236	2524.20833
441.152	2535.20833
445.065	2467.20833
448.974	2463.54167
452.88	2443.54167
456.783	2428.20833
460.683	2405.54167
464.58	2396.20833
468.473	2395.875
472.364	2402.875
476.251	2391.20833
480.135	2416.875
484.016	2445.875
487.894	2470.20833
491.769	2470.20833
495.641	2497.20833
499.509	2483.875
503.375	2500.875
507.237	2492.54167
511.096	2514.875
514.952	2591.54167
518.805	2661.54167
522.655	2704.20833
526.502	2576.54167
530.346	2489.20833
534.187	2470.875
538.024	2494.20833
541.859	2514.875
545.69	2530.54167
549.519	2517.875
553.344	2504.875
557.166	2451.20833
560.985	2445.875
564.802	2378.20833
568.615	2324.875
572.425	2313.54167
576.232	2288.54167
580.036	2295.54167
583.836	2283.20833
587.634	2309.54167
591.429	2311.875
595.221	2389.54167
599.01	2383.20833
602.796	2426.875
606.578	2432.54167
610.358	2418.20833
614.135	2408.875
617.909	2396.20833
621.679	2378.875
625.447	2357.875
629.212	2343.54167
632.973	2352.54167
636.732	2351.54167
640.488	2371.875
644.241	2339.20833
647.991	2339.20833
651.737	2329.20833
655.481	2292.875
659.222	2322.54167
662.96	2304.875
666.695	2331.54167
670.427	2338.20833
674.156	2336.875
677.882	2345.875
681.605	2341.54167
685.325	2303.20833
689.043	2298.20833
692.757	2305.54167
696.468	2296.875
700.177	2293.54167
703.882	2267.54167
707.585	2259.20833
711.284	2246.54167
714.981	2250.54167
718.675	2252.20833
722.366	2293.54167
726.054	2258.54167
729.739	2257.54167
733.421	2271.875
737.1	2279.20833
740.777	2279.875
744.45	2298.875
748.121	2299.54167
751.789	2356.54167
755.453	2339.54167
759.115	2352.54167
762.774	2384.20833
766.431	2408.20833
770.084	2440.20833
773.734	2440.54167
777.382	2490.875
781.027	2506.54167
784.669	2544.54167
788.308	2547.54167
791.944	2557.875
795.577	2566.54167
799.208	2581.875
802.835	2592.20833
806.46	2593.875
810.082	2603.875
813.701	2612.20833
817.317	2659.20833
820.931	2640.875
824.542	2633.20833
828.149	2600.54167
831.754	2608.54167
835.357	2609.54167
838.956	2618.54167
842.553	2616.20833
846.146	2613.54167
849.737	2574.875
853.326	2583.20833
856.911	2596.20833
860.493	2632.875
864.073	2649.20833
867.65	2675.20833
871.225	2691.875
874.796	2708.875
878.365	2732.54167
881.931	2740.875
885.494	2774.875
889.054	2768.54167
892.612	2777.54167
896.166	2772.20833
899.719	2763.20833
903.268	2697.875
906.814	2684.875
910.358	2668.20833
913.899	2652.54167
917.438	2685.20833
920.973	2647.875
924.506	2683.54167
928.036	2701.875
931.564	2746.875
935.088	2801.875
938.61	2767.875
942.129	2836.54167
945.646	2891.20833
949.16	2930.875
952.671	2976.20833
956.179	2976.875
959.685	2916.20833
963.188	2893.875
966.688	2859.54167
970.185	2783.20833
973.68	2746.20833
977.173	2670.54167
980.662	2633.54167
984.149	2631.875
987.633	2628.54167
991.114	2659.875
994.593	2704.875
998.069	2765.20833
1001.542	2849.54167
1005.013	2815.54167
1008.481	2680.875
1011.947	2645.875
1015.409	2628.875
1018.869	2627.875
1022.327	2614.20833
1025.782	2586.54167
1029.234	2599.20833
1032.683	2534.54167
1036.13	2463.20833
1039.574	2369.20833
1043.016	2307.20833
1046.455	2260.875
1049.891	2260.875
1053.325	2259.875
1056.756	2259.54167
1060.184	2266.875
1063.61	2277.54167
1067.033	2280.54167
1070.454	2305.875
1073.872	2314.54167
1077.287	2293.875
1080.7	2297.875
1084.11	2309.875
1087.517	2294.20833
1090.922	2269.54167
1094.325	2248.875
1097.724	2238.875
1101.122	2234.54167
1104.516	2245.875
1107.908	2247.20833
1111.298	2297.54167
1114.684	2316.20833
1118.069	2362.20833
1121.45	2391.54167
1124.83	2384.54167
1128.206	2431.20833
1131.58	2475.20833
1134.951	2530.875
1138.32	2613.54167
1141.687	2745.20833
1145.05	2820.20833
1148.412	2821.20833
1151.77	2808.54167
1155.126	2818.20833
1158.48	2837.20833
1161.831	2835.20833
1165.18	2873.20833
1168.525	2928.20833
1171.869	2931.20833
1175.21	2924.875
1178.548	2957.875
1181.884	3001.875
1185.217	3003.875
1188.548	3053.875
1191.877	3090.20833
1195.202	3177.20833
1198.526	3265.20833
1201.846	3251.20833
1205.165	3246.20833
1208.48	3230.20833
1211.794	3171.20833
1215.104	3199.20833
1218.413	3187.20833
1221.719	3174.54167
1225.022	3123.20833
1228.323	3078.54167
1231.621	3068.20833
1234.917	3045.20833
1238.21	3060.875
1241.501	3048.54167
1244.79	3061.54167
1248.076	3046.54167
1251.359	3062.54167
1254.64	3145.20833
1257.919	3153.54167
1261.195	3198.875
1264.468	3252.54167
1267.74	3295.875
1271.008	3301.54167
1274.275	3298.20833
1277.538	3282.875
1280.8	3258.20833
1284.059	3258.875
1287.315	3315.20833
1290.569	3294.875
1293.821	3326.54167
1297.07	3350.875
1300.317	3362.875
1303.562	3355.20833
1306.803	3320.875
1310.043	3308.20833
1313.28	3305.875
1316.515	3245.20833
1319.747	3224.20833
1322.977	3181.875
1326.204	3140.875
1329.429	3106.20833
1332.652	3089.875
1335.872	3059.54167
1339.09	3037.20833
1342.306	2989.54167
1345.519	2997.54167
1348.729	2929.54167
1351.938	2912.20833
1355.144	2887.54167
1358.347	2852.54167
1361.548	2854.54167
1364.747	2845.54167
1367.944	2816.20833
1371.138	2819.54167
1374.329	2866.54167
1377.518	2878.875
1380.705	2898.875
1383.89	2882.20833
1387.072	2789.875
1390.252	2694.20833
1393.429	2591.20833
1396.605	2502.20833
1399.777	2443.20833
1402.948	2402.875
1406.116	2385.20833
1409.282	2363.20833
1412.445	2384.875
1415.606	2394.20833
1418.765	2433.54167
1421.921	2488.54167
1425.075	2533.875
1428.227	2637.875
1431.376	2725.875
1434.524	2829.20833
1437.668	2876.875
1440.811	2900.875
1443.951	2969.54167
1447.089	2967.875
1450.224	2930.875
1453.357	2944.875
1456.488	2935.20833
1459.617	2860.54167
1462.743	2877.54167
1465.867	2794.20833
1468.989	2750.54167
1472.108	2731.54167
1475.225	2665.20833
1478.34	2662.875
1481.453	2661.54167
1484.563	2690.54167
1487.671	2718.875
1490.776	2742.20833
1493.88	2822.20833
1496.981	2866.54167
1500.08	2920.54167
1503.176	2954.20833
1506.271	2977.20833
1509.363	3018.20833
1512.452	3043.875
1515.54	3092.20833
1518.625	3144.875
1521.708	3211.20833
1524.789	3297.875
1527.867	3420.875
1530.944	3565.875
1534.018	3729.54167
1537.089	3881.54167
1540.159	3933.875
1543.226	3921.54167
1546.291	3871.54167
1549.354	3794.20833
1552.415	3729.875
1555.473	3640.875
1558.529	3603.54167
1561.583	3561.875
1564.634	3533.875
1567.684	3601.20833
1570.731	3562.54167
1573.776	3618.20833
1576.819	3655.875
1579.859	3701.875
1582.898	3711.54167
1585.934	3758.875
1588.968	3773.875
1591.999	3759.875
1595.029	3764.54167
1598.056	3777.54167
1601.081	3806.20833
1604.104	3770.54167
1607.125	3729.20833
1610.144	3637.20833
1613.16	3557.875
1616.174	3485.20833
1619.186	3381.54167
1622.196	3270.875
1625.203	3184.875
1628.209	3111.875
1631.212	3059.20833
1634.213	3011.875
1637.212	3000.20833
1640.209	2917.20833
1643.203	2851.875
1646.196	2719.875
1649.186	2624.20833
1652.174	2553.54167
1655.16	2456.875
1658.144	2351.54167
1661.125	2239.54167
1664.105	2154.875
1667.082	2060.875
1670.057	1960.20833
1673.03	1835.54167
1676.001	1730.54167
1678.97	1635.875
1681.937	1536.20833
1684.901	1444.20833
1687.863	1404.875
1690.824	1339.875
1693.782	1318.20833
1696.738	1264.875
1699.692	1241.875
1702.643	1196.875
1705.593	1178.54167
1708.54	1173.20833
1711.486	1170.875
1714.429	1125.20833
1717.37	1115.875
1720.309	1075.875
1723.246	1106.20833
1726.181	1078.20833
1729.113	1075.20833
1732.044	1061.54167
1734.972	1034.54167
1737.899	1056.875
1740.823	1065.875
1743.745	1012.54167
1746.665	1001.875
1749.583	995.875
1752.499	980.875
1755.413	978.875
1758.325	944.54167
1761.235	931.875
1764.142	923.875
1767.048	919.54167
1769.951	915.20833
1772.852	904.54167
1775.752	885.54167
1778.649	895.875
1781.544	897.20833
1784.437	879.875
1787.328	871.20833
1790.217	873.875
1793.104	838.54167
1795.989	849.20833
1798.872	841.54167
1801.753	853.20833
1804.631	847.875
1807.508	845.875
1810.383	837.20833
1813.255	828.20833
1816.126	835.54167
1818.994	836.875
1821.861	817.875
1824.725	826.20833
1827.587	825.875
1830.448	810.875
1833.306	797.54167
1836.162	811.20833
1839.017	800.20833
1841.869	779.875
1844.719	789.20833
1847.567	788.20833
1850.414	775.875
1853.258	768.875
1856.1	783.54167
1858.94	800.20833
1861.778	786.20833
1864.614	765.20833
1867.448	773.875
1870.28	765.20833
1873.111	791.54167
1875.939	781.54167
1878.765	794.54167
1881.589	757.54167
1884.411	767.54167
1887.231	769.875
1890.049	768.875
1892.865	763.20833
1895.68	752.54167
1898.492	758.20833
1901.302	751.875
1904.11	742.20833
1906.916	747.54167
1909.721	736.54167
1912.523	735.20833
1915.323	728.54167
1918.122	726.54167
1920.918	742.20833
1923.712	721.875
1926.505	712.875
1929.295	714.875
1932.084	731.20833
1934.87	716.875
1937.655	712.20833
1940.438	718.20833
1943.218	719.54167
1945.997	729.54167
1948.774	741.875
1951.549	731.54167
1954.322	720.20833
1957.093	707.54167
1959.862	703.875
1962.629	704.875
1965.394	703.54167
1968.157	694.875
1970.918	702.20833
1973.678	685.20833
1976.435	709.875
1979.19	686.54167
1981.944	688.20833
1984.696	690.875
1987.445	673.875
1990.193	685.875
1992.939	695.54167
1995.683	679.875
1998.425	667.20833
2001.165	706.54167
2003.903	662.875
2006.639	674.20833
2009.374	679.875
2012.106	673.20833
2014.837	667.54167
2017.566	675.20833
2020.292	671.20833
2023.017	667.20833
2025.74	666.54167
2028.461	657.54167
2031.18	658.875
2033.898	657.54167
2036.613	664.875
2039.327	657.875
2042.038	647.20833
2044.748	658.20833
2047.456	655.20833
2050.162	644.875
2052.866	649.875
2055.568	664.875
2058.268	644.20833
2060.967	649.54167
2063.663	634.54167
2066.358	638.54167
2069.051	642.875
2071.742	647.54167
2074.431	648.54167
2077.118	650.20833
2079.804	633.875
2082.487	641.20833
2085.169	648.20833
2087.849	670.20833
2090.527	633.54167
2093.203	647.20833
2095.877	657.54167
2098.55	662.20833
2101.22	674.20833
2103.889	669.20833
2106.556	673.54167
2109.221	698.20833
2111.884	709.875
2114.546	762.54167
2117.205	808.54167
2119.863	880.54167
2122.519	931.20833
2125.173	987.875
2127.825	1037.20833
2130.475	1039.875
2133.124	1004.54167
2135.771	966.875
2138.416	935.875
2141.059	869.875
2143.7	832.54167
2146.339	776.54167
2148.977	736.54167
2151.613	721.875
2154.247	711.875
2156.879	699.54167
2159.51	673.875
2162.138	668.20833
2164.765	660.20833
2167.39	639.54167
2170.013	659.20833
2172.634	651.54167
2175.254	642.875
2177.872	666.20833
2180.488	627.875
2183.102	629.875
2185.714	619.875
2188.325	597.20833
2190.934	615.20833
2193.541	619.20833
2196.146	611.875
2198.75	597.875
2201.351	592.875
2203.951	595.20833
2206.549	605.20833
2209.146	590.20833
2211.74	599.54167
2214.333	595.20833
2216.924	565.54167
2219.514	579.875
2222.101	572.875
2224.687	578.875
2227.271	567.54167
2229.853	562.875
2232.433	548.875
2235.012	571.875
2237.589	571.54167
2240.164	583.54167
2242.738	564.54167
2245.309	545.20833
2247.879	557.875
2250.448	562.875
2253.014	546.54167
2255.579	528.875
2258.142	539.20833
2260.703	531.875
2263.262	534.20833
2265.82	525.54167
2268.376	540.875
2270.93	515.54167
2273.483	518.20833
2276.033	522.54167
2278.583	514.20833
2281.13	521.875
2283.675	510.20833
2286.219	519.875
2288.761	509.875
2291.302	511.54167
2293.841	533.54167
2296.377	503.54167
2298.913	503.54167
2301.446	515.54167
2303.978	506.20833
2306.508	508.54167
2309.037	509.54167
2311.563	505.54167
2314.088	506.54167
2316.612	483.20833
2319.133	509.875
2321.653	504.54167
2324.171	487.875
2326.688	508.20833
2329.202	501.54167
2331.715	497.20833
2334.227	493.875
2336.736	496.20833
2339.244	501.54167
2341.751	478.20833
2344.255	503.875
2346.758	495.54167
2349.259	475.20833
2351.759	489.54167
2354.257	487.20833
2356.753	480.20833
2359.247	484.20833
2361.74	493.20833
2364.231	486.54167
2366.721	491.20833
2369.209	487.20833
2371.695	500.20833
2374.179	482.54167
2376.662	477.54167
2379.143	502.20833
2381.622	479.875
2384.1	491.54167
2386.576	495.20833
2389.051	498.54167
2391.524	502.20833
2393.995	500.20833
2396.464	489.20833
2398.932	484.54167
2401.398	472.54167
2403.863	471.20833
2406.325	479.20833
2408.787	481.54167
2411.246	482.20833
2413.704	478.54167
2416.16	475.20833
2418.615	470.20833
2421.068	497.54167
2423.519	493.875
2425.969	471.875
2428.417	480.20833
2430.863	504.875
2433.308	485.54167
2435.751	480.20833
2438.193	483.54167
2440.633	480.20833
2443.071	486.875
2445.508	482.875
2447.943	475.875
2450.376	473.20833
2452.808	484.875
2455.238	476.54167
2457.667	507.20833
2460.093	474.875
2462.519	469.54167
2464.942	476.875
2467.365	483.54167
2469.785	480.20833
2472.204	486.875
2474.621	467.54167
2477.037	489.875
2479.451	469.875
2481.863	467.875
2484.274	480.54167
2486.683	474.875
2489.091	484.54167
2491.497	471.20833
2493.901	477.875
2496.304	473.20833
2498.705	478.54167
2501.105	468.54167
2503.503	502.54167
2505.899	468.20833
2508.294	491.54167
2510.687	469.54167
2513.079	482.875
2515.469	472.20833
2517.858	478.875
2520.245	492.54167
2522.63	471.875
2525.014	467.875
2527.396	469.54167
2529.776	466.20833
2532.156	488.875
2534.533	472.20833
2536.909	466.20833
2539.283	461.54167
2541.656	464.875
2544.027	494.54167
2546.397	469.875
2548.765	471.54167
2551.131	476.20833
2553.496	472.875
2555.86	474.875
2558.221	474.54167
2560.582	472.20833
2562.94	471.54167
2565.298	479.20833
2567.653	491.875
2570.007	469.54167
2572.36	483.20833
2574.711	472.20833
2577.06	494.875
2579.408	482.875
2581.754	471.54167
2584.099	490.875
2586.442	484.875
2588.784	493.875
2591.124	488.20833
2593.463	485.20833
2595.8	487.20833
2598.135	477.54167
2600.469	479.875
2602.802	490.54167
2605.133	488.20833
2607.462	473.875
2609.79	472.54167
2612.116	492.54167
2614.441	486.20833
2616.764	476.54167
2619.086	491.20833
2621.406	472.54167
2623.725	498.875
2626.042	490.54167
2628.358	485.20833
2630.672	483.54167
2632.985	501.875
2635.296	494.54167
2637.606	498.54167
2639.914	482.875
2642.22	489.54167
2644.525	496.875
2646.829	496.875
2649.131	508.54167
2651.432	508.875
2653.731	494.20833
2656.028	508.20833
2658.324	516.54167
2660.619	503.875
2662.912	522.20833
2665.204	500.54167
2667.494	518.54167
2669.782	507.875
2672.07	520.54167
2674.355	508.875
2676.639	509.875
2678.922	503.54167
2681.203	519.20833
2683.483	511.20833
2685.761	507.875
2688.038	522.54167
2690.313	531.20833
2692.587	524.875
2694.859	513.20833
2697.13	526.875
2699.399	529.20833
2701.667	539.875
2703.933	528.875
2706.198	527.20833
2708.461	535.54167
2710.723	545.20833
2712.984	538.875
2715.243	535.20833
2717.5	535.54167
2719.757	564.875
2722.011	551.20833
2724.264	565.54167
2726.516	572.20833
2728.766	556.20833
2731.015	559.20833
2733.262	553.20833
2735.508	566.875
2737.753	563.54167
2739.996	556.20833
2742.237	544.20833
2744.477	564.20833
2746.716	563.54167
2748.953	553.20833
2751.189	556.54167
2753.423	537.875
2755.656	547.875
2757.887	532.54167
2760.117	544.20833
2762.346	541.875
2764.573	534.54167
2766.798	539.54167
2769.022	544.20833
2771.245	550.875
2773.467	549.875
2775.686	566.54167
2777.905	562.20833
2780.122	570.875
2782.337	564.875
2784.552	560.20833
2786.764	572.875
2788.976	579.54167
2791.186	576.54167
2793.394	587.20833
2795.601	584.20833
2797.807	606.20833
2800.011	600.20833
2802.214	599.20833
2804.415	606.20833
2806.615	610.875
2808.814	616.875
2811.011	623.875
2813.206	614.20833
2815.401	640.20833
2817.594	631.54167
2819.785	643.54167
2821.975	639.875
2824.164	649.20833
2826.351	666.20833
2828.537	671.54167
2830.722	681.20833
2832.905	676.20833
2835.086	706.875
2837.267	733.54167
2839.445	751.54167
2841.623	763.875
2843.799	773.54167
2845.974	816.54167
2848.147	838.54167
2850.319	855.20833
2852.489	878.54167
2854.659	888.875
2856.826	902.875
2858.993	927.20833
2861.158	916.20833
2863.321	915.20833
2865.483	924.875
2867.644	923.54167
2869.804	915.875
2871.962	914.875
2874.118	913.20833
2876.274	910.54167
2878.428	914.20833
2880.58	918.875
2882.731	901.54167
2884.881	899.875
2887.03	911.875
2889.177	921.54167
2891.322	930.54167
2893.467	922.54167
2895.61	921.875
2897.751	935.875
2899.892	933.875
2902.03	949.875
2904.168	937.875
2906.304	956.875
2908.439	967.875
2910.572	957.875
2912.704	967.875
2914.835	984.20833
2916.965	978.54167
2919.093	984.20833
2921.219	956.20833
2923.345	982.54167
2925.469	955.875
2927.591	955.20833
2929.712	912.54167
2931.832	939.20833
2933.951	909.20833
2936.068	896.54167
2938.184	876.54167
2940.299	854.875
2942.412	847.54167
2944.524	822.20833
2946.634	812.54167
2948.744	766.875
2950.851	807.20833
2952.958	754.54167
2955.063	768.54167
2957.167	752.54167
2959.269	727.54167
2961.371	760.20833
2963.471	717.20833
2965.569	715.875
2967.666	687.54167
2969.762	681.875
2971.857	685.20833
2973.95	662.875
2976.042	661.875
2978.133	656.20833
2980.222	631.875
2982.31	633.54167
2984.396	606.875
2986.482	613.54167
2988.566	600.54167
2990.648	604.54167
2992.73	598.20833
2994.81	579.875
2996.889	589.875
2998.966	582.20833
3001.042	590.20833
3003.117	581.875
3005.191	578.20833
3007.263	584.20833
3009.334	568.20833
3011.403	569.875
3013.472	552.875
3015.539	558.875
3017.604	567.54167
3019.669	531.20833
3021.732	533.875
3023.794	544.54167
3025.854	525.20833
3027.914	530.54167
3029.971	538.54167
3032.028	531.54167
3034.083	530.875
3036.137	522.875
3038.19	513.875
3040.242	492.54167
3042.292	490.875
3044.341	491.875
3046.388	493.54167
3048.435	468.54167
3050.48	490.20833
3052.524	481.875
3054.566	466.20833
3056.607	473.20833
3058.647	466.20833
3060.686	445.54167
3062.723	436.54167
3064.759	411.875
3066.794	-0.45833
3068.828	3.54167
3070.86	2.20833
