-0.839	72.08333
3.438	81.75
7.711	40.75
11.981	33.08333
16.247	34.75
20.509	36.75
24.768	35.08333
29.024	43.75
33.276	33.41667
37.524	37.75
41.769	32.41667
46.01	24.08333
50.247	33.41667
54.481	44.75
58.712	48.41667
62.939	34.41667
67.162	50.08333
71.382	39.41667
75.599	31.08333
79.812	48.41667
84.021	62.41667
88.227	42.41667
92.429	42.75
96.628	32.41667
100.823	48.75
105.015	49.08333
109.204	38.08333
113.388	41.41667
117.57	39.08333
121.748	46.08333
125.922	38.08333
130.093	47.75
134.261	40.08333
138.425	37.08333
142.585	69.08333
146.742	41.75
150.896	45.41667
155.046	37.75
159.193	50.41667
163.336	46.75
167.476	45.75
171.613	63.08333
175.746	80.75
179.875	87.08333
184.002	92.08333
188.124	125.75
192.244	97.41667
196.36	99.41667
200.472	112.41667
204.581	128.08333
208.687	96.41667
212.79	98.75
216.889	112.08333
220.984	117.75
225.077	108.75
229.165	103.41667
233.251	102.08333
237.333	118.41667
241.412	112.41667
245.487	123.08333
249.559	119.75
253.628	127.75
257.694	127.08333
261.756	142.75
265.814	130.75
269.87	108.75
273.922	109.08333
277.97	124.41667
282.016	114.75
286.058	108.08333
290.097	118.08333
294.132	111.41667
298.164	119.41667
302.193	115.41667
306.219	106.08333
310.241	112.08333
314.26	99.08333
318.276	95.08333
322.288	119.08333
326.297	105.41667
330.303	104.75
334.305	97.75
338.305	102.08333
342.301	98.75
346.294	107.75
350.283	96.41667
354.269	86.41667
358.252	83.41667
362.232	103.75
366.209	108.41667
370.182	84.41667
374.152	87.08333
378.119	105.75
382.083	87.08333
386.043	102.08333
390	88.08333
393.954	119.08333
397.905	127.41667
401.852	138.08333
405.797	105.41667
409.738	157.08333
413.676	208.08333
417.61	254.75
421.542	152.41667
425.47	103.41667
429.396	95.08333
433.318	93.41667
437.236	95.08333
441.152	130.08333
445.065	81.41667
448.974	99.75
452.88	83.08333
456.783	87.41667
460.683	88.41667
464.58	94.08333
468.473	93.75
472.364	101.75
476.251	79.41667
480.135	82.08333
484.016	98.08333
487.894	88.08333
491.769	90.41667
495.641	87.08333
499.509	84.41667
503.375	87.08333
507.237	88.08333
511.096	84.41667
514.952	91.41667
518.805	87.41667
522.655	81.41667
526.502	82.75
530.346	96.41667
534.187	104.75
538.024	86.41667
541.859	80.75
545.69	98.75
549.519	100.08333
553.344	99.41667
557.166	82.75
560.985	90.75
564.802	99.41667
568.615	93.75
572.425	84.75
576.232	92.41667
580.036	92.41667
583.836	99.75
587.634	111.75
591.429	90.41667
595.221	113.41667
599.01	94.75
602.796	92.41667
606.578	93.08333
610.358	97.08333
614.135	88.75
617.909	102.08333
621.679	91.08333
625.447	82.41667
629.212	97.08333
632.973	104.08333
636.732	109.41667
640.488	117.75
644.241	85.75
647.991	90.75
651.737	113.41667
655.481	79.41667
659.222	86.41667
662.96	76.41667
666.695	93.41667
670.427	85.08333
674.156	88.08333
677.882	92.08333
681.605	96.75
685.325	89.08333
689.043	107.08333
692.757	94.08333
696.468	96.75
700.177	99.41667
703.882	87.08333
707.585	89.08333
711.284	90.41667
714.981	87.08333
718.675	86.75
722.366	103.75
726.054	87.75
729.739	93.75
733.421	98.75
737.1	86.75
740.777	96.75
744.45	89.41667
748.121	84.75
751.789	106.75
755.453	85.41667
759.115	88.75
762.774	86.75
766.431	86.41667
770.084	87.08333
773.734	83.75
777.382	97.08333
781.027	99.75
784.669	89.08333
788.308	89.75
791.944	101.08333
795.577	88.75
799.208	100.75
802.835	87.75
806.46	95.75
810.082	97.08333
813.701	75.41667
817.317	89.41667
820.931	90.08333
824.542	95.08333
828.149	89.75
831.754	84.75
835.357	89.75
838.956	108.08333
842.553	123.08333
846.146	134.41667
849.737	97.75
853.326	96.41667
856.911	85.08333
860.493	103.08333
864.073	129.08333
867.65	186.75
871.225	171.75
874.796	106.75
878.365	91.08333
881.931	94.08333
885.494	101.41667
889.054	94.41667
892.612	95.75
896.166	83.75
899.719	85.41667
903.268	73.75
906.814	88.41667
910.358	89.08333
913.899	83.08333
917.438	93.75
920.973	65.41667
924.506	78.41667
928.036	84.08333
931.564	78.08333
935.088	97.75
938.61	76.08333
942.129	69.08333
945.646	88.41667
949.16	73.41667
952.671	78.75
956.179	85.75
959.685	76.75
963.188	88.08333
966.688	88.41667
970.185	68.41667
973.68	81.08333
977.173	83.08333
980.662	75.41667
984.149	83.08333
987.633	57.75
991.114	81.75
994.593	74.41667
998.069	79.41667
1001.542	90.75
1005.013	102.08333
1008.481	67.08333
1011.947	73.41667
1015.409	73.75
1018.869	79.41667
1022.327	84.75
1025.782	58.41667
1029.234	64.08333
1032.683	65.08333
1036.13	69.08333
1039.574	70.75
1043.016	71.41667
1046.455	66.08333
1049.891	74.41667
1053.325	85.75
1056.756	72.41667
1060.184	70.75
1063.61	58.75
1067.033	63.08333
1070.454	61.75
1073.872	81.41667
1077.287	60.41667
1080.7	62.41667
1084.11	65.41667
1087.517	72.08333
1090.922	67.08333
1094.325	66.08333
1097.724	60.08333
1101.122	76.41667
1104.516	69.75
1107.908	55.75
1111.298	71.08333
1114.684	60.08333
1118.069	59.08333
1121.45	73.41667
1124.83	53.75
1128.206	61.41667
1131.58	66.75
1134.951	70.08333
1138.32	63.41667
1141.687	80.41667
1145.05	71.08333
1148.412	65.75
1151.77	66.41667
1155.126	69.08333
1158.48	59.08333
1161.831	66.75
1165.18	63.41667
1168.525	68.41667
1171.869	69.41667
1175.21	54.75
1178.548	68.41667
1181.884	72.08333
1185.217	50.41667
1188.548	65.41667
1191.877	54.41667
1195.202	66.08333
1198.526	68.41667
1201.846	72.75
1205.165	72.41667
1208.48	79.75
1211.794	76.41667
1215.104	77.08333
1218.413	67.41667
1221.719	65.08333
1225.022	58.75
1228.323	50.75
1231.621	73.08333
1234.917	68.75
1238.21	91.75
1241.501	80.08333
1244.79	67.75
1248.076	54.75
1251.359	63.08333
1254.64	96.41667
1257.919	66.41667
1261.195	66.41667
1264.468	69.75
1267.74	79.41667
1271.008	75.08333
1274.275	77.41667
1277.538	68.75
1280.8	71.08333
1284.059	60.41667
1287.315	71.41667
1290.569	61.75
1293.821	65.08333
1297.07	64.08333
1300.317	68.75
1303.562	72.08333
1306.803	62.75
1310.043	78.41667
1313.28	64.41667
1316.515	66.41667
1319.747	72.08333
1322.977	69.41667
1326.204	70.41667
1329.429	65.75
1332.652	77.08333
1335.872	68.08333
1339.09	58.75
1342.306	73.75
1345.519	70.08333
1348.729	59.75
1351.938	73.75
1355.144	65.08333
1358.347	69.41667
1361.548	85.41667
1364.747	84.08333
1367.944	57.41667
1371.138	74.75
1374.329	76.75
1377.518	65.08333
1380.705	61.75
1383.89	74.41667
1387.072	67.75
1390.252	70.08333
1393.429	78.75
1396.605	84.41667
1399.777	58.08333
1402.948	66.08333
1406.116	64.08333
1409.282	61.08333
1412.445	65.41667
1415.606	74.08333
1418.765	73.41667
1421.921	69.41667
1425.075	58.75
1428.227	50.75
1431.376	66.41667
1434.524	67.75
1437.668	66.08333
1440.811	66.08333
1443.951	64.75
1447.089	71.75
1450.224	55.41667
1453.357	53.75
1456.488	67.08333
1459.617	62.41667
1462.743	70.75
1465.867	58.08333
1468.989	68.08333
1472.108	72.08333
1475.225	63.41667
1478.34	58.41667
1481.453	64.08333
1484.563	59.75
1487.671	72.41667
1490.776	67.41667
1493.88	77.41667
1496.981	77.08333
1500.08	69.41667
1503.176	63.41667
1506.271	65.08333
1509.363	71.75
1512.452	68.08333
1515.54	65.08333
1518.625	53.41667
1521.708	77.41667
1524.789	72.75
1527.867	62.08333
1530.944	69.08333
1534.018	59.41667
1537.089	75.41667
1540.159	65.41667
1543.226	76.08333
1546.291	64.41667
1549.354	76.41667
1552.415	82.41667
1555.473	79.08333
1558.529	80.75
1561.583	75.08333
1564.634	69.41667
1567.684	72.08333
1570.731	63.75
1573.776	71.41667
1576.819	67.41667
1579.859	65.41667
1582.898	64.41667
1585.934	76.41667
1588.968	78.75
1591.999	61.41667
1595.029	63.75
1598.056	73.41667
1601.081	87.41667
1604.104	68.41667
1607.125	76.08333
1610.144	62.75
1613.16	55.08333
1616.174	60.75
1619.186	68.75
1622.196	64.41667
1625.203	62.41667
1628.209	68.41667
1631.212	67.08333
1634.213	65.08333
1637.212	75.75
1640.209	70.08333
1643.203	57.75
1646.196	60.41667
1649.186	60.41667
1652.174	70.75
1655.16	59.41667
1658.144	71.75
1661.125	65.41667
1664.105	72.08333
1667.082	63.08333
1670.057	58.08333
1673.03	50.75
1676.001	53.41667
1678.97	64.75
1681.937	65.75
1684.901	65.75
1687.863	80.41667
1690.824	61.75
1693.782	85.41667
1696.738	58.08333
1699.692	65.75
1702.643	54.41667
1705.593	62.41667
1708.54	66.41667
1711.486	78.08333
1714.429	52.75
1717.37	69.75
1720.309	52.41667
1723.246	75.08333
1726.181	53.75
1729.113	62.75
1732.044	59.41667
1734.972	59.08333
1737.899	76.08333
1740.823	76.08333
1743.745	56.41667
1746.665	60.41667
1749.583	58.41667
1752.499	54.08333
1755.413	68.75
1758.325	57.75
1761.235	62.08333
1764.142	56.75
1767.048	53.08333
1769.951	67.41667
1772.852	72.75
1775.752	108.41667
1778.649	155.41667
1781.544	114.41667
1784.437	65.75
1787.328	73.75
1790.217	64.41667
1793.104	43.75
1795.989	50.08333
1798.872	46.08333
1801.753	62.75
1804.631	56.08333
1807.508	60.75
1810.383	60.41667
1813.255	56.08333
1816.126	61.08333
1818.994	60.08333
1821.861	55.41667
1824.725	64.75
1827.587	69.75
1830.448	63.75
1833.306	48.75
1836.162	62.08333
1839.017	63.75
1841.869	64.08333
1844.719	58.41667
1847.567	50.75
1850.414	46.41667
1853.258	51.08333
1856.1	71.08333
1858.94	69.08333
1861.778	59.75
1864.614	51.08333
1867.448	54.75
1870.28	45.41667
1873.111	67.41667
1875.939	56.41667
1878.765	75.08333
1881.589	51.08333
1884.411	53.41667
1887.231	62.75
1890.049	59.08333
1892.865	68.41667
1895.68	59.41667
1898.492	81.08333
1901.302	67.75
1904.11	63.75
1906.916	56.75
1909.721	53.08333
1912.523	64.75
1915.323	52.75
1918.122	53.08333
1920.918	64.75
1923.712	52.08333
1926.505	53.41667
1929.295	47.75
1932.084	66.41667
1934.87	62.08333
1937.655	58.08333
1940.438	48.75
1943.218	54.75
1945.997	65.08333
1948.774	69.75
1951.549	68.08333
1954.322	57.75
1957.093	56.41667
1959.862	56.75
1962.629	48.75
1965.394	53.08333
1968.157	43.75
1970.918	54.75
1973.678	45.75
1976.435	67.08333
1979.19	56.75
1981.944	50.41667
1984.696	53.75
1987.445	42.75
1990.193	58.75
1992.939	73.75
1995.683	58.08333
1998.425	41.08333
2001.165	77.08333
2003.903	51.08333
2006.639	53.08333
2009.374	64.75
2012.106	58.41667
2014.837	41.41667
2017.566	60.41667
2020.292	60.41667
2023.017	59.08333
2025.74	50.41667
2028.461	45.75
2031.18	52.75
2033.898	49.08333
2036.613	56.41667
2039.327	63.08333
2042.038	45.41667
2044.748	50.41667
2047.456	58.75
2050.162	48.75
2052.866	54.08333
2055.568	66.41667
2058.268	52.41667
2060.967	61.75
2063.663	42.75
2066.358	54.75
2069.051	45.08333
2071.742	54.41667
2074.431	61.41667
2077.118	53.75
2079.804	43.41667
2082.487	51.75
2085.169	61.08333
2087.849	71.75
2090.527	42.75
2093.203	48.41667
2095.877	62.75
2098.55	56.75
2101.22	58.75
2103.889	56.08333
2106.556	55.75
2109.221	57.08333
2111.884	45.41667
2114.546	59.41667
2117.205	54.08333
2119.863	67.08333
2122.519	43.75
2125.173	46.75
2127.825	67.75
2130.475	69.75
2133.124	51.75
2135.771	54.41667
2138.416	66.41667
2141.059	52.41667
2143.7	68.75
2146.339	56.08333
2148.977	42.41667
2151.613	58.41667
2154.247	57.08333
2156.879	58.08333
2159.51	45.75
2162.138	47.41667
2164.765	57.41667
2167.39	44.75
2170.013	68.75
2172.634	63.41667
2175.254	55.75
2177.872	89.75
2180.488	51.75
2183.102	65.75
2185.714	58.75
2188.325	44.41667
2190.934	58.75
2193.541	66.41667
2196.146	57.75
2198.75	45.41667
2201.351	50.41667
2203.951	41.75
2206.549	58.75
2209.146	48.41667
2211.74	48.41667
2214.333	53.08333
2216.924	38.75
2219.514	53.08333
2222.101	47.41667
2224.687	65.41667
2227.271	49.75
2229.853	42.08333
2232.433	36.08333
2235.012	56.41667
2237.589	44.75
2240.164	62.08333
2242.738	47.08333
2245.309	42.41667
2247.879	60.41667
2250.448	62.08333
2253.014	46.75
2255.579	40.41667
2258.142	55.75
2260.703	49.75
2263.262	55.41667
2265.82	47.41667
2268.376	56.41667
2270.93	43.41667
2273.483	47.08333
2276.033	53.41667
2278.583	49.08333
2281.13	49.08333
2283.675	43.75
2286.219	45.75
2288.761	51.41667
2291.302	59.75
2293.841	63.41667
2296.377	43.75
2298.913	49.75
2301.446	60.08333
2303.978	57.08333
2306.508	44.08333
2309.037	53.08333
2311.563	52.75
2314.088	57.08333
2316.612	36.08333
2319.133	52.75
2321.653	48.41667
2324.171	42.41667
2326.688	65.08333
2329.202	55.41667
2331.715	54.75
2334.227	53.08333
2336.736	58.08333
2339.244	49.75
2341.751	42.41667
2344.255	61.41667
2346.758	51.75
2349.259	41.41667
2351.759	53.41667
2354.257	44.75
2356.753	41.08333
2359.247	43.75
2361.74	52.41667
2364.231	50.75
2366.721	54.41667
2369.209	47.41667
2371.695	51.75
2374.179	45.41667
2376.662	41.75
2379.143	57.75
2381.622	49.41667
2384.1	66.41667
2386.576	54.41667
2389.051	65.41667
2391.524	65.75
2393.995	58.75
2396.464	46.75
2398.932	49.75
2401.398	42.41667
2403.863	49.08333
2406.325	48.08333
2408.787	53.41667
2411.246	52.41667
2413.704	47.08333
2416.16	43.75
2418.615	47.41667
2421.068	54.08333
2423.519	53.75
2425.969	41.08333
2428.417	51.41667
2430.863	74.41667
2433.308	57.41667
2435.751	52.75
2438.193	54.41667
2440.633	58.08333
2443.071	59.08333
2445.508	47.08333
2447.943	53.08333
2450.376	45.41667
2452.808	51.41667
2455.238	45.08333
2457.667	84.41667
2460.093	47.75
2462.519	41.08333
2464.942	49.41667
2467.365	53.75
2469.785	60.75
2472.204	51.08333
2474.621	43.75
2477.037	68.75
2479.451	37.75
2481.863	39.41667
2484.274	51.08333
2486.683	51.08333
2489.091	58.41667
2491.497	53.08333
2493.901	58.75
2496.304	48.08333
2498.705	59.08333
2501.105	47.41667
2503.503	81.08333
2505.899	41.08333
2508.294	65.75
2510.687	55.41667
2513.079	55.08333
2515.469	43.41667
2517.858	53.75
2520.245	65.08333
2522.63	46.41667
2525.014	46.08333
2527.396	45.41667
2529.776	41.75
2532.156	61.41667
2534.533	45.08333
2536.909	46.08333
2539.283	35.41667
2541.656	43.75
2544.027	68.08333
2546.397	47.41667
2548.765	48.08333
2551.131	47.41667
2553.496	48.75
2555.86	54.41667
2558.221	51.75
2560.582	41.75
2562.94	44.08333
2565.298	49.08333
2567.653	63.08333
2570.007	38.41667
2572.36	60.75
2574.711	41.08333
2577.06	62.08333
2579.408	56.41667
2581.754	44.75
2584.099	53.41667
2586.442	45.75
2588.784	51.41667
2591.124	46.75
2593.463	47.75
2595.8	52.75
2598.135	40.08333
2600.469	43.75
2602.802	55.08333
2605.133	58.75
2607.462	40.08333
2609.79	38.75
2612.116	55.41667
2614.441	52.75
2616.764	48.08333
2619.086	45.75
2621.406	37.08333
2623.725	59.41667
2626.042	58.75
2628.358	40.75
2630.672	41.08333
2632.985	58.41667
2635.296	48.75
2637.606	47.41667
2639.914	40.08333
2642.22	46.75
2644.525	42.41667
2646.829	49.08333
2649.131	56.75
2651.432	57.41667
2653.731	50.41667
2656.028	52.75
2658.324	57.08333
2660.619	42.41667
2662.912	55.08333
2665.204	36.75
2667.494	54.75
2669.782	42.75
2672.07	52.08333
2674.355	53.41667
2676.639	50.08333
2678.922	41.41667
2681.203	50.08333
2683.483	41.08333
2685.761	40.08333
2688.038	52.41667
2690.313	64.75
2692.587	48.08333
2694.859	37.75
2697.13	49.08333
2699.399	58.41667
2701.667	63.75
2703.933	49.75
2706.198	49.75
2708.461	57.08333
2710.723	55.75
2712.984	52.41667
2715.243	50.08333
2717.5	37.75
2719.757	52.08333
2722.011	43.75
2724.264	54.08333
2726.516	59.08333
2728.766	44.08333
2731.015	50.08333
2733.262	49.41667
2735.508	49.75
2737.753	52.08333
2739.996	44.75
2742.237	43.41667
2744.477	60.08333
2746.716	59.41667
2748.953	55.41667
2751.189	62.08333
2753.423	50.08333
2755.656	45.08333
2757.887	42.41667
2760.117	50.08333
2762.346	40.75
2764.573	38.41667
2766.798	45.08333
2769.022	43.41667
2771.245	49.08333
2773.467	47.75
2775.686	48.75
2777.905	49.41667
2780.122	52.41667
2782.337	50.41667
2784.552	44.75
2786.764	43.75
2788.976	43.08333
2791.186	40.75
2793.394	44.08333
2795.601	46.75
2797.807	49.08333
2800.011	52.08333
2802.214	52.75
2804.415	45.41667
2806.615	43.75
2808.814	40.75
2811.011	48.75
2813.206	40.41667
2815.401	49.75
2817.594	48.41667
2819.785	56.08333
2821.975	40.75
2824.164	36.41667
2826.351	42.08333
2828.537	48.75
2830.722	50.41667
2832.905	38.08333
2835.086	50.75
2837.267	63.75
2839.445	50.41667
2841.623	46.75
2843.799	41.75
2845.974	41.75
2848.147	44.08333
2850.319	41.75
2852.489	49.41667
2854.659	45.08333
2856.826	45.41667
2858.993	70.08333
2861.158	42.75
2863.321	46.08333
2865.483	58.08333
2867.644	57.41667
2869.804	58.08333
2871.962	54.08333
2874.118	76.75
2876.274	123.08333
2878.428	118.08333
2880.58	91.08333
2882.731	73.75
2884.881	72.08333
2887.03	75.75
2889.177	64.08333
2891.322	70.75
2893.467	53.08333
2895.61	48.75
2897.751	63.08333
2899.892	46.08333
2902.03	47.75
2904.168	45.08333
2906.304	43.41667
2908.439	60.41667
2910.572	40.41667
2912.704	49.75
2914.835	54.08333
2916.965	47.41667
2919.093	67.41667
2921.219	43.75
2923.345	69.75
2925.469	46.41667
2927.591	55.08333
2929.712	37.08333
2931.832	53.75
2933.951	47.41667
2936.068	54.75
2938.184	51.08333
2940.299	51.41667
2942.412	56.08333
2944.524	41.41667
2946.634	62.75
2948.744	28.41667
2950.851	68.75
2952.958	46.08333
2955.063	56.75
2957.167	57.41667
2959.269	37.75
2961.371	74.75
2963.471	42.08333
2965.569	57.41667
2967.666	38.08333
2969.762	44.41667
2971.857	47.08333
2973.95	33.75
2976.042	45.75
2978.133	45.75
2980.222	46.75
2982.31	38.41667
2984.396	31.41667
2986.482	42.75
2988.566	39.08333
2990.648	44.41667
2992.73	41.08333
2994.81	36.08333
2996.889	40.41667
2998.966	42.41667
3001.042	52.41667
3003.117	43.41667
3005.191	46.08333
3007.263	51.75
3009.334	42.75
3011.403	50.41667
3013.472	44.41667
3015.539	56.08333
3017.604	67.08333
3019.669	34.41667
3021.732	41.08333
3023.794	47.08333
3025.854	40.75
3027.914	38.75
3029.971	46.75
3032.028	40.08333
3034.083	45.41667
3036.137	44.75
3038.19	36.41667
3040.242	36.08333
3042.292	34.75
3044.341	41.08333
3046.388	53.41667
3048.435	32.75
3050.48	53.75
3052.524	42.08333
3054.566	30.08333
3056.607	42.08333
3058.647	36.41667
3060.686	34.75
3062.723	32.08333
3064.759	24.41667
3066.794	-1.91667
3068.828	3.08333
3070.86	1.41667
