-0.839	633.54167
3.438	733.875
7.711	208.54167
11.981	66.20833
16.247	45.54167
20.509	53.54167
24.768	51.20833
29.024	55.875
33.276	48.20833
37.524	48.20833
41.769	50.20833
46.01	34.875
50.247	45.875
54.481	62.54167
58.712	58.875
62.939	45.875
67.162	62.54167
71.382	53.875
75.599	43.54167
79.812	58.54167
84.021	80.54167
88.227	60.20833
92.429	60.875
96.628	51.54167
100.823	68.54167
105.015	72.875
109.204	65.54167
113.388	71.875
117.57	75.875
121.748	85.20833
125.922	78.20833
130.093	97.54167
134.261	100.20833
138.425	93.20833
142.585	135.54167
146.742	128.54167
150.896	155.875
155.046	197.54167
159.193	299.875
163.336	515.875
167.476	958.875
171.613	1741.20833
175.746	2912.20833
179.875	4320.875
184.002	5609.54167
188.124	6560.54167
192.244	6838.875
196.36	6776.875
200.472	6519.875
204.581	6316.875
208.687	6162.20833
212.79	6048.20833
216.889	5969.875
220.984	5982.20833
225.077	5941.54167
229.165	5903.54167
233.251	5867.54167
237.333	5840.875
241.412	5739.20833
245.487	5679.54167
249.559	5589.54167
253.628	5548.875
257.694	5487.54167
261.756	5463.54167
265.814	5298.875
269.87	5147.54167
273.922	5000.54167
277.97	4906.20833
282.016	4845.875
286.058	4867.20833
290.097	4978.20833
294.132	4999.875
298.164	4940.20833
302.193	4711.875
306.219	4394.54167
310.241	4076.54167
314.26	3784.875
318.276	3506.54167
322.288	3368.54167
326.297	3204.54167
330.303	3087.54167
334.305	3012.20833
338.305	2981.54167
342.301	2912.875
346.294	2899.20833
350.283	2857.54167
354.269	2859.875
358.252	2825.54167
362.232	2817.875
366.209	2789.54167
370.182	2761.20833
374.152	2743.54167
378.119	2763.54167
382.083	2731.875
386.043	2751.875
390	2722.54167
393.954	2703.875
397.905	2727.875
401.852	2708.20833
405.797	2684.54167
409.738	2651.20833
413.676	2648.20833
417.61	2630.875
421.542	2618.54167
425.47	2578.20833
429.396	2570.20833
433.318	2563.20833
437.236	2561.20833
441.152	2567.875
445.065	2528.54167
448.974	2519.875
452.88	2487.54167
456.783	2455.54167
460.683	2456.20833
464.58	2438.875
468.473	2448.54167
472.364	2470.20833
476.251	2461.20833
480.135	2483.54167
484.016	2522.875
487.894	2537.20833
491.769	2525.54167
495.641	2544.875
499.509	2559.875
503.375	2537.54167
507.237	2552.875
511.096	2562.54167
514.952	2656.875
518.805	2724.20833
522.655	2788.20833
526.502	2641.875
530.346	2561.54167
534.187	2541.20833
538.024	2536.875
541.859	2565.54167
545.69	2591.875
549.519	2557.875
553.344	2556.20833
557.166	2508.875
560.985	2446.875
564.802	2461.875
568.615	2381.20833
572.425	2368.875
576.232	2364.20833
580.036	2345.20833
583.836	2344.20833
587.634	2362.20833
591.429	2368.54167
595.221	2434.54167
599.01	2448.54167
602.796	2488.20833
606.578	2483.875
610.358	2488.54167
614.135	2445.875
617.909	2446.20833
621.679	2419.20833
625.447	2408.54167
629.212	2420.875
632.973	2423.875
636.732	2426.20833
640.488	2420.875
644.241	2397.54167
647.991	2391.875
651.737	2399.875
655.481	2373.20833
659.222	2364.875
662.96	2359.875
666.695	2393.20833
670.427	2397.875
674.156	2403.54167
677.882	2423.875
681.605	2400.20833
685.325	2364.54167
689.043	2373.875
692.757	2353.20833
696.468	2333.20833
700.177	2336.20833
703.882	2323.54167
707.585	2303.20833
711.284	2297.54167
714.981	2302.20833
718.675	2318.20833
722.366	2324.20833
726.054	2307.54167
729.739	2302.54167
733.421	2312.20833
737.1	2325.20833
740.777	2348.875
744.45	2352.20833
748.121	2370.54167
751.789	2412.875
755.453	2396.54167
759.115	2421.20833
762.774	2447.20833
766.431	2449.54167
770.084	2490.875
773.734	2477.875
777.382	2520.875
781.027	2569.875
784.669	2578.20833
788.308	2591.54167
791.944	2605.20833
795.577	2616.20833
799.208	2630.875
802.835	2640.54167
806.46	2673.875
810.082	2678.20833
813.701	2659.875
817.317	2668.875
820.931	2711.20833
824.542	2678.875
828.149	2672.54167
831.754	2656.875
835.357	2638.54167
838.956	2651.54167
842.553	2655.54167
846.146	2632.20833
849.737	2641.20833
853.326	2652.875
856.911	2654.20833
860.493	2694.54167
864.073	2708.875
867.65	2725.875
871.225	2743.875
874.796	2768.54167
878.365	2778.54167
881.931	2797.20833
885.494	2830.875
889.054	2827.54167
892.612	2826.20833
896.166	2794.20833
899.719	2788.875
903.268	2742.20833
906.814	2746.875
910.358	2722.20833
913.899	2691.875
917.438	2718.54167
920.973	2675.875
924.506	2710.875
928.036	2744.54167
931.564	2788.875
935.088	2819.54167
938.61	2845.875
942.129	2872.875
945.646	2931.20833
949.16	2977.875
952.671	3015.20833
956.179	3004.20833
959.685	2960.54167
963.188	2952.875
966.688	2915.875
970.185	2834.54167
973.68	2753.875
977.173	2737.54167
980.662	2682.54167
984.149	2689.875
987.633	2667.875
991.114	2711.875
994.593	2761.875
998.069	2836.875
1001.542	2903.20833
1005.013	2875.54167
1008.481	2728.54167
1011.947	2662.875
1015.409	2675.54167
1018.869	2684.875
1022.327	2676.875
1025.782	2612.20833
1029.234	2625.20833
1032.683	2576.20833
1036.13	2495.20833
1039.574	2408.875
1043.016	2346.20833
1046.455	2285.20833
1049.891	2297.20833
1053.325	2279.875
1056.756	2288.20833
1060.184	2331.875
1063.61	2302.20833
1067.033	2327.54167
1070.454	2344.20833
1073.872	2375.875
1077.287	2358.54167
1080.7	2350.875
1084.11	2334.54167
1087.517	2335.54167
1090.922	2291.875
1094.325	2282.20833
1097.724	2260.54167
1101.122	2273.20833
1104.516	2272.875
1107.908	2278.875
1111.298	2318.875
1114.684	2338.20833
1118.069	2384.875
1121.45	2413.875
1124.83	2419.54167
1128.206	2454.20833
1131.58	2504.875
1134.951	2587.20833
1138.32	2660.20833
1141.687	2758.875
1145.05	2839.54167
1148.412	2856.54167
1151.77	2830.875
1155.126	2821.875
1158.48	2845.875
1161.831	2850.875
1165.18	2875.54167
1168.525	2942.54167
1171.869	2942.20833
1175.21	2938.20833
1178.548	2999.54167
1181.884	2998.875
1185.217	3018.875
1188.548	3082.54167
1191.877	3146.54167
1195.202	3219.20833
1198.526	3267.54167
1201.846	3299.54167
1205.165	3272.54167
1208.48	3256.54167
1211.794	3209.875
1215.104	3228.54167
1218.413	3182.20833
1221.719	3215.20833
1225.022	3188.54167
1228.323	3144.20833
1231.621	3106.54167
1234.917	3082.54167
1238.21	3096.54167
1241.501	3086.54167
1244.79	3065.875
1248.076	3078.20833
1251.359	3099.54167
1254.64	3178.20833
1257.919	3184.20833
1261.195	3219.54167
1264.468	3319.54167
1267.74	3331.20833
1271.008	3331.875
1274.275	3317.20833
1277.538	3321.54167
1280.8	3296.20833
1284.059	3294.875
1287.315	3337.875
1290.569	3342.20833
1293.821	3355.54167
1297.07	3367.875
1300.317	3403.54167
1303.562	3385.54167
1306.803	3333.20833
1310.043	3351.54167
1313.28	3332.54167
1316.515	3305.875
1319.747	3260.54167
1322.977	3246.875
1326.204	3174.54167
1329.429	3124.54167
1332.652	3117.54167
1335.872	3108.20833
1339.09	3075.20833
1342.306	3043.54167
1345.519	3017.54167
1348.729	2968.20833
1351.938	2971.875
1355.144	2912.54167
1358.347	2883.54167
1361.548	2914.20833
1364.747	2874.875
1367.944	2856.54167
1371.138	2880.875
1374.329	2894.20833
1377.518	2892.875
1380.705	2926.875
1383.89	2889.20833
1387.072	2846.54167
1390.252	2731.54167
1393.429	2620.875
1396.605	2525.20833
1399.777	2461.875
1402.948	2422.875
1406.116	2405.54167
1409.282	2426.54167
1412.445	2394.875
1415.606	2423.54167
1418.765	2487.20833
1421.921	2491.875
1425.075	2569.54167
1428.227	2657.875
1431.376	2762.875
1434.524	2855.20833
1437.668	2922.875
1440.811	2948.20833
1443.951	2983.875
1447.089	2990.20833
1450.224	2986.875
1453.357	2961.875
1456.488	2966.875
1459.617	2893.54167
1462.743	2888.20833
1465.867	2817.54167
1468.989	2782.20833
1472.108	2728.54167
1475.225	2694.54167
1478.34	2663.20833
1481.453	2681.20833
1484.563	2696.20833
1487.671	2737.20833
1490.776	2806.54167
1493.88	2847.20833
1496.981	2891.20833
1500.08	2935.20833
1503.176	2983.54167
1506.271	3011.20833
1509.363	3046.20833
1512.452	3076.54167
1515.54	3105.54167
1518.625	3162.54167
1521.708	3238.20833
1524.789	3324.54167
1527.867	3458.54167
1530.944	3594.20833
1534.018	3753.875
1537.089	3928.20833
1540.159	3949.875
1543.226	3943.875
1546.291	3870.875
1549.354	3787.20833
1552.415	3756.20833
1555.473	3672.54167
1558.529	3615.20833
1561.583	3585.54167
1564.634	3599.54167
1567.684	3583.875
1570.731	3584.54167
1573.776	3640.20833
1576.819	3703.54167
1579.859	3722.20833
1582.898	3745.54167
1585.934	3805.875
1588.968	3802.54167
1591.999	3792.54167
1595.029	3786.54167
1598.056	3794.875
1601.081	3829.875
1604.104	3809.20833
1607.125	3759.875
1610.144	3696.54167
1613.16	3596.20833
1616.174	3481.54167
1619.186	3387.20833
1622.196	3318.875
1625.203	3195.54167
1628.209	3148.875
1631.212	3095.54167
1634.213	3061.54167
1637.212	3013.54167
1640.209	2965.875
1643.203	2894.54167
1646.196	2798.20833
1649.186	2688.54167
1652.174	2597.54167
1655.16	2488.54167
1658.144	2412.54167
1661.125	2316.54167
1664.105	2198.20833
1667.082	2094.875
1670.057	1982.875
1673.03	1860.875
1676.001	1759.54167
1678.97	1655.54167
1681.937	1553.875
1684.901	1483.875
1687.863	1442.875
1690.824	1353.875
1693.782	1356.20833
1696.738	1283.20833
1699.692	1267.875
1702.643	1210.875
1705.593	1190.54167
1708.54	1198.20833
1711.486	1174.875
1714.429	1157.54167
1717.37	1147.54167
1720.309	1109.54167
1723.246	1121.54167
1726.181	1089.875
1729.113	1093.54167
1732.044	1080.20833
1734.972	1069.20833
1737.899	1065.875
1740.823	1071.875
1743.745	1037.54167
1746.665	1016.875
1749.583	1006.20833
1752.499	979.54167
1755.413	987.20833
1758.325	967.54167
1761.235	961.54167
1764.142	937.20833
1767.048	925.54167
1769.951	938.54167
1772.852	920.20833
1775.752	895.20833
1778.649	902.875
1781.544	912.875
1784.437	889.54167
1787.328	903.875
1790.217	887.20833
1793.104	845.875
1795.989	863.20833
1798.872	863.875
1801.753	870.875
1804.631	873.875
1807.508	862.54167
1810.383	862.54167
1813.255	860.875
1816.126	862.20833
1818.994	857.875
1821.861	844.20833
1824.725	835.875
1827.587	824.54167
1830.448	839.20833
1833.306	814.875
1836.162	822.875
1839.017	813.20833
1841.869	808.54167
1844.719	808.54167
1847.567	785.875
1850.414	791.54167
1853.258	785.20833
1856.1	807.54167
1858.94	810.875
1861.778	794.54167
1864.614	788.54167
1867.448	795.20833
1870.28	782.20833
1873.111	804.20833
1875.939	796.20833
1878.765	801.20833
1881.589	787.20833
1884.411	788.54167
1887.231	782.20833
1890.049	780.54167
1892.865	794.20833
1895.68	766.54167
1898.492	777.875
1901.302	775.875
1904.11	761.875
1906.916	757.875
1909.721	738.20833
1912.523	755.54167
1915.323	745.875
1918.122	746.20833
1920.918	755.20833
1923.712	745.20833
1926.505	734.875
1929.295	727.875
1932.084	753.54167
1934.87	739.54167
1937.655	741.54167
1940.438	734.20833
1943.218	731.875
1945.997	736.875
1948.774	733.20833
1951.549	753.20833
1954.322	728.875
1957.093	739.875
1959.862	716.875
1962.629	715.20833
1965.394	704.875
1968.157	706.875
1970.918	715.875
1973.678	702.20833
1976.435	713.875
1979.19	702.875
1981.944	688.875
1984.696	688.54167
1987.445	683.20833
1990.193	688.20833
1992.939	714.20833
1995.683	687.20833
1998.425	673.54167
2001.165	712.20833
2003.903	686.20833
2006.639	685.20833
2009.374	692.20833
2012.106	692.54167
2014.837	673.875
2017.566	687.20833
2020.292	680.54167
2023.017	676.875
2025.74	676.875
2028.461	670.875
2031.18	670.875
2033.898	658.54167
2036.613	668.54167
2039.327	672.54167
2042.038	666.54167
2044.748	655.20833
2047.456	667.875
2050.162	654.875
2052.866	659.20833
2055.568	668.20833
2058.268	655.20833
2060.967	663.875
2063.663	652.54167
2066.358	653.54167
2069.051	634.20833
2071.742	656.20833
2074.431	659.875
2077.118	658.54167
2079.804	646.20833
2082.487	642.20833
2085.169	663.20833
2087.849	666.54167
2090.527	646.54167
2093.203	646.20833
2095.877	669.54167
2098.55	668.54167
2101.22	675.875
2103.889	680.20833
2106.556	695.20833
2109.221	703.20833
2111.884	720.875
2114.546	772.875
2117.205	813.875
2119.863	893.20833
2122.519	926.20833
2125.173	1008.875
2127.825	1057.20833
2130.475	1056.54167
2133.124	1025.20833
2135.771	978.20833
2138.416	937.54167
2141.059	873.54167
2143.7	837.875
2146.339	796.54167
2148.977	740.54167
2151.613	742.20833
2154.247	715.20833
2156.879	700.54167
2159.51	684.20833
2162.138	666.54167
2164.765	677.875
2167.39	648.20833
2170.013	669.875
2172.634	655.54167
2175.254	649.875
2177.872	674.20833
2180.488	626.54167
2183.102	643.875
2185.714	628.54167
2188.325	613.875
2190.934	621.20833
2193.541	629.20833
2196.146	616.875
2198.75	607.54167
2201.351	600.875
2203.951	589.875
2206.549	615.20833
2209.146	601.875
2211.74	595.875
2214.333	593.20833
2216.924	575.20833
2219.514	593.20833
2222.101	576.20833
2224.687	604.20833
2227.271	576.54167
2229.853	569.54167
2232.433	553.20833
2235.012	583.875
2237.589	576.20833
2240.164	585.20833
2242.738	560.875
2245.309	555.20833
2247.879	567.20833
2250.448	568.875
2253.014	547.875
2255.579	528.20833
2258.142	538.54167
2260.703	530.875
2263.262	541.54167
2265.82	532.54167
2268.376	541.20833
2270.93	529.20833
2273.483	523.54167
2276.033	533.875
2278.583	522.20833
2281.13	529.54167
2283.675	512.20833
2286.219	520.54167
2288.761	525.54167
2291.302	514.54167
2293.841	525.54167
2296.377	504.875
2298.913	509.54167
2301.446	527.20833
2303.978	517.54167
2306.508	502.20833
2309.037	508.875
2311.563	517.54167
2314.088	520.54167
2316.612	501.875
2319.133	515.875
2321.653	505.54167
2324.171	493.54167
2326.688	519.875
2329.202	498.875
2331.715	504.54167
2334.227	494.54167
2336.736	500.875
2339.244	501.875
2341.751	486.875
2344.255	509.54167
2346.758	508.54167
2349.259	488.54167
2351.759	502.875
2354.257	490.20833
2356.753	488.54167
2359.247	494.875
2361.74	500.20833
2364.231	500.54167
2366.721	495.875
2369.209	490.875
2371.695	489.875
2374.179	483.875
2376.662	480.54167
2379.143	504.54167
2381.622	487.54167
2384.1	500.20833
2386.576	488.875
2389.051	496.875
2391.524	497.54167
2393.995	501.20833
2396.464	489.20833
2398.932	478.875
2401.398	485.54167
2403.863	481.875
2406.325	495.20833
2408.787	483.54167
2411.246	490.54167
2413.704	488.20833
2416.16	477.54167
2418.615	489.20833
2421.068	493.875
2423.519	492.54167
2425.969	478.875
2428.417	481.54167
2430.863	506.54167
2433.308	490.20833
2435.751	483.54167
2438.193	488.54167
2440.633	487.54167
2443.071	489.875
2445.508	489.20833
2447.943	479.875
2450.376	473.875
2452.808	479.875
2455.238	476.875
2457.667	512.54167
2460.093	490.54167
2462.519	477.54167
2464.942	484.20833
2467.365	486.875
2469.785	486.54167
2472.204	481.20833
2474.621	480.54167
2477.037	502.20833
2479.451	469.20833
2481.863	474.20833
2484.274	485.20833
2486.683	480.54167
2489.091	486.875
2491.497	484.54167
2493.901	488.20833
2496.304	477.54167
2498.705	493.54167
2501.105	483.875
2503.503	504.20833
2505.899	472.54167
2508.294	491.875
2510.687	474.875
2513.079	481.875
2515.469	478.875
2517.858	474.54167
2520.245	488.54167
2522.63	474.875
2525.014	467.54167
2527.396	474.875
2529.776	468.875
2532.156	491.20833
2534.533	474.20833
2536.909	468.54167
2539.283	456.54167
2541.656	475.20833
2544.027	487.54167
2546.397	482.54167
2548.765	477.20833
2551.131	475.20833
2553.496	486.20833
2555.86	488.54167
2558.221	480.54167
2560.582	479.20833
2562.94	463.54167
2565.298	470.54167
2567.653	489.875
2570.007	468.54167
2572.36	492.54167
2574.711	475.875
2577.06	493.20833
2579.408	485.875
2581.754	485.875
2584.099	481.54167
2586.442	474.875
2588.784	488.875
2591.124	495.54167
2593.463	488.54167
2595.8	489.875
2598.135	478.875
2600.469	479.875
2602.802	485.20833
2605.133	504.20833
2607.462	482.875
2609.79	480.54167
2612.116	488.875
2614.441	486.875
2616.764	489.20833
2619.086	488.875
2621.406	480.54167
2623.725	513.20833
2626.042	495.20833
2628.358	484.20833
2630.672	481.20833
2632.985	511.20833
2635.296	498.54167
2637.606	496.54167
2639.914	492.54167
2642.22	498.54167
2644.525	493.54167
2646.829	506.20833
2649.131	512.54167
2651.432	517.875
2653.731	505.54167
2656.028	509.54167
2658.324	518.875
2660.619	507.54167
2662.912	519.20833
2665.204	499.20833
2667.494	517.875
2669.782	509.875
2672.07	521.875
2674.355	515.20833
2676.639	514.875
2678.922	502.875
2681.203	515.20833
2683.483	518.20833
2685.761	511.20833
2688.038	521.875
2690.313	534.54167
2692.587	512.20833
2694.859	506.54167
2697.13	525.54167
2699.399	529.54167
2701.667	536.20833
2703.933	534.20833
2706.198	541.54167
2708.461	555.54167
2710.723	548.875
2712.984	541.54167
2715.243	550.54167
2717.5	531.875
2719.757	557.54167
2722.011	546.54167
2724.264	567.20833
2726.516	579.20833
2728.766	553.875
2731.015	566.875
2733.262	559.20833
2735.508	565.54167
2737.753	568.875
2739.996	554.54167
2742.237	558.875
2744.477	561.54167
2746.716	567.20833
2748.953	552.54167
2751.189	568.20833
2753.423	549.54167
2755.656	537.875
2757.887	537.20833
2760.117	554.20833
2762.346	544.20833
2764.573	534.875
2766.798	544.20833
2769.022	536.54167
2771.245	547.54167
2773.467	552.20833
2775.686	551.20833
2777.905	554.54167
2780.122	555.54167
2782.337	572.54167
2784.552	573.20833
2786.764	574.875
2788.976	574.20833
2791.186	573.875
2793.394	589.54167
2795.601	586.54167
2797.807	607.20833
2800.011	599.54167
2802.214	615.20833
2804.415	610.875
2806.615	604.875
2808.814	614.54167
2811.011	616.20833
2813.206	615.875
2815.401	632.20833
2817.594	640.875
2819.785	645.875
2821.975	644.54167
2824.164	646.20833
2826.351	658.20833
2828.537	678.20833
2830.722	677.54167
2832.905	683.875
2835.086	714.20833
2837.267	735.875
2839.445	738.54167
2841.623	756.20833
2843.799	771.20833
2845.974	812.875
2848.147	842.875
2850.319	839.875
2852.489	883.54167
2854.659	889.54167
2856.826	899.20833
2858.993	933.875
2861.158	911.20833
2863.321	912.20833
2865.483	934.875
2867.644	936.54167
2869.804	921.54167
2871.962	910.20833
2874.118	915.875
2876.274	918.20833
2878.428	912.20833
2880.58	905.20833
2882.731	903.20833
2884.881	905.20833
2887.03	922.875
2889.177	914.20833
2891.322	936.20833
2893.467	926.875
2895.61	915.20833
2897.751	951.875
2899.892	948.20833
2902.03	945.875
2904.168	953.54167
2906.304	958.20833
2908.439	977.20833
2910.572	954.20833
2912.704	980.20833
2914.835	974.54167
2916.965	971.875
2919.093	981.875
2921.219	959.875
2923.345	995.875
2925.469	955.54167
2927.591	954.20833
2929.712	924.875
2931.832	923.875
2933.951	913.20833
2936.068	909.54167
2938.184	878.54167
2940.299	865.875
2942.412	846.20833
2944.524	823.875
2946.634	819.20833
2948.744	783.20833
2950.851	800.54167
2952.958	757.875
2955.063	766.20833
2957.167	756.54167
2959.269	727.875
2961.371	758.20833
2963.471	716.875
2965.569	721.875
2967.666	686.54167
2969.762	687.20833
2971.857	687.875
2973.95	673.54167
2976.042	661.54167
2978.133	640.20833
2980.222	636.20833
2982.31	621.20833
2984.396	609.54167
2986.482	615.875
2988.566	598.54167
2990.648	603.875
2992.73	602.20833
2994.81	587.875
2996.889	599.875
2998.966	593.20833
3001.042	595.54167
3003.117	576.875
3005.191	591.875
3007.263	583.54167
3009.334	575.20833
3011.403	582.875
3013.472	559.54167
3015.539	563.875
3017.604	571.875
3019.669	538.875
3021.732	542.875
3023.794	535.20833
3025.854	526.54167
3027.914	535.54167
3029.971	539.875
3032.028	520.875
3034.083	533.20833
3036.137	527.20833
3038.19	503.875
3040.242	492.875
3042.292	489.54167
3044.341	494.20833
3046.388	503.20833
3048.435	480.875
3050.48	486.54167
3052.524	475.54167
3054.566	459.20833
3056.607	470.54167
3058.647	458.20833
3060.686	448.875
3062.723	424.54167
3064.759	413.875
3066.794	0.20833
3068.828	2.875
3070.86	2.54167
