-0.839	641.20833
3.438	731.20833
7.711	207.20833
11.981	61.20833
16.247	46.54167
20.509	53.875
24.768	46.20833
29.024	54.875
33.276	46.54167
37.524	50.875
41.769	44.54167
46.01	33.54167
50.247	46.54167
54.481	58.20833
58.712	63.54167
62.939	47.54167
67.162	59.875
71.382	54.20833
75.599	46.54167
79.812	65.54167
84.021	79.54167
88.227	59.875
92.429	60.54167
96.628	51.20833
100.823	70.54167
105.015	79.20833
109.204	72.20833
113.388	74.20833
117.57	72.20833
121.748	89.54167
125.922	79.20833
130.093	96.875
134.261	97.875
138.425	100.20833
142.585	140.875
146.742	134.20833
150.896	164.54167
155.046	199.875
159.193	320.20833
163.336	538.54167
167.476	995.875
171.613	1815.875
175.746	3038.875
179.875	4501.875
184.002	5895.54167
188.124	6865.20833
192.244	7176.20833
196.36	7069.875
200.472	6857.20833
204.581	6650.20833
208.687	6508.20833
212.79	6393.54167
216.889	6374.54167
220.984	6353.54167
225.077	6354.20833
229.165	6373.875
233.251	6315.20833
237.333	6295.20833
241.412	6213.875
245.487	6154.54167
249.559	6046.875
253.628	6021.875
257.694	6018.20833
261.756	5913.54167
265.814	5767.20833
269.87	5596.875
273.922	5431.54167
277.97	5332.20833
282.016	5255.54167
286.058	5248.20833
290.097	5349.875
294.132	5432.54167
298.164	5402.875
302.193	5139.875
306.219	4751.875
310.241	4382.20833
314.26	4017.20833
318.276	3736.20833
322.288	3551.875
326.297	3382.20833
330.303	3267.875
334.305	3171.875
338.305	3137.54167
342.301	3067.875
346.294	3050.875
350.283	3039.20833
354.269	2994.875
358.252	2964.20833
362.232	2950.20833
366.209	2909.875
370.182	2898.20833
374.152	2886.54167
378.119	2876.54167
382.083	2847.54167
386.043	2873.20833
390	2827.875
393.954	2865.54167
397.905	2833.20833
401.852	2841.875
405.797	2765.875
409.738	2776.54167
413.676	2769.875
417.61	2769.875
421.542	2725.20833
425.47	2685.54167
429.396	2677.875
433.318	2665.875
437.236	2668.54167
441.152	2700.20833
445.065	2616.875
448.974	2632.54167
452.88	2586.54167
456.783	2575.20833
460.683	2564.54167
464.58	2551.54167
468.473	2557.20833
472.364	2556.875
476.251	2572.875
480.135	2597.20833
484.016	2615.875
487.894	2622.875
491.769	2656.54167
495.641	2648.54167
499.509	2659.20833
503.375	2672.875
507.237	2646.54167
511.096	2647.875
514.952	2626.20833
518.805	2656.54167
522.655	2679.20833
526.502	2643.20833
530.346	2636.875
534.187	2651.54167
538.024	2653.54167
541.859	2689.20833
545.69	2709.20833
549.519	2684.20833
553.344	2670.20833
557.166	2626.875
560.985	2592.875
564.802	2543.875
568.615	2479.20833
572.425	2465.875
576.232	2446.20833
580.036	2450.54167
583.836	2463.20833
587.634	2461.54167
591.429	2477.20833
595.221	2538.20833
599.01	2569.54167
602.796	2580.20833
606.578	2618.54167
610.358	2620.54167
614.135	2571.54167
617.909	2565.875
621.679	2523.875
625.447	2511.54167
629.212	2528.20833
632.973	2533.20833
636.732	2506.20833
640.488	2522.54167
644.241	2502.20833
647.991	2486.20833
651.737	2506.875
655.481	2457.54167
659.222	2461.20833
662.96	2454.875
666.695	2483.875
670.427	2494.20833
674.156	2517.20833
677.882	2484.875
681.605	2483.54167
685.325	2486.20833
689.043	2476.54167
692.757	2462.54167
696.468	2458.20833
700.177	2450.54167
703.882	2437.20833
707.585	2403.54167
711.284	2403.20833
714.981	2415.20833
718.675	2420.875
722.366	2431.20833
726.054	2387.20833
729.739	2411.20833
733.421	2428.54167
737.1	2400.54167
740.777	2426.20833
744.45	2456.20833
748.121	2459.54167
751.789	2515.875
755.453	2493.54167
759.115	2526.54167
762.774	2534.875
766.431	2563.20833
770.084	2609.20833
773.734	2643.54167
777.382	2705.54167
781.027	2700.54167
784.669	2708.54167
788.308	2705.20833
791.944	2749.20833
795.577	2741.20833
799.208	2773.875
802.835	2767.20833
806.46	2786.20833
810.082	2791.54167
813.701	2809.875
817.317	2813.875
820.931	2818.54167
824.542	2824.20833
828.149	2791.20833
831.754	2779.20833
835.357	2792.875
838.956	2820.20833
842.553	2797.875
846.146	2775.20833
849.737	2745.20833
853.326	2781.20833
856.911	2804.54167
860.493	2828.875
864.073	2853.54167
867.65	2884.20833
871.225	2931.20833
874.796	2944.54167
878.365	2947.875
881.931	2962.875
885.494	2971.20833
889.054	2991.20833
892.612	3004.875
896.166	2991.54167
899.719	2959.875
903.268	2916.875
906.814	2899.20833
910.358	2861.54167
913.899	2851.875
917.438	2820.875
920.973	2821.875
924.506	2842.875
928.036	2902.20833
931.564	2930.54167
935.088	2967.20833
938.61	2994.54167
942.129	3038.20833
945.646	3109.875
949.16	3149.875
952.671	3186.20833
956.179	3202.20833
959.685	3139.875
963.188	3148.54167
966.688	3046.875
970.185	2990.20833
973.68	2927.54167
977.173	2854.54167
980.662	2840.20833
984.149	2843.54167
987.633	2826.875
991.114	2867.875
994.593	2940.875
998.069	3031.875
1001.542	3089.54167
1005.013	3019.875
1008.481	2870.875
1011.947	2845.875
1015.409	2802.875
1018.869	2844.20833
1022.327	2831.54167
1025.782	2791.54167
1029.234	2776.875
1032.683	2719.54167
1036.13	2659.20833
1039.574	2556.875
1043.016	2493.20833
1046.455	2436.875
1049.891	2423.875
1053.325	2438.875
1056.756	2439.20833
1060.184	2429.20833
1063.61	2468.54167
1067.033	2476.54167
1070.454	2479.20833
1073.872	2508.54167
1077.287	2491.875
1080.7	2502.875
1084.11	2474.875
1087.517	2453.875
1090.922	2419.875
1094.325	2425.875
1097.724	2387.875
1101.122	2417.54167
1104.516	2417.54167
1107.908	2406.20833
1111.298	2458.20833
1114.684	2488.20833
1118.069	2517.875
1121.45	2572.54167
1124.83	2550.875
1128.206	2591.20833
1131.58	2655.20833
1134.951	2722.875
1138.32	2806.54167
1141.687	2912.875
1145.05	3005.54167
1148.412	3018.54167
1151.77	3022.54167
1155.126	3011.875
1158.48	3017.875
1161.831	3060.875
1165.18	3070.20833
1168.525	3106.875
1171.869	3124.20833
1175.21	3159.20833
1178.548	3169.54167
1181.884	3198.875
1185.217	3214.20833
1188.548	3297.875
1191.877	3330.875
1195.202	3433.20833
1198.526	3479.54167
1201.846	3521.20833
1205.165	3471.875
1208.48	3460.54167
1211.794	3442.20833
1215.104	3420.875
1218.413	3402.54167
1221.719	3405.20833
1225.022	3363.20833
1228.323	3328.875
1231.621	3283.875
1234.917	3266.875
1238.21	3299.20833
1241.501	3261.54167
1244.79	3267.20833
1248.076	3253.54167
1251.359	3283.54167
1254.64	3358.875
1257.919	3381.20833
1261.195	3443.875
1264.468	3479.875
1267.74	3554.20833
1271.008	3562.875
1274.275	3550.54167
1277.538	3495.20833
1280.8	3505.875
1284.059	3518.54167
1287.315	3551.54167
1290.569	3574.54167
1293.821	3572.54167
1297.07	3607.54167
1300.317	3621.54167
1303.562	3613.20833
1306.803	3561.875
1310.043	3557.20833
1313.28	3501.54167
1316.515	3473.54167
1319.747	3435.875
1322.977	3391.54167
1326.204	3391.875
1329.429	3296.54167
1332.652	3292.875
1335.872	3247.20833
1339.09	3230.54167
1342.306	3194.54167
1345.519	3156.54167
1348.729	3083.20833
1351.938	3097.20833
1355.144	3045.54167
1358.347	3017.54167
1361.548	3012.875
1364.747	3022.54167
1367.944	2967.875
1371.138	3017.54167
1374.329	3033.875
1377.518	3067.54167
1380.705	3090.54167
1383.89	3086.20833
1387.072	2966.20833
1390.252	2849.875
1393.429	2728.54167
1396.605	2660.20833
1399.777	2609.54167
1402.948	2559.875
1406.116	2532.54167
1409.282	2534.54167
1412.445	2515.20833
1415.606	2570.54167
1418.765	2596.20833
1421.921	2652.20833
1425.075	2690.20833
1428.227	2798.875
1431.376	2914.875
1434.524	3017.20833
1437.668	3116.20833
1440.811	3122.54167
1443.951	3155.54167
1447.089	3165.875
1450.224	3173.20833
1453.357	3153.20833
1456.488	3139.54167
1459.617	3098.54167
1462.743	3040.54167
1465.867	2996.20833
1468.989	2948.20833
1472.108	2905.875
1475.225	2855.20833
1478.34	2826.875
1481.453	2834.20833
1484.563	2855.20833
1487.671	2891.54167
1490.776	2955.20833
1493.88	2998.20833
1496.981	3070.20833
1500.08	3112.54167
1503.176	3145.20833
1506.271	3187.54167
1509.363	3232.875
1512.452	3294.54167
1515.54	3295.20833
1518.625	3373.54167
1521.708	3459.875
1524.789	3530.54167
1527.867	3638.54167
1530.944	3821.54167
1534.018	4006.875
1537.089	4153.875
1540.159	4194.54167
1543.226	4179.20833
1546.291	4123.875
1549.354	4049.20833
1552.415	3961.20833
1555.473	3881.20833
1558.529	3837.875
1561.583	3791.54167
1564.634	3763.54167
1567.684	3788.875
1570.731	3785.54167
1573.776	3868.875
1576.819	3903.54167
1579.859	3935.54167
1582.898	3970.875
1585.934	4013.54167
1588.968	4027.20833
1591.999	4001.54167
1595.029	4048.875
1598.056	4037.875
1601.081	4077.875
1604.104	4025.20833
1607.125	3955.875
1610.144	3875.20833
1613.16	3805.20833
1616.174	3685.875
1619.186	3601.54167
1622.196	3468.875
1625.203	3384.875
1628.209	3326.20833
1631.212	3253.20833
1634.213	3183.875
1637.212	3147.20833
1640.209	3059.54167
1643.203	2981.54167
1646.196	2893.875
1649.186	2789.54167
1652.174	2692.54167
1655.16	2588.20833
1658.144	2487.20833
1661.125	2385.875
1664.105	2267.875
1667.082	2170.20833
1670.057	2084.20833
1673.03	1965.54167
1676.001	1845.875
1678.97	1743.875
1681.937	1619.20833
1684.901	1526.875
1687.863	1482.54167
1690.824	1414.20833
1693.782	1392.875
1696.738	1333.54167
1699.692	1298.20833
1702.643	1268.20833
1705.593	1238.20833
1708.54	1227.54167
1711.486	1229.20833
1714.429	1189.20833
1717.37	1186.54167
1720.309	1161.875
1723.246	1164.875
1726.181	1130.20833
1729.113	1134.875
1732.044	1112.20833
1734.972	1090.875
1737.899	1107.54167
1740.823	1113.875
1743.745	1055.20833
1746.665	1044.54167
1749.583	1039.54167
1752.499	1015.20833
1755.413	1005.54167
1758.325	990.875
1761.235	982.54167
1764.142	965.875
1767.048	940.54167
1769.951	936.20833
1772.852	940.875
1775.752	933.20833
1778.649	935.20833
1781.544	935.20833
1784.437	916.20833
1787.328	926.20833
1790.217	898.54167
1793.104	878.20833
1795.989	885.54167
1798.872	873.54167
1801.753	889.20833
1804.631	888.20833
1807.508	886.875
1810.383	883.20833
1813.255	862.20833
1816.126	877.54167
1818.994	874.875
1821.861	846.20833
1824.725	860.20833
1827.587	844.875
1830.448	848.875
1833.306	820.20833
1836.162	834.54167
1839.017	818.20833
1841.869	819.875
1844.719	814.54167
1847.567	806.54167
1850.414	793.54167
1853.258	802.20833
1856.1	824.875
1858.94	810.54167
1861.778	797.875
1864.614	797.54167
1867.448	796.875
1870.28	778.875
1873.111	814.54167
1875.939	791.54167
1878.765	803.20833
1881.589	788.20833
1884.411	794.54167
1887.231	780.54167
1890.049	785.20833
1892.865	785.54167
1895.68	770.20833
1898.492	768.54167
1901.302	764.54167
1904.11	778.20833
1906.916	753.20833
1909.721	750.20833
1912.523	756.20833
1915.323	741.875
1918.122	744.875
1920.918	752.875
1923.712	735.54167
1926.505	735.54167
1929.295	739.20833
1932.084	748.20833
1934.87	735.54167
1937.655	746.875
1940.438	720.20833
1943.218	731.20833
1945.997	737.54167
1948.774	736.875
1951.549	744.54167
1954.322	726.875
1957.093	722.20833
1959.862	726.20833
1962.629	712.875
1965.394	696.20833
1968.157	694.875
1970.918	702.875
1973.678	697.20833
1976.435	712.20833
1979.19	692.875
1981.944	684.875
1984.696	688.875
1987.445	677.20833
1990.193	693.20833
1992.939	702.20833
1995.683	691.20833
1998.425	662.20833
2001.165	704.20833
2003.903	675.20833
2006.639	673.875
2009.374	696.54167
2012.106	672.20833
2014.837	658.875
2017.566	677.20833
2020.292	683.54167
2023.017	662.54167
2025.74	670.875
2028.461	651.875
2031.18	650.54167
2033.898	658.875
2036.613	659.20833
2039.327	665.20833
2042.038	644.875
2044.748	641.54167
2047.456	667.54167
2050.162	634.20833
2052.866	643.20833
2055.568	658.20833
2058.268	636.20833
2060.967	645.20833
2063.663	638.20833
2066.358	631.20833
2069.051	626.20833
2071.742	639.20833
2074.431	640.54167
2077.118	635.20833
2079.804	624.54167
2082.487	630.875
2085.169	642.20833
2087.849	647.875
2090.527	626.54167
2093.203	636.20833
2095.877	645.20833
2098.55	644.875
2101.22	649.54167
2103.889	654.20833
2106.556	654.54167
2109.221	678.20833
2111.884	675.54167
2114.546	738.875
2117.205	791.875
2119.863	845.20833
2122.519	897.875
2125.173	969.875
2127.825	1019.20833
2130.475	1037.54167
2133.124	991.20833
2135.771	948.20833
2138.416	904.54167
2141.059	835.875
2143.7	793.20833
2146.339	746.875
2148.977	706.54167
2151.613	699.875
2154.247	672.875
2156.879	659.20833
2159.51	639.20833
2162.138	629.54167
2164.765	622.20833
2167.39	604.875
2170.013	625.54167
2172.634	613.54167
2175.254	610.20833
2177.872	641.54167
2180.488	585.20833
2183.102	602.20833
2185.714	586.54167
2188.325	566.875
2190.934	580.875
2193.541	592.875
2196.146	565.20833
2198.75	561.54167
2201.351	563.54167
2203.951	546.54167
2206.549	566.20833
2209.146	560.54167
2211.74	549.875
2214.333	549.54167
2216.924	535.20833
2219.514	532.54167
2222.101	533.875
2224.687	548.875
2227.271	536.875
2229.853	516.20833
2232.433	516.875
2235.012	534.20833
2237.589	533.20833
2240.164	535.54167
2242.738	522.875
2245.309	509.54167
2247.879	515.54167
2250.448	520.20833
2253.014	499.875
2255.579	488.20833
2258.142	495.20833
2260.703	490.20833
2263.262	492.54167
2265.82	485.20833
2268.376	472.875
2270.93	477.54167
2273.483	474.20833
2276.033	473.875
2278.583	468.875
2281.13	470.54167
2283.675	460.875
2286.219	465.20833
2288.761	467.20833
2291.302	465.20833
2293.841	474.54167
2296.377	447.54167
2298.913	464.54167
2301.446	465.54167
2303.978	464.54167
2306.508	445.20833
2309.037	453.20833
2311.563	453.20833
2314.088	455.20833
2316.612	434.54167
2319.133	442.54167
2321.653	448.54167
2324.171	437.20833
2326.688	454.20833
2329.202	439.875
2331.715	438.20833
2334.227	437.54167
2336.736	437.20833
2339.244	432.875
2341.751	417.875
2344.255	434.54167
2346.758	442.20833
2349.259	414.875
2351.759	430.875
2354.257	417.20833
2356.753	417.20833
2359.247	417.875
2361.74	423.54167
2364.231	426.875
2366.721	425.20833
2369.209	416.54167
2371.695	438.875
2374.179	409.20833
2376.662	400.54167
2379.143	430.875
2381.622	408.875
2384.1	420.20833
2386.576	402.875
2389.051	428.54167
2391.524	431.54167
2393.995	423.20833
2396.464	407.54167
2398.932	406.875
2401.398	399.875
2403.863	398.875
2406.325	397.20833
2408.787	400.54167
2411.246	401.20833
2413.704	396.875
2416.16	398.20833
2418.615	398.20833
2421.068	404.875
2423.519	408.20833
2425.969	392.875
2428.417	399.875
2430.863	409.54167
2433.308	408.875
2435.751	400.54167
2438.193	397.54167
2440.633	394.875
2443.071	391.54167
2445.508	383.54167
2447.943	386.875
2450.376	377.54167
2452.808	385.875
2455.238	372.20833
2457.667	416.875
2460.093	383.20833
2462.519	369.875
2464.942	387.875
2467.365	381.875
2469.785	391.20833
2472.204	375.54167
2474.621	374.20833
2477.037	384.875
2479.451	366.875
2481.863	362.20833
2484.274	369.20833
2486.683	373.20833
2489.091	381.54167
2491.497	379.20833
2493.901	384.875
2496.304	370.20833
2498.705	382.875
2501.105	362.875
2503.503	390.875
2505.899	354.54167
2508.294	382.54167
2510.687	366.54167
2513.079	372.20833
2515.469	361.20833
2517.858	361.875
2520.245	373.875
2522.63	363.20833
2525.014	345.875
2527.396	350.20833
2529.776	350.20833
2532.156	376.20833
2534.533	348.875
2536.909	348.875
2539.283	335.20833
2541.656	346.875
2544.027	361.54167
2546.397	346.54167
2548.765	350.54167
2551.131	350.20833
2553.496	349.54167
2555.86	356.20833
2558.221	348.20833
2560.582	341.54167
2562.94	338.54167
2565.298	345.875
2567.653	364.54167
2570.007	332.875
2572.36	353.875
2574.711	336.20833
2577.06	367.875
2579.408	349.54167
2581.754	342.875
2584.099	343.875
2586.442	343.54167
2588.784	347.875
2591.124	330.875
2593.463	341.54167
2595.8	347.875
2598.135	334.54167
2600.469	343.20833
2602.802	344.20833
2605.133	351.875
2607.462	336.875
2609.79	323.20833
2612.116	328.54167
2614.441	341.875
2616.764	340.20833
2619.086	343.875
2621.406	331.20833
2623.725	352.875
2626.042	337.20833
2628.358	332.875
2630.672	330.54167
2632.985	354.20833
2635.296	342.54167
2637.606	335.875
2639.914	328.20833
2642.22	332.54167
2644.525	331.875
2646.829	335.875
2649.131	349.20833
2651.432	349.20833
2653.731	343.20833
2656.028	347.54167
2658.324	347.20833
2660.619	334.875
2662.912	347.20833
2665.204	323.875
2667.494	350.54167
2669.782	333.875
2672.07	349.54167
2674.355	350.54167
2676.639	335.54167
2678.922	331.20833
2681.203	341.20833
2683.483	327.20833
2685.761	333.20833
2688.038	345.875
2690.313	353.875
2692.587	346.875
2694.859	339.875
2697.13	346.875
2699.399	350.875
2701.667	361.20833
2703.933	361.20833
2706.198	358.875
2708.461	364.54167
2710.723	365.875
2712.984	357.54167
2715.243	362.875
2717.5	355.54167
2719.757	374.20833
2722.011	367.875
2724.264	384.54167
2726.516	380.20833
2728.766	365.20833
2731.015	368.875
2733.262	375.20833
2735.508	374.54167
2737.753	362.875
2739.996	358.875
2742.237	355.54167
2744.477	367.20833
2746.716	366.54167
2748.953	350.20833
2751.189	365.54167
2753.423	351.54167
2755.656	338.54167
2757.887	344.20833
2760.117	342.875
2762.346	342.20833
2764.573	337.20833
2766.798	334.875
2769.022	339.875
2771.245	346.875
2773.467	345.54167
2775.686	351.54167
2777.905	354.875
2780.122	356.875
2782.337	361.20833
2784.552	353.20833
2786.764	358.20833
2788.976	362.20833
2791.186	365.20833
2793.394	365.875
2795.601	373.54167
2797.807	385.875
2800.011	388.20833
2802.214	389.54167
2804.415	393.54167
2806.615	390.54167
2808.814	391.54167
2811.011	403.20833
2813.206	395.20833
2815.401	417.20833
2817.594	420.20833
2819.785	437.54167
2821.975	421.875
2824.164	433.875
2826.351	448.875
2828.537	453.875
2830.722	471.875
2832.905	473.875
2835.086	504.20833
2837.267	525.20833
2839.445	543.20833
2841.623	554.20833
2843.799	575.54167
2845.974	599.54167
2848.147	640.20833
2850.319	658.20833
2852.489	684.20833
2854.659	693.20833
2856.826	704.20833
2858.993	737.54167
2861.158	715.20833
2863.321	721.54167
2865.483	729.875
2867.644	739.54167
2869.804	721.54167
2871.962	736.54167
2874.118	738.20833
2876.274	724.54167
2878.428	723.875
2880.58	709.875
2882.731	726.20833
2884.881	717.20833
2887.03	731.875
2889.177	730.20833
2891.322	747.875
2893.467	730.54167
2895.61	735.54167
2897.751	759.20833
2899.892	746.54167
2902.03	766.20833
2904.168	762.875
2906.304	764.20833
2908.439	777.20833
2910.572	770.54167
2912.704	773.875
2914.835	780.875
2916.965	777.20833
2919.093	776.875
2921.219	767.875
2923.345	775.54167
2925.469	761.875
2927.591	752.875
2929.712	720.54167
2931.832	722.54167
2933.951	713.875
2936.068	700.20833
2938.184	682.20833
2940.299	659.54167
2942.412	642.20833
2944.524	615.20833
2946.634	612.875
2948.744	558.875
2950.851	582.875
2952.958	533.54167
2955.063	532.875
2957.167	528.875
2959.269	491.20833
2961.371	518.20833
2963.471	480.54167
2965.569	475.20833
2967.666	460.20833
2969.762	454.20833
2971.857	440.875
2973.95	420.875
2976.042	415.875
2978.133	403.875
2980.222	394.875
2982.31	388.20833
2984.396	367.54167
2986.482	373.54167
2988.566	364.54167
2990.648	355.20833
2992.73	347.20833
2994.81	336.54167
2996.889	340.20833
2998.966	338.875
3001.042	344.875
3003.117	338.20833
3005.191	341.20833
3007.263	337.875
3009.334	325.54167
3011.403	329.20833
3013.472	316.20833
3015.539	316.20833
3017.604	327.54167
3019.669	289.54167
3021.732	294.875
3023.794	297.54167
3025.854	288.54167
3027.914	285.54167
3029.971	298.54167
3032.028	286.20833
3034.083	291.54167
3036.137	287.20833
3038.19	279.54167
3040.242	268.20833
3042.292	257.875
3044.341	267.20833
3046.388	273.20833
3048.435	251.54167
3050.48	280.54167
3052.524	266.54167
3054.566	250.20833
3056.607	265.20833
3058.647	248.54167
3060.686	243.54167
3062.723	231.54167
3064.759	217.20833
3066.794	-0.45833
3068.828	1.875
3070.86	2.54167
