-0.839	502.375
3.438	578.375
7.711	173.375
11.981	63.375
16.247	48.04167
20.509	53.70833
24.768	50.70833
29.024	58.04167
33.276	47.375
37.524	53.04167
41.769	47.70833
46.01	36.70833
50.247	48.375
54.481	66.04167
58.712	66.04167
62.939	53.375
67.162	63.70833
71.382	60.70833
75.599	50.04167
79.812	65.04167
84.021	82.04167
88.227	61.04167
92.429	65.04167
96.628	53.375
100.823	72.70833
105.015	79.375
109.204	74.04167
113.388	79.04167
117.57	78.70833
121.748	88.70833
125.922	83.04167
130.093	105.375
134.261	103.70833
138.425	103.375
142.585	141.375
146.742	138.375
150.896	163.04167
155.046	203.70833
159.193	323.375
163.336	539.375
167.476	987.375
171.613	1797.70833
175.746	3020.375
179.875	4492.70833
184.002	5915.70833
188.124	6901.04167
192.244	7275.70833
196.36	7283.04167
200.472	7134.04167
204.581	6933.375
208.687	6764.70833
212.79	6729.375
216.889	6700.375
220.984	6719.04167
225.077	6716.04167
229.165	6690.375
233.251	6695.375
237.333	6694.375
241.412	6615.04167
245.487	6589.04167
249.559	6488.04167
253.628	6481.375
257.694	6439.375
261.756	6417.70833
265.814	6285.04167
269.87	6130.04167
273.922	5961.04167
277.97	5877.04167
282.016	5826.04167
286.058	5860.375
290.097	5989.04167
294.132	6042.70833
298.164	6035.04167
302.193	5813.70833
306.219	5442.04167
310.241	5108.70833
314.26	4775.375
318.276	4537.70833
322.288	4379.70833
326.297	4236.375
330.303	4120.04167
334.305	4075.04167
338.305	4007.04167
342.301	3954.375
346.294	3958.70833
350.283	3940.04167
354.269	3933.04167
358.252	3919.04167
362.232	3851.375
366.209	3880.375
370.182	3835.04167
374.152	3832.70833
378.119	3883.04167
382.083	3873.04167
386.043	3904.375
390	3895.04167
393.954	3884.375
397.905	3897.375
401.852	3911.04167
405.797	3826.04167
409.738	3924.70833
413.676	3990.375
417.61	4029.04167
421.542	3893.70833
425.47	3807.04167
429.396	3756.70833
433.318	3767.70833
437.236	3771.375
441.152	3767.375
445.065	3729.04167
448.974	3717.04167
452.88	3710.04167
456.783	3703.375
460.683	3679.375
464.58	3687.04167
468.473	3685.04167
472.364	3718.04167
476.251	3721.70833
480.135	3767.04167
484.016	3788.70833
487.894	3812.04167
491.769	3808.375
495.641	3860.375
499.509	3838.70833
503.375	3829.375
507.237	3803.70833
511.096	3819.70833
514.952	3839.375
518.805	3869.04167
522.655	3861.04167
526.502	3796.70833
530.346	3768.375
534.187	3771.375
538.024	3785.04167
541.859	3797.375
545.69	3816.375
549.519	3798.375
553.344	3775.70833
557.166	3720.375
560.985	3699.04167
564.802	3652.04167
568.615	3604.70833
572.425	3546.70833
576.232	3553.04167
580.036	3558.375
583.836	3552.04167
587.634	3571.375
591.429	3561.04167
595.221	3646.70833
599.01	3668.70833
602.796	3686.375
606.578	3701.04167
610.358	3699.70833
614.135	3685.375
617.909	3657.04167
621.679	3666.04167
625.447	3628.375
629.212	3608.04167
632.973	3634.375
636.732	3618.04167
640.488	3602.375
644.241	3594.375
647.991	3575.04167
651.737	3586.375
655.481	3558.70833
659.222	3577.70833
662.96	3566.04167
666.695	3577.70833
670.427	3630.375
674.156	3621.04167
677.882	3572.70833
681.605	3574.70833
685.325	3565.375
689.043	3580.70833
692.757	3542.04167
696.468	3541.375
700.177	3527.375
703.882	3504.375
707.585	3442.70833
711.284	3448.70833
714.981	3449.70833
718.675	3455.375
722.366	3470.375
726.054	3411.70833
729.739	3420.375
733.421	3445.70833
737.1	3437.04167
740.777	3452.04167
744.45	3461.70833
748.121	3479.70833
751.789	3526.04167
755.453	3503.375
759.115	3556.70833
762.774	3537.375
766.431	3525.04167
770.084	3569.70833
773.734	3571.04167
777.382	3597.70833
781.027	3589.375
784.669	3616.04167
788.308	3608.04167
791.944	3634.04167
795.577	3633.375
799.208	3650.04167
802.835	3680.375
806.46	3708.70833
810.082	3717.70833
813.701	3720.04167
817.317	3737.375
820.931	3745.375
824.542	3736.70833
828.149	3679.375
831.754	3652.70833
835.357	3625.04167
838.956	3615.70833
842.553	3677.04167
846.146	3651.70833
849.737	3562.375
853.326	3521.04167
856.911	3533.70833
860.493	3571.04167
864.073	3593.04167
867.65	3689.04167
871.225	3708.70833
874.796	3619.70833
878.365	3626.04167
881.931	3630.70833
885.494	3676.375
889.054	3682.04167
892.612	3675.70833
896.166	3638.70833
899.719	3604.04167
903.268	3581.04167
906.814	3566.375
910.358	3537.375
913.899	3508.04167
917.438	3465.70833
920.973	3474.375
924.506	3511.375
928.036	3570.70833
931.564	3578.375
935.088	3630.375
938.61	3660.04167
942.129	3672.70833
945.646	3719.375
949.16	3757.70833
952.671	3781.04167
956.179	3798.375
959.685	3785.70833
963.188	3781.375
966.688	3707.70833
970.185	3672.375
973.68	3563.04167
977.173	3518.04167
980.662	3509.375
984.149	3489.04167
987.633	3510.70833
991.114	3552.04167
994.593	3577.04167
998.069	3697.04167
1001.542	3790.70833
1005.013	3760.70833
1008.481	3551.375
1011.947	3439.375
1015.409	3411.04167
1018.869	3417.375
1022.327	3395.70833
1025.782	3398.70833
1029.234	3416.04167
1032.683	3358.04167
1036.13	3270.70833
1039.574	3153.375
1043.016	3091.70833
1046.455	3041.375
1049.891	3000.04167
1053.325	3023.375
1056.756	3031.375
1060.184	3030.04167
1063.61	3053.04167
1067.033	3048.70833
1070.454	3051.375
1073.872	3094.375
1077.287	3067.04167
1080.7	3086.70833
1084.11	3056.04167
1087.517	3028.04167
1090.922	2982.04167
1094.325	2953.375
1097.724	2925.375
1101.122	2935.375
1104.516	2924.04167
1107.908	2903.375
1111.298	2942.375
1114.684	2959.375
1118.069	3006.04167
1121.45	3020.04167
1124.83	3020.375
1128.206	3048.04167
1131.58	3054.04167
1134.951	3130.70833
1138.32	3190.70833
1141.687	3284.375
1145.05	3351.70833
1148.412	3311.70833
1151.77	3305.375
1155.126	3301.04167
1158.48	3280.375
1161.831	3298.04167
1165.18	3283.375
1168.525	3335.70833
1171.869	3329.375
1175.21	3356.04167
1178.548	3416.375
1181.884	3416.70833
1185.217	3466.04167
1188.548	3493.375
1191.877	3599.70833
1195.202	3660.375
1198.526	3742.04167
1201.846	3792.04167
1205.165	3764.04167
1208.48	3754.04167
1211.794	3752.375
1215.104	3764.04167
1218.413	3726.375
1221.719	3742.375
1225.022	3673.375
1228.323	3657.375
1231.621	3612.04167
1234.917	3595.375
1238.21	3606.375
1241.501	3573.70833
1244.79	3547.375
1248.076	3540.04167
1251.359	3595.375
1254.64	3666.375
1257.919	3661.04167
1261.195	3701.04167
1264.468	3785.04167
1267.74	3806.375
1271.008	3804.70833
1274.275	3826.04167
1277.538	3796.375
1280.8	3770.04167
1284.059	3798.04167
1287.315	3786.70833
1290.569	3848.04167
1293.821	3809.70833
1297.07	3839.04167
1300.317	3834.04167
1303.562	3820.375
1306.803	3772.04167
1310.043	3770.04167
1313.28	3734.70833
1316.515	3715.04167
1319.747	3727.375
1322.977	3681.04167
1326.204	3657.375
1329.429	3629.375
1332.652	3617.375
1335.872	3630.04167
1339.09	3579.375
1342.306	3577.375
1345.519	3554.70833
1348.729	3500.375
1351.938	3517.70833
1355.144	3462.70833
1358.347	3429.70833
1361.548	3363.70833
1364.747	3360.04167
1367.944	3337.375
1371.138	3359.70833
1374.329	3318.04167
1377.518	3346.04167
1380.705	3375.04167
1383.89	3382.375
1387.072	3263.375
1390.252	3167.70833
1393.429	3073.04167
1396.605	2987.70833
1399.777	2915.375
1402.948	2908.70833
1406.116	2875.04167
1409.282	2860.70833
1412.445	2871.70833
1415.606	2909.375
1418.765	2938.375
1421.921	2950.04167
1425.075	3006.04167
1428.227	3075.04167
1431.376	3187.375
1434.524	3280.04167
1437.668	3353.70833
1440.811	3401.375
1443.951	3441.70833
1447.089	3443.375
1450.224	3422.70833
1453.357	3405.70833
1456.488	3375.70833
1459.617	3326.04167
1462.743	3266.375
1465.867	3214.375
1468.989	3159.04167
1472.108	3096.04167
1475.225	3063.04167
1478.34	3033.04167
1481.453	2991.375
1484.563	2982.375
1487.671	3023.375
1490.776	3087.04167
1493.88	3080.375
1496.981	3122.04167
1500.08	3177.375
1503.176	3203.04167
1506.271	3232.70833
1509.363	3296.375
1512.452	3311.04167
1515.54	3366.375
1518.625	3381.70833
1521.708	3440.04167
1524.789	3543.04167
1527.867	3630.04167
1530.944	3814.70833
1534.018	3972.04167
1537.089	4121.375
1540.159	4123.04167
1543.226	4113.375
1546.291	4053.375
1549.354	3953.375
1552.415	3854.70833
1555.473	3786.70833
1558.529	3750.70833
1561.583	3697.04167
1564.634	3658.375
1567.684	3658.375
1570.731	3674.04167
1573.776	3693.375
1576.819	3773.04167
1579.859	3800.70833
1582.898	3855.04167
1585.934	3893.70833
1588.968	3861.70833
1591.999	3837.70833
1595.029	3864.04167
1598.056	3903.04167
1601.081	3923.04167
1604.104	3918.375
1607.125	3890.70833
1610.144	3794.04167
1613.16	3719.04167
1616.174	3661.375
1619.186	3607.375
1622.196	3503.04167
1625.203	3433.70833
1628.209	3371.70833
1631.212	3353.375
1634.213	3369.375
1637.212	3379.375
1640.209	3383.70833
1643.203	3319.375
1646.196	3177.375
1649.186	3063.70833
1652.174	2973.70833
1655.16	2894.375
1658.144	2848.04167
1661.125	2711.70833
1664.105	2612.04167
1667.082	2498.70833
1670.057	2375.04167
1673.03	2227.04167
1676.001	2130.375
1678.97	1996.70833
1681.937	1892.70833
1684.901	1797.70833
1687.863	1758.70833
1690.824	1675.70833
1693.782	1672.70833
1696.738	1596.70833
1699.692	1571.70833
1702.643	1525.70833
1705.593	1531.375
1708.54	1511.04167
1711.486	1499.70833
1714.429	1483.70833
1717.37	1464.04167
1720.309	1433.375
1723.246	1457.70833
1726.181	1414.04167
1729.113	1423.70833
1732.044	1397.375
1734.972	1388.70833
1737.899	1394.70833
1740.823	1397.04167
1743.745	1356.04167
1746.665	1345.04167
1749.583	1333.04167
1752.499	1312.70833
1755.413	1313.375
1758.325	1276.04167
1761.235	1282.375
1764.142	1274.375
1767.048	1254.375
1769.951	1249.70833
1772.852	1249.375
1775.752	1283.375
1778.649	1312.375
1781.544	1249.04167
1784.437	1215.375
1787.328	1226.70833
1790.217	1192.70833
1793.104	1164.375
1795.989	1168.70833
1798.872	1168.375
1801.753	1183.70833
1804.631	1159.04167
1807.508	1182.04167
1810.383	1168.04167
1813.255	1168.04167
1816.126	1160.375
1818.994	1145.70833
1821.861	1142.375
1824.725	1135.04167
1827.587	1140.70833
1830.448	1123.04167
1833.306	1112.375
1836.162	1109.70833
1839.017	1104.04167
1841.869	1101.04167
1844.719	1086.70833
1847.567	1081.70833
1850.414	1071.04167
1853.258	1069.04167
1856.1	1092.70833
1858.94	1085.70833
1861.778	1074.375
1864.614	1073.70833
1867.448	1080.70833
1870.28	1069.04167
1873.111	1072.70833
1875.939	1071.04167
1878.765	1084.375
1881.589	1055.04167
1884.411	1057.04167
1887.231	1073.375
1890.049	1062.04167
1892.865	1069.04167
1895.68	1048.375
1898.492	1066.375
1901.302	1043.375
1904.11	1026.375
1906.916	1026.375
1909.721	1011.04167
1912.523	1016.375
1915.323	998.70833
1918.122	1005.04167
1920.918	1009.04167
1923.712	995.70833
1926.505	990.375
1929.295	977.04167
1932.084	994.70833
1934.87	991.04167
1937.655	991.70833
1940.438	985.04167
1943.218	988.70833
1945.997	983.04167
1948.774	986.70833
1951.549	977.04167
1954.322	975.70833
1957.093	959.375
1959.862	955.375
1962.629	958.375
1965.394	956.375
1968.157	937.375
1970.918	948.375
1973.678	932.70833
1976.435	954.375
1979.19	928.375
1981.944	930.375
1984.696	913.70833
1987.445	901.04167
1990.193	916.04167
1992.939	933.04167
1995.683	912.04167
1998.425	892.04167
2001.165	932.375
2003.903	893.70833
2006.639	901.70833
2009.374	905.375
2012.106	909.04167
2014.837	874.04167
2017.566	883.375
2020.292	900.70833
2023.017	897.04167
2025.74	881.375
2028.461	869.375
2031.18	880.70833
2033.898	865.04167
2036.613	874.375
2039.327	882.375
2042.038	859.04167
2044.748	856.04167
2047.456	855.375
2050.162	855.70833
2052.866	848.04167
2055.568	861.04167
2058.268	851.70833
2060.967	845.375
2063.663	836.375
2066.358	846.70833
2069.051	832.375
2071.742	852.375
2074.431	844.04167
2077.118	827.04167
2079.804	826.375
2082.487	832.375
2085.169	828.375
2087.849	860.70833
2090.527	814.04167
2093.203	835.70833
2095.877	839.375
2098.55	836.375
2101.22	844.70833
2103.889	855.70833
2106.556	842.04167
2109.221	865.375
2111.884	867.70833
2114.546	918.70833
2117.205	958.375
2119.863	1010.375
2122.519	1054.375
2125.173	1119.70833
2127.825	1181.375
2130.475	1177.375
2133.124	1142.04167
2135.771	1108.375
2138.416	1077.375
2141.059	1014.375
2143.7	978.70833
2146.339	924.04167
2148.977	874.70833
2151.613	878.70833
2154.247	847.04167
2156.879	831.04167
2159.51	813.70833
2162.138	799.70833
2164.765	796.04167
2167.39	793.04167
2170.013	797.04167
2172.634	787.70833
2175.254	768.70833
2177.872	810.375
2180.488	745.70833
2183.102	760.70833
2185.714	750.04167
2188.325	730.375
2190.934	736.04167
2193.541	743.04167
2196.146	725.375
2198.75	709.04167
2201.351	716.375
2203.951	710.04167
2206.549	720.04167
2209.146	715.04167
2211.74	701.04167
2214.333	712.375
2216.924	691.04167
2219.514	692.375
2222.101	691.04167
2224.687	703.375
2227.271	700.04167
2229.853	672.04167
2232.433	673.375
2235.012	702.04167
2237.589	690.04167
2240.164	700.04167
2242.738	675.04167
2245.309	667.70833
2247.879	682.70833
2250.448	669.375
2253.014	646.70833
2255.579	656.70833
2258.142	651.04167
2260.703	638.70833
2263.262	645.04167
2265.82	641.70833
2268.376	634.70833
2270.93	630.375
2273.483	630.70833
2276.033	635.70833
2278.583	616.70833
2281.13	621.04167
2283.675	623.70833
2286.219	614.70833
2288.761	621.70833
2291.302	614.375
2293.841	622.375
2296.377	608.70833
2298.913	612.375
2301.446	631.70833
2303.978	613.375
2306.508	611.375
2309.037	595.70833
2311.563	603.70833
2314.088	607.70833
2316.612	586.70833
2319.133	595.375
2321.653	591.375
2324.171	593.375
2326.688	599.375
2329.202	588.04167
2331.715	587.70833
2334.227	588.375
2336.736	586.04167
2339.244	570.70833
2341.751	571.375
2344.255	593.375
2346.758	580.04167
2349.259	560.375
2351.759	573.04167
2354.257	571.375
2356.753	553.375
2359.247	566.70833
2361.74	572.04167
2364.231	571.70833
2366.721	557.04167
2369.209	559.70833
2371.695	563.375
2374.179	547.04167
2376.662	555.04167
2379.143	568.375
2381.622	562.04167
2384.1	570.375
2386.576	551.375
2389.051	577.375
2391.524	561.375
2393.995	565.04167
2396.464	548.04167
2398.932	547.375
2401.398	547.04167
2403.863	545.375
2406.325	541.04167
2408.787	544.70833
2411.246	545.375
2413.704	538.04167
2416.16	546.375
2418.615	537.70833
2421.068	549.70833
2423.519	545.375
2425.969	527.375
2428.417	533.375
2430.863	562.70833
2433.308	534.04167
2435.751	542.70833
2438.193	539.375
2440.633	544.70833
2443.071	533.375
2445.508	535.375
2447.943	526.70833
2450.376	522.04167
2452.808	526.375
2455.238	523.375
2457.667	562.70833
2460.093	515.70833
2462.519	513.04167
2464.942	519.04167
2467.365	534.04167
2469.785	532.04167
2472.204	515.70833
2474.621	517.70833
2477.037	536.04167
2479.451	503.70833
2481.863	509.375
2484.274	515.70833
2486.683	514.375
2489.091	534.375
2491.497	506.70833
2493.901	524.70833
2496.304	513.70833
2498.705	519.375
2501.105	500.70833
2503.503	532.04167
2505.899	503.04167
2508.294	535.375
2510.687	502.375
2513.079	513.375
2515.469	495.70833
2517.858	513.04167
2520.245	515.375
2522.63	501.04167
2525.014	504.70833
2527.396	501.70833
2529.776	495.70833
2532.156	504.70833
2534.533	501.70833
2536.909	492.70833
2539.283	484.375
2541.656	495.70833
2544.027	510.04167
2546.397	500.375
2548.765	487.04167
2551.131	497.375
2553.496	497.70833
2555.86	503.70833
2558.221	493.375
2560.582	491.70833
2562.94	484.375
2565.298	490.70833
2567.653	514.70833
2570.007	480.375
2572.36	499.04167
2574.711	483.375
2577.06	508.04167
2579.408	513.70833
2581.754	486.375
2584.099	495.04167
2586.442	492.70833
2588.784	502.04167
2591.124	490.70833
2593.463	493.375
2595.8	505.375
2598.135	488.70833
2600.469	481.70833
2602.802	496.70833
2605.133	510.04167
2607.462	479.375
2609.79	477.375
2612.116	496.375
2614.441	493.375
2616.764	495.70833
2619.086	492.375
2621.406	477.70833
2623.725	500.70833
2626.042	491.375
2628.358	480.04167
2630.672	476.70833
2632.985	502.375
2635.296	492.375
2637.606	495.375
2639.914	479.70833
2642.22	493.375
2644.525	492.04167
2646.829	494.04167
2649.131	504.375
2651.432	508.375
2653.731	487.04167
2656.028	514.375
2658.324	510.70833
2660.619	497.70833
2662.912	504.70833
2665.204	488.70833
2667.494	498.375
2669.782	492.04167
2672.07	508.70833
2674.355	504.375
2676.639	506.04167
2678.922	491.04167
2681.203	497.375
2683.483	490.70833
2685.761	491.04167
2688.038	507.04167
2690.313	517.04167
2692.587	498.04167
2694.859	494.375
2697.13	499.04167
2699.399	510.04167
2701.667	514.70833
2703.933	509.04167
2706.198	525.04167
2708.461	526.70833
2710.723	523.04167
2712.984	523.04167
2715.243	521.375
2717.5	511.70833
2719.757	533.04167
2722.011	526.70833
2724.264	540.70833
2726.516	550.375
2728.766	529.70833
2731.015	534.70833
2733.262	539.04167
2735.508	545.04167
2737.753	539.375
2739.996	529.70833
2742.237	522.04167
2744.477	542.70833
2746.716	537.70833
2748.953	528.375
2751.189	524.70833
2753.423	511.70833
2755.656	506.70833
2757.887	514.04167
2760.117	521.70833
2762.346	514.04167
2764.573	501.04167
2766.798	512.375
2769.022	507.70833
2771.245	513.70833
2773.467	521.70833
2775.686	519.375
2777.905	523.70833
2780.122	528.375
2782.337	533.375
2784.552	529.375
2786.764	534.70833
2788.976	532.04167
2791.186	531.04167
2793.394	541.04167
2795.601	545.04167
2797.807	560.04167
2800.011	554.70833
2802.214	563.70833
2804.415	555.70833
2806.615	559.70833
2808.814	564.70833
2811.011	570.70833
2813.206	575.70833
2815.401	590.70833
2817.594	587.375
2819.785	601.375
2821.975	592.04167
2824.164	588.375
2826.351	620.375
2828.537	625.04167
2830.722	638.375
2832.905	624.04167
2835.086	657.375
2837.267	687.375
2839.445	706.04167
2841.623	726.04167
2843.799	729.70833
2845.974	752.375
2848.147	780.375
2850.319	813.375
2852.489	828.375
2854.659	834.70833
2856.826	841.375
2858.993	884.375
2861.158	857.70833
2863.321	847.375
2865.483	877.04167
2867.644	881.70833
2869.804	870.70833
2871.962	861.70833
2874.118	877.375
2876.274	917.70833
2878.428	905.375
2880.58	886.70833
2882.731	876.70833
2884.881	874.70833
2887.03	873.375
2889.177	873.375
2891.322	892.04167
2893.467	863.70833
2895.61	855.70833
2897.751	894.375
2899.892	882.70833
2902.03	888.04167
2904.168	890.70833
2906.304	895.375
2908.439	909.70833
2910.572	901.375
2912.704	907.70833
2914.835	919.04167
2916.965	901.375
2919.093	932.70833
2921.219	886.375
2923.345	904.375
2925.469	895.04167
2927.591	888.04167
2929.712	864.04167
2931.832	858.375
2933.951	837.04167
2936.068	823.70833
2938.184	807.375
2940.299	791.70833
2942.412	787.04167
2944.524	748.375
2946.634	745.04167
2948.744	708.04167
2950.851	733.04167
2952.958	689.70833
2955.063	690.375
2957.167	689.375
2959.269	667.70833
2961.371	684.375
2963.471	643.04167
2965.569	640.70833
2967.666	632.04167
2969.762	632.04167
2971.857	610.375
2973.95	597.375
2976.042	603.04167
2978.133	570.04167
2980.222	581.04167
2982.31	550.375
2984.396	542.375
2986.482	542.375
2988.566	537.04167
2990.648	534.70833
2992.73	531.70833
2994.81	530.04167
2996.889	524.04167
2998.966	526.04167
3001.042	527.70833
3003.117	524.04167
3005.191	519.375
3007.263	517.04167
3009.334	505.375
3011.403	511.04167
3013.472	499.375
3015.539	498.70833
3017.604	491.70833
3019.669	469.375
3021.732	476.04167
3023.794	471.70833
3025.854	469.375
3027.914	467.375
3029.971	474.375
3032.028	471.375
3034.083	467.04167
3036.137	458.70833
3038.19	449.04167
3040.242	436.04167
3042.292	426.04167
3044.341	425.04167
3046.388	432.04167
3048.435	414.70833
3050.48	427.04167
3052.524	424.70833
3054.566	410.04167
3056.607	407.04167
3058.647	403.70833
3060.686	392.375
3062.723	377.70833
3064.759	373.70833
3066.794	-0.95833
3068.828	2.375
3070.86	2.70833
