-0.839	599.54167
3.438	701.20833
7.711	203.20833
11.981	68.54167
16.247	47.875
20.509	49.875
24.768	49.20833
29.024	53.20833
33.276	45.54167
37.524	50.875
41.769	48.20833
46.01	34.54167
50.247	46.20833
54.481	58.20833
58.712	64.54167
62.939	41.875
67.162	62.54167
71.382	56.875
75.599	43.20833
79.812	62.20833
84.021	81.54167
88.227	61.875
92.429	60.54167
96.628	55.54167
100.823	67.54167
105.015	71.875
109.204	68.54167
113.388	72.54167
117.57	71.875
121.748	87.54167
125.922	72.875
130.093	97.875
134.261	93.20833
138.425	96.875
142.585	134.54167
146.742	128.20833
150.896	154.54167
155.046	192.20833
159.193	297.54167
163.336	502.54167
167.476	926.875
171.613	1697.54167
175.746	2828.20833
179.875	4171.875
184.002	5458.875
188.124	6372.54167
192.244	6678.20833
196.36	6605.54167
200.472	6366.875
204.581	6132.20833
208.687	5955.20833
212.79	5854.875
216.889	5788.20833
220.984	5745.20833
225.077	5765.54167
229.165	5696.54167
233.251	5706.875
237.333	5676.875
241.412	5572.875
245.487	5545.875
249.559	5443.54167
253.628	5424.875
257.694	5400.54167
261.756	5329.875
265.814	5269.875
269.87	5082.20833
273.922	4954.54167
277.97	4883.875
282.016	4839.20833
286.058	4858.875
290.097	4980.875
294.132	5093.54167
298.164	5043.20833
302.193	4841.54167
306.219	4498.54167
310.241	4159.875
314.26	3828.875
318.276	3548.20833
322.288	3387.20833
326.297	3228.875
330.303	3137.875
334.305	3035.875
338.305	3003.875
342.301	2949.54167
346.294	2918.54167
350.283	2919.54167
354.269	2856.20833
358.252	2873.54167
362.232	2864.54167
366.209	2850.875
370.182	2798.875
374.152	2822.54167
378.119	2812.54167
382.083	2776.875
386.043	2839.875
390	2784.875
393.954	2796.20833
397.905	2788.875
401.852	2762.20833
405.797	2750.875
409.738	2740.54167
413.676	2738.20833
417.61	2736.875
421.542	2710.20833
425.47	2688.54167
429.396	2671.875
433.318	2668.20833
437.236	2649.54167
441.152	2672.54167
445.065	2621.54167
448.974	2639.20833
452.88	2577.875
456.783	2562.54167
460.683	2559.875
464.58	2587.54167
468.473	2549.875
472.364	2580.54167
476.251	2562.875
480.135	2615.20833
484.016	2644.54167
487.894	2659.20833
491.769	2644.54167
495.641	2664.875
499.509	2652.20833
503.375	2665.20833
507.237	2662.875
511.096	2657.54167
514.952	2633.54167
518.805	2673.875
522.655	2678.54167
526.502	2632.875
530.346	2663.54167
534.187	2673.20833
538.024	2708.875
541.859	2706.54167
545.69	2717.20833
549.519	2703.54167
553.344	2693.875
557.166	2646.54167
560.985	2601.54167
564.802	2567.875
568.615	2513.54167
572.425	2499.875
576.232	2456.875
580.036	2475.875
583.836	2465.54167
587.634	2485.54167
591.429	2491.54167
595.221	2546.54167
599.01	2567.20833
602.796	2608.20833
606.578	2605.54167
610.358	2616.875
614.135	2580.54167
617.909	2571.20833
621.679	2549.875
625.447	2525.54167
629.212	2540.875
632.973	2522.875
636.732	2517.875
640.488	2545.54167
644.241	2501.875
647.991	2483.54167
651.737	2505.875
655.481	2473.875
659.222	2456.875
662.96	2488.875
666.695	2489.875
670.427	2550.54167
674.156	2543.875
677.882	2528.20833
681.605	2532.20833
685.325	2493.54167
689.043	2507.875
692.757	2466.875
696.468	2451.54167
700.177	2455.875
703.882	2438.875
707.585	2414.20833
711.284	2408.875
714.981	2436.20833
718.675	2419.20833
722.366	2450.54167
726.054	2398.875
729.739	2419.875
733.421	2402.54167
737.1	2410.54167
740.777	2437.875
744.45	2434.20833
748.121	2468.875
751.789	2495.20833
755.453	2493.875
759.115	2501.875
762.774	2505.20833
766.431	2536.54167
770.084	2553.875
773.734	2593.20833
777.382	2604.20833
781.027	2654.875
784.669	2624.875
788.308	2676.875
791.944	2685.54167
795.577	2688.875
799.208	2688.54167
802.835	2715.54167
806.46	2719.875
810.082	2723.54167
813.701	2739.875
817.317	2770.54167
820.931	2777.875
824.542	2759.54167
828.149	2707.875
831.754	2691.54167
835.357	2694.875
838.956	2714.20833
842.553	2672.20833
846.146	2666.54167
849.737	2638.875
853.326	2652.54167
856.911	2660.20833
860.493	2681.54167
864.073	2700.875
867.65	2730.875
871.225	2765.54167
874.796	2756.20833
878.365	2764.54167
881.931	2787.875
885.494	2805.875
889.054	2827.54167
892.612	2836.54167
896.166	2821.875
899.719	2805.54167
903.268	2763.20833
906.814	2701.875
910.358	2699.20833
913.899	2678.54167
917.438	2661.875
920.973	2648.875
924.506	2697.20833
928.036	2731.54167
931.564	2775.875
935.088	2794.875
938.61	2825.20833
942.129	2851.875
945.646	2924.20833
949.16	2989.20833
952.671	3029.20833
956.179	3009.875
959.685	2994.875
963.188	2985.875
966.688	2928.20833
970.185	2854.54167
973.68	2780.20833
977.173	2736.20833
980.662	2684.20833
984.149	2688.20833
987.633	2647.875
991.114	2691.875
994.593	2745.875
998.069	2785.875
1001.542	2889.20833
1005.013	2825.54167
1008.481	2687.20833
1011.947	2632.20833
1015.409	2652.875
1018.869	2620.875
1022.327	2645.54167
1025.782	2614.20833
1029.234	2608.54167
1032.683	2580.54167
1036.13	2507.875
1039.574	2403.875
1043.016	2347.20833
1046.455	2289.875
1049.891	2288.20833
1053.325	2312.20833
1056.756	2304.20833
1060.184	2302.54167
1063.61	2337.20833
1067.033	2329.875
1070.454	2347.20833
1073.872	2384.54167
1077.287	2379.875
1080.7	2369.54167
1084.11	2356.54167
1087.517	2331.875
1090.922	2301.875
1094.325	2293.875
1097.724	2268.54167
1101.122	2266.875
1104.516	2280.20833
1107.908	2263.875
1111.298	2322.54167
1114.684	2318.54167
1118.069	2360.875
1121.45	2414.20833
1124.83	2397.875
1128.206	2413.54167
1131.58	2433.875
1134.951	2491.875
1138.32	2585.875
1141.687	2670.20833
1145.05	2707.875
1148.412	2731.54167
1151.77	2673.54167
1155.126	2690.20833
1158.48	2680.20833
1161.831	2684.20833
1165.18	2693.54167
1168.525	2721.875
1171.869	2740.54167
1175.21	2761.875
1178.548	2807.54167
1181.884	2841.20833
1185.217	2861.20833
1188.548	2944.54167
1191.877	2983.54167
1195.202	3097.875
1198.526	3173.20833
1201.846	3192.54167
1205.165	3157.20833
1208.48	3168.54167
1211.794	3167.875
1215.104	3186.54167
1218.413	3169.54167
1221.719	3151.875
1225.022	3107.20833
1228.323	3065.20833
1231.621	3015.20833
1234.917	3004.875
1238.21	3012.875
1241.501	2978.875
1244.79	2961.20833
1248.076	2971.54167
1251.359	3002.20833
1254.64	3060.875
1257.919	3076.54167
1261.195	3134.20833
1264.468	3180.20833
1267.74	3229.875
1271.008	3229.20833
1274.275	3240.20833
1277.538	3219.54167
1280.8	3197.20833
1284.059	3195.54167
1287.315	3225.54167
1290.569	3226.875
1293.821	3274.54167
1297.07	3283.875
1300.317	3281.54167
1303.562	3269.20833
1306.803	3267.54167
1310.043	3260.54167
1313.28	3224.875
1316.515	3201.875
1319.747	3184.875
1322.977	3150.875
1326.204	3119.20833
1329.429	3093.20833
1332.652	3080.54167
1335.872	3036.20833
1339.09	3020.54167
1342.306	2961.20833
1345.519	2903.20833
1348.729	2874.20833
1351.938	2860.20833
1355.144	2821.875
1358.347	2795.875
1361.548	2769.54167
1364.747	2789.20833
1367.944	2748.20833
1371.138	2768.875
1374.329	2786.54167
1377.518	2794.875
1380.705	2845.20833
1383.89	2813.875
1387.072	2731.875
1390.252	2632.875
1393.429	2515.20833
1396.605	2445.875
1399.777	2375.20833
1402.948	2348.875
1406.116	2347.20833
1409.282	2346.54167
1412.445	2337.20833
1415.606	2390.20833
1418.765	2416.875
1421.921	2465.54167
1425.075	2493.875
1428.227	2580.54167
1431.376	2701.54167
1434.524	2789.20833
1437.668	2857.875
1440.811	2876.875
1443.951	2927.54167
1447.089	2960.875
1450.224	2923.875
1453.357	2899.20833
1456.488	2890.20833
1459.617	2825.875
1462.743	2787.875
1465.867	2724.875
1468.989	2704.54167
1472.108	2628.875
1475.225	2604.20833
1478.34	2569.54167
1481.453	2550.20833
1484.563	2553.20833
1487.671	2601.20833
1490.776	2620.54167
1493.88	2656.875
1496.981	2700.20833
1500.08	2740.875
1503.176	2770.20833
1506.271	2790.54167
1509.363	2831.875
1512.452	2858.20833
1515.54	2879.54167
1518.625	2924.54167
1521.708	3009.20833
1524.789	3058.20833
1527.867	3166.20833
1530.944	3337.875
1534.018	3456.875
1537.089	3590.20833
1540.159	3626.54167
1543.226	3625.54167
1546.291	3556.54167
1549.354	3487.20833
1552.415	3423.20833
1555.473	3348.875
1558.529	3286.875
1561.583	3251.875
1564.634	3222.54167
1567.684	3215.20833
1570.731	3247.20833
1573.776	3307.20833
1576.819	3324.54167
1579.859	3359.20833
1582.898	3386.20833
1585.934	3431.54167
1588.968	3443.54167
1591.999	3450.875
1595.029	3465.20833
1598.056	3487.54167
1601.081	3527.54167
1604.104	3501.54167
1607.125	3467.54167
1610.144	3400.54167
1613.16	3294.20833
1616.174	3235.54167
1619.186	3173.875
1622.196	3107.875
1625.203	2997.20833
1628.209	2955.875
1631.212	2937.54167
1634.213	2937.54167
1637.212	2893.20833
1640.209	2851.875
1643.203	2769.20833
1646.196	2679.54167
1649.186	2579.54167
1652.174	2473.54167
1655.16	2414.54167
1658.144	2346.54167
1661.125	2243.54167
1664.105	2159.20833
1667.082	2051.54167
1670.057	1972.54167
1673.03	1835.20833
1676.001	1722.20833
1678.97	1616.54167
1681.937	1521.875
1684.901	1416.20833
1687.863	1396.54167
1690.824	1313.54167
1693.782	1295.54167
1696.738	1227.54167
1699.692	1217.20833
1702.643	1182.54167
1705.593	1182.20833
1708.54	1158.54167
1711.486	1151.875
1714.429	1116.54167
1717.37	1118.54167
1720.309	1093.54167
1723.246	1100.20833
1726.181	1072.54167
1729.113	1058.875
1732.044	1064.20833
1734.972	1051.20833
1737.899	1050.20833
1740.823	1034.20833
1743.745	998.875
1746.665	1003.54167
1749.583	991.54167
1752.499	985.875
1755.413	971.54167
1758.325	951.54167
1761.235	935.875
1764.142	923.875
1767.048	903.875
1769.951	915.875
1772.852	914.875
1775.752	902.54167
1778.649	896.54167
1781.544	897.875
1784.437	873.875
1787.328	893.875
1790.217	879.875
1793.104	849.20833
1795.989	852.875
1798.872	847.20833
1801.753	851.875
1804.631	860.20833
1807.508	851.875
1810.383	863.875
1813.255	828.20833
1816.126	842.54167
1818.994	836.20833
1821.861	834.54167
1824.725	830.20833
1827.587	820.875
1830.448	818.20833
1833.306	794.875
1836.162	809.875
1839.017	805.875
1841.869	784.20833
1844.719	803.54167
1847.567	779.20833
1850.414	783.20833
1853.258	784.20833
1856.1	780.875
1858.94	801.875
1861.778	784.20833
1864.614	774.20833
1867.448	783.875
1870.28	772.875
1873.111	789.875
1875.939	775.20833
1878.765	785.875
1881.589	763.20833
1884.411	766.54167
1887.231	764.875
1890.049	757.875
1892.865	767.54167
1895.68	749.875
1898.492	754.20833
1901.302	744.875
1904.11	744.20833
1906.916	733.875
1909.721	740.54167
1912.523	730.54167
1915.323	719.875
1918.122	722.54167
1920.918	734.54167
1923.712	728.54167
1926.505	708.54167
1929.295	710.54167
1932.084	727.54167
1934.87	729.875
1937.655	723.20833
1940.438	706.20833
1943.218	703.20833
1945.997	714.20833
1948.774	717.54167
1951.549	730.20833
1954.322	707.20833
1957.093	699.54167
1959.862	698.875
1962.629	682.54167
1965.394	694.875
1968.157	676.875
1970.918	677.20833
1973.678	665.875
1976.435	692.875
1979.19	667.20833
1981.944	664.20833
1984.696	670.20833
1987.445	662.54167
1990.193	669.20833
1992.939	672.875
1995.683	666.54167
1998.425	649.54167
2001.165	678.875
2003.903	645.54167
2006.639	649.54167
2009.374	656.54167
2012.106	653.20833
2014.837	630.875
2017.566	646.875
2020.292	650.54167
2023.017	646.54167
2025.74	645.875
2028.461	634.20833
2031.18	630.875
2033.898	625.875
2036.613	633.20833
2039.327	635.875
2042.038	618.875
2044.748	623.20833
2047.456	638.54167
2050.162	608.20833
2052.866	604.20833
2055.568	622.875
2058.268	611.20833
2060.967	620.54167
2063.663	604.54167
2066.358	607.54167
2069.051	606.875
2071.742	604.20833
2074.431	604.20833
2077.118	597.20833
2079.804	594.54167
2082.487	599.54167
2085.169	598.875
2087.849	620.54167
2090.527	594.54167
2093.203	600.875
2095.877	612.875
2098.55	604.875
2101.22	611.54167
2103.889	623.20833
2106.556	617.20833
2109.221	632.875
2111.884	637.54167
2114.546	687.20833
2117.205	714.54167
2119.863	762.875
2122.519	790.20833
2125.173	859.20833
2127.825	888.875
2130.475	882.20833
2133.124	846.875
2135.771	820.875
2138.416	790.54167
2141.059	731.20833
2143.7	706.20833
2146.339	662.875
2148.977	635.875
2151.613	640.875
2154.247	614.20833
2156.879	598.54167
2159.51	578.875
2162.138	584.54167
2164.765	576.54167
2167.39	556.54167
2170.013	580.20833
2172.634	565.875
2175.254	554.20833
2177.872	587.54167
2180.488	543.54167
2183.102	554.875
2185.714	542.54167
2188.325	519.875
2190.934	524.20833
2193.541	535.875
2196.146	527.20833
2198.75	520.20833
2201.351	516.54167
2203.951	511.20833
2206.549	525.54167
2209.146	512.54167
2211.74	499.20833
2214.333	514.875
2216.924	481.875
2219.514	504.54167
2222.101	494.875
2224.687	502.54167
2227.271	500.20833
2229.853	483.20833
2232.433	475.54167
2235.012	510.20833
2237.589	495.875
2240.164	498.20833
2242.738	487.20833
2245.309	478.20833
2247.879	485.875
2250.448	487.20833
2253.014	468.20833
2255.579	459.875
2258.142	463.875
2260.703	452.54167
2263.262	470.54167
2265.82	451.20833
2268.376	459.54167
2270.93	440.54167
2273.483	457.20833
2276.033	455.20833
2278.583	446.54167
2281.13	442.20833
2283.675	437.20833
2286.219	436.20833
2288.761	438.54167
2291.302	442.54167
2293.841	446.54167
2296.377	420.20833
2298.913	429.875
2301.446	447.20833
2303.978	434.20833
2306.508	419.875
2309.037	430.20833
2311.563	426.20833
2314.088	433.20833
2316.612	415.20833
2319.133	429.20833
2321.653	433.20833
2324.171	411.875
2326.688	433.20833
2329.202	416.20833
2331.715	410.875
2334.227	404.20833
2336.736	416.875
2339.244	411.875
2341.751	401.875
2344.255	417.875
2346.758	406.20833
2349.259	382.54167
2351.759	398.20833
2354.257	391.20833
2356.753	391.875
2359.247	395.54167
2361.74	404.875
2364.231	392.54167
2366.721	403.875
2369.209	384.875
2371.695	396.54167
2374.179	387.54167
2376.662	376.20833
2379.143	401.875
2381.622	389.20833
2384.1	401.20833
2386.576	381.20833
2389.051	389.875
2391.524	403.20833
2393.995	392.54167
2396.464	378.20833
2398.932	387.54167
2401.398	373.875
2403.863	375.875
2406.325	368.875
2408.787	382.875
2411.246	375.20833
2413.704	361.875
2416.16	367.20833
2418.615	375.875
2421.068	377.875
2423.519	376.54167
2425.969	369.875
2428.417	373.875
2430.863	393.20833
2433.308	377.20833
2435.751	369.54167
2438.193	366.20833
2440.633	368.875
2443.071	366.875
2445.508	368.20833
2447.943	361.875
2450.376	362.54167
2452.808	357.875
2455.238	353.54167
2457.667	401.54167
2460.093	357.54167
2462.519	349.20833
2464.942	353.54167
2467.365	368.20833
2469.785	363.875
2472.204	358.54167
2474.621	346.54167
2477.037	370.20833
2479.451	336.54167
2481.863	346.54167
2484.274	344.20833
2486.683	358.20833
2489.091	357.875
2491.497	348.54167
2493.901	353.54167
2496.304	341.54167
2498.705	350.20833
2501.105	338.875
2503.503	372.54167
2505.899	332.20833
2508.294	353.20833
2510.687	347.54167
2513.079	345.20833
2515.469	328.875
2517.858	344.875
2520.245	343.54167
2522.63	336.54167
2525.014	334.20833
2527.396	330.54167
2529.776	315.875
2532.156	349.20833
2534.533	320.875
2536.909	324.54167
2539.283	312.20833
2541.656	325.20833
2544.027	350.54167
2546.397	322.20833
2548.765	323.875
2551.131	325.875
2553.496	328.20833
2555.86	329.20833
2558.221	332.20833
2560.582	319.54167
2562.94	315.875
2565.298	327.54167
2567.653	332.20833
2570.007	308.875
2572.36	331.20833
2574.711	309.54167
2577.06	331.54167
2579.408	324.20833
2581.754	319.875
2584.099	325.54167
2586.442	318.54167
2588.784	318.875
2591.124	321.20833
2593.463	317.20833
2595.8	318.20833
2598.135	309.54167
2600.469	313.20833
2602.802	324.20833
2605.133	327.54167
2607.462	305.20833
2609.79	299.54167
2612.116	317.54167
2614.441	316.54167
2616.764	318.20833
2619.086	310.875
2621.406	301.54167
2623.725	324.20833
2626.042	324.20833
2628.358	308.875
2630.672	301.54167
2632.985	321.20833
2635.296	318.875
2637.606	312.875
2639.914	310.20833
2642.22	315.875
2644.525	308.20833
2646.829	314.20833
2649.131	322.875
2651.432	329.54167
2653.731	315.20833
2656.028	319.20833
2658.324	328.20833
2660.619	316.20833
2662.912	324.875
2665.204	305.20833
2667.494	325.875
2669.782	308.54167
2672.07	322.875
2674.355	319.54167
2676.639	320.20833
2678.922	313.20833
2681.203	312.875
2683.483	306.54167
2685.761	311.54167
2688.038	311.875
2690.313	329.875
2692.587	315.875
2694.859	313.875
2697.13	324.875
2699.399	332.20833
2701.667	327.20833
2703.933	329.54167
2706.198	327.875
2708.461	339.875
2710.723	328.875
2712.984	327.875
2715.243	333.875
2717.5	324.54167
2719.757	340.875
2722.011	335.20833
2724.264	350.20833
2726.516	339.54167
2728.766	333.875
2731.015	343.20833
2733.262	341.20833
2735.508	342.54167
2737.753	341.54167
2739.996	331.54167
2742.237	320.54167
2744.477	339.20833
2746.716	337.20833
2748.953	329.20833
2751.189	337.54167
2753.423	315.54167
2755.656	315.20833
2757.887	315.20833
2760.117	320.54167
2762.346	310.54167
2764.573	302.54167
2766.798	313.875
2769.022	309.20833
2771.245	316.20833
2773.467	318.875
2775.686	323.54167
2777.905	326.875
2780.122	333.20833
2782.337	325.54167
2784.552	320.875
2786.764	322.20833
2788.976	340.20833
2791.186	330.875
2793.394	338.20833
2795.601	345.20833
2797.807	344.875
2800.011	347.54167
2802.214	355.875
2804.415	347.20833
2806.615	353.20833
2808.814	362.875
2811.011	359.20833
2813.206	357.20833
2815.401	369.54167
2817.594	382.20833
2819.785	387.875
2821.975	379.54167
2824.164	383.875
2826.351	394.54167
2828.537	409.20833
2830.722	425.875
2832.905	422.54167
2835.086	452.54167
2837.267	465.20833
2839.445	476.20833
2841.623	496.20833
2843.799	510.20833
2845.974	536.20833
2848.147	558.54167
2850.319	582.20833
2852.489	613.54167
2854.659	608.20833
2856.826	627.20833
2858.993	656.20833
2861.158	628.875
2863.321	634.20833
2865.483	651.54167
2867.644	649.54167
2869.804	636.54167
2871.962	646.54167
2874.118	652.875
2876.274	642.875
2878.428	642.54167
2880.58	642.20833
2882.731	642.54167
2884.881	646.875
2887.03	644.54167
2889.177	643.54167
2891.322	650.875
2893.467	659.875
2895.61	649.20833
2897.751	675.875
2899.892	666.875
2902.03	666.20833
2904.168	677.875
2906.304	666.54167
2908.439	690.875
2910.572	682.20833
2912.704	697.20833
2914.835	695.54167
2916.965	679.20833
2919.093	699.875
2921.219	681.54167
2923.345	692.20833
2925.469	669.54167
2927.591	667.20833
2929.712	648.54167
2931.832	646.54167
2933.951	634.20833
2936.068	622.875
2938.184	611.875
2940.299	583.54167
2942.412	578.54167
2944.524	554.54167
2946.634	544.20833
2948.744	497.20833
2950.851	524.20833
2952.958	483.54167
2955.063	483.875
2957.167	483.875
2959.269	446.875
2961.371	480.20833
2963.471	433.875
2965.569	442.54167
2967.666	413.875
2969.762	422.54167
2971.857	416.20833
2973.95	390.54167
2976.042	385.54167
2978.133	380.54167
2980.222	372.20833
2982.31	355.875
2984.396	340.20833
2986.482	344.875
2988.566	336.54167
2990.648	327.20833
2992.73	323.54167
2994.81	326.54167
2996.889	323.20833
2998.966	320.54167
3001.042	316.875
3003.117	316.54167
3005.191	317.20833
3007.263	317.875
3009.334	302.54167
3011.403	305.20833
3013.472	297.54167
3015.539	308.875
3017.604	309.875
3019.669	266.875
3021.732	277.875
3023.794	287.20833
3025.854	279.20833
3027.914	272.54167
3029.971	285.54167
3032.028	271.54167
3034.083	273.54167
3036.137	275.20833
3038.19	265.54167
3040.242	255.875
3042.292	246.20833
3044.341	252.875
3046.388	263.20833
3048.435	241.54167
3050.48	258.20833
3052.524	250.54167
3054.566	238.20833
3056.607	245.54167
3058.647	240.54167
3060.686	227.875
3062.723	220.20833
3064.759	203.20833
3066.794	-1.125
3068.828	1.875
3070.86	3.54167
