-0.839	535.625
3.438	648.95833
7.711	192.95833
11.981	60.625
16.247	42.625
20.509	50.95833
24.768	46.95833
29.024	51.29167
33.276	41.95833
37.524	48.625
41.769	48.29167
46.01	33.625
50.247	46.625
54.481	58.29167
58.712	61.29167
62.939	48.625
67.162	63.29167
71.382	54.95833
75.599	43.95833
79.812	63.95833
84.021	77.625
88.227	57.95833
92.429	52.625
96.628	51.95833
100.823	71.29167
105.015	74.625
109.204	60.95833
113.388	70.95833
117.57	72.29167
121.748	88.95833
125.922	76.95833
130.093	98.625
134.261	93.95833
138.425	94.29167
142.585	135.95833
146.742	120.29167
150.896	149.625
155.046	187.95833
159.193	284.625
163.336	486.95833
167.476	894.625
171.613	1632.625
175.746	2708.625
179.875	4034.625
184.002	5310.625
188.124	6189.625
192.244	6457.29167
196.36	6394.29167
200.472	6170.95833
204.581	5949.625
208.687	5723.95833
212.79	5659.95833
216.889	5610.625
220.984	5561.625
225.077	5562.29167
229.165	5506.625
233.251	5493.29167
237.333	5462.95833
241.412	5347.95833
245.487	5265.625
249.559	5191.29167
253.628	5174.29167
257.694	5096.29167
261.756	5044.95833
265.814	4931.625
269.87	4792.625
273.922	4648.625
277.97	4583.95833
282.016	4518.95833
286.058	4540.625
290.097	4647.29167
294.132	4664.29167
298.164	4587.29167
302.193	4433.625
306.219	4122.625
310.241	3855.29167
314.26	3587.625
318.276	3380.625
322.288	3226.29167
326.297	3117.29167
330.303	3022.29167
334.305	2964.29167
338.305	2940.29167
342.301	2896.625
346.294	2862.95833
350.283	2840.625
354.269	2834.95833
358.252	2823.29167
362.232	2793.625
366.209	2789.29167
370.182	2744.95833
374.152	2763.95833
378.119	2749.95833
382.083	2755.625
386.043	2787.29167
390	2711.29167
393.954	2731.95833
397.905	2746.95833
401.852	2737.625
405.797	2687.95833
409.738	2693.29167
413.676	2709.29167
417.61	2707.29167
421.542	2682.29167
425.47	2637.625
429.396	2626.95833
433.318	2620.29167
437.236	2624.95833
441.152	2631.95833
445.065	2574.95833
448.974	2585.625
452.88	2566.29167
456.783	2545.29167
460.683	2543.625
464.58	2533.95833
468.473	2533.29167
472.364	2553.95833
476.251	2547.95833
480.135	2600.29167
484.016	2613.29167
487.894	2641.29167
491.769	2664.29167
495.641	2638.95833
499.509	2661.95833
503.375	2680.625
507.237	2686.29167
511.096	2664.95833
514.952	2819.95833
518.805	2972.95833
522.655	3018.29167
526.502	2823.95833
530.346	2662.95833
534.187	2630.625
538.024	2614.29167
541.859	2625.29167
545.69	2653.95833
549.519	2639.625
553.344	2616.29167
557.166	2604.625
560.985	2541.625
564.802	2512.29167
568.615	2508.625
572.425	2452.95833
576.232	2459.625
580.036	2453.625
583.836	2455.29167
587.634	2468.95833
591.429	2477.625
595.221	2517.625
599.01	2558.29167
602.796	2560.625
606.578	2580.625
610.358	2562.625
614.135	2552.29167
617.909	2529.95833
621.679	2488.29167
625.447	2529.95833
629.212	2494.29167
632.973	2499.29167
636.732	2481.29167
640.488	2492.29167
644.241	2477.95833
647.991	2459.29167
651.737	2495.29167
655.481	2437.29167
659.222	2462.29167
662.96	2474.29167
666.695	2456.29167
670.427	2483.95833
674.156	2484.29167
677.882	2484.625
681.605	2492.625
685.325	2464.29167
689.043	2467.95833
692.757	2413.95833
696.468	2432.29167
700.177	2431.95833
703.882	2406.95833
707.585	2403.29167
711.284	2380.29167
714.981	2381.29167
718.675	2391.29167
722.366	2417.29167
726.054	2375.95833
729.739	2378.625
733.421	2401.29167
737.1	2384.625
740.777	2379.625
744.45	2409.625
748.121	2431.95833
751.789	2461.95833
755.453	2444.625
759.115	2479.625
762.774	2472.95833
766.431	2482.625
770.084	2501.625
773.734	2521.625
777.382	2531.29167
781.027	2545.625
784.669	2576.95833
788.308	2592.95833
791.944	2599.29167
795.577	2605.95833
799.208	2625.29167
802.835	2643.625
806.46	2652.95833
810.082	2640.625
813.701	2656.95833
817.317	2679.29167
820.931	2689.29167
824.542	2681.95833
828.149	2648.29167
831.754	2619.29167
835.357	2607.29167
838.956	2627.95833
842.553	2605.95833
846.146	2586.95833
849.737	2551.625
853.326	2548.625
856.911	2581.95833
860.493	2584.95833
864.073	2621.95833
867.65	2628.625
871.225	2662.29167
874.796	2644.29167
878.365	2675.625
881.931	2687.95833
885.494	2686.95833
889.054	2722.95833
892.612	2740.29167
896.166	2705.29167
899.719	2682.625
903.268	2634.95833
906.814	2632.625
910.358	2578.29167
913.899	2564.625
917.438	2587.625
920.973	2551.29167
924.506	2603.625
928.036	2655.95833
931.564	2697.29167
935.088	2701.95833
938.61	2695.95833
942.129	2758.625
945.646	2800.95833
949.16	2826.95833
952.671	2869.29167
956.179	2837.95833
959.685	2828.625
963.188	2824.29167
966.688	2777.95833
970.185	2737.95833
973.68	2671.625
977.173	2622.95833
980.662	2599.625
984.149	2617.29167
987.633	2556.29167
991.114	2630.625
994.593	2666.625
998.069	2717.29167
1001.542	2754.95833
1005.013	2717.29167
1008.481	2618.625
1011.947	2554.29167
1015.409	2552.29167
1018.869	2533.95833
1022.327	2538.29167
1025.782	2517.625
1029.234	2508.625
1032.683	2492.29167
1036.13	2415.29167
1039.574	2322.95833
1043.016	2259.95833
1046.455	2234.625
1049.891	2204.29167
1053.325	2217.625
1056.756	2232.95833
1060.184	2234.95833
1063.61	2254.95833
1067.033	2253.95833
1070.454	2259.625
1073.872	2273.95833
1077.287	2289.95833
1080.7	2270.95833
1084.11	2270.29167
1087.517	2255.625
1090.922	2208.625
1094.325	2201.625
1097.724	2160.95833
1101.122	2180.625
1104.516	2155.29167
1107.908	2182.29167
1111.298	2216.625
1114.684	2228.95833
1118.069	2248.625
1121.45	2277.29167
1124.83	2261.95833
1128.206	2293.625
1131.58	2310.95833
1134.951	2369.95833
1138.32	2433.95833
1141.687	2493.625
1145.05	2554.625
1148.412	2531.625
1151.77	2533.625
1155.126	2521.29167
1158.48	2511.95833
1161.831	2508.29167
1165.18	2522.625
1168.525	2558.95833
1171.869	2583.29167
1175.21	2585.95833
1178.548	2638.29167
1181.884	2662.95833
1185.217	2686.29167
1188.548	2760.29167
1191.877	2782.95833
1195.202	2882.29167
1198.526	2918.95833
1201.846	2958.29167
1205.165	2939.625
1208.48	2953.29167
1211.794	2916.29167
1215.104	2954.625
1218.413	2952.625
1221.719	2956.29167
1225.022	2904.29167
1228.323	2862.29167
1231.621	2838.625
1234.917	2813.29167
1238.21	2833.625
1241.501	2798.95833
1244.79	2802.625
1248.076	2804.95833
1251.359	2813.29167
1254.64	2890.29167
1257.919	2886.29167
1261.195	2910.29167
1264.468	2975.29167
1267.74	3007.95833
1271.008	3018.29167
1274.275	3019.29167
1277.538	2977.95833
1280.8	2994.29167
1284.059	2971.95833
1287.315	2992.625
1290.569	3001.625
1293.821	3043.625
1297.07	3044.625
1300.317	3060.625
1303.562	3077.95833
1306.803	3028.29167
1310.043	3014.95833
1313.28	2997.625
1316.515	2986.29167
1319.747	2959.95833
1322.977	2946.29167
1326.204	2931.29167
1329.429	2910.625
1332.652	2901.625
1335.872	2867.625
1339.09	2849.625
1342.306	2827.29167
1345.519	2804.29167
1348.729	2757.29167
1351.938	2751.95833
1355.144	2722.625
1358.347	2668.625
1361.548	2676.95833
1364.747	2656.95833
1367.944	2634.29167
1371.138	2646.625
1374.329	2631.95833
1377.518	2658.29167
1380.705	2671.29167
1383.89	2617.29167
1387.072	2592.625
1390.252	2490.95833
1393.429	2395.625
1396.605	2350.625
1399.777	2283.625
1402.948	2279.29167
1406.116	2247.29167
1409.282	2241.29167
1412.445	2270.625
1415.606	2280.95833
1418.765	2309.95833
1421.921	2357.29167
1425.075	2394.29167
1428.227	2449.29167
1431.376	2553.29167
1434.524	2633.625
1437.668	2697.29167
1440.811	2719.95833
1443.951	2753.29167
1447.089	2738.95833
1450.224	2762.29167
1453.357	2710.95833
1456.488	2700.95833
1459.617	2658.95833
1462.743	2612.95833
1465.867	2563.29167
1468.989	2517.95833
1472.108	2471.625
1475.225	2438.29167
1478.34	2413.95833
1481.453	2375.29167
1484.563	2387.95833
1487.671	2415.625
1490.776	2451.625
1493.88	2464.29167
1496.981	2517.29167
1500.08	2553.29167
1503.176	2574.625
1506.271	2604.29167
1509.363	2642.95833
1512.452	2664.625
1515.54	2687.625
1518.625	2740.95833
1521.708	2800.625
1524.789	2864.29167
1527.867	2974.29167
1530.944	3113.29167
1534.018	3254.625
1537.089	3351.95833
1540.159	3420.95833
1543.226	3419.625
1546.291	3328.625
1549.354	3272.95833
1552.415	3186.625
1555.473	3132.29167
1558.529	3077.625
1561.583	3042.95833
1564.634	2999.625
1567.684	2997.625
1570.731	3017.95833
1573.776	3054.95833
1576.819	3094.625
1579.859	3129.95833
1582.898	3151.95833
1585.934	3202.625
1588.968	3226.29167
1591.999	3194.29167
1595.029	3197.29167
1598.056	3235.95833
1601.081	3262.625
1604.104	3240.95833
1607.125	3210.29167
1610.144	3157.95833
1613.16	3082.29167
1616.174	3036.95833
1619.186	2980.625
1622.196	2872.625
1625.203	2834.29167
1628.209	2790.625
1631.212	2775.95833
1634.213	2789.29167
1637.212	2812.95833
1640.209	2775.95833
1643.203	2726.625
1646.196	2620.625
1649.186	2491.95833
1652.174	2432.29167
1655.16	2356.625
1658.144	2284.95833
1661.125	2160.95833
1664.105	2092.29167
1667.082	2002.625
1670.057	1893.625
1673.03	1788.95833
1676.001	1687.29167
1678.97	1594.29167
1681.937	1507.625
1684.901	1413.95833
1687.863	1383.29167
1690.824	1309.625
1693.782	1306.95833
1696.738	1251.95833
1699.692	1232.29167
1702.643	1199.29167
1705.593	1174.29167
1708.54	1166.625
1711.486	1169.29167
1714.429	1135.29167
1717.37	1139.625
1720.309	1116.95833
1723.246	1115.625
1726.181	1098.95833
1729.113	1101.95833
1732.044	1082.29167
1734.972	1067.625
1737.899	1078.29167
1740.823	1078.95833
1743.745	1046.29167
1746.665	1031.625
1749.583	1000.625
1752.499	1007.625
1755.413	1011.625
1758.325	980.95833
1761.235	974.29167
1764.142	963.29167
1767.048	951.95833
1769.951	952.625
1772.852	951.625
1775.752	935.29167
1778.649	941.625
1781.544	954.95833
1784.437	923.29167
1787.328	926.625
1790.217	912.95833
1793.104	887.29167
1795.989	882.625
1798.872	900.625
1801.753	904.29167
1804.631	896.95833
1807.508	905.625
1810.383	892.29167
1813.255	896.29167
1816.126	885.95833
1818.994	879.625
1821.861	874.625
1824.725	870.29167
1827.587	864.29167
1830.448	872.29167
1833.306	841.29167
1836.162	865.95833
1839.017	861.29167
1841.869	849.625
1844.719	843.95833
1847.567	827.29167
1850.414	833.625
1853.258	826.625
1856.1	842.29167
1858.94	842.95833
1861.778	838.29167
1864.614	832.625
1867.448	833.95833
1870.28	827.29167
1873.111	842.625
1875.939	830.29167
1878.765	838.95833
1881.589	813.95833
1884.411	827.29167
1887.231	830.29167
1890.049	826.95833
1892.865	818.95833
1895.68	813.29167
1898.492	829.625
1901.302	811.625
1904.11	811.29167
1906.916	800.625
1909.721	795.29167
1912.523	793.625
1915.323	786.625
1918.122	781.95833
1920.918	801.29167
1923.712	780.29167
1926.505	785.625
1929.295	783.29167
1932.084	788.625
1934.87	782.95833
1937.655	783.29167
1940.438	786.625
1943.218	780.29167
1945.997	775.625
1948.774	789.95833
1951.549	789.29167
1954.322	774.29167
1957.093	779.29167
1959.862	764.625
1962.629	766.95833
1965.394	767.29167
1968.157	759.29167
1970.918	759.29167
1973.678	750.95833
1976.435	773.29167
1979.19	756.95833
1981.944	747.625
1984.696	753.95833
1987.445	740.29167
1990.193	741.95833
1992.939	760.29167
1995.683	743.29167
1998.425	723.95833
2001.165	762.95833
2003.903	743.29167
2006.639	740.29167
2009.374	751.625
2012.106	732.29167
2014.837	719.29167
2017.566	734.625
2020.292	741.95833
2023.017	733.95833
2025.74	735.625
2028.461	727.29167
2031.18	735.625
2033.898	718.29167
2036.613	731.625
2039.327	723.29167
2042.038	719.29167
2044.748	717.95833
2047.456	731.29167
2050.162	717.625
2052.866	725.625
2055.568	734.95833
2058.268	722.625
2060.967	713.95833
2063.663	713.625
2066.358	705.29167
2069.051	705.29167
2071.742	715.625
2074.431	721.29167
2077.118	706.95833
2079.804	713.625
2082.487	715.29167
2085.169	724.29167
2087.849	731.625
2090.527	703.29167
2093.203	714.95833
2095.877	729.95833
2098.55	727.625
2101.22	738.625
2103.889	735.95833
2106.556	740.625
2109.221	773.29167
2111.884	776.625
2114.546	827.95833
2117.205	860.625
2119.863	921.625
2122.519	952.95833
2125.173	1012.95833
2127.825	1054.29167
2130.475	1066.29167
2133.124	1032.95833
2135.771	988.95833
2138.416	958.29167
2141.059	909.29167
2143.7	874.29167
2146.339	840.95833
2148.977	802.625
2151.613	793.95833
2154.247	764.625
2156.879	759.29167
2159.51	745.29167
2162.138	732.95833
2164.765	728.95833
2167.39	704.625
2170.013	736.625
2172.634	717.95833
2175.254	699.29167
2177.872	744.625
2180.488	696.625
2183.102	699.625
2185.714	690.95833
2188.325	674.29167
2190.934	678.95833
2193.541	689.625
2196.146	676.625
2198.75	663.95833
2201.351	676.29167
2203.951	664.29167
2206.549	686.625
2209.146	668.95833
2211.74	671.29167
2214.333	673.29167
2216.924	649.29167
2219.514	656.625
2222.101	668.625
2224.687	678.95833
2227.271	655.95833
2229.853	648.95833
2232.433	651.29167
2235.012	664.625
2237.589	669.95833
2240.164	676.625
2242.738	649.625
2245.309	648.29167
2247.879	658.29167
2250.448	662.95833
2253.014	636.29167
2255.579	628.625
2258.142	643.29167
2260.703	619.95833
2263.262	635.95833
2265.82	629.29167
2268.376	639.29167
2270.93	617.95833
2273.483	626.95833
2276.033	625.95833
2278.583	634.625
2281.13	633.95833
2283.675	624.625
2286.219	629.625
2288.761	636.95833
2291.302	637.625
2293.841	642.29167
2296.377	617.95833
2298.913	624.95833
2301.446	641.95833
2303.978	633.29167
2306.508	622.95833
2309.037	624.29167
2311.563	631.625
2314.088	631.29167
2316.612	624.625
2319.133	628.625
2321.653	620.95833
2324.171	622.29167
2326.688	637.29167
2329.202	621.625
2331.715	623.95833
2334.227	602.95833
2336.736	616.625
2339.244	613.95833
2341.751	615.625
2344.255	629.29167
2346.758	628.29167
2349.259	615.95833
2351.759	625.29167
2354.257	622.95833
2356.753	628.625
2359.247	620.29167
2361.74	633.29167
2364.231	631.29167
2366.721	635.625
2369.209	620.29167
2371.695	627.29167
2374.179	626.625
2376.662	627.625
2379.143	628.625
2381.622	622.625
2384.1	638.29167
2386.576	634.29167
2389.051	648.29167
2391.524	648.29167
2393.995	639.625
2396.464	636.29167
2398.932	633.625
2401.398	634.29167
2403.863	629.625
2406.325	637.29167
2408.787	622.29167
2411.246	634.29167
2413.704	625.29167
2416.16	635.625
2418.615	650.29167
2421.068	649.95833
2423.519	655.95833
2425.969	626.625
2428.417	657.29167
2430.863	667.625
2433.308	648.95833
2435.751	662.29167
2438.193	641.29167
2440.633	645.95833
2443.071	659.29167
2445.508	638.29167
2447.943	648.625
2450.376	631.625
2452.808	645.625
2455.238	647.95833
2457.667	690.29167
2460.093	652.29167
2462.519	644.625
2464.942	652.29167
2467.365	647.95833
2469.785	669.29167
2472.204	658.29167
2474.621	649.29167
2477.037	671.95833
2479.451	649.95833
2481.863	649.625
2484.274	654.95833
2486.683	659.29167
2489.091	670.625
2491.497	670.625
2493.901	672.29167
2496.304	667.29167
2498.705	676.29167
2501.105	677.29167
2503.503	690.29167
2505.899	656.625
2508.294	702.29167
2510.687	674.95833
2513.079	668.625
2515.469	670.95833
2517.858	681.95833
2520.245	676.29167
2522.63	670.625
2525.014	673.95833
2527.396	675.29167
2529.776	666.95833
2532.156	687.95833
2534.533	671.29167
2536.909	678.95833
2539.283	671.29167
2541.656	666.29167
2544.027	703.95833
2546.397	687.625
2548.765	691.95833
2551.131	687.95833
2553.496	684.29167
2555.86	705.29167
2558.221	693.29167
2560.582	697.29167
2562.94	688.625
2565.298	693.625
2567.653	708.625
2570.007	693.95833
2572.36	717.625
2574.711	702.29167
2577.06	712.95833
2579.408	712.95833
2581.754	712.29167
2584.099	718.625
2586.442	711.625
2588.784	721.29167
2591.124	724.95833
2593.463	715.29167
2595.8	722.95833
2598.135	700.625
2600.469	713.29167
2602.802	732.95833
2605.133	740.625
2607.462	707.95833
2609.79	719.625
2612.116	726.29167
2614.441	735.29167
2616.764	741.625
2619.086	736.95833
2621.406	723.29167
2623.725	748.29167
2626.042	750.95833
2628.358	731.95833
2630.672	736.625
2632.985	773.625
2635.296	751.625
2637.606	751.625
2639.914	738.95833
2642.22	764.29167
2644.525	765.95833
2646.829	763.625
2649.131	777.95833
2651.432	773.29167
2653.731	783.29167
2656.028	790.625
2658.324	786.29167
2660.619	783.625
2662.912	784.95833
2665.204	764.29167
2667.494	794.29167
2669.782	784.625
2672.07	795.625
2674.355	797.625
2676.639	777.95833
2678.922	785.95833
2681.203	799.29167
2683.483	782.625
2685.761	786.29167
2688.038	800.95833
2690.313	810.625
2692.587	813.625
2694.859	799.29167
2697.13	817.95833
2699.399	823.95833
2701.667	830.95833
2703.933	829.95833
2706.198	827.29167
2708.461	841.29167
2710.723	835.29167
2712.984	840.625
2715.243	846.29167
2717.5	842.29167
2719.757	858.29167
2722.011	857.95833
2724.264	866.29167
2726.516	875.29167
2728.766	860.95833
2731.015	869.29167
2733.262	873.29167
2735.508	886.95833
2737.753	877.95833
2739.996	871.95833
2742.237	861.625
2744.477	873.95833
2746.716	882.29167
2748.953	862.625
2751.189	874.95833
2753.423	851.625
2755.656	864.29167
2757.887	864.29167
2760.117	873.625
2762.346	851.95833
2764.573	845.625
2766.798	859.29167
2769.022	849.625
2771.245	877.95833
2773.467	874.95833
2775.686	870.95833
2777.905	878.95833
2780.122	896.29167
2782.337	895.29167
2784.552	892.29167
2786.764	895.625
2788.976	895.95833
2791.186	904.625
2793.394	921.625
2795.601	918.95833
2797.807	936.95833
2800.011	936.29167
2802.214	940.29167
2804.415	933.625
2806.615	946.95833
2808.814	943.95833
2811.011	951.625
2813.206	949.29167
2815.401	968.625
2817.594	974.625
2819.785	982.29167
2821.975	963.95833
2824.164	969.625
2826.351	1000.625
2828.537	1004.29167
2830.722	1005.29167
2832.905	1027.625
2835.086	1043.29167
2837.267	1056.625
2839.445	1066.29167
2841.623	1085.29167
2843.799	1105.625
2845.974	1134.95833
2848.147	1179.625
2850.319	1187.95833
2852.489	1205.29167
2854.659	1212.29167
2856.826	1236.625
2858.993	1255.29167
2861.158	1239.95833
2863.321	1244.29167
2865.483	1260.625
2867.644	1263.625
2869.804	1247.95833
2871.962	1262.29167
2874.118	1242.29167
2876.274	1246.95833
2878.428	1250.95833
2880.58	1249.29167
2882.731	1226.625
2884.881	1230.95833
2887.03	1241.625
2889.177	1248.625
2891.322	1256.95833
2893.467	1250.29167
2895.61	1245.29167
2897.751	1276.625
2899.892	1270.625
2902.03	1270.29167
2904.168	1276.95833
2906.304	1273.29167
2908.439	1310.29167
2910.572	1296.95833
2912.704	1310.95833
2914.835	1315.95833
2916.965	1320.29167
2919.093	1308.95833
2921.219	1302.95833
2923.345	1312.625
2925.469	1299.95833
2927.591	1287.625
2929.712	1273.625
2931.832	1273.625
2933.951	1259.95833
2936.068	1236.95833
2938.184	1230.29167
2940.299	1209.95833
2942.412	1184.95833
2944.524	1166.95833
2946.634	1168.29167
2948.744	1122.29167
2950.851	1164.95833
2952.958	1138.29167
2955.063	1126.625
2957.167	1127.29167
2959.269	1104.625
2961.371	1129.95833
2963.471	1096.625
2965.569	1103.29167
2967.666	1075.95833
2969.762	1072.625
2971.857	1061.29167
2973.95	1044.29167
2976.042	1057.29167
2978.133	1033.625
2980.222	1018.95833
2982.31	1007.29167
2984.396	984.29167
2986.482	997.625
2988.566	975.95833
2990.648	974.625
2992.73	976.95833
2994.81	958.625
2996.889	970.29167
2998.966	970.625
3001.042	974.95833
3003.117	985.625
3005.191	973.95833
3007.263	976.29167
3009.334	960.29167
3011.403	957.625
3013.472	936.625
3015.539	935.95833
3017.604	927.625
3019.669	897.29167
3021.732	908.29167
3023.794	908.625
3025.854	904.625
3027.914	903.95833
3029.971	921.95833
3032.028	914.29167
3034.083	908.95833
3036.137	890.95833
3038.19	865.625
3040.242	842.95833
3042.292	824.625
3044.341	826.625
3046.388	826.625
3048.435	810.625
3050.48	818.29167
3052.524	817.625
3054.566	791.29167
3056.607	807.29167
3058.647	786.625
3060.686	760.625
3062.723	737.95833
3064.759	718.95833
3066.794	-0.70833
3068.828	2.95833
3070.86	2.625
