-0.839	554.95833
3.438	676.95833
7.711	194.29167
11.981	65.625
16.247	44.29167
20.509	48.29167
24.768	46.29167
29.024	51.95833
33.276	43.625
37.524	50.95833
41.769	47.29167
46.01	30.625
50.247	46.95833
54.481	58.29167
58.712	59.95833
62.939	52.625
67.162	61.95833
71.382	56.29167
75.599	42.95833
79.812	62.625
84.021	79.625
88.227	59.29167
92.429	59.625
96.628	51.29167
100.823	71.625
105.015	75.625
109.204	67.95833
113.388	72.625
117.57	71.95833
121.748	83.29167
125.922	76.625
130.093	92.29167
134.261	91.95833
138.425	92.29167
142.585	134.29167
146.742	121.29167
150.896	147.29167
155.046	188.29167
159.193	292.95833
163.336	504.625
167.476	912.625
171.613	1662.29167
175.746	2775.625
179.875	4082.29167
184.002	5350.625
188.124	6182.625
192.244	6488.29167
196.36	6386.29167
200.472	6160.29167
204.581	5955.95833
208.687	5738.625
212.79	5619.625
216.889	5546.95833
220.984	5547.95833
225.077	5517.29167
229.165	5482.29167
233.251	5476.29167
237.333	5413.95833
241.412	5345.29167
245.487	5284.625
249.559	5211.625
253.628	5181.95833
257.694	5125.95833
261.756	5103.29167
265.814	4997.95833
269.87	4854.29167
273.922	4729.29167
277.97	4645.29167
282.016	4603.625
286.058	4646.625
290.097	4747.95833
294.132	4852.95833
298.164	4813.29167
302.193	4625.95833
306.219	4300.29167
310.241	3939.29167
314.26	3636.29167
318.276	3381.95833
322.288	3219.625
326.297	3055.625
330.303	2954.625
334.305	2881.625
338.305	2851.95833
342.301	2803.29167
346.294	2779.625
350.283	2729.29167
354.269	2721.625
358.252	2709.29167
362.232	2695.95833
366.209	2673.29167
370.182	2655.625
374.152	2638.625
378.119	2624.625
382.083	2639.625
386.043	2645.625
390	2631.625
393.954	2607.95833
397.905	2621.625
401.852	2596.625
405.797	2572.625
409.738	2567.625
413.676	2559.95833
417.61	2570.29167
421.542	2558.29167
425.47	2529.29167
429.396	2509.625
433.318	2475.29167
437.236	2481.625
441.152	2513.625
445.065	2447.29167
448.974	2452.625
452.88	2415.95833
456.783	2398.625
460.683	2396.95833
464.58	2392.625
468.473	2392.625
472.364	2395.625
476.251	2418.625
480.135	2423.625
484.016	2460.95833
487.894	2494.29167
491.769	2481.29167
495.641	2492.625
499.509	2513.29167
503.375	2489.29167
507.237	2491.29167
511.096	2465.625
514.952	2484.95833
518.805	2514.625
522.655	2488.625
526.502	2485.95833
530.346	2490.29167
534.187	2485.29167
538.024	2513.29167
541.859	2547.625
545.69	2557.625
549.519	2545.625
553.344	2518.625
557.166	2480.95833
560.985	2445.625
564.802	2391.95833
568.615	2365.95833
572.425	2317.95833
576.232	2309.29167
580.036	2302.625
583.836	2313.625
587.634	2338.95833
591.429	2320.95833
595.221	2396.95833
599.01	2419.625
602.796	2431.95833
606.578	2436.29167
610.358	2437.29167
614.135	2427.95833
617.909	2396.29167
621.679	2363.625
625.447	2369.29167
629.212	2364.29167
632.973	2373.29167
636.732	2353.625
640.488	2340.625
644.241	2340.29167
647.991	2318.95833
651.737	2354.625
655.481	2327.29167
659.222	2307.95833
662.96	2327.29167
666.695	2352.95833
670.427	2355.29167
674.156	2377.95833
677.882	2352.29167
681.605	2357.95833
685.325	2328.95833
689.043	2332.29167
692.757	2300.29167
696.468	2303.29167
700.177	2315.625
703.882	2268.95833
707.585	2258.625
711.284	2262.29167
714.981	2265.29167
718.675	2266.95833
722.366	2286.95833
726.054	2253.625
729.739	2255.29167
733.421	2279.95833
737.1	2278.95833
740.777	2296.625
744.45	2279.95833
748.121	2295.625
751.789	2355.95833
755.453	2333.95833
759.115	2341.29167
762.774	2346.95833
766.431	2380.95833
770.084	2406.95833
773.734	2423.95833
777.382	2457.29167
781.027	2499.29167
784.669	2492.95833
788.308	2510.29167
791.944	2512.29167
795.577	2511.625
799.208	2517.625
802.835	2539.29167
806.46	2572.625
810.082	2573.625
813.701	2566.29167
817.317	2588.95833
820.931	2580.625
824.542	2561.95833
828.149	2541.95833
831.754	2547.95833
835.357	2528.95833
838.956	2528.95833
842.553	2554.29167
846.146	2507.625
849.737	2496.625
853.326	2500.95833
856.911	2511.625
860.493	2524.29167
864.073	2559.29167
867.65	2586.29167
871.225	2601.625
874.796	2606.95833
878.365	2625.625
881.931	2631.29167
885.494	2646.95833
889.054	2662.95833
892.612	2687.95833
896.166	2663.95833
899.719	2655.95833
903.268	2592.29167
906.814	2582.625
910.358	2545.95833
913.899	2507.29167
917.438	2505.29167
920.973	2519.625
924.506	2536.29167
928.036	2587.95833
931.564	2599.29167
935.088	2635.95833
938.61	2643.625
942.129	2691.29167
945.646	2729.95833
949.16	2795.95833
952.671	2868.95833
956.179	2844.95833
959.685	2820.625
963.188	2821.29167
966.688	2763.625
970.185	2690.29167
973.68	2625.95833
977.173	2577.95833
980.662	2520.625
984.149	2530.29167
987.633	2501.29167
991.114	2556.29167
994.593	2586.625
998.069	2638.625
1001.542	2711.625
1005.013	2669.95833
1008.481	2538.29167
1011.947	2506.95833
1015.409	2490.625
1018.869	2499.625
1022.327	2478.29167
1025.782	2480.625
1029.234	2475.29167
1032.683	2421.625
1036.13	2352.625
1039.574	2262.625
1043.016	2223.625
1046.455	2159.625
1049.891	2183.625
1053.325	2190.95833
1056.756	2173.29167
1060.184	2189.29167
1063.61	2194.29167
1067.033	2223.625
1070.454	2215.625
1073.872	2254.95833
1077.287	2231.95833
1080.7	2239.29167
1084.11	2210.625
1087.517	2224.625
1090.922	2187.95833
1094.325	2155.625
1097.724	2147.625
1101.122	2157.29167
1104.516	2155.29167
1107.908	2154.95833
1111.298	2197.625
1114.684	2218.625
1118.069	2238.29167
1121.45	2275.29167
1124.83	2269.625
1128.206	2281.95833
1131.58	2332.29167
1134.951	2364.95833
1138.32	2458.29167
1141.687	2532.95833
1145.05	2613.95833
1148.412	2586.29167
1151.77	2588.29167
1155.126	2553.95833
1158.48	2545.95833
1161.831	2561.95833
1165.18	2563.29167
1168.525	2616.29167
1171.869	2632.95833
1175.21	2634.95833
1178.548	2655.95833
1181.884	2724.625
1185.217	2731.29167
1188.548	2804.625
1191.877	2850.625
1195.202	2969.29167
1198.526	3017.625
1201.846	3060.29167
1205.165	3028.625
1208.48	3014.625
1211.794	3028.29167
1215.104	3024.95833
1218.413	3025.625
1221.719	3010.95833
1225.022	2962.95833
1228.323	2898.29167
1231.621	2883.29167
1234.917	2846.95833
1238.21	2857.625
1241.501	2846.95833
1244.79	2823.29167
1248.076	2837.95833
1251.359	2866.625
1254.64	2932.95833
1257.919	2910.29167
1261.195	2980.95833
1264.468	3042.95833
1267.74	3064.625
1271.008	3089.625
1274.275	3070.29167
1277.538	3063.95833
1280.8	3061.625
1284.059	3050.29167
1287.315	3090.625
1290.569	3108.625
1293.821	3134.625
1297.07	3134.625
1300.317	3180.625
1303.562	3155.29167
1306.803	3131.625
1310.043	3112.625
1313.28	3077.29167
1316.515	3041.29167
1319.747	3038.95833
1322.977	3018.95833
1326.204	3012.29167
1329.429	2929.625
1332.652	2931.625
1335.872	2912.95833
1339.09	2872.625
1342.306	2820.29167
1345.519	2779.29167
1348.729	2752.625
1351.938	2742.29167
1355.144	2688.625
1358.347	2648.95833
1361.548	2664.29167
1364.747	2656.625
1367.944	2617.95833
1371.138	2639.29167
1374.329	2663.95833
1377.518	2703.29167
1380.705	2693.95833
1383.89	2676.29167
1387.072	2618.29167
1390.252	2491.625
1393.429	2422.95833
1396.605	2345.29167
1399.777	2268.29167
1402.948	2255.29167
1406.116	2261.625
1409.282	2261.29167
1412.445	2255.625
1415.606	2285.95833
1418.765	2301.29167
1421.921	2364.29167
1425.075	2411.625
1428.227	2470.29167
1431.376	2600.29167
1434.524	2668.95833
1437.668	2730.95833
1440.811	2759.625
1443.951	2817.625
1447.089	2823.95833
1450.224	2803.29167
1453.357	2786.625
1456.488	2761.29167
1459.617	2716.95833
1462.743	2678.625
1465.867	2595.29167
1468.989	2572.95833
1472.108	2527.29167
1475.225	2466.95833
1478.34	2440.29167
1481.453	2442.625
1484.563	2437.29167
1487.671	2464.29167
1490.776	2507.29167
1493.88	2527.625
1496.981	2593.95833
1500.08	2609.29167
1503.176	2647.29167
1506.271	2682.625
1509.363	2731.625
1512.452	2749.29167
1515.54	2785.29167
1518.625	2818.625
1521.708	2877.625
1524.789	2949.95833
1527.867	3067.29167
1530.944	3202.625
1534.018	3314.625
1537.089	3459.625
1540.159	3500.625
1543.226	3490.625
1546.291	3437.625
1549.354	3364.95833
1552.415	3276.29167
1555.473	3208.625
1558.529	3161.95833
1561.583	3144.29167
1564.634	3111.95833
1567.684	3122.95833
1570.731	3135.95833
1573.776	3160.29167
1576.819	3212.625
1579.859	3246.625
1582.898	3254.95833
1585.934	3306.95833
1588.968	3303.29167
1591.999	3344.29167
1595.029	3340.625
1598.056	3369.29167
1601.081	3399.625
1604.104	3404.95833
1607.125	3361.625
1610.144	3285.625
1613.16	3161.29167
1616.174	3148.625
1619.186	3086.625
1622.196	2968.29167
1625.203	2885.95833
1628.209	2842.29167
1631.212	2775.29167
1634.213	2779.29167
1637.212	2766.29167
1640.209	2702.625
1643.203	2625.95833
1646.196	2539.625
1649.186	2444.29167
1652.174	2379.625
1655.16	2293.625
1658.144	2237.29167
1661.125	2121.29167
1664.105	2059.625
1667.082	1980.625
1670.057	1867.29167
1673.03	1773.625
1676.001	1652.625
1678.97	1541.95833
1681.937	1444.625
1684.901	1371.625
1687.863	1333.95833
1690.824	1273.95833
1693.782	1243.95833
1696.738	1187.95833
1699.692	1152.625
1702.643	1129.29167
1705.593	1115.29167
1708.54	1098.625
1711.486	1101.95833
1714.429	1071.95833
1717.37	1072.29167
1720.309	1030.29167
1723.246	1061.625
1726.181	1028.95833
1729.113	1024.625
1732.044	1010.625
1734.972	993.625
1737.899	1011.95833
1740.823	1005.625
1743.745	970.625
1746.665	956.95833
1749.583	944.95833
1752.499	931.625
1755.413	929.625
1758.325	897.625
1761.235	897.95833
1764.142	885.95833
1767.048	869.95833
1769.951	872.29167
1772.852	863.29167
1775.752	862.29167
1778.649	863.29167
1781.544	862.625
1784.437	831.625
1787.328	837.625
1790.217	828.625
1793.104	797.29167
1795.989	808.95833
1798.872	798.29167
1801.753	809.29167
1804.631	816.29167
1807.508	831.625
1810.383	800.95833
1813.255	795.625
1816.126	789.95833
1818.994	793.29167
1821.861	777.95833
1824.725	795.95833
1827.587	790.95833
1830.448	778.29167
1833.306	751.29167
1836.162	776.29167
1839.017	755.29167
1841.869	757.95833
1844.719	759.29167
1847.567	746.95833
1850.414	739.29167
1853.258	739.625
1856.1	755.95833
1858.94	755.95833
1861.778	745.625
1864.614	742.95833
1867.448	733.29167
1870.28	733.95833
1873.111	755.625
1875.939	738.625
1878.765	760.625
1881.589	717.95833
1884.411	733.95833
1887.231	727.95833
1890.049	730.625
1892.865	728.625
1895.68	710.95833
1898.492	725.625
1901.302	714.95833
1904.11	695.95833
1906.916	702.29167
1909.721	688.625
1912.523	712.95833
1915.323	693.625
1918.122	690.95833
1920.918	696.625
1923.712	688.29167
1926.505	679.95833
1929.295	679.625
1932.084	694.95833
1934.87	678.29167
1937.655	674.29167
1940.438	677.29167
1943.218	671.625
1945.997	675.95833
1948.774	693.95833
1951.549	681.29167
1954.322	669.95833
1957.093	675.29167
1959.862	656.29167
1962.629	651.95833
1965.394	657.625
1968.157	639.29167
1970.918	654.29167
1973.678	628.625
1976.435	674.29167
1979.19	641.95833
1981.944	635.625
1984.696	639.625
1987.445	623.95833
1990.193	638.625
1992.939	650.625
1995.683	642.29167
1998.425	619.625
2001.165	649.95833
2003.903	623.95833
2006.639	629.29167
2009.374	634.29167
2012.106	624.29167
2014.837	608.95833
2017.566	612.29167
2020.292	621.29167
2023.017	621.625
2025.74	617.29167
2028.461	594.95833
2031.18	606.625
2033.898	601.95833
2036.613	603.29167
2039.327	604.625
2042.038	587.95833
2044.748	597.625
2047.456	604.625
2050.162	589.95833
2052.866	580.29167
2055.568	602.29167
2058.268	580.29167
2060.967	597.95833
2063.663	580.95833
2066.358	572.29167
2069.051	566.625
2071.742	590.29167
2074.431	585.625
2077.118	577.625
2079.804	563.625
2082.487	577.625
2085.169	582.29167
2087.849	594.625
2090.527	567.625
2093.203	578.29167
2095.877	589.625
2098.55	585.625
2101.22	589.625
2103.889	586.29167
2106.556	593.29167
2109.221	607.625
2111.884	616.95833
2114.546	653.29167
2117.205	683.625
2119.863	733.29167
2122.519	769.625
2125.173	813.95833
2127.825	860.95833
2130.475	860.29167
2133.124	821.29167
2135.771	791.95833
2138.416	770.95833
2141.059	703.625
2143.7	675.625
2146.339	639.625
2148.977	595.95833
2151.613	615.29167
2154.247	593.625
2156.879	586.95833
2159.51	564.95833
2162.138	547.29167
2164.765	553.625
2167.39	530.625
2170.013	556.95833
2172.634	543.95833
2175.254	543.625
2177.872	568.29167
2180.488	525.29167
2183.102	536.625
2185.714	535.29167
2188.325	508.625
2190.934	509.29167
2193.541	523.29167
2196.146	510.95833
2198.75	491.29167
2201.351	498.625
2203.951	490.95833
2206.549	502.625
2209.146	493.29167
2211.74	500.625
2214.333	495.29167
2216.924	474.29167
2219.514	481.625
2222.101	479.95833
2224.687	487.625
2227.271	478.29167
2229.853	473.625
2232.433	455.625
2235.012	478.95833
2237.589	479.625
2240.164	484.29167
2242.738	473.95833
2245.309	456.29167
2247.879	469.95833
2250.448	478.625
2253.014	454.29167
2255.579	438.95833
2258.142	456.625
2260.703	436.95833
2263.262	447.29167
2265.82	436.29167
2268.376	442.29167
2270.93	420.29167
2273.483	429.625
2276.033	435.625
2278.583	431.625
2281.13	426.625
2283.675	417.625
2286.219	422.29167
2288.761	428.29167
2291.302	417.625
2293.841	436.95833
2296.377	416.95833
2298.913	413.625
2301.446	427.29167
2303.978	423.29167
2306.508	414.29167
2309.037	419.29167
2311.563	419.625
2314.088	414.29167
2316.612	394.29167
2319.133	402.625
2321.653	408.625
2324.171	399.95833
2326.688	411.625
2329.202	396.95833
2331.715	399.95833
2334.227	401.95833
2336.736	406.625
2339.244	403.95833
2341.751	388.625
2344.255	398.625
2346.758	388.625
2349.259	378.95833
2351.759	388.625
2354.257	375.95833
2356.753	374.29167
2359.247	377.95833
2361.74	392.625
2364.231	387.625
2366.721	389.625
2369.209	376.29167
2371.695	384.625
2374.179	381.95833
2376.662	374.95833
2379.143	384.29167
2381.622	370.29167
2384.1	379.625
2386.576	376.95833
2389.051	393.625
2391.524	384.625
2393.995	383.625
2396.464	374.625
2398.932	366.29167
2401.398	371.29167
2403.863	368.625
2406.325	365.95833
2408.787	369.625
2411.246	368.95833
2413.704	362.95833
2416.16	360.625
2418.615	365.625
2421.068	364.625
2423.519	370.95833
2425.969	353.29167
2428.417	363.29167
2430.863	375.95833
2433.308	370.625
2435.751	357.29167
2438.193	356.29167
2440.633	358.95833
2443.071	363.95833
2445.508	354.95833
2447.943	354.95833
2450.376	346.625
2452.808	348.95833
2455.238	345.95833
2457.667	384.625
2460.093	344.95833
2462.519	341.95833
2464.942	346.29167
2467.365	347.29167
2469.785	350.625
2472.204	349.95833
2474.621	342.625
2477.037	360.29167
2479.451	337.625
2481.863	330.29167
2484.274	342.95833
2486.683	340.625
2489.091	344.29167
2491.497	341.95833
2493.901	346.95833
2496.304	334.95833
2498.705	345.29167
2501.105	326.29167
2503.503	363.95833
2505.899	324.29167
2508.294	350.29167
2510.687	339.29167
2513.079	339.625
2515.469	325.625
2517.858	330.95833
2520.245	340.625
2522.63	324.29167
2525.014	323.95833
2527.396	317.29167
2529.776	318.95833
2532.156	333.625
2534.533	318.29167
2536.909	317.95833
2539.283	306.29167
2541.656	321.29167
2544.027	339.29167
2546.397	326.95833
2548.765	325.95833
2551.131	324.625
2553.496	320.625
2555.86	323.95833
2558.221	321.29167
2560.582	314.29167
2562.94	311.625
2565.298	323.29167
2567.653	329.625
2570.007	302.95833
2572.36	327.29167
2574.711	309.29167
2577.06	324.29167
2579.408	321.29167
2581.754	309.29167
2584.099	321.625
2586.442	315.625
2588.784	317.625
2591.124	310.95833
2593.463	314.29167
2595.8	317.29167
2598.135	298.625
2600.469	310.29167
2602.802	318.29167
2605.133	323.95833
2607.462	306.625
2609.79	303.29167
2612.116	311.29167
2614.441	314.95833
2616.764	308.625
2619.086	316.95833
2621.406	295.95833
2623.725	321.29167
2626.042	315.625
2628.358	293.625
2630.672	302.625
2632.985	316.625
2635.296	307.95833
2637.606	308.95833
2639.914	299.625
2642.22	305.29167
2644.525	312.29167
2646.829	317.29167
2649.131	321.95833
2651.432	326.95833
2653.731	309.625
2656.028	313.95833
2658.324	319.29167
2660.619	308.29167
2662.912	322.95833
2665.204	298.625
2667.494	323.625
2669.782	305.95833
2672.07	313.625
2674.355	316.95833
2676.639	311.625
2678.922	296.625
2681.203	304.95833
2683.483	298.625
2685.761	299.95833
2688.038	324.625
2690.313	328.625
2692.587	316.29167
2694.859	302.95833
2697.13	311.625
2699.399	324.29167
2701.667	328.29167
2703.933	327.625
2706.198	326.95833
2708.461	332.95833
2710.723	337.29167
2712.984	329.625
2715.243	337.29167
2717.5	325.625
2719.757	340.95833
2722.011	330.625
2724.264	334.29167
2726.516	353.625
2728.766	329.625
2731.015	342.29167
2733.262	338.29167
2735.508	343.95833
2737.753	334.625
2739.996	328.95833
2742.237	322.95833
2744.477	329.29167
2746.716	342.625
2748.953	331.625
2751.189	329.95833
2753.423	320.29167
2755.656	314.625
2757.887	310.29167
2760.117	316.29167
2762.346	315.29167
2764.573	302.95833
2766.798	312.625
2769.022	313.95833
2771.245	311.95833
2773.467	314.625
2775.686	320.625
2777.905	320.29167
2780.122	318.95833
2782.337	336.29167
2784.552	324.29167
2786.764	329.29167
2788.976	328.625
2791.186	331.95833
2793.394	337.625
2795.601	343.625
2797.807	356.625
2800.011	346.625
2802.214	350.625
2804.415	349.29167
2806.615	350.29167
2808.814	356.95833
2811.011	368.29167
2813.206	359.625
2815.401	381.29167
2817.594	374.625
2819.785	388.29167
2821.975	379.95833
2824.164	389.95833
2826.351	398.95833
2828.537	409.29167
2830.722	418.95833
2832.905	419.625
2835.086	439.95833
2837.267	470.625
2839.445	474.29167
2841.623	495.95833
2843.799	519.29167
2845.974	535.29167
2848.147	556.29167
2850.319	579.625
2852.489	609.625
2854.659	610.625
2856.826	629.625
2858.993	660.625
2861.158	618.29167
2863.321	643.95833
2865.483	641.625
2867.644	654.29167
2869.804	645.29167
2871.962	634.29167
2874.118	652.95833
2876.274	639.95833
2878.428	643.95833
2880.58	643.29167
2882.731	636.29167
2884.881	625.29167
2887.03	646.29167
2889.177	634.95833
2891.322	652.95833
2893.467	652.29167
2895.61	645.95833
2897.751	660.625
2899.892	659.95833
2902.03	674.29167
2904.168	667.625
2906.304	660.625
2908.439	685.95833
2910.572	662.29167
2912.704	702.95833
2914.835	689.95833
2916.965	685.95833
2919.093	691.95833
2921.219	673.625
2923.345	697.29167
2925.469	670.625
2927.591	661.625
2929.712	628.95833
2931.832	644.625
2933.951	629.95833
2936.068	611.625
2938.184	608.625
2940.299	581.625
2942.412	577.625
2944.524	541.95833
2946.634	545.29167
2948.744	492.625
2950.851	535.625
2952.958	490.29167
2955.063	489.95833
2957.167	475.29167
2959.269	445.625
2961.371	482.625
2963.471	435.29167
2965.569	446.95833
2967.666	412.29167
2969.762	416.95833
2971.857	407.95833
2973.95	387.625
2976.042	388.95833
2978.133	384.29167
2980.222	375.625
2982.31	350.29167
2984.396	343.29167
2986.482	347.625
2988.566	332.95833
2990.648	333.95833
2992.73	328.29167
2994.81	311.625
2996.889	330.95833
2998.966	324.95833
3001.042	322.625
3003.117	317.29167
3005.191	315.95833
3007.263	313.29167
3009.334	302.95833
3011.403	317.95833
3013.472	292.95833
3015.539	307.625
3017.604	308.625
3019.669	269.95833
3021.732	283.625
3023.794	281.29167
3025.854	276.625
3027.914	276.29167
3029.971	282.625
3032.028	270.625
3034.083	281.29167
3036.137	273.29167
3038.19	267.625
3040.242	254.625
3042.292	252.29167
3044.341	254.625
3046.388	264.95833
3048.435	245.95833
3050.48	262.625
3052.524	246.29167
3054.566	232.625
3056.607	253.625
3058.647	239.95833
3060.686	227.625
3062.723	217.29167
3064.759	213.95833
3066.794	-0.70833
3068.828	1.29167
3070.86	3.95833
