-0.839	517.625
3.438	605.29167
7.711	180.625
11.981	59.625
16.247	41.625
20.509	46.29167
24.768	40.29167
29.024	52.29167
33.276	37.95833
37.524	45.95833
41.769	43.625
46.01	32.29167
50.247	45.29167
54.481	55.29167
58.712	55.95833
62.939	45.29167
67.162	58.29167
71.382	49.29167
75.599	41.95833
79.812	62.29167
84.021	75.625
88.227	53.95833
92.429	53.95833
96.628	42.95833
100.823	65.625
105.015	68.29167
109.204	57.95833
113.388	69.29167
117.57	69.95833
121.748	77.29167
125.922	68.625
130.093	83.625
134.261	81.95833
138.425	82.95833
142.585	115.625
146.742	103.95833
150.896	132.625
155.046	166.29167
159.193	250.625
163.336	421.95833
167.476	772.29167
171.613	1405.29167
175.746	2345.95833
179.875	3467.29167
184.002	4484.29167
188.124	5173.29167
192.244	5387.29167
196.36	5286.95833
200.472	5042.625
204.581	4840.95833
208.687	4662.29167
212.79	4510.95833
216.889	4445.625
220.984	4392.625
225.077	4296.29167
229.165	4259.625
233.251	4218.29167
237.333	4132.95833
241.412	4051.29167
245.487	3975.29167
249.559	3913.29167
253.628	3891.95833
257.694	3847.95833
261.756	3789.29167
265.814	3731.29167
269.87	3620.29167
273.922	3517.29167
277.97	3492.29167
282.016	3458.95833
286.058	3473.95833
290.097	3586.95833
294.132	3630.29167
298.164	3588.625
302.193	3419.29167
306.219	3158.29167
310.241	2929.29167
314.26	2688.625
318.276	2506.625
322.288	2375.625
326.297	2260.625
330.303	2177.95833
334.305	2121.625
338.305	2069.625
342.301	2039.625
346.294	2022.625
350.283	2010.29167
354.269	1995.29167
358.252	1962.625
362.232	1958.625
366.209	1947.29167
370.182	1896.625
374.152	1893.29167
378.119	1898.29167
382.083	1879.95833
386.043	1901.625
390	1869.29167
393.954	1880.625
397.905	1864.95833
401.852	1860.29167
405.797	1838.625
409.738	1843.29167
413.676	1827.95833
417.61	1830.625
421.542	1805.95833
425.47	1792.95833
429.396	1783.29167
433.318	1775.29167
437.236	1760.625
441.152	1800.29167
445.065	1735.625
448.974	1734.95833
452.88	1702.29167
456.783	1684.95833
460.683	1681.29167
464.58	1680.29167
468.473	1689.29167
472.364	1693.95833
476.251	1686.29167
480.135	1703.95833
484.016	1722.29167
487.894	1746.29167
491.769	1740.95833
495.641	1747.95833
499.509	1764.95833
503.375	1734.95833
507.237	1761.625
511.096	1777.95833
514.952	1920.29167
518.805	2023.625
522.655	2082.625
526.502	1920.29167
530.346	1798.625
534.187	1769.95833
538.024	1775.29167
541.859	1778.29167
545.69	1794.625
549.519	1776.29167
553.344	1767.95833
557.166	1712.29167
560.985	1726.625
564.802	1680.95833
568.615	1638.95833
572.425	1631.29167
576.232	1626.95833
580.036	1606.95833
583.836	1610.29167
587.634	1623.95833
591.429	1621.29167
595.221	1659.95833
599.01	1688.29167
602.796	1683.95833
606.578	1699.29167
610.358	1709.29167
614.135	1676.29167
617.909	1667.29167
621.679	1659.95833
625.447	1639.29167
629.212	1660.625
632.973	1667.95833
636.732	1644.29167
640.488	1659.625
644.241	1632.625
647.991	1638.29167
651.737	1644.95833
655.481	1606.95833
659.222	1611.29167
662.96	1615.625
666.695	1616.95833
670.427	1633.29167
674.156	1650.95833
677.882	1669.95833
681.605	1642.29167
685.325	1606.95833
689.043	1637.95833
692.757	1599.95833
696.468	1596.625
700.177	1592.29167
703.882	1575.95833
707.585	1595.95833
711.284	1601.625
714.981	1584.29167
718.675	1600.29167
722.366	1602.29167
726.054	1588.95833
729.739	1585.95833
733.421	1600.95833
737.1	1591.625
740.777	1594.29167
744.45	1613.625
748.121	1628.625
751.789	1668.95833
755.453	1637.29167
759.115	1667.625
762.774	1672.95833
766.431	1678.625
770.084	1697.29167
773.734	1707.95833
777.382	1754.625
781.027	1755.95833
784.669	1783.29167
788.308	1787.95833
791.944	1791.95833
795.577	1795.625
799.208	1817.95833
802.835	1812.95833
806.46	1806.95833
810.082	1833.625
813.701	1818.625
817.317	1851.625
820.931	1836.29167
824.542	1855.29167
828.149	1829.625
831.754	1797.95833
835.357	1806.625
838.956	1815.29167
842.553	1822.625
846.146	1824.29167
849.737	1787.95833
853.326	1796.29167
856.911	1789.95833
860.493	1829.625
864.073	1844.29167
867.65	1877.625
871.225	1895.29167
874.796	1889.625
878.365	1888.95833
881.931	1890.95833
885.494	1937.625
889.054	1930.95833
892.612	1950.625
896.166	1940.625
899.719	1923.625
903.268	1877.95833
906.814	1854.29167
910.358	1824.625
913.899	1806.625
917.438	1839.95833
920.973	1797.29167
924.506	1830.29167
928.036	1847.29167
931.564	1901.29167
935.088	1911.29167
938.61	1926.95833
942.129	1965.625
945.646	2007.95833
949.16	2028.95833
952.671	2062.95833
956.179	2044.95833
959.685	2003.95833
963.188	1994.29167
966.688	1965.625
970.185	1926.29167
973.68	1887.29167
977.173	1844.95833
980.662	1826.95833
984.149	1824.29167
987.633	1794.29167
991.114	1849.95833
994.593	1883.95833
998.069	1928.95833
1001.542	1966.29167
1005.013	1948.29167
1008.481	1859.625
1011.947	1813.625
1015.409	1797.95833
1018.869	1797.29167
1022.327	1816.625
1025.782	1799.625
1029.234	1796.95833
1032.683	1758.95833
1036.13	1707.29167
1039.574	1645.95833
1043.016	1599.95833
1046.455	1573.95833
1049.891	1568.95833
1053.325	1586.625
1056.756	1577.29167
1060.184	1581.95833
1063.61	1591.625
1067.033	1604.29167
1070.454	1614.29167
1073.872	1639.29167
1077.287	1623.625
1080.7	1618.625
1084.11	1613.625
1087.517	1602.29167
1090.922	1587.625
1094.325	1561.29167
1097.724	1545.29167
1101.122	1554.625
1104.516	1552.625
1107.908	1559.95833
1111.298	1591.29167
1114.684	1590.625
1118.069	1621.29167
1121.45	1644.29167
1124.83	1645.95833
1128.206	1669.29167
1131.58	1683.29167
1134.951	1711.625
1138.32	1773.95833
1141.687	1838.95833
1145.05	1881.29167
1148.412	1856.95833
1151.77	1861.95833
1155.126	1865.95833
1158.48	1857.29167
1161.831	1844.29167
1165.18	1859.29167
1168.525	1909.29167
1171.869	1908.95833
1175.21	1922.95833
1178.548	1936.95833
1181.884	1967.625
1185.217	1983.625
1188.548	2044.95833
1191.877	2077.29167
1195.202	2148.29167
1198.526	2181.625
1201.846	2214.29167
1205.165	2199.625
1208.48	2217.95833
1211.794	2211.95833
1215.104	2200.29167
1218.413	2205.29167
1221.719	2205.625
1225.022	2189.29167
1228.323	2131.625
1231.621	2103.29167
1234.917	2107.29167
1238.21	2120.29167
1241.501	2091.95833
1244.79	2065.625
1248.076	2081.625
1251.359	2106.29167
1254.64	2165.95833
1257.919	2184.625
1261.195	2190.29167
1264.468	2227.95833
1267.74	2248.95833
1271.008	2251.625
1274.275	2254.29167
1277.538	2223.95833
1280.8	2225.95833
1284.059	2244.625
1287.315	2265.29167
1290.569	2268.95833
1293.821	2318.95833
1297.07	2303.29167
1300.317	2329.95833
1303.562	2323.29167
1306.803	2318.29167
1310.043	2301.95833
1313.28	2289.29167
1316.515	2279.95833
1319.747	2255.29167
1322.977	2205.625
1326.204	2198.95833
1329.429	2165.29167
1332.652	2174.95833
1335.872	2123.29167
1339.09	2092.625
1342.306	2071.95833
1345.519	2056.625
1348.729	2024.625
1351.938	2004.625
1355.144	2002.625
1358.347	1973.625
1361.548	1989.29167
1364.747	1965.29167
1367.944	1945.625
1371.138	1961.29167
1374.329	1972.29167
1377.518	1993.625
1380.705	1994.625
1383.89	1991.29167
1387.072	1922.29167
1390.252	1837.95833
1393.429	1769.625
1396.605	1732.625
1399.777	1690.29167
1402.948	1698.625
1406.116	1670.625
1409.282	1670.95833
1412.445	1686.625
1415.606	1703.29167
1418.765	1728.29167
1421.921	1772.29167
1425.075	1788.625
1428.227	1819.95833
1431.376	1933.29167
1434.524	1993.95833
1437.668	2038.95833
1440.811	2064.95833
1443.951	2088.29167
1447.089	2088.625
1450.224	2072.95833
1453.357	2062.29167
1456.488	2058.625
1459.617	2012.625
1462.743	1984.29167
1465.867	1927.625
1468.989	1900.625
1472.108	1841.625
1475.225	1808.29167
1478.34	1790.29167
1481.453	1786.625
1484.563	1767.29167
1487.671	1814.95833
1490.776	1836.95833
1493.88	1885.29167
1496.981	1889.95833
1500.08	1911.95833
1503.176	1932.29167
1506.271	1971.29167
1509.363	1990.29167
1512.452	2009.625
1515.54	2030.29167
1518.625	2051.625
1521.708	2107.95833
1524.789	2147.95833
1527.867	2230.95833
1530.944	2326.625
1534.018	2417.95833
1537.089	2527.29167
1540.159	2569.95833
1543.226	2549.95833
1546.291	2539.625
1549.354	2471.29167
1552.415	2432.95833
1555.473	2360.95833
1558.529	2338.625
1561.583	2314.625
1564.634	2310.29167
1567.684	2319.29167
1570.731	2326.625
1573.776	2353.29167
1576.819	2380.625
1579.859	2388.625
1582.898	2435.29167
1585.934	2458.625
1588.968	2454.95833
1591.999	2451.29167
1595.029	2466.625
1598.056	2488.625
1601.081	2531.625
1604.104	2527.95833
1607.125	2510.29167
1610.144	2446.29167
1613.16	2367.95833
1616.174	2328.95833
1619.186	2233.95833
1622.196	2192.29167
1625.203	2136.625
1628.209	2063.625
1631.212	2038.95833
1634.213	2013.29167
1637.212	1985.625
1640.209	1977.95833
1643.203	1921.625
1646.196	1882.95833
1649.186	1827.29167
1652.174	1790.95833
1655.16	1723.625
1658.144	1690.29167
1661.125	1609.95833
1664.105	1560.625
1667.082	1483.95833
1670.057	1407.29167
1673.03	1300.29167
1676.001	1245.95833
1678.97	1161.29167
1681.937	1095.625
1684.901	1040.29167
1687.863	1013.95833
1690.824	959.625
1693.782	944.29167
1696.738	900.625
1699.692	894.95833
1702.643	853.29167
1705.593	847.95833
1708.54	850.95833
1711.486	844.625
1714.429	803.625
1717.37	813.29167
1720.309	797.29167
1723.246	798.625
1726.181	782.95833
1729.113	781.95833
1732.044	757.29167
1734.972	764.29167
1737.899	778.625
1740.823	765.95833
1743.745	741.95833
1746.665	746.95833
1749.583	731.95833
1752.499	715.29167
1755.413	701.625
1758.325	697.29167
1761.235	676.29167
1764.142	680.625
1767.048	659.95833
1769.951	665.95833
1772.852	680.29167
1775.752	658.29167
1778.649	661.29167
1781.544	666.625
1784.437	642.29167
1787.328	650.29167
1790.217	637.29167
1793.104	622.95833
1795.989	634.625
1798.872	616.29167
1801.753	628.625
1804.631	621.625
1807.508	643.625
1810.383	628.29167
1813.255	630.625
1816.126	621.625
1818.994	633.29167
1821.861	624.95833
1824.725	605.625
1827.587	613.625
1830.448	614.625
1833.306	596.29167
1836.162	611.625
1839.017	604.95833
1841.869	600.29167
1844.719	605.95833
1847.567	582.625
1850.414	582.95833
1853.258	580.29167
1856.1	604.625
1858.94	590.29167
1861.778	588.29167
1864.614	584.29167
1867.448	598.625
1870.28	583.95833
1873.111	609.625
1875.939	584.625
1878.765	602.95833
1881.589	589.95833
1884.411	595.625
1887.231	588.29167
1890.049	591.625
1892.865	593.625
1895.68	591.625
1898.492	589.625
1901.302	584.625
1904.11	577.95833
1906.916	563.95833
1909.721	580.625
1912.523	569.95833
1915.323	562.95833
1918.122	565.95833
1920.918	579.95833
1923.712	562.95833
1926.505	558.95833
1929.295	554.95833
1932.084	577.95833
1934.87	567.625
1937.655	567.29167
1940.438	563.95833
1943.218	568.29167
1945.997	566.625
1948.774	574.95833
1951.549	573.95833
1954.322	561.625
1957.093	561.95833
1959.862	552.95833
1962.629	548.95833
1965.394	557.95833
1968.157	538.95833
1970.918	553.95833
1973.678	544.29167
1976.435	556.625
1979.19	542.95833
1981.944	544.95833
1984.696	548.625
1987.445	525.29167
1990.193	547.625
1992.939	558.95833
1995.683	544.29167
1998.425	526.95833
2001.165	548.95833
2003.903	537.95833
2006.639	542.625
2009.374	548.95833
2012.106	537.95833
2014.837	520.625
2017.566	541.95833
2020.292	540.29167
2023.017	532.95833
2025.74	540.95833
2028.461	533.625
2031.18	546.625
2033.898	530.95833
2036.613	539.625
2039.327	535.625
2042.038	523.95833
2044.748	529.95833
2047.456	542.29167
2050.162	528.95833
2052.866	530.29167
2055.568	542.29167
2058.268	535.95833
2060.967	534.95833
2063.663	524.29167
2066.358	522.95833
2069.051	528.625
2071.742	529.95833
2074.431	531.29167
2077.118	534.625
2079.804	522.29167
2082.487	529.95833
2085.169	536.625
2087.849	555.625
2090.527	531.625
2093.203	545.625
2095.877	552.29167
2098.55	550.95833
2101.22	545.95833
2103.889	561.29167
2106.556	565.95833
2109.221	578.29167
2111.884	583.95833
2114.546	619.29167
2117.205	651.625
2119.863	702.95833
2122.519	721.95833
2125.173	750.625
2127.825	778.29167
2130.475	791.95833
2133.124	752.29167
2135.771	715.95833
2138.416	700.95833
2141.059	645.29167
2143.7	639.95833
2146.339	610.95833
2148.977	587.29167
2151.613	593.29167
2154.247	583.625
2156.879	562.95833
2159.51	554.95833
2162.138	547.29167
2164.765	543.95833
2167.39	534.625
2170.013	568.95833
2172.634	551.29167
2175.254	548.625
2177.872	577.29167
2180.488	533.29167
2183.102	543.29167
2185.714	542.29167
2188.325	525.625
2190.934	532.625
2193.541	541.95833
2196.146	539.29167
2198.75	523.95833
2201.351	515.95833
2203.951	519.29167
2206.549	523.625
2209.146	514.29167
2211.74	518.625
2214.333	523.625
2216.924	505.625
2219.514	521.625
2222.101	516.625
2224.687	543.29167
2227.271	519.625
2229.853	520.625
2232.433	506.29167
2235.012	530.95833
2237.589	523.29167
2240.164	539.95833
2242.738	524.95833
2245.309	511.29167
2247.879	516.625
2250.448	539.95833
2253.014	514.29167
2255.579	494.95833
2258.142	513.625
2260.703	505.95833
2263.262	524.625
2265.82	505.29167
2268.376	508.625
2270.93	503.29167
2273.483	504.29167
2276.033	507.95833
2278.583	509.625
2281.13	506.95833
2283.675	503.95833
2286.219	501.29167
2288.761	511.625
2291.302	511.29167
2293.841	518.29167
2296.377	501.95833
2298.913	511.625
2301.446	528.95833
2303.978	514.29167
2306.508	510.625
2309.037	518.95833
2311.563	511.95833
2314.088	512.95833
2316.612	507.29167
2319.133	520.95833
2321.653	525.95833
2324.171	510.625
2326.688	527.29167
2329.202	521.29167
2331.715	524.625
2334.227	506.95833
2336.736	517.95833
2339.244	514.95833
2341.751	508.625
2344.255	532.29167
2346.758	532.95833
2349.259	507.625
2351.759	533.29167
2354.257	512.29167
2356.753	524.29167
2359.247	523.29167
2361.74	530.95833
2364.231	523.29167
2366.721	530.95833
2369.209	526.95833
2371.695	533.625
2374.179	522.95833
2376.662	522.95833
2379.143	549.29167
2381.622	536.29167
2384.1	535.29167
2386.576	537.95833
2389.051	550.95833
2391.524	549.29167
2393.995	538.29167
2396.464	534.625
2398.932	547.625
2401.398	544.625
2403.863	541.95833
2406.325	545.29167
2408.787	545.625
2411.246	538.625
2413.704	550.29167
2416.16	543.625
2418.615	543.95833
2421.068	563.29167
2423.519	559.625
2425.969	553.29167
2428.417	569.625
2430.863	585.29167
2433.308	574.29167
2435.751	566.29167
2438.193	554.625
2440.633	564.95833
2443.071	576.29167
2445.508	560.625
2447.943	573.625
2450.376	568.625
2452.808	567.29167
2455.238	557.29167
2457.667	600.29167
2460.093	573.29167
2462.519	572.625
2464.942	585.29167
2467.365	582.29167
2469.785	586.29167
2472.204	584.95833
2474.621	573.625
2477.037	602.29167
2479.451	579.625
2481.863	583.29167
2484.274	585.95833
2486.683	595.29167
2489.091	602.95833
2491.497	593.29167
2493.901	593.29167
2496.304	590.29167
2498.705	604.625
2501.105	596.95833
2503.503	633.625
2505.899	591.29167
2508.294	621.625
2510.687	599.29167
2513.079	601.625
2515.469	601.29167
2517.858	610.29167
2520.245	613.29167
2522.63	613.625
2525.014	610.29167
2527.396	609.95833
2529.776	599.95833
2532.156	622.29167
2534.533	624.95833
2536.909	617.95833
2539.283	606.29167
2541.656	620.29167
2544.027	640.29167
2546.397	621.625
2548.765	624.625
2551.131	624.95833
2553.496	632.29167
2555.86	645.95833
2558.221	638.625
2560.582	635.625
2562.94	629.29167
2565.298	637.29167
2567.653	651.625
2570.007	635.625
2572.36	660.625
2574.711	644.29167
2577.06	669.95833
2579.408	655.625
2581.754	661.95833
2584.099	668.95833
2586.442	656.29167
2588.784	666.95833
2591.124	666.29167
2593.463	671.95833
2595.8	675.29167
2598.135	650.625
2600.469	664.95833
2602.802	676.29167
2605.133	688.29167
2607.462	666.29167
2609.79	673.95833
2612.116	690.625
2614.441	684.95833
2616.764	698.625
2619.086	678.29167
2621.406	671.625
2623.725	707.625
2626.042	711.625
2628.358	706.29167
2630.672	687.625
2632.985	706.95833
2635.296	711.95833
2637.606	705.625
2639.914	704.29167
2642.22	715.95833
2644.525	721.95833
2646.829	724.95833
2649.131	740.625
2651.432	738.625
2653.731	730.95833
2656.028	739.29167
2658.324	760.95833
2660.619	741.95833
2662.912	753.29167
2665.204	743.95833
2667.494	756.625
2669.782	747.29167
2672.07	753.625
2674.355	761.625
2676.639	745.95833
2678.922	734.29167
2681.203	755.625
2683.483	763.625
2685.761	754.29167
2688.038	758.29167
2690.313	782.625
2692.587	770.625
2694.859	769.29167
2697.13	779.95833
2699.399	778.95833
2701.667	792.29167
2703.933	798.625
2706.198	796.625
2708.461	819.29167
2710.723	804.95833
2712.984	803.95833
2715.243	806.95833
2717.5	800.625
2719.757	827.625
2722.011	819.29167
2724.264	827.95833
2726.516	835.95833
2728.766	839.625
2731.015	841.625
2733.262	848.625
2735.508	833.29167
2737.753	843.625
2739.996	841.95833
2742.237	828.625
2744.477	846.95833
2746.716	836.95833
2748.953	819.95833
2751.189	854.29167
2753.423	830.625
2755.656	832.29167
2757.887	827.29167
2760.117	832.625
2762.346	824.95833
2764.573	827.95833
2766.798	841.29167
2769.022	842.625
2771.245	836.625
2773.467	845.625
2775.686	859.29167
2777.905	865.29167
2780.122	847.29167
2782.337	878.95833
2784.552	872.29167
2786.764	878.95833
2788.976	887.625
2791.186	884.625
2793.394	895.625
2795.601	893.625
2797.807	903.625
2800.011	913.29167
2802.214	917.95833
2804.415	927.95833
2806.615	913.95833
2808.814	926.625
2811.011	944.95833
2813.206	936.625
2815.401	938.29167
2817.594	937.625
2819.785	951.29167
2821.975	930.625
2824.164	943.29167
2826.351	964.29167
2828.537	979.29167
2830.722	984.95833
2832.905	981.625
2835.086	1002.95833
2837.267	1028.625
2839.445	1039.95833
2841.623	1051.625
2843.799	1059.29167
2845.974	1088.29167
2848.147	1102.95833
2850.319	1135.625
2852.489	1149.625
2854.659	1164.625
2856.826	1153.29167
2858.993	1189.625
2861.158	1185.625
2863.321	1175.625
2865.483	1200.29167
2867.644	1198.95833
2869.804	1191.625
2871.962	1180.29167
2874.118	1188.625
2876.274	1183.625
2878.428	1183.625
2880.58	1171.95833
2882.731	1158.95833
2884.881	1165.95833
2887.03	1179.95833
2889.177	1186.29167
2891.322	1189.95833
2893.467	1181.95833
2895.61	1182.625
2897.751	1204.625
2899.892	1185.29167
2902.03	1213.29167
2904.168	1225.29167
2906.304	1220.95833
2908.439	1238.625
2910.572	1218.29167
2912.704	1233.625
2914.835	1240.29167
2916.965	1217.29167
2919.093	1252.95833
2921.219	1229.95833
2923.345	1249.29167
2925.469	1220.625
2927.591	1236.29167
2929.712	1214.29167
2931.832	1199.625
2933.951	1196.95833
2936.068	1198.29167
2938.184	1167.29167
2940.299	1152.95833
2942.412	1138.29167
2944.524	1120.625
2946.634	1117.29167
2948.744	1091.625
2950.851	1124.95833
2952.958	1087.625
2955.063	1098.625
2957.167	1083.625
2959.269	1077.625
2961.371	1109.29167
2963.471	1068.95833
2965.569	1087.29167
2967.666	1054.625
2969.762	1057.625
2971.857	1053.29167
2973.95	1032.625
2976.042	1027.625
2978.133	1027.625
2980.222	1010.29167
2982.31	989.95833
2984.396	973.29167
2986.482	977.29167
2988.566	963.29167
2990.648	977.625
2992.73	974.95833
2994.81	961.95833
2996.889	976.95833
2998.966	971.625
3001.042	983.625
3003.117	978.29167
3005.191	981.625
3007.263	980.29167
3009.334	952.29167
3011.403	956.625
3013.472	943.29167
3015.539	940.29167
3017.604	949.625
3019.669	909.95833
3021.732	918.95833
3023.794	901.625
3025.854	894.95833
3027.914	913.29167
3029.971	914.625
3032.028	918.625
3034.083	915.95833
3036.137	889.29167
3038.19	872.29167
3040.242	849.625
3042.292	838.625
3044.341	826.625
3046.388	836.95833
3048.435	820.29167
3050.48	826.625
3052.524	818.29167
3054.566	806.95833
3056.607	810.95833
3058.647	790.29167
3060.686	770.625
3062.723	742.29167
3064.759	719.29167
3066.794	0.29167
3068.828	2.625
3070.86	0.625
