-0.839	489.41667
3.438	568.75
7.711	173.41667
11.981	57.41667
16.247	46.41667
20.509	49.41667
24.768	41.08333
29.024	52.41667
33.276	44.75
37.524	48.41667
41.769	46.41667
46.01	34.75
50.247	43.75
54.481	59.08333
58.712	60.41667
62.939	47.75
67.162	58.08333
71.382	57.41667
75.599	44.75
79.812	62.08333
84.021	79.08333
88.227	61.08333
92.429	59.08333
96.628	53.08333
100.823	67.75
105.015	71.08333
109.204	63.41667
113.388	74.08333
117.57	67.41667
121.748	85.75
125.922	73.41667
130.093	93.75
134.261	93.08333
138.425	94.08333
142.585	133.08333
146.742	121.08333
150.896	149.41667
155.046	190.08333
159.193	293.75
163.336	496.75
167.476	895.08333
171.613	1649.41667
175.746	2735.08333
179.875	4092.75
184.002	5359.41667
188.124	6209.41667
192.244	6492.75
196.36	6402.75
200.472	6200.08333
204.581	5985.41667
208.687	5843.75
212.79	5766.75
216.889	5708.08333
220.984	5707.41667
225.077	5717.08333
229.165	5691.08333
233.251	5668.75
237.333	5619.75
241.412	5523.08333
245.487	5484.41667
249.559	5418.75
253.628	5403.41667
257.694	5378.08333
261.756	5287.08333
265.814	5162.08333
269.87	5019.75
273.922	4863.08333
277.97	4771.75
282.016	4767.08333
286.058	4783.75
290.097	4906.75
294.132	4956.75
298.164	4889.41667
302.193	4661.08333
306.219	4294.41667
310.241	3959.41667
314.26	3650.75
318.276	3413.75
322.288	3208.75
326.297	3075.75
330.303	2960.75
334.305	2909.75
338.305	2853.75
342.301	2795.08333
346.294	2799.41667
350.283	2763.08333
354.269	2739.08333
358.252	2708.41667
362.232	2698.75
366.209	2693.41667
370.182	2651.08333
374.152	2644.41667
378.119	2656.75
382.083	2644.41667
386.043	2649.75
390	2618.08333
393.954	2627.41667
397.905	2597.41667
401.852	2619.75
405.797	2568.41667
409.738	2579.41667
413.676	2577.08333
417.61	2552.75
421.542	2521.08333
425.47	2498.75
429.396	2492.75
433.318	2489.75
437.236	2480.75
441.152	2502.08333
445.065	2435.75
448.974	2429.41667
452.88	2402.41667
456.783	2379.08333
460.683	2377.08333
464.58	2367.41667
468.473	2393.41667
472.364	2386.41667
476.251	2432.41667
480.135	2420.75
484.016	2466.75
487.894	2475.08333
491.769	2492.75
495.641	2472.75
499.509	2472.75
503.375	2477.08333
507.237	2463.75
511.096	2468.75
514.952	2529.41667
518.805	2560.41667
522.655	2580.75
526.502	2530.41667
530.346	2470.08333
534.187	2460.08333
538.024	2463.75
541.859	2493.41667
545.69	2517.08333
549.519	2501.08333
553.344	2468.75
557.166	2461.08333
560.985	2423.75
564.802	2397.41667
568.615	2337.75
572.425	2292.41667
576.232	2291.41667
580.036	2296.41667
583.836	2312.08333
587.634	2312.41667
591.429	2300.41667
595.221	2364.41667
599.01	2401.41667
602.796	2405.41667
606.578	2425.75
610.358	2398.08333
614.135	2408.08333
617.909	2383.75
621.679	2383.41667
625.447	2346.41667
629.212	2349.41667
632.973	2345.08333
636.732	2365.75
640.488	2368.08333
644.241	2330.41667
647.991	2315.75
651.737	2348.41667
655.481	2276.41667
659.222	2273.08333
662.96	2270.75
666.695	2306.75
670.427	2346.08333
674.156	2353.41667
677.882	2334.75
681.605	2347.08333
685.325	2290.75
689.043	2312.08333
692.757	2299.75
696.468	2286.41667
700.177	2292.08333
703.882	2274.75
707.585	2279.75
711.284	2259.75
714.981	2267.75
718.675	2251.41667
722.366	2268.41667
726.054	2256.41667
729.739	2264.41667
733.421	2276.75
737.1	2269.75
740.777	2279.41667
744.45	2288.41667
748.121	2313.41667
751.789	2360.41667
755.453	2352.41667
759.115	2356.75
762.774	2367.08333
766.431	2411.08333
770.084	2407.08333
773.734	2446.08333
777.382	2494.41667
781.027	2511.08333
784.669	2535.41667
788.308	2521.08333
791.944	2554.08333
795.577	2556.75
799.208	2568.41667
802.835	2589.08333
806.46	2580.41667
810.082	2605.08333
813.701	2578.41667
817.317	2611.75
820.931	2629.08333
824.542	2633.75
828.149	2599.75
831.754	2579.41667
835.357	2585.75
838.956	2580.08333
842.553	2584.75
846.146	2557.08333
849.737	2563.41667
853.326	2581.41667
856.911	2556.75
860.493	2604.41667
864.073	2626.08333
867.65	2666.08333
871.225	2686.08333
874.796	2679.75
878.365	2701.41667
881.931	2694.75
885.494	2737.75
889.054	2728.75
892.612	2749.75
896.166	2747.08333
899.719	2740.41667
903.268	2686.41667
906.814	2643.41667
910.358	2620.75
913.899	2610.75
917.438	2610.08333
920.973	2575.41667
924.506	2605.41667
928.036	2642.08333
931.564	2677.08333
935.088	2704.41667
938.61	2715.75
942.129	2759.08333
945.646	2812.75
949.16	2863.41667
952.671	2930.08333
956.179	2900.08333
959.685	2872.75
963.188	2839.41667
966.688	2811.75
970.185	2741.08333
973.68	2703.41667
977.173	2642.75
980.662	2614.41667
984.149	2629.08333
987.633	2588.08333
991.114	2656.08333
994.593	2696.08333
998.069	2782.41667
1001.542	2859.75
1005.013	2817.41667
1008.481	2665.08333
1011.947	2606.08333
1015.409	2582.41667
1018.869	2612.41667
1022.327	2592.75
1025.782	2569.08333
1029.234	2576.08333
1032.683	2519.08333
1036.13	2459.41667
1039.574	2371.08333
1043.016	2303.75
1046.455	2252.08333
1049.891	2248.08333
1053.325	2255.75
1056.756	2247.75
1060.184	2273.08333
1063.61	2297.41667
1067.033	2293.75
1070.454	2303.41667
1073.872	2332.75
1077.287	2304.41667
1080.7	2288.75
1084.11	2292.75
1087.517	2290.75
1090.922	2254.75
1094.325	2236.41667
1097.724	2244.08333
1101.122	2232.41667
1104.516	2222.75
1107.908	2228.75
1111.298	2262.75
1114.684	2299.08333
1118.069	2303.41667
1121.45	2351.08333
1124.83	2348.08333
1128.206	2373.75
1131.58	2398.08333
1134.951	2462.75
1138.32	2536.08333
1141.687	2615.41667
1145.05	2667.08333
1148.412	2667.75
1151.77	2665.75
1155.126	2663.08333
1158.48	2643.08333
1161.831	2644.75
1165.18	2662.75
1168.525	2719.08333
1171.869	2746.75
1175.21	2749.41667
1178.548	2797.41667
1181.884	2812.08333
1185.217	2859.08333
1188.548	2908.75
1191.877	2970.75
1195.202	3073.41667
1198.526	3125.41667
1201.846	3145.41667
1205.165	3126.08333
1208.48	3120.08333
1211.794	3105.41667
1215.104	3121.08333
1218.413	3127.75
1221.719	3086.75
1225.022	3087.08333
1228.323	3025.75
1231.621	2972.41667
1234.917	2980.75
1238.21	3003.41667
1241.501	2965.41667
1244.79	2986.41667
1248.076	2974.08333
1251.359	3007.08333
1254.64	3070.75
1257.919	3082.75
1261.195	3149.41667
1264.468	3166.75
1267.74	3227.75
1271.008	3211.41667
1274.275	3219.08333
1277.538	3205.75
1280.8	3186.75
1284.059	3161.75
1287.315	3212.08333
1290.569	3246.75
1293.821	3280.41667
1297.07	3298.08333
1300.317	3299.41667
1303.562	3282.08333
1306.803	3251.75
1310.043	3248.75
1313.28	3210.41667
1316.515	3195.41667
1319.747	3174.08333
1322.977	3121.41667
1326.204	3088.41667
1329.429	3046.41667
1332.652	3028.41667
1335.872	2999.08333
1339.09	2943.75
1342.306	2921.41667
1345.519	2915.08333
1348.729	2883.41667
1351.938	2879.08333
1355.144	2828.08333
1358.347	2788.75
1361.548	2775.08333
1364.747	2781.75
1367.944	2755.75
1371.138	2777.08333
1374.329	2779.75
1377.518	2814.41667
1380.705	2824.41667
1383.89	2792.41667
1387.072	2713.08333
1390.252	2607.75
1393.429	2524.41667
1396.605	2462.41667
1399.777	2382.41667
1402.948	2384.75
1406.116	2355.75
1409.282	2323.75
1412.445	2348.41667
1415.606	2403.08333
1418.765	2422.08333
1421.921	2480.08333
1425.075	2522.08333
1428.227	2591.41667
1431.376	2710.41667
1434.524	2804.41667
1437.668	2875.41667
1440.811	2926.08333
1443.951	2916.75
1447.089	2940.08333
1450.224	2929.41667
1453.357	2892.75
1456.488	2894.41667
1459.617	2822.75
1462.743	2801.41667
1465.867	2716.08333
1468.989	2656.08333
1472.108	2640.08333
1475.225	2575.75
1478.34	2558.75
1481.453	2542.75
1484.563	2558.41667
1487.671	2593.41667
1490.776	2613.75
1493.88	2656.08333
1496.981	2712.75
1500.08	2759.75
1503.176	2776.41667
1506.271	2830.41667
1509.363	2856.41667
1512.452	2902.08333
1515.54	2906.08333
1518.625	2959.08333
1521.708	3025.08333
1524.789	3106.08333
1527.867	3238.08333
1530.944	3414.75
1534.018	3559.08333
1537.089	3699.41667
1540.159	3768.41667
1543.226	3783.41667
1546.291	3687.08333
1549.354	3618.75
1552.415	3552.75
1555.473	3453.08333
1558.529	3414.75
1561.583	3355.08333
1564.634	3313.41667
1567.684	3328.08333
1570.731	3328.08333
1573.776	3368.41667
1576.819	3399.75
1579.859	3456.41667
1582.898	3495.08333
1585.934	3531.08333
1588.968	3510.41667
1591.999	3528.08333
1595.029	3547.75
1598.056	3561.75
1601.081	3597.75
1604.104	3579.08333
1607.125	3526.41667
1610.144	3444.75
1613.16	3358.75
1616.174	3270.41667
1619.186	3201.08333
1622.196	3116.08333
1625.203	3020.41667
1628.209	2958.41667
1631.212	2912.75
1634.213	2907.75
1637.212	2870.08333
1640.209	2829.41667
1643.203	2758.75
1646.196	2692.08333
1649.186	2556.41667
1652.174	2492.08333
1655.16	2418.41667
1658.144	2343.08333
1661.125	2245.75
1664.105	2165.41667
1667.082	2057.41667
1670.057	1967.41667
1673.03	1855.75
1676.001	1722.75
1678.97	1630.75
1681.937	1518.08333
1684.901	1450.08333
1687.863	1379.75
1690.824	1320.75
1693.782	1312.41667
1696.738	1248.08333
1699.692	1222.08333
1702.643	1191.75
1705.593	1182.08333
1708.54	1165.75
1711.486	1159.75
1714.429	1127.41667
1717.37	1127.75
1720.309	1103.41667
1723.246	1097.08333
1726.181	1075.08333
1729.113	1083.41667
1732.044	1054.08333
1734.972	1054.41667
1737.899	1063.41667
1740.823	1062.75
1743.745	1025.41667
1746.665	1005.08333
1749.583	997.08333
1752.499	983.08333
1755.413	962.08333
1758.325	942.41667
1761.235	931.41667
1764.142	936.41667
1767.048	909.41667
1769.951	910.75
1772.852	912.41667
1775.752	902.75
1778.649	891.41667
1781.544	905.08333
1784.437	887.75
1787.328	894.08333
1790.217	887.41667
1793.104	850.08333
1795.989	839.41667
1798.872	843.41667
1801.753	873.41667
1804.631	851.41667
1807.508	857.41667
1810.383	849.08333
1813.255	846.08333
1816.126	838.75
1818.994	841.41667
1821.861	841.08333
1824.725	822.41667
1827.587	840.41667
1830.448	840.08333
1833.306	794.41667
1836.162	824.41667
1839.017	797.08333
1841.869	803.41667
1844.719	804.75
1847.567	786.41667
1850.414	777.08333
1853.258	781.41667
1856.1	789.08333
1858.94	794.75
1861.778	782.08333
1864.614	784.41667
1867.448	779.08333
1870.28	766.75
1873.111	800.75
1875.939	787.75
1878.765	789.75
1881.589	763.08333
1884.411	770.41667
1887.231	766.41667
1890.049	774.41667
1892.865	784.08333
1895.68	747.75
1898.492	761.08333
1901.302	757.41667
1904.11	744.41667
1906.916	745.08333
1909.721	743.41667
1912.523	747.41667
1915.323	745.41667
1918.122	731.75
1920.918	755.75
1923.712	736.75
1926.505	729.08333
1929.295	712.41667
1932.084	732.41667
1934.87	740.41667
1937.655	725.41667
1940.438	721.08333
1943.218	714.08333
1945.997	739.41667
1948.774	731.75
1951.549	734.08333
1954.322	713.41667
1957.093	728.08333
1959.862	720.08333
1962.629	701.08333
1965.394	712.08333
1968.157	695.08333
1970.918	708.75
1973.678	701.75
1976.435	704.08333
1979.19	691.75
1981.944	691.41667
1984.696	678.08333
1987.445	665.41667
1990.193	686.08333
1992.939	700.08333
1995.683	679.08333
1998.425	668.75
2001.165	712.41667
2003.903	667.08333
2006.639	679.41667
2009.374	695.41667
2012.106	676.08333
2014.837	663.08333
2017.566	678.41667
2020.292	677.75
2023.017	664.08333
2025.74	666.08333
2028.461	662.41667
2031.18	666.41667
2033.898	656.08333
2036.613	668.08333
2039.327	661.08333
2042.038	646.08333
2044.748	644.75
2047.456	654.41667
2050.162	635.75
2052.866	639.75
2055.568	659.08333
2058.268	650.08333
2060.967	645.08333
2063.663	633.08333
2066.358	642.41667
2069.051	630.75
2071.742	628.75
2074.431	645.41667
2077.118	640.41667
2079.804	629.41667
2082.487	639.41667
2085.169	653.08333
2087.849	659.41667
2090.527	637.75
2093.203	639.08333
2095.877	659.41667
2098.55	650.41667
2101.22	668.08333
2103.889	677.08333
2106.556	667.75
2109.221	697.75
2111.884	708.41667
2114.546	772.75
2117.205	818.41667
2119.863	888.41667
2122.519	933.08333
2125.173	986.75
2127.825	1032.41667
2130.475	1037.08333
2133.124	998.41667
2135.771	953.75
2138.416	918.75
2141.059	859.75
2143.7	818.08333
2146.339	770.08333
2148.977	715.41667
2151.613	722.41667
2154.247	696.41667
2156.879	690.08333
2159.51	667.08333
2162.138	641.08333
2164.765	649.75
2167.39	633.08333
2170.013	642.75
2172.634	639.08333
2175.254	627.41667
2177.872	651.41667
2180.488	607.75
2183.102	620.08333
2185.714	604.08333
2188.325	590.08333
2190.934	592.41667
2193.541	600.75
2196.146	590.75
2198.75	577.75
2201.351	573.41667
2203.951	565.08333
2206.549	581.08333
2209.146	570.41667
2211.74	565.41667
2214.333	575.75
2216.924	559.08333
2219.514	564.75
2222.101	551.75
2224.687	575.75
2227.271	559.08333
2229.853	546.41667
2232.433	537.41667
2235.012	558.75
2237.589	556.75
2240.164	573.75
2242.738	542.41667
2245.309	546.08333
2247.879	552.75
2250.448	551.08333
2253.014	534.75
2255.579	523.08333
2258.142	524.41667
2260.703	521.41667
2263.262	532.08333
2265.82	517.08333
2268.376	516.08333
2270.93	512.08333
2273.483	509.41667
2276.033	520.08333
2278.583	507.41667
2281.13	512.41667
2283.675	504.75
2286.219	503.41667
2288.761	510.08333
2291.302	511.75
2293.841	515.75
2296.377	491.41667
2298.913	502.75
2301.446	518.08333
2303.978	502.41667
2306.508	489.75
2309.037	505.75
2311.563	503.41667
2314.088	502.41667
2316.612	478.08333
2319.133	493.75
2321.653	490.41667
2324.171	481.41667
2326.688	508.75
2329.202	489.41667
2331.715	494.41667
2334.227	482.75
2336.736	490.41667
2339.244	489.41667
2341.751	479.08333
2344.255	498.08333
2346.758	484.08333
2349.259	472.75
2351.759	483.08333
2354.257	476.41667
2356.753	476.08333
2359.247	474.08333
2361.74	481.41667
2364.231	486.75
2366.721	483.41667
2369.209	472.08333
2371.695	482.08333
2374.179	476.41667
2376.662	465.08333
2379.143	487.41667
2381.622	471.75
2384.1	491.41667
2386.576	484.08333
2389.051	499.75
2391.524	487.75
2393.995	480.75
2396.464	471.75
2398.932	482.41667
2401.398	465.41667
2403.863	476.75
2406.325	478.08333
2408.787	469.75
2411.246	473.08333
2413.704	471.08333
2416.16	472.41667
2418.615	465.08333
2421.068	481.08333
2423.519	473.75
2425.969	466.75
2428.417	479.08333
2430.863	488.41667
2433.308	482.08333
2435.751	477.08333
2438.193	469.08333
2440.633	472.41667
2443.071	474.08333
2445.508	470.08333
2447.943	462.41667
2450.376	471.08333
2452.808	459.41667
2455.238	458.08333
2457.667	507.08333
2460.093	466.08333
2462.519	452.75
2464.942	473.41667
2467.365	468.08333
2469.785	480.75
2472.204	468.75
2474.621	463.41667
2477.037	488.08333
2479.451	455.08333
2481.863	462.08333
2484.274	460.41667
2486.683	463.75
2489.091	474.41667
2491.497	463.41667
2493.901	470.75
2496.304	453.08333
2498.705	469.75
2501.105	464.08333
2503.503	490.08333
2505.899	451.75
2508.294	478.41667
2510.687	462.75
2513.079	464.41667
2515.469	454.41667
2517.858	465.75
2520.245	472.08333
2522.63	469.41667
2525.014	445.41667
2527.396	452.08333
2529.776	456.75
2532.156	468.41667
2534.533	465.41667
2536.909	456.41667
2539.283	445.08333
2541.656	461.75
2544.027	473.75
2546.397	460.41667
2548.765	457.41667
2551.131	464.08333
2553.496	459.41667
2555.86	462.75
2558.221	462.75
2560.582	457.41667
2562.94	450.41667
2565.298	463.41667
2567.653	477.75
2570.007	447.41667
2572.36	472.41667
2574.711	457.08333
2577.06	478.41667
2579.408	480.75
2581.754	461.41667
2584.099	482.41667
2586.442	471.41667
2588.784	479.41667
2591.124	465.08333
2593.463	472.75
2595.8	468.75
2598.135	459.41667
2600.469	451.08333
2602.802	483.08333
2605.133	471.41667
2607.462	462.41667
2609.79	462.75
2612.116	474.08333
2614.441	481.08333
2616.764	465.08333
2619.086	477.08333
2621.406	458.75
2623.725	481.41667
2626.042	480.75
2628.358	475.41667
2630.672	472.08333
2632.985	493.41667
2635.296	481.75
2637.606	479.75
2639.914	465.08333
2642.22	477.41667
2644.525	482.08333
2646.829	491.08333
2649.131	496.08333
2651.432	502.08333
2653.731	493.41667
2656.028	492.75
2658.324	508.08333
2660.619	491.41667
2662.912	500.75
2665.204	483.08333
2667.494	503.41667
2669.782	494.08333
2672.07	503.08333
2674.355	515.75
2676.639	496.41667
2678.922	486.08333
2681.203	508.75
2683.483	491.08333
2685.761	494.75
2688.038	509.41667
2690.313	518.08333
2692.587	505.41667
2694.859	500.41667
2697.13	521.41667
2699.399	512.08333
2701.667	527.41667
2703.933	522.08333
2706.198	521.75
2708.461	531.08333
2710.723	532.41667
2712.984	537.41667
2715.243	537.75
2717.5	529.75
2719.757	550.41667
2722.011	530.75
2724.264	549.08333
2726.516	566.08333
2728.766	551.08333
2731.015	553.41667
2733.262	554.75
2735.508	548.75
2737.753	551.75
2739.996	535.08333
2742.237	543.75
2744.477	550.08333
2746.716	549.75
2748.953	533.75
2751.189	550.08333
2753.423	541.41667
2755.656	528.75
2757.887	525.08333
2760.117	522.75
2762.346	519.08333
2764.573	524.08333
2766.798	524.08333
2769.022	522.41667
2771.245	531.75
2773.467	543.75
2775.686	543.08333
2777.905	542.41667
2780.122	557.08333
2782.337	554.08333
2784.552	547.41667
2786.764	550.08333
2788.976	558.08333
2791.186	559.41667
2793.394	573.75
2795.601	587.08333
2797.807	582.08333
2800.011	585.75
2802.214	596.75
2804.415	603.41667
2806.615	582.75
2808.814	592.75
2811.011	612.08333
2813.206	607.08333
2815.401	621.75
2817.594	616.41667
2819.785	630.75
2821.975	634.08333
2824.164	634.75
2826.351	651.75
2828.537	665.41667
2830.722	673.08333
2832.905	680.41667
2835.086	703.75
2837.267	731.75
2839.445	734.08333
2841.623	753.08333
2843.799	781.75
2845.974	801.08333
2848.147	831.08333
2850.319	853.75
2852.489	879.41667
2854.659	876.08333
2856.826	894.41667
2858.993	930.41667
2861.158	909.75
2863.321	902.41667
2865.483	929.41667
2867.644	922.08333
2869.804	908.08333
2871.962	906.08333
2874.118	915.41667
2876.274	912.08333
2878.428	927.08333
2880.58	914.08333
2882.731	892.41667
2884.881	897.08333
2887.03	921.08333
2889.177	907.41667
2891.322	916.08333
2893.467	905.41667
2895.61	922.08333
2897.751	952.41667
2899.892	936.41667
2902.03	949.41667
2904.168	945.08333
2906.304	942.75
2908.439	968.41667
2910.572	956.41667
2912.704	965.41667
2914.835	972.75
2916.965	960.08333
2919.093	974.41667
2921.219	940.75
2923.345	960.41667
2925.469	949.41667
2927.591	934.41667
2929.712	907.75
2931.832	906.08333
2933.951	881.08333
2936.068	886.75
2938.184	861.08333
2940.299	850.41667
2942.412	829.75
2944.524	803.41667
2946.634	797.75
2948.744	764.08333
2950.851	786.08333
2952.958	750.41667
2955.063	742.41667
2957.167	741.75
2959.269	716.08333
2961.371	735.75
2963.471	712.41667
2965.569	708.41667
2967.666	676.75
2969.762	667.41667
2971.857	675.41667
2973.95	649.75
2976.042	643.08333
2978.133	648.08333
2980.222	621.41667
2982.31	610.75
2984.396	584.08333
2986.482	601.41667
2988.566	586.41667
2990.648	584.75
2992.73	589.41667
2994.81	575.75
2996.889	571.41667
2998.966	566.08333
3001.042	582.41667
3003.117	564.41667
3005.191	565.75
3007.263	566.08333
3009.334	552.75
3011.403	560.75
3013.472	547.08333
3015.539	545.75
3017.604	558.41667
3019.669	512.75
3021.732	521.75
3023.794	523.08333
3025.854	515.08333
3027.914	514.41667
3029.971	524.08333
3032.028	515.08333
3034.083	520.08333
3036.137	512.08333
3038.19	485.41667
3040.242	482.75
3042.292	465.75
3044.341	461.41667
3046.388	477.41667
3048.435	453.41667
3050.48	471.41667
3052.524	466.08333
3054.566	446.41667
3056.607	456.75
3058.647	447.41667
3060.686	436.08333
3062.723	413.41667
3064.759	399.75
3066.794	0.75
3068.828	3.08333
3070.86	4.08333
