-0.839	488.375
3.438	581.70833
7.711	168.04167
11.981	60.375
16.247	42.375
20.509	47.70833
24.768	46.375
29.024	51.70833
33.276	41.375
37.524	51.04167
41.769	44.70833
46.01	31.375
50.247	46.375
54.481	54.04167
58.712	64.375
62.939	49.375
67.162	63.375
71.382	57.375
75.599	43.70833
79.812	57.375
84.021	78.70833
88.227	57.70833
92.429	59.70833
96.628	53.70833
100.823	72.04167
105.015	74.375
109.204	66.04167
113.388	76.375
117.57	71.375
121.748	83.70833
125.922	77.04167
130.093	94.70833
134.261	90.375
138.425	93.375
142.585	130.375
146.742	121.70833
150.896	146.375
155.046	192.375
159.193	290.375
163.336	490.375
167.476	910.04167
171.613	1655.375
175.746	2772.70833
179.875	4111.04167
184.002	5347.70833
188.124	6208.375
192.244	6447.70833
196.36	6387.04167
200.472	6172.04167
204.581	5985.04167
208.687	5820.375
212.79	5700.04167
216.889	5722.375
220.984	5670.04167
225.077	5668.375
229.165	5650.70833
233.251	5648.375
237.333	5594.70833
241.412	5520.375
245.487	5459.70833
249.559	5390.04167
253.628	5346.375
257.694	5279.04167
261.756	5264.375
265.814	5145.04167
269.87	4983.70833
273.922	4814.04167
277.97	4725.70833
282.016	4717.04167
286.058	4752.375
290.097	4830.70833
294.132	4933.375
298.164	4834.375
302.193	4608.04167
306.219	4243.375
310.241	3926.04167
314.26	3622.04167
318.276	3332.375
322.288	3182.375
326.297	3059.375
330.303	2979.375
334.305	3026.375
338.305	2846.375
342.301	2770.375
346.294	2752.70833
350.283	2723.70833
354.269	2694.04167
358.252	2678.04167
362.232	2650.04167
366.209	2639.375
370.182	2603.70833
374.152	2598.04167
378.119	2579.04167
382.083	2600.70833
386.043	2604.375
390	2572.375
393.954	2579.04167
397.905	2561.70833
401.852	2550.375
405.797	2527.375
409.738	2506.70833
413.676	2509.375
417.61	2502.375
421.542	2477.70833
425.47	2452.375
429.396	2443.375
433.318	2423.70833
437.236	2427.375
441.152	2441.375
445.065	2373.04167
448.974	2386.375
452.88	2367.375
456.783	2346.70833
460.683	2314.375
464.58	2334.375
468.473	2304.04167
472.364	2342.04167
476.251	2348.04167
480.135	2373.375
484.016	2397.375
487.894	2411.375
491.769	2396.04167
495.641	2430.04167
499.509	2427.375
503.375	2434.375
507.237	2438.04167
511.096	2424.04167
514.952	2454.375
518.805	2500.375
522.655	2549.04167
526.502	2466.70833
530.346	2422.70833
534.187	2420.70833
538.024	2420.70833
541.859	2457.70833
545.69	2454.375
549.519	2445.375
553.344	2451.04167
557.166	2364.04167
560.985	2358.04167
564.802	2331.375
568.615	2292.04167
572.425	2246.375
576.232	2252.70833
580.036	2223.04167
583.836	2256.375
587.634	2270.70833
591.429	2267.70833
595.221	2318.375
599.01	2331.70833
602.796	2342.04167
606.578	2372.04167
610.358	2373.04167
614.135	2346.04167
617.909	2342.04167
621.679	2319.70833
625.447	2297.375
629.212	2301.375
632.973	2311.70833
636.732	2311.70833
640.488	2298.70833
644.241	2287.70833
647.991	2283.70833
651.737	2262.04167
655.481	2243.04167
659.222	2251.04167
662.96	2227.375
666.695	2255.70833
670.427	2266.70833
674.156	2279.375
677.882	2292.375
681.605	2295.04167
685.325	2256.04167
689.043	2254.375
692.757	2247.375
696.468	2235.375
700.177	2250.04167
703.882	2224.04167
707.585	2231.04167
711.284	2219.375
714.981	2237.04167
718.675	2219.70833
722.366	2229.70833
726.054	2233.375
729.739	2221.04167
733.421	2236.70833
737.1	2221.04167
740.777	2249.375
744.45	2262.375
748.121	2283.375
751.789	2327.375
755.453	2286.70833
759.115	2305.70833
762.774	2349.70833
766.431	2340.70833
770.084	2366.375
773.734	2420.375
777.382	2435.375
781.027	2460.04167
784.669	2441.375
788.308	2466.70833
791.944	2488.375
795.577	2500.70833
799.208	2524.70833
802.835	2545.04167
806.46	2561.375
810.082	2562.70833
813.701	2528.70833
817.317	2560.375
820.931	2567.375
824.542	2595.70833
828.149	2571.04167
831.754	2529.375
835.357	2535.70833
838.956	2569.70833
842.553	2550.375
846.146	2554.04167
849.737	2535.04167
853.326	2549.70833
856.911	2540.04167
860.493	2569.70833
864.073	2599.375
867.65	2630.375
871.225	2650.04167
874.796	2659.70833
878.365	2677.70833
881.931	2678.70833
885.494	2711.04167
889.054	2722.04167
892.612	2726.375
896.166	2707.70833
899.719	2694.04167
903.268	2655.70833
906.814	2639.375
910.358	2598.375
913.899	2566.04167
917.438	2586.04167
920.973	2562.70833
924.506	2606.375
928.036	2619.375
931.564	2658.70833
935.088	2677.375
938.61	2700.375
942.129	2717.04167
945.646	2793.70833
949.16	2839.375
952.671	2853.375
956.179	2886.70833
959.685	2817.70833
963.188	2806.70833
966.688	2777.375
970.185	2682.375
973.68	2646.375
977.173	2617.70833
980.662	2597.375
984.149	2571.375
987.633	2570.70833
991.114	2607.04167
994.593	2678.70833
998.069	2741.04167
1001.542	2835.375
1005.013	2800.375
1008.481	2641.04167
1011.947	2559.04167
1015.409	2553.70833
1018.869	2580.04167
1022.327	2544.70833
1025.782	2545.375
1029.234	2537.70833
1032.683	2479.70833
1036.13	2434.04167
1039.574	2342.04167
1043.016	2270.375
1046.455	2226.375
1049.891	2202.375
1053.325	2228.375
1056.756	2243.375
1060.184	2264.70833
1063.61	2258.375
1067.033	2275.04167
1070.454	2249.375
1073.872	2274.04167
1077.287	2268.70833
1080.7	2281.04167
1084.11	2267.70833
1087.517	2254.70833
1090.922	2231.375
1094.325	2204.375
1097.724	2194.04167
1101.122	2211.375
1104.516	2215.70833
1107.908	2211.375
1111.298	2240.04167
1114.684	2250.70833
1118.069	2306.70833
1121.45	2331.04167
1124.83	2330.04167
1128.206	2346.04167
1131.58	2381.04167
1134.951	2429.70833
1138.32	2521.375
1141.687	2597.04167
1145.05	2643.04167
1148.412	2644.70833
1151.77	2625.70833
1155.126	2642.04167
1158.48	2633.04167
1161.831	2658.70833
1165.18	2671.70833
1168.525	2704.70833
1171.869	2746.70833
1175.21	2736.04167
1178.548	2781.70833
1181.884	2822.04167
1185.217	2844.375
1188.548	2913.04167
1191.877	2959.70833
1195.202	3040.04167
1198.526	3113.70833
1201.846	3116.70833
1205.165	3109.375
1208.48	3124.375
1211.794	3090.04167
1215.104	3085.04167
1218.413	3107.04167
1221.719	3065.375
1225.022	3040.04167
1228.323	2999.375
1231.621	2974.70833
1234.917	2961.375
1238.21	2989.375
1241.501	2948.375
1244.79	2950.04167
1248.076	2966.70833
1251.359	2979.70833
1254.64	3046.70833
1257.919	3059.70833
1261.195	3121.70833
1264.468	3173.04167
1267.74	3194.70833
1271.008	3200.04167
1274.275	3205.70833
1277.538	3179.04167
1280.8	3179.04167
1284.059	3164.70833
1287.315	3211.04167
1290.569	3236.70833
1293.821	3253.375
1297.07	3253.70833
1300.317	3291.375
1303.562	3268.70833
1306.803	3232.04167
1310.043	3231.04167
1313.28	3178.70833
1316.515	3143.375
1319.747	3132.04167
1322.977	3107.04167
1326.204	3052.375
1329.429	3020.04167
1332.652	3007.70833
1335.872	2998.375
1339.09	2924.04167
1342.306	2896.70833
1345.519	2870.04167
1348.729	2847.375
1351.938	2835.70833
1355.144	2819.04167
1358.347	2770.375
1361.548	2763.375
1364.747	2766.04167
1367.944	2714.375
1371.138	2748.375
1374.329	2767.04167
1377.518	2783.04167
1380.705	2789.04167
1383.89	2743.04167
1387.072	2683.70833
1390.252	2562.375
1393.429	2486.70833
1396.605	2446.70833
1399.777	2348.70833
1402.948	2347.70833
1406.116	2340.70833
1409.282	2327.04167
1412.445	2327.70833
1415.606	2364.70833
1418.765	2443.04167
1421.921	2462.04167
1425.075	2515.70833
1428.227	2573.375
1431.376	2688.04167
1434.524	2786.70833
1437.668	2843.70833
1440.811	2895.04167
1443.951	2919.04167
1447.089	2914.375
1450.224	2926.375
1453.357	2898.04167
1456.488	2885.04167
1459.617	2830.70833
1462.743	2762.70833
1465.867	2712.375
1468.989	2675.375
1472.108	2617.04167
1475.225	2566.70833
1478.34	2547.04167
1481.453	2540.375
1484.563	2560.04167
1487.671	2580.04167
1490.776	2616.70833
1493.88	2665.70833
1496.981	2708.70833
1500.08	2759.375
1503.176	2794.04167
1506.271	2818.70833
1509.363	2860.04167
1512.452	2883.70833
1515.54	2921.70833
1518.625	2951.04167
1521.708	3031.04167
1524.789	3112.70833
1527.867	3211.70833
1530.944	3391.375
1534.018	3551.04167
1537.089	3684.04167
1540.159	3751.70833
1543.226	3757.70833
1546.291	3693.04167
1549.354	3618.04167
1552.415	3543.375
1555.473	3436.375
1558.529	3398.70833
1561.583	3337.04167
1564.634	3300.04167
1567.684	3343.70833
1570.731	3359.375
1573.776	3401.70833
1576.819	3399.375
1579.859	3428.70833
1582.898	3502.04167
1585.934	3525.04167
1588.968	3538.04167
1591.999	3549.04167
1595.029	3545.375
1598.056	3564.70833
1601.081	3574.04167
1604.104	3568.70833
1607.125	3526.04167
1610.144	3457.70833
1613.16	3365.70833
1616.174	3265.04167
1619.186	3200.375
1622.196	3095.375
1625.203	3014.70833
1628.209	2916.70833
1631.212	2880.70833
1634.213	2847.04167
1637.212	2834.70833
1640.209	2770.375
1643.203	2712.70833
1646.196	2629.04167
1649.186	2529.375
1652.174	2469.375
1655.16	2379.04167
1658.144	2303.375
1661.125	2214.04167
1664.105	2113.375
1667.082	2043.70833
1670.057	1943.70833
1673.03	1822.70833
1676.001	1713.04167
1678.97	1590.70833
1681.937	1511.04167
1684.901	1430.375
1687.863	1386.375
1690.824	1329.70833
1693.782	1293.375
1696.738	1239.04167
1699.692	1217.375
1702.643	1172.70833
1705.593	1171.70833
1708.54	1145.70833
1711.486	1135.04167
1714.429	1102.375
1717.37	1114.375
1720.309	1077.70833
1723.246	1087.375
1726.181	1062.375
1729.113	1048.375
1732.044	1050.04167
1734.972	1034.04167
1737.899	1047.70833
1740.823	1037.04167
1743.745	1004.375
1746.665	990.04167
1749.583	971.70833
1752.499	967.04167
1755.413	949.70833
1758.325	932.04167
1761.235	922.375
1764.142	895.04167
1767.048	891.70833
1769.951	891.70833
1772.852	886.70833
1775.752	887.04167
1778.649	883.04167
1781.544	892.04167
1784.437	866.375
1787.328	871.70833
1790.217	860.375
1793.104	829.375
1795.989	844.70833
1798.872	837.04167
1801.753	850.04167
1804.631	838.04167
1807.508	850.70833
1810.383	831.04167
1813.255	823.375
1816.126	821.375
1818.994	831.70833
1821.861	818.375
1824.725	818.70833
1827.587	803.375
1830.448	808.70833
1833.306	789.04167
1836.162	802.375
1839.017	797.70833
1841.869	791.70833
1844.719	789.375
1847.567	763.04167
1850.414	759.375
1853.258	775.04167
1856.1	785.04167
1858.94	793.375
1861.778	776.375
1864.614	765.70833
1867.448	769.375
1870.28	762.70833
1873.111	792.04167
1875.939	766.375
1878.765	787.70833
1881.589	752.04167
1884.411	759.70833
1887.231	769.70833
1890.049	748.04167
1892.865	751.04167
1895.68	756.70833
1898.492	750.04167
1901.302	744.70833
1904.11	743.375
1906.916	727.375
1909.721	717.70833
1912.523	730.70833
1915.323	722.04167
1918.122	719.70833
1920.918	733.04167
1923.712	717.375
1926.505	702.375
1929.295	705.375
1932.084	729.70833
1934.87	721.70833
1937.655	723.70833
1940.438	709.70833
1943.218	711.70833
1945.997	725.70833
1948.774	733.04167
1951.549	716.04167
1954.322	709.375
1957.093	713.375
1959.862	704.70833
1962.629	699.04167
1965.394	698.04167
1968.157	681.04167
1970.918	694.375
1973.678	671.04167
1976.435	700.04167
1979.19	698.70833
1981.944	678.70833
1984.696	678.375
1987.445	664.375
1990.193	667.375
1992.939	686.70833
1995.683	678.04167
1998.425	649.375
2001.165	689.375
2003.903	676.375
2006.639	672.70833
2009.374	667.70833
2012.106	659.04167
2014.837	650.375
2017.566	657.04167
2020.292	664.04167
2023.017	659.04167
2025.74	657.70833
2028.461	659.375
2031.18	650.70833
2033.898	645.70833
2036.613	655.375
2039.327	654.375
2042.038	645.04167
2044.748	636.04167
2047.456	652.375
2050.162	625.375
2052.866	642.375
2055.568	648.375
2058.268	633.04167
2060.967	641.04167
2063.663	634.375
2066.358	632.375
2069.051	620.375
2071.742	634.375
2074.431	639.04167
2077.118	621.375
2079.804	624.04167
2082.487	638.375
2085.169	638.375
2087.849	650.375
2090.527	622.375
2093.203	641.375
2095.877	638.04167
2098.55	648.375
2101.22	647.375
2103.889	666.70833
2106.556	672.04167
2109.221	691.375
2111.884	702.375
2114.546	752.375
2117.205	807.04167
2119.863	884.04167
2122.519	938.375
2125.173	982.375
2127.825	1033.04167
2130.475	1029.70833
2133.124	988.04167
2135.771	948.04167
2138.416	909.375
2141.059	845.375
2143.7	812.70833
2146.339	769.70833
2148.977	710.70833
2151.613	717.04167
2154.247	691.04167
2156.879	685.375
2159.51	645.04167
2162.138	636.375
2164.765	644.04167
2167.39	625.70833
2170.013	633.70833
2172.634	630.04167
2175.254	607.04167
2177.872	642.375
2180.488	604.70833
2183.102	611.375
2185.714	603.70833
2188.325	579.375
2190.934	585.375
2193.541	591.70833
2196.146	582.70833
2198.75	570.70833
2201.351	579.70833
2203.951	572.70833
2206.549	583.04167
2209.146	564.375
2211.74	557.375
2214.333	577.375
2216.924	547.70833
2219.514	557.375
2222.101	553.375
2224.687	560.375
2227.271	550.04167
2229.853	539.70833
2232.433	530.04167
2235.012	555.04167
2237.589	551.70833
2240.164	551.375
2242.738	547.375
2245.309	531.04167
2247.879	542.70833
2250.448	540.70833
2253.014	537.375
2255.579	515.70833
2258.142	519.04167
2260.703	520.375
2263.262	519.70833
2265.82	508.04167
2268.376	524.04167
2270.93	510.04167
2273.483	523.70833
2276.033	505.04167
2278.583	507.70833
2281.13	508.70833
2283.675	504.04167
2286.219	504.375
2288.761	502.375
2291.302	510.70833
2293.841	507.70833
2296.377	491.04167
2298.913	491.70833
2301.446	504.375
2303.978	499.70833
2306.508	494.375
2309.037	494.04167
2311.563	495.04167
2314.088	501.04167
2316.612	491.70833
2319.133	494.70833
2321.653	493.70833
2324.171	477.375
2326.688	501.04167
2329.202	488.375
2331.715	480.375
2334.227	485.375
2336.736	487.375
2339.244	480.04167
2341.751	474.04167
2344.255	497.375
2346.758	478.04167
2349.259	466.70833
2351.759	488.04167
2354.257	471.375
2356.753	472.70833
2359.247	473.70833
2361.74	483.375
2364.231	481.375
2366.721	482.70833
2369.209	471.70833
2371.695	482.70833
2374.179	471.70833
2376.662	470.70833
2379.143	486.04167
2381.622	480.04167
2384.1	483.375
2386.576	466.70833
2389.051	494.375
2391.524	487.375
2393.995	480.70833
2396.464	477.375
2398.932	473.70833
2401.398	470.375
2403.863	473.70833
2406.325	465.70833
2408.787	465.04167
2411.246	470.70833
2413.704	464.04167
2416.16	471.04167
2418.615	471.70833
2421.068	482.70833
2423.519	481.375
2425.969	466.70833
2428.417	473.375
2430.863	498.70833
2433.308	478.375
2435.751	477.70833
2438.193	463.70833
2440.633	481.375
2443.071	474.375
2445.508	462.70833
2447.943	465.70833
2450.376	464.375
2452.808	473.375
2455.238	466.70833
2457.667	497.04167
2460.093	470.70833
2462.519	465.375
2464.942	468.04167
2467.365	470.375
2469.785	477.70833
2472.204	468.375
2474.621	461.70833
2477.037	482.70833
2479.451	455.70833
2481.863	454.04167
2484.274	464.70833
2486.683	470.70833
2489.091	477.04167
2491.497	466.70833
2493.901	467.375
2496.304	462.375
2498.705	470.375
2501.105	476.70833
2503.503	489.70833
2505.899	447.70833
2508.294	480.70833
2510.687	476.04167
2513.079	471.375
2515.469	471.04167
2517.858	462.375
2520.245	464.04167
2522.63	454.04167
2525.014	462.04167
2527.396	456.375
2529.776	446.70833
2532.156	470.70833
2534.533	461.70833
2536.909	459.70833
2539.283	438.04167
2541.656	457.375
2544.027	486.04167
2546.397	465.70833
2548.765	457.04167
2551.131	486.04167
2553.496	459.375
2555.86	468.70833
2558.221	468.375
2560.582	466.375
2562.94	463.04167
2565.298	469.04167
2567.653	488.375
2570.007	460.04167
2572.36	476.04167
2574.711	457.70833
2577.06	481.04167
2579.408	469.70833
2581.754	466.04167
2584.099	480.70833
2586.442	466.375
2588.784	478.04167
2591.124	475.375
2593.463	468.375
2595.8	479.375
2598.135	461.375
2600.469	468.04167
2602.802	485.04167
2605.133	486.04167
2607.462	463.70833
2609.79	461.375
2612.116	476.70833
2614.441	485.04167
2616.764	471.70833
2619.086	463.375
2621.406	468.70833
2623.725	489.04167
2626.042	480.70833
2628.358	471.70833
2630.672	474.375
2632.985	490.375
2635.296	482.375
2637.606	480.375
2639.914	475.375
2642.22	485.375
2644.525	493.70833
2646.829	487.04167
2649.131	499.375
2651.432	507.70833
2653.731	496.04167
2656.028	503.375
2658.324	505.04167
2660.619	494.375
2662.912	507.375
2665.204	493.70833
2667.494	513.375
2669.782	494.375
2672.07	503.70833
2674.355	506.04167
2676.639	503.04167
2678.922	499.04167
2681.203	506.70833
2683.483	501.04167
2685.761	502.04167
2688.038	509.04167
2690.313	522.70833
2692.587	515.375
2694.859	504.04167
2697.13	502.04167
2699.399	525.375
2701.667	528.70833
2703.933	531.375
2706.198	525.70833
2708.461	538.70833
2710.723	539.04167
2712.984	543.04167
2715.243	545.375
2717.5	531.70833
2719.757	563.04167
2722.011	538.375
2724.264	547.375
2726.516	572.04167
2728.766	547.70833
2731.015	563.375
2733.262	564.04167
2735.508	560.70833
2737.753	557.70833
2739.996	552.04167
2742.237	544.04167
2744.477	552.375
2746.716	552.04167
2748.953	539.04167
2751.189	552.04167
2753.423	547.375
2755.656	542.375
2757.887	530.04167
2760.117	542.375
2762.346	534.375
2764.573	523.04167
2766.798	529.375
2769.022	536.375
2771.245	545.70833
2773.467	536.04167
2775.686	551.04167
2777.905	544.70833
2780.122	558.375
2782.337	563.04167
2784.552	557.04167
2786.764	563.04167
2788.976	569.375
2791.186	569.375
2793.394	576.04167
2795.601	582.375
2797.807	596.375
2800.011	607.04167
2802.214	606.70833
2804.415	607.04167
2806.615	611.375
2808.814	611.375
2811.011	617.70833
2813.206	618.70833
2815.401	636.375
2817.594	632.70833
2819.785	653.375
2821.975	638.375
2824.164	649.375
2826.351	657.375
2828.537	682.70833
2830.722	684.375
2832.905	700.375
2835.086	707.375
2837.267	739.70833
2839.445	751.04167
2841.623	763.04167
2843.799	793.70833
2845.974	812.70833
2848.147	850.70833
2850.319	868.04167
2852.489	887.04167
2854.659	892.04167
2856.826	909.70833
2858.993	942.04167
2861.158	909.04167
2863.321	924.04167
2865.483	938.375
2867.644	939.375
2869.804	930.70833
2871.962	919.375
2874.118	921.70833
2876.274	938.04167
2878.428	918.04167
2880.58	912.70833
2882.731	918.375
2884.881	920.375
2887.03	922.375
2889.177	923.04167
2891.322	935.04167
2893.467	934.70833
2895.61	934.04167
2897.751	952.04167
2899.892	935.375
2902.03	959.375
2904.168	951.70833
2906.304	963.04167
2908.439	981.70833
2910.572	954.04167
2912.704	971.375
2914.835	972.04167
2916.965	970.375
2919.093	991.70833
2921.219	943.375
2923.345	992.375
2925.469	952.70833
2927.591	949.70833
2929.712	911.70833
2931.832	921.04167
2933.951	911.375
2936.068	887.70833
2938.184	886.70833
2940.299	870.375
2942.412	840.04167
2944.524	823.375
2946.634	813.04167
2948.744	758.70833
2950.851	797.04167
2952.958	755.375
2955.063	748.70833
2957.167	756.70833
2959.269	725.04167
2961.371	752.70833
2963.471	716.375
2965.569	722.70833
2967.666	691.04167
2969.762	680.70833
2971.857	678.70833
2973.95	655.375
2976.042	651.375
2978.133	653.375
2980.222	631.375
2982.31	619.04167
2984.396	595.04167
2986.482	599.04167
2988.566	591.70833
2990.648	594.04167
2992.73	594.70833
2994.81	583.04167
2996.889	577.375
2998.966	589.70833
3001.042	586.70833
3003.117	571.70833
3005.191	580.70833
3007.263	578.375
3009.334	567.375
3011.403	569.375
3013.472	551.04167
3015.539	557.375
3017.604	552.04167
3019.669	526.70833
3021.732	536.04167
3023.794	537.70833
3025.854	526.70833
3027.914	522.375
3029.971	529.04167
3032.028	526.375
3034.083	532.70833
3036.137	510.70833
3038.19	502.04167
3040.242	490.04167
3042.292	490.04167
3044.341	477.375
3046.388	489.04167
3048.435	467.70833
3050.48	488.04167
3052.524	467.375
3054.566	460.04167
3056.607	473.70833
3058.647	451.04167
3060.686	446.04167
3062.723	424.70833
3064.759	406.375
3066.794	1.04167
3068.828	1.70833
3070.86	2.04167
