-0.839	489.95833
3.438	573.625
7.711	175.29167
11.981	61.29167
16.247	42.625
20.509	53.29167
24.768	41.625
29.024	53.95833
33.276	43.29167
37.524	48.29167
41.769	43.625
46.01	30.95833
50.247	45.95833
54.481	56.95833
58.712	59.625
62.939	42.95833
67.162	61.29167
71.382	56.29167
75.599	46.95833
79.812	59.625
84.021	80.625
88.227	60.29167
92.429	55.95833
96.628	50.29167
100.823	67.29167
105.015	73.29167
109.204	65.29167
113.388	73.29167
117.57	73.95833
121.748	84.625
125.922	75.95833
130.093	92.625
134.261	92.95833
138.425	89.95833
142.585	133.625
146.742	123.29167
150.896	150.625
155.046	186.95833
159.193	287.625
163.336	498.95833
167.476	893.29167
171.613	1668.625
175.746	2769.95833
179.875	4103.95833
184.002	5328.625
188.124	6191.95833
192.244	6476.625
196.36	6389.29167
200.472	6168.95833
204.581	5985.625
208.687	5843.29167
212.79	5729.95833
216.889	5702.95833
220.984	5665.95833
225.077	5677.29167
229.165	5651.95833
233.251	5653.29167
237.333	5593.29167
241.412	5531.625
245.487	5460.95833
249.559	5399.95833
253.628	5396.95833
257.694	5331.95833
261.756	5241.29167
265.814	5123.95833
269.87	4982.95833
273.922	4808.29167
277.97	4739.95833
282.016	4679.95833
286.058	4752.95833
290.097	4864.95833
294.132	4913.29167
298.164	4853.625
302.193	4584.625
306.219	4260.625
310.241	3915.625
314.26	3617.95833
318.276	3380.625
322.288	3190.29167
326.297	3061.625
330.303	2957.29167
334.305	2879.95833
338.305	2831.95833
342.301	2796.29167
346.294	2767.95833
350.283	2756.625
354.269	2691.95833
358.252	2684.95833
362.232	2684.29167
366.209	2669.29167
370.182	2618.95833
374.152	2606.95833
378.119	2610.29167
382.083	2612.29167
386.043	2610.95833
390	2587.625
393.954	2604.95833
397.905	2565.625
401.852	2569.95833
405.797	2535.625
409.738	2544.95833
413.676	2537.29167
417.61	2524.625
421.542	2501.29167
425.47	2461.29167
429.396	2454.625
433.318	2442.95833
437.236	2429.95833
441.152	2465.29167
445.065	2409.29167
448.974	2395.29167
452.88	2373.29167
456.783	2346.29167
460.683	2344.95833
464.58	2356.625
468.473	2357.95833
472.364	2359.95833
476.251	2364.95833
480.135	2399.95833
484.016	2415.625
487.894	2440.625
491.769	2442.625
495.641	2426.625
499.509	2437.625
503.375	2450.625
507.237	2425.29167
511.096	2436.29167
514.952	2498.625
518.805	2542.625
522.655	2551.29167
526.502	2460.29167
530.346	2420.95833
534.187	2428.29167
538.024	2438.29167
541.859	2470.29167
545.69	2500.29167
549.519	2452.95833
553.344	2428.625
557.166	2412.95833
560.985	2384.625
564.802	2324.29167
568.615	2286.29167
572.425	2261.625
576.232	2249.625
580.036	2245.625
583.836	2262.29167
587.634	2279.29167
591.429	2283.625
595.221	2331.29167
599.01	2348.95833
602.796	2363.29167
606.578	2367.625
610.358	2379.625
614.135	2356.625
617.909	2356.29167
621.679	2322.29167
625.447	2328.29167
629.212	2336.625
632.973	2309.95833
636.732	2308.29167
640.488	2333.29167
644.241	2281.625
647.991	2293.95833
651.737	2292.29167
655.481	2271.95833
659.222	2259.29167
662.96	2277.95833
666.695	2289.95833
670.427	2284.625
674.156	2308.625
677.882	2292.95833
681.605	2284.29167
685.325	2277.625
689.043	2259.625
692.757	2236.95833
696.468	2266.95833
700.177	2267.29167
703.882	2231.625
707.585	2231.95833
711.284	2209.625
714.981	2225.95833
718.675	2248.625
722.366	2243.95833
726.054	2223.29167
729.739	2240.625
733.421	2257.29167
737.1	2233.95833
740.777	2239.29167
744.45	2257.29167
748.121	2281.625
751.789	2334.29167
755.453	2283.625
759.115	2309.29167
762.774	2344.95833
766.431	2354.29167
770.084	2370.29167
773.734	2411.95833
777.382	2448.29167
781.027	2485.95833
784.669	2500.29167
788.308	2499.95833
791.944	2507.95833
795.577	2533.95833
799.208	2550.625
802.835	2542.29167
806.46	2559.95833
810.082	2557.29167
813.701	2571.29167
817.317	2583.29167
820.931	2567.625
824.542	2568.625
828.149	2562.29167
831.754	2558.625
835.357	2576.29167
838.956	2556.625
842.553	2566.625
846.146	2553.625
849.737	2536.95833
853.326	2543.95833
856.911	2551.29167
860.493	2575.625
864.073	2586.95833
867.65	2642.95833
871.225	2653.625
874.796	2655.95833
878.365	2661.95833
881.931	2692.29167
885.494	2707.95833
889.054	2728.625
892.612	2742.625
896.166	2716.29167
899.719	2708.625
903.268	2678.29167
906.814	2643.625
910.358	2594.29167
913.899	2575.95833
917.438	2595.95833
920.973	2574.95833
924.506	2585.625
928.036	2623.625
931.564	2651.29167
935.088	2696.625
938.61	2683.625
942.129	2742.95833
945.646	2802.95833
949.16	2849.625
952.671	2881.625
956.179	2875.625
959.685	2832.95833
963.188	2811.95833
966.688	2783.625
970.185	2717.625
973.68	2653.625
977.173	2617.29167
980.662	2587.29167
984.149	2607.625
987.633	2583.29167
991.114	2625.95833
994.593	2682.625
998.069	2751.95833
1001.542	2839.29167
1005.013	2777.625
1008.481	2640.95833
1011.947	2588.95833
1015.409	2596.29167
1018.869	2594.95833
1022.327	2575.29167
1025.782	2540.29167
1029.234	2548.95833
1032.683	2488.625
1036.13	2429.29167
1039.574	2338.95833
1043.016	2288.95833
1046.455	2236.625
1049.891	2225.625
1053.325	2210.625
1056.756	2249.29167
1060.184	2272.95833
1063.61	2286.29167
1067.033	2290.29167
1070.454	2281.625
1073.872	2293.625
1077.287	2301.625
1080.7	2292.95833
1084.11	2285.95833
1087.517	2258.95833
1090.922	2233.95833
1094.325	2228.95833
1097.724	2197.29167
1101.122	2229.95833
1104.516	2219.625
1107.908	2205.625
1111.298	2240.95833
1114.684	2259.29167
1118.069	2298.95833
1121.45	2338.625
1124.83	2326.625
1128.206	2358.625
1131.58	2400.625
1134.951	2432.95833
1138.32	2530.29167
1141.687	2610.625
1145.05	2655.625
1148.412	2671.95833
1151.77	2657.29167
1155.126	2635.625
1158.48	2643.29167
1161.831	2639.29167
1165.18	2679.95833
1168.525	2720.625
1171.869	2734.625
1175.21	2744.29167
1178.548	2776.625
1181.884	2825.95833
1185.217	2830.95833
1188.548	2884.95833
1191.877	2956.625
1195.202	3047.625
1198.526	3110.29167
1201.846	3134.95833
1205.165	3108.29167
1208.48	3116.625
1211.794	3105.95833
1215.104	3095.29167
1218.413	3091.29167
1221.719	3090.625
1225.022	3051.625
1228.323	3017.625
1231.621	2980.95833
1234.917	2935.29167
1238.21	2982.95833
1241.501	2978.29167
1244.79	2943.95833
1248.076	2944.29167
1251.359	2983.95833
1254.64	3049.29167
1257.919	3069.95833
1261.195	3115.29167
1264.468	3160.95833
1267.74	3216.95833
1271.008	3220.29167
1274.275	3205.29167
1277.538	3207.625
1280.8	3166.29167
1284.059	3174.95833
1287.315	3202.29167
1290.569	3190.95833
1293.821	3255.95833
1297.07	3261.625
1300.317	3268.625
1303.562	3292.29167
1306.803	3243.95833
1310.043	3227.625
1313.28	3195.95833
1316.515	3173.625
1319.747	3139.625
1322.977	3108.625
1326.204	3084.625
1329.429	3004.29167
1332.652	2996.95833
1335.872	2977.625
1339.09	2935.95833
1342.306	2942.29167
1345.519	2876.29167
1348.729	2883.625
1351.938	2853.95833
1355.144	2799.95833
1358.347	2757.29167
1361.548	2748.95833
1364.747	2751.29167
1367.944	2717.95833
1371.138	2763.95833
1374.329	2779.625
1377.518	2804.625
1380.705	2807.29167
1383.89	2772.29167
1387.072	2700.95833
1390.252	2588.95833
1393.429	2494.95833
1396.605	2426.29167
1399.777	2376.625
1402.948	2359.95833
1406.116	2338.95833
1409.282	2347.29167
1412.445	2359.625
1415.606	2366.625
1418.765	2419.29167
1421.921	2463.625
1425.075	2501.625
1428.227	2604.29167
1431.376	2708.625
1434.524	2797.625
1437.668	2842.29167
1440.811	2882.95833
1443.951	2917.625
1447.089	2932.95833
1450.224	2919.95833
1453.357	2893.625
1456.488	2875.95833
1459.617	2827.95833
1462.743	2779.625
1465.867	2711.95833
1468.989	2634.625
1472.108	2607.625
1475.225	2583.625
1478.34	2522.625
1481.453	2544.95833
1484.563	2554.625
1487.671	2574.95833
1490.776	2606.95833
1493.88	2674.95833
1496.981	2705.625
1500.08	2759.625
1503.176	2759.625
1506.271	2824.625
1509.363	2877.95833
1512.452	2884.29167
1515.54	2906.625
1518.625	2927.625
1521.708	3012.29167
1524.789	3099.29167
1527.867	3200.625
1530.944	3371.95833
1534.018	3556.29167
1537.089	3694.95833
1540.159	3762.29167
1543.226	3730.29167
1546.291	3676.29167
1549.354	3619.95833
1552.415	3525.29167
1555.473	3439.29167
1558.529	3397.95833
1561.583	3362.29167
1564.634	3306.29167
1567.684	3319.625
1570.731	3333.625
1573.776	3364.29167
1576.819	3404.95833
1579.859	3425.95833
1582.898	3500.95833
1585.934	3516.29167
1588.968	3537.29167
1591.999	3536.95833
1595.029	3518.95833
1598.056	3532.95833
1601.081	3576.95833
1604.104	3572.95833
1607.125	3525.625
1610.144	3449.95833
1613.16	3354.95833
1616.174	3285.29167
1619.186	3193.29167
1622.196	3105.29167
1625.203	2987.95833
1628.209	2930.625
1631.212	2909.625
1634.213	2872.95833
1637.212	2834.625
1640.209	2796.625
1643.203	2698.625
1646.196	2635.95833
1649.186	2553.95833
1652.174	2456.95833
1655.16	2375.29167
1658.144	2323.95833
1661.125	2219.625
1664.105	2134.29167
1667.082	2052.29167
1670.057	1951.95833
1673.03	1837.29167
1676.001	1710.95833
1678.97	1611.95833
1681.937	1505.625
1684.901	1429.625
1687.863	1385.625
1690.824	1315.29167
1693.782	1314.625
1696.738	1246.625
1699.692	1222.95833
1702.643	1186.95833
1705.593	1167.625
1708.54	1162.625
1711.486	1154.29167
1714.429	1120.29167
1717.37	1114.625
1720.309	1079.95833
1723.246	1100.95833
1726.181	1063.29167
1729.113	1066.29167
1732.044	1050.29167
1734.972	1042.95833
1737.899	1042.29167
1740.823	1039.625
1743.745	1013.625
1746.665	1000.625
1749.583	974.95833
1752.499	961.625
1755.413	955.95833
1758.325	942.95833
1761.235	936.29167
1764.142	916.95833
1767.048	899.95833
1769.951	898.625
1772.852	901.95833
1775.752	885.95833
1778.649	890.625
1781.544	894.29167
1784.437	862.625
1787.328	870.29167
1790.217	864.625
1793.104	841.625
1795.989	836.625
1798.872	841.29167
1801.753	848.625
1804.631	828.95833
1807.508	857.625
1810.383	844.29167
1813.255	842.95833
1816.126	834.29167
1818.994	827.95833
1821.861	831.29167
1824.725	806.625
1827.587	818.625
1830.448	807.29167
1833.306	789.29167
1836.162	806.95833
1839.017	794.625
1841.869	807.95833
1844.719	795.95833
1847.567	776.29167
1850.414	762.95833
1853.258	770.29167
1856.1	793.625
1858.94	786.625
1861.778	771.625
1864.614	771.95833
1867.448	767.95833
1870.28	755.95833
1873.111	779.29167
1875.939	778.29167
1878.765	793.625
1881.589	759.29167
1884.411	763.95833
1887.231	781.625
1890.049	764.625
1892.865	765.29167
1895.68	754.29167
1898.492	758.625
1901.302	737.95833
1904.11	737.95833
1906.916	729.625
1909.721	733.95833
1912.523	739.29167
1915.323	721.29167
1918.122	731.625
1920.918	737.29167
1923.712	726.29167
1926.505	711.29167
1929.295	710.95833
1932.084	730.29167
1934.87	730.625
1937.655	715.95833
1940.438	711.95833
1943.218	724.625
1945.997	731.95833
1948.774	722.29167
1951.549	722.29167
1954.322	713.625
1957.093	706.625
1959.862	704.95833
1962.629	700.29167
1965.394	694.625
1968.157	695.29167
1970.918	696.29167
1973.678	674.625
1976.435	699.29167
1979.19	680.625
1981.944	686.625
1984.696	687.95833
1987.445	671.29167
1990.193	670.95833
1992.939	693.29167
1995.683	691.625
1998.425	659.625
2001.165	690.95833
2003.903	675.625
2006.639	664.95833
2009.374	681.95833
2012.106	671.625
2014.837	661.95833
2017.566	679.625
2020.292	673.29167
2023.017	668.625
2025.74	661.625
2028.461	649.95833
2031.18	662.625
2033.898	653.29167
2036.613	661.625
2039.327	658.625
2042.038	640.625
2044.748	646.625
2047.456	655.95833
2050.162	642.625
2052.866	634.29167
2055.568	659.29167
2058.268	639.29167
2060.967	647.29167
2063.663	627.95833
2066.358	638.625
2069.051	637.95833
2071.742	639.29167
2074.431	634.29167
2077.118	632.95833
2079.804	627.625
2082.487	632.625
2085.169	628.625
2087.849	653.29167
2090.527	638.29167
2093.203	643.29167
2095.877	645.625
2098.55	655.625
2101.22	652.95833
2103.889	657.95833
2106.556	668.29167
2109.221	695.625
2111.884	698.625
2114.546	761.625
2117.205	810.625
2119.863	891.95833
2122.519	928.95833
2125.173	973.95833
2127.825	1038.625
2130.475	1045.95833
2133.124	991.95833
2135.771	948.625
2138.416	914.95833
2141.059	853.625
2143.7	814.95833
2146.339	766.95833
2148.977	714.625
2151.613	710.29167
2154.247	689.625
2156.879	669.95833
2159.51	661.29167
2162.138	640.29167
2164.765	646.95833
2167.39	621.625
2170.013	647.625
2172.634	634.625
2175.254	613.29167
2177.872	640.29167
2180.488	598.29167
2183.102	615.625
2185.714	589.95833
2188.325	579.29167
2190.934	589.95833
2193.541	597.95833
2196.146	580.95833
2198.75	569.95833
2201.351	577.29167
2203.951	560.625
2206.549	581.29167
2209.146	575.29167
2211.74	568.625
2214.333	566.95833
2216.924	551.29167
2219.514	568.95833
2222.101	554.625
2224.687	564.625
2227.271	556.95833
2229.853	539.625
2232.433	542.625
2235.012	555.625
2237.589	547.625
2240.164	552.29167
2242.738	551.95833
2245.309	526.95833
2247.879	546.29167
2250.448	550.625
2253.014	525.95833
2255.579	512.625
2258.142	536.29167
2260.703	529.29167
2263.262	521.29167
2265.82	514.95833
2268.376	526.29167
2270.93	504.95833
2273.483	505.95833
2276.033	517.29167
2278.583	510.29167
2281.13	509.29167
2283.675	497.625
2286.219	502.95833
2288.761	512.95833
2291.302	500.95833
2293.841	512.29167
2296.377	485.625
2298.913	493.625
2301.446	513.625
2303.978	502.29167
2306.508	485.625
2309.037	500.29167
2311.563	506.625
2314.088	501.95833
2316.612	484.95833
2319.133	499.95833
2321.653	496.95833
2324.171	488.95833
2326.688	505.29167
2329.202	488.29167
2331.715	480.95833
2334.227	488.625
2336.736	503.29167
2339.244	485.625
2341.751	476.29167
2344.255	480.95833
2346.758	492.625
2349.259	471.625
2351.759	480.625
2354.257	487.625
2356.753	466.625
2359.247	481.29167
2361.74	479.29167
2364.231	484.95833
2366.721	484.95833
2369.209	475.625
2371.695	476.29167
2374.179	471.95833
2376.662	459.95833
2379.143	486.29167
2381.622	469.625
2384.1	476.29167
2386.576	472.29167
2389.051	488.29167
2391.524	495.95833
2393.995	485.95833
2396.464	466.95833
2398.932	481.29167
2401.398	468.29167
2403.863	475.95833
2406.325	465.95833
2408.787	470.29167
2411.246	473.95833
2413.704	468.625
2416.16	473.95833
2418.615	462.625
2421.068	478.625
2423.519	479.29167
2425.969	468.29167
2428.417	468.625
2430.863	488.625
2433.308	483.625
2435.751	470.95833
2438.193	474.625
2440.633	472.95833
2443.071	472.29167
2445.508	467.95833
2447.943	458.29167
2450.376	465.95833
2452.808	464.95833
2455.238	458.625
2457.667	502.625
2460.093	463.29167
2462.519	461.625
2464.942	471.29167
2467.365	469.29167
2469.785	468.95833
2472.204	475.29167
2474.621	463.95833
2477.037	474.95833
2479.451	443.95833
2481.863	458.625
2484.274	461.29167
2486.683	462.29167
2489.091	478.95833
2491.497	470.625
2493.901	463.95833
2496.304	466.29167
2498.705	476.625
2501.105	459.29167
2503.503	494.95833
2505.899	453.29167
2508.294	476.625
2510.687	466.625
2513.079	473.625
2515.469	461.95833
2517.858	461.29167
2520.245	475.29167
2522.63	461.625
2525.014	456.29167
2527.396	450.95833
2529.776	454.29167
2532.156	471.95833
2534.533	460.29167
2536.909	466.95833
2539.283	442.95833
2541.656	448.29167
2544.027	469.95833
2546.397	462.29167
2548.765	464.625
2551.131	458.29167
2553.496	462.625
2555.86	468.625
2558.221	468.625
2560.582	465.95833
2562.94	449.29167
2565.298	464.29167
2567.653	469.95833
2570.007	458.29167
2572.36	480.95833
2574.711	452.625
2577.06	485.95833
2579.408	480.95833
2581.754	461.95833
2584.099	473.95833
2586.442	467.95833
2588.784	475.29167
2591.124	475.625
2593.463	472.625
2595.8	473.95833
2598.135	470.625
2600.469	463.95833
2602.802	478.29167
2605.133	481.95833
2607.462	463.29167
2609.79	463.625
2612.116	481.625
2614.441	486.29167
2616.764	478.95833
2619.086	473.625
2621.406	461.625
2623.725	489.625
2626.042	485.95833
2628.358	472.625
2630.672	465.625
2632.985	495.29167
2635.296	485.29167
2637.606	489.95833
2639.914	471.95833
2642.22	473.95833
2644.525	480.29167
2646.829	492.95833
2649.131	503.95833
2651.432	498.95833
2653.731	498.95833
2656.028	506.29167
2658.324	503.625
2660.619	497.625
2662.912	499.625
2665.204	494.29167
2667.494	505.29167
2669.782	496.625
2672.07	508.29167
2674.355	505.95833
2676.639	507.95833
2678.922	496.625
2681.203	501.95833
2683.483	490.95833
2685.761	486.29167
2688.038	501.95833
2690.313	520.95833
2692.587	512.625
2694.859	508.29167
2697.13	512.29167
2699.399	538.29167
2701.667	522.95833
2703.933	529.95833
2706.198	526.625
2708.461	535.29167
2710.723	538.95833
2712.984	534.625
2715.243	537.29167
2717.5	528.95833
2719.757	546.625
2722.011	544.95833
2724.264	543.95833
2726.516	566.625
2728.766	549.29167
2731.015	553.625
2733.262	551.29167
2735.508	553.625
2737.753	545.625
2739.996	542.625
2742.237	542.29167
2744.477	551.625
2746.716	554.29167
2748.953	535.29167
2751.189	542.29167
2753.423	537.625
2755.656	532.29167
2757.887	526.95833
2760.117	540.625
2762.346	519.95833
2764.573	528.95833
2766.798	540.29167
2769.022	535.29167
2771.245	539.29167
2773.467	553.95833
2775.686	546.29167
2777.905	544.95833
2780.122	546.29167
2782.337	559.625
2784.552	564.29167
2786.764	555.29167
2788.976	570.95833
2791.186	566.625
2793.394	576.29167
2795.601	575.29167
2797.807	593.625
2800.011	601.29167
2802.214	602.95833
2804.415	590.95833
2806.615	602.95833
2808.814	612.29167
2811.011	604.95833
2813.206	609.29167
2815.401	639.29167
2817.594	635.95833
2819.785	641.625
2821.975	637.95833
2824.164	644.625
2826.351	660.29167
2828.537	668.95833
2830.722	684.95833
2832.905	682.625
2835.086	730.625
2837.267	733.29167
2839.445	737.625
2841.623	755.95833
2843.799	786.29167
2845.974	804.29167
2848.147	842.95833
2850.319	852.95833
2852.489	887.29167
2854.659	895.625
2856.826	903.95833
2858.993	925.29167
2861.158	933.625
2863.321	915.29167
2865.483	922.625
2867.644	932.625
2869.804	920.625
2871.962	931.625
2874.118	928.625
2876.274	913.95833
2878.428	913.95833
2880.58	926.29167
2882.731	909.625
2884.881	908.29167
2887.03	934.95833
2889.177	926.29167
2891.322	935.29167
2893.467	930.95833
2895.61	920.29167
2897.751	945.29167
2899.892	931.29167
2902.03	945.29167
2904.168	948.95833
2906.304	951.625
2908.439	973.29167
2910.572	953.95833
2912.704	964.625
2914.835	972.95833
2916.965	970.95833
2919.093	974.29167
2921.219	956.625
2923.345	993.95833
2925.469	949.29167
2927.591	957.95833
2929.712	922.95833
2931.832	907.95833
2933.951	900.95833
2936.068	889.95833
2938.184	878.29167
2940.299	857.625
2942.412	837.95833
2944.524	804.95833
2946.634	805.625
2948.744	763.625
2950.851	781.625
2952.958	762.95833
2955.063	749.625
2957.167	740.29167
2959.269	710.95833
2961.371	746.29167
2963.471	701.625
2965.569	709.95833
2967.666	679.29167
2969.762	687.625
2971.857	669.29167
2973.95	661.625
2976.042	653.625
2978.133	639.625
2980.222	616.95833
2982.31	609.625
2984.396	602.95833
2986.482	595.95833
2988.566	588.29167
2990.648	588.625
2992.73	583.29167
2994.81	569.95833
2996.889	575.625
2998.966	573.625
3001.042	596.29167
3003.117	572.625
3005.191	579.625
3007.263	574.95833
3009.334	558.95833
3011.403	562.625
3013.472	546.625
3015.539	554.29167
3017.604	557.29167
3019.669	521.625
3021.732	524.95833
3023.794	533.625
3025.854	513.625
3027.914	522.95833
3029.971	520.625
3032.028	521.95833
3034.083	518.95833
3036.137	512.625
3038.19	500.29167
3040.242	485.625
3042.292	477.29167
3044.341	479.29167
3046.388	477.95833
3048.435	462.625
3050.48	479.625
3052.524	468.625
3054.566	452.95833
3056.607	462.95833
3058.647	452.95833
3060.686	433.625
3062.723	413.625
3064.759	394.95833
3066.794	0.95833
3068.828	3.95833
3070.86	4.625
