-0.839	506.45833
3.438	605.45833
7.711	179.79167
11.981	62.45833
16.247	42.79167
20.509	48.45833
24.768	44.45833
29.024	55.79167
33.276	42.45833
37.524	48.45833
41.769	42.79167
46.01	33.125
50.247	43.125
54.481	55.45833
58.712	56.125
62.939	45.45833
67.162	57.79167
71.382	54.79167
75.599	41.79167
79.812	58.125
84.021	74.79167
88.227	59.125
92.429	54.45833
96.628	48.125
100.823	66.125
105.015	72.45833
109.204	60.45833
113.388	66.79167
117.57	69.45833
121.748	75.45833
125.922	71.79167
130.093	82.125
134.261	84.125
138.425	83.79167
142.585	118.79167
146.742	106.125
150.896	134.45833
155.046	165.125
159.193	257.125
163.336	422.125
167.476	767.125
171.613	1413.45833
175.746	2349.79167
179.875	3488.45833
184.002	4474.79167
188.124	5160.125
192.244	5378.45833
196.36	5265.125
200.472	5040.125
204.581	4861.125
208.687	4651.79167
212.79	4523.45833
216.889	4464.45833
220.984	4397.45833
225.077	4335.79167
229.165	4275.125
233.251	4218.79167
237.333	4151.45833
241.412	4046.79167
245.487	3980.45833
249.559	3933.79167
253.628	3898.125
257.694	3834.45833
261.756	3798.79167
265.814	3720.79167
269.87	3618.45833
273.922	3519.125
277.97	3463.79167
282.016	3446.125
286.058	3507.45833
290.097	3563.79167
294.132	3647.79167
298.164	3609.125
302.193	3440.125
306.219	3169.125
310.241	2929.79167
314.26	2710.45833
318.276	2508.125
322.288	2366.125
326.297	2255.125
330.303	2180.79167
334.305	2120.45833
338.305	2104.45833
342.301	2044.45833
346.294	2037.45833
350.283	2010.79167
354.269	1992.79167
358.252	1961.125
362.232	1949.125
366.209	1971.79167
370.182	1910.125
374.152	1906.45833
378.119	1916.125
382.083	1899.45833
386.043	1928.125
390	1877.79167
393.954	1898.45833
397.905	1877.45833
401.852	1884.45833
405.797	1840.79167
409.738	1828.125
413.676	1836.79167
417.61	1811.125
421.542	1804.125
425.47	1806.125
429.396	1777.125
433.318	1758.125
437.236	1769.79167
441.152	1796.79167
445.065	1740.125
448.974	1734.45833
452.88	1713.45833
456.783	1698.125
460.683	1683.125
464.58	1706.125
468.473	1694.125
472.364	1696.79167
476.251	1699.79167
480.135	1709.79167
484.016	1747.45833
487.894	1738.125
491.769	1746.79167
495.641	1744.79167
499.509	1754.45833
503.375	1759.45833
507.237	1762.45833
511.096	1786.125
514.952	1900.125
518.805	2040.45833
522.655	2087.45833
526.502	1921.125
530.346	1783.125
534.187	1782.45833
538.024	1763.45833
541.859	1784.79167
545.69	1800.79167
549.519	1790.79167
553.344	1750.125
557.166	1731.125
560.985	1701.125
564.802	1688.79167
568.615	1655.45833
572.425	1622.45833
576.232	1614.45833
580.036	1609.125
583.836	1622.125
587.634	1631.79167
591.429	1633.125
595.221	1689.45833
599.01	1673.79167
602.796	1695.45833
606.578	1713.79167
610.358	1712.125
614.135	1692.79167
617.909	1686.79167
621.679	1668.125
625.447	1644.79167
629.212	1651.125
632.973	1660.45833
636.732	1648.45833
640.488	1654.45833
644.241	1637.125
647.991	1623.79167
651.737	1657.45833
655.481	1611.79167
659.222	1627.45833
662.96	1604.125
666.695	1642.79167
670.427	1656.125
674.156	1668.45833
677.882	1654.125
681.605	1645.125
685.325	1615.45833
689.043	1633.125
692.757	1600.125
696.468	1606.45833
700.177	1602.45833
703.882	1597.125
707.585	1602.125
711.284	1586.79167
714.981	1591.79167
718.675	1602.125
722.366	1620.79167
726.054	1584.45833
729.739	1608.45833
733.421	1619.79167
737.1	1590.45833
740.777	1612.125
744.45	1620.79167
748.121	1626.45833
751.789	1658.45833
755.453	1651.79167
759.115	1649.125
762.774	1679.79167
766.431	1690.125
770.084	1700.79167
773.734	1729.79167
777.382	1738.125
781.027	1753.125
784.669	1768.125
788.308	1765.125
791.944	1785.79167
795.577	1822.79167
799.208	1814.45833
802.835	1835.45833
806.46	1832.125
810.082	1830.45833
813.701	1821.125
817.317	1857.79167
820.931	1847.79167
824.542	1842.79167
828.149	1815.45833
831.754	1818.45833
835.357	1829.45833
838.956	1827.45833
842.553	1822.45833
846.146	1801.45833
849.737	1802.45833
853.326	1818.125
856.911	1796.79167
860.493	1833.125
864.073	1848.125
867.65	1853.79167
871.225	1877.125
874.796	1903.79167
878.365	1884.125
881.931	1907.45833
885.494	1916.45833
889.054	1937.125
892.612	1950.125
896.166	1929.125
899.719	1922.45833
903.268	1895.79167
906.814	1878.45833
910.358	1837.125
913.899	1806.45833
917.438	1817.79167
920.973	1802.125
924.506	1841.45833
928.036	1853.79167
931.564	1892.45833
935.088	1931.125
938.61	1923.125
942.129	1958.45833
945.646	1994.125
949.16	2041.125
952.671	2055.45833
956.179	2061.79167
959.685	2025.79167
963.188	2015.125
966.688	1987.125
970.185	1923.45833
973.68	1907.125
977.173	1865.79167
980.662	1837.79167
984.149	1827.125
987.633	1809.45833
991.114	1849.125
994.593	1892.125
998.069	1929.79167
1001.542	1997.45833
1005.013	1952.79167
1008.481	1841.45833
1011.947	1804.45833
1015.409	1797.45833
1018.869	1823.45833
1022.327	1801.45833
1025.782	1783.79167
1029.234	1800.125
1032.683	1764.45833
1036.13	1723.125
1039.574	1652.79167
1043.016	1607.45833
1046.455	1575.45833
1049.891	1573.45833
1053.325	1606.79167
1056.756	1588.125
1060.184	1591.79167
1063.61	1600.79167
1067.033	1608.45833
1070.454	1620.45833
1073.872	1629.45833
1077.287	1626.45833
1080.7	1615.79167
1084.11	1631.45833
1087.517	1624.45833
1090.922	1574.79167
1094.325	1576.125
1097.724	1553.125
1101.122	1566.45833
1104.516	1559.79167
1107.908	1537.125
1111.298	1591.125
1114.684	1606.45833
1118.069	1625.45833
1121.45	1655.125
1124.83	1643.45833
1128.206	1657.45833
1131.58	1681.79167
1134.951	1737.45833
1138.32	1774.125
1141.687	1836.79167
1145.05	1888.125
1148.412	1880.79167
1151.77	1862.125
1155.126	1866.45833
1158.48	1843.45833
1161.831	1864.45833
1165.18	1869.45833
1168.525	1897.79167
1171.869	1917.79167
1175.21	1931.125
1178.548	1951.45833
1181.884	1989.45833
1185.217	1998.45833
1188.548	2036.45833
1191.877	2086.79167
1195.202	2161.79167
1198.526	2216.45833
1201.846	2210.45833
1205.165	2217.79167
1208.48	2215.125
1211.794	2205.79167
1215.104	2211.79167
1218.413	2210.45833
1221.719	2218.45833
1225.022	2204.125
1228.323	2149.125
1231.621	2133.79167
1234.917	2092.125
1238.21	2123.125
1241.501	2097.45833
1244.79	2091.79167
1248.076	2081.79167
1251.359	2091.45833
1254.64	2151.45833
1257.919	2175.45833
1261.195	2205.45833
1264.468	2216.79167
1267.74	2244.45833
1271.008	2267.45833
1274.275	2249.45833
1277.538	2234.79167
1280.8	2255.125
1284.059	2234.125
1287.315	2277.45833
1290.569	2294.125
1293.821	2315.45833
1297.07	2335.125
1300.317	2336.45833
1303.562	2345.45833
1306.803	2321.125
1310.043	2326.125
1313.28	2268.79167
1316.515	2270.45833
1319.747	2268.125
1322.977	2229.125
1326.204	2205.79167
1329.429	2157.45833
1332.652	2162.79167
1335.872	2147.79167
1339.09	2101.125
1342.306	2101.79167
1345.519	2058.125
1348.729	2034.125
1351.938	2039.45833
1355.144	2010.79167
1358.347	1992.79167
1361.548	1989.79167
1364.747	1974.79167
1367.944	1947.125
1371.138	1979.125
1374.329	1981.125
1377.518	1995.45833
1380.705	2021.45833
1383.89	1990.125
1387.072	1928.45833
1390.252	1852.125
1393.429	1778.79167
1396.605	1752.125
1399.777	1693.125
1402.948	1685.45833
1406.116	1676.125
1409.282	1685.79167
1412.445	1681.125
1415.606	1720.125
1418.765	1735.45833
1421.921	1781.45833
1425.075	1803.45833
1428.227	1842.125
1431.376	1902.79167
1434.524	2001.45833
1437.668	2046.79167
1440.811	2083.79167
1443.951	2100.125
1447.089	2106.125
1450.224	2072.79167
1453.357	2071.79167
1456.488	2046.125
1459.617	2014.45833
1462.743	1989.79167
1465.867	1907.79167
1468.989	1885.79167
1472.108	1831.125
1475.225	1820.45833
1478.34	1785.125
1481.453	1789.79167
1484.563	1783.125
1487.671	1828.125
1490.776	1829.45833
1493.88	1872.125
1496.981	1907.125
1500.08	1918.45833
1503.176	1969.125
1506.271	1972.79167
1509.363	1993.125
1512.452	2009.45833
1515.54	2048.125
1518.625	2046.79167
1521.708	2115.125
1524.789	2171.125
1527.867	2218.45833
1530.944	2316.45833
1534.018	2407.45833
1537.089	2541.125
1540.159	2568.45833
1543.226	2547.45833
1546.291	2523.45833
1549.354	2491.79167
1552.415	2446.79167
1555.473	2504.125
1558.529	2336.125
1561.583	2309.45833
1564.634	2314.45833
1567.684	2329.125
1570.731	2334.79167
1573.776	2348.79167
1576.819	2379.79167
1579.859	2393.125
1582.898	2421.125
1585.934	2465.45833
1588.968	2463.125
1591.999	2464.125
1595.029	2483.125
1598.056	2493.45833
1601.081	2533.79167
1604.104	2519.79167
1607.125	2494.125
1610.144	2426.79167
1613.16	2377.125
1616.174	2329.125
1619.186	2259.79167
1622.196	2174.45833
1625.203	2105.79167
1628.209	2068.79167
1631.212	2039.45833
1634.213	2022.125
1637.212	2016.125
1640.209	1989.125
1643.203	1926.79167
1646.196	1898.79167
1649.186	1839.125
1652.174	1787.79167
1655.16	1719.79167
1658.144	1698.125
1661.125	1622.45833
1664.105	1556.45833
1667.082	1488.45833
1670.057	1398.45833
1673.03	1321.45833
1676.001	1234.79167
1678.97	1162.45833
1681.937	1106.125
1684.901	1038.125
1687.863	1009.125
1690.824	956.45833
1693.782	949.125
1696.738	902.125
1699.692	884.45833
1702.643	855.125
1705.593	860.125
1708.54	841.79167
1711.486	842.125
1714.429	820.45833
1717.37	821.45833
1720.309	789.79167
1723.246	804.45833
1726.181	775.79167
1729.113	793.45833
1732.044	771.79167
1734.972	767.79167
1737.899	771.125
1740.823	770.45833
1743.745	745.125
1746.665	744.125
1749.583	727.79167
1752.499	715.45833
1755.413	712.45833
1758.325	689.45833
1761.235	689.79167
1764.142	681.125
1767.048	659.45833
1769.951	660.79167
1772.852	672.79167
1775.752	657.125
1778.649	664.125
1781.544	678.45833
1784.437	644.79167
1787.328	660.125
1790.217	649.125
1793.104	624.125
1795.989	632.79167
1798.872	626.79167
1801.753	639.79167
1804.631	634.79167
1807.508	653.79167
1810.383	627.125
1813.255	625.125
1816.126	620.79167
1818.994	628.125
1821.861	617.45833
1824.725	621.125
1827.587	617.45833
1830.448	614.45833
1833.306	605.45833
1836.162	610.45833
1839.017	614.125
1841.869	602.125
1844.719	600.45833
1847.567	581.79167
1850.414	591.125
1853.258	594.79167
1856.1	612.45833
1858.94	590.125
1861.778	594.45833
1864.614	581.125
1867.448	586.45833
1870.28	586.45833
1873.111	609.79167
1875.939	599.125
1878.765	606.125
1881.589	581.79167
1884.411	588.45833
1887.231	596.45833
1890.049	590.79167
1892.865	596.79167
1895.68	586.45833
1898.492	589.79167
1901.302	583.79167
1904.11	581.125
1906.916	578.45833
1909.721	565.125
1912.523	572.79167
1915.323	559.125
1918.122	575.79167
1920.918	583.125
1923.712	572.125
1926.505	564.125
1929.295	554.45833
1932.084	580.125
1934.87	568.125
1937.655	571.125
1940.438	564.45833
1943.218	561.79167
1945.997	576.45833
1948.774	576.45833
1951.549	576.125
1954.322	566.125
1957.093	561.125
1959.862	554.45833
1962.629	557.45833
1965.394	553.79167
1968.157	540.45833
1970.918	548.45833
1973.678	537.45833
1976.435	557.79167
1979.19	549.125
1981.944	545.79167
1984.696	551.125
1987.445	540.45833
1990.193	550.45833
1992.939	568.125
1995.683	553.79167
1998.425	535.125
2001.165	562.45833
2003.903	542.79167
2006.639	542.79167
2009.374	547.125
2012.106	543.125
2014.837	538.125
2017.566	548.45833
2020.292	542.125
2023.017	543.45833
2025.74	539.79167
2028.461	535.45833
2031.18	540.79167
2033.898	530.125
2036.613	544.45833
2039.327	543.79167
2042.038	530.79167
2044.748	529.45833
2047.456	537.79167
2050.162	526.45833
2052.866	539.79167
2055.568	546.125
2058.268	533.125
2060.967	536.45833
2063.663	534.45833
2066.358	534.79167
2069.051	526.45833
2071.742	538.125
2074.431	541.125
2077.118	540.45833
2079.804	533.125
2082.487	532.79167
2085.169	541.79167
2087.849	554.45833
2090.527	526.125
2093.203	537.79167
2095.877	547.79167
2098.55	544.125
2101.22	562.125
2103.889	569.45833
2106.556	559.125
2109.221	587.45833
2111.884	591.79167
2114.546	626.79167
2117.205	657.125
2119.863	697.45833
2122.519	732.79167
2125.173	752.125
2127.825	784.79167
2130.475	793.79167
2133.124	751.125
2135.771	722.79167
2138.416	706.45833
2141.059	656.79167
2143.7	644.79167
2146.339	616.125
2148.977	581.45833
2151.613	590.79167
2154.247	574.45833
2156.879	563.125
2159.51	542.125
2162.138	548.125
2164.765	553.79167
2167.39	540.125
2170.013	568.125
2172.634	551.45833
2175.254	546.125
2177.872	582.45833
2180.488	531.125
2183.102	542.45833
2185.714	542.45833
2188.325	522.125
2190.934	549.125
2193.541	540.79167
2196.146	533.79167
2198.75	518.45833
2201.351	529.79167
2203.951	520.45833
2206.549	532.79167
2209.146	522.45833
2211.74	522.125
2214.333	535.125
2216.924	515.45833
2219.514	532.125
2222.101	510.125
2224.687	541.125
2227.271	528.45833
2229.853	522.45833
2232.433	514.79167
2235.012	529.79167
2237.589	529.79167
2240.164	536.45833
2242.738	515.125
2245.309	523.125
2247.879	535.79167
2250.448	538.79167
2253.014	512.45833
2255.579	499.45833
2258.142	518.125
2260.703	506.125
2263.262	521.45833
2265.82	517.45833
2268.376	516.79167
2270.93	503.79167
2273.483	507.79167
2276.033	517.45833
2278.583	516.125
2281.13	518.79167
2283.675	504.125
2286.219	517.45833
2288.761	520.125
2291.302	508.125
2293.841	528.79167
2296.377	501.45833
2298.913	505.125
2301.446	536.125
2303.978	529.125
2306.508	514.79167
2309.037	518.79167
2311.563	524.45833
2314.088	519.45833
2316.612	507.79167
2319.133	529.125
2321.653	533.125
2324.171	505.79167
2326.688	524.45833
2329.202	519.45833
2331.715	518.125
2334.227	518.79167
2336.736	525.45833
2339.244	524.45833
2341.751	527.125
2344.255	532.125
2346.758	516.125
2349.259	493.125
2351.759	523.45833
2354.257	530.45833
2356.753	514.45833
2359.247	518.45833
2361.74	533.125
2364.231	541.125
2366.721	538.45833
2369.209	523.125
2371.695	543.45833
2374.179	527.79167
2376.662	529.125
2379.143	546.79167
2381.622	523.125
2384.1	541.79167
2386.576	540.45833
2389.051	551.125
2391.524	563.79167
2393.995	546.79167
2396.464	537.125
2398.932	544.125
2401.398	541.125
2403.863	548.79167
2406.325	545.79167
2408.787	540.79167
2411.246	548.125
2413.704	552.45833
2416.16	545.79167
2418.615	548.45833
2421.068	567.79167
2423.519	570.79167
2425.969	566.79167
2428.417	561.45833
2430.863	592.79167
2433.308	565.45833
2435.751	574.125
2438.193	563.125
2440.633	568.79167
2443.071	577.125
2445.508	571.45833
2447.943	564.79167
2450.376	566.125
2452.808	573.125
2455.238	558.125
2457.667	603.125
2460.093	563.45833
2462.519	571.125
2464.942	574.45833
2467.365	588.125
2469.785	593.79167
2472.204	590.79167
2474.621	583.45833
2477.037	604.79167
2479.451	564.45833
2481.863	579.45833
2484.274	579.79167
2486.683	594.79167
2489.091	603.79167
2491.497	591.79167
2493.901	597.125
2496.304	592.45833
2498.705	609.125
2501.105	595.45833
2503.503	624.125
2505.899	588.45833
2508.294	617.125
2510.687	612.45833
2513.079	622.45833
2515.469	588.125
2517.858	611.125
2520.245	612.45833
2522.63	609.79167
2525.014	607.45833
2527.396	614.79167
2529.776	608.125
2532.156	635.79167
2534.533	622.125
2536.909	615.45833
2539.283	609.45833
2541.656	612.45833
2544.027	637.45833
2546.397	622.45833
2548.765	618.125
2551.131	631.45833
2553.496	624.125
2555.86	636.45833
2558.221	643.125
2560.582	630.125
2562.94	625.79167
2565.298	625.45833
2567.653	661.125
2570.007	632.79167
2572.36	659.125
2574.711	640.125
2577.06	667.45833
2579.408	658.125
2581.754	664.125
2584.099	667.79167
2586.442	667.79167
2588.784	660.79167
2591.124	663.125
2593.463	670.45833
2595.8	673.125
2598.135	662.45833
2600.469	668.125
2602.802	679.45833
2605.133	692.79167
2607.462	672.79167
2609.79	677.45833
2612.116	688.125
2614.441	679.79167
2616.764	689.45833
2619.086	687.79167
2621.406	688.45833
2623.725	707.125
2626.042	702.79167
2628.358	699.79167
2630.672	689.125
2632.985	713.79167
2635.296	708.79167
2637.606	711.79167
2639.914	702.79167
2642.22	705.79167
2644.525	709.79167
2646.829	717.79167
2649.131	737.79167
2651.432	747.125
2653.731	720.45833
2656.028	742.45833
2658.324	761.125
2660.619	727.79167
2662.912	763.125
2665.204	735.45833
2667.494	763.125
2669.782	752.45833
2672.07	753.125
2674.355	764.45833
2676.639	752.45833
2678.922	752.125
2681.203	756.79167
2683.483	761.125
2685.761	752.45833
2688.038	763.79167
2690.313	786.125
2692.587	772.79167
2694.859	762.45833
2697.13	786.79167
2699.399	786.79167
2701.667	790.125
2703.933	797.79167
2706.198	788.45833
2708.461	805.125
2710.723	802.125
2712.984	796.79167
2715.243	807.125
2717.5	796.45833
2719.757	817.125
2722.011	822.45833
2724.264	837.45833
2726.516	842.45833
2728.766	823.45833
2731.015	837.125
2733.262	850.45833
2735.508	848.79167
2737.753	846.45833
2739.996	829.79167
2742.237	829.79167
2744.477	846.45833
2746.716	857.125
2748.953	828.79167
2751.189	850.45833
2753.423	825.125
2755.656	833.125
2757.887	825.79167
2760.117	828.125
2762.346	829.79167
2764.573	822.125
2766.798	840.125
2769.022	846.79167
2771.245	836.125
2773.467	851.45833
2775.686	859.125
2777.905	859.45833
2780.122	863.125
2782.337	858.79167
2784.552	878.79167
2786.764	867.79167
2788.976	877.125
2791.186	883.45833
2793.394	896.45833
2795.601	907.45833
2797.807	915.79167
2800.011	912.79167
2802.214	918.79167
2804.415	928.125
2806.615	920.125
2808.814	929.45833
2811.011	920.125
2813.206	923.45833
2815.401	945.125
2817.594	934.125
2819.785	951.125
2821.975	948.79167
2824.164	950.45833
2826.351	974.45833
2828.537	970.79167
2830.722	979.45833
2832.905	984.79167
2835.086	1005.79167
2837.267	1037.45833
2839.445	1043.45833
2841.623	1063.125
2843.799	1062.45833
2845.974	1086.79167
2848.147	1108.79167
2850.319	1125.45833
2852.489	1160.79167
2854.659	1155.45833
2856.826	1159.79167
2858.993	1205.125
2861.158	1159.45833
2863.321	1177.45833
2865.483	1186.79167
2867.644	1194.45833
2869.804	1190.79167
2871.962	1179.45833
2874.118	1181.45833
2876.274	1183.79167
2878.428	1182.45833
2880.58	1180.45833
2882.731	1164.79167
2884.881	1169.45833
2887.03	1189.45833
2889.177	1177.79167
2891.322	1182.79167
2893.467	1176.45833
2895.61	1197.45833
2897.751	1210.79167
2899.892	1191.125
2902.03	1213.45833
2904.168	1219.79167
2906.304	1218.79167
2908.439	1253.79167
2910.572	1233.45833
2912.704	1247.45833
2914.835	1218.79167
2916.965	1236.45833
2919.093	1258.45833
2921.219	1238.125
2923.345	1256.45833
2925.469	1218.79167
2927.591	1226.79167
2929.712	1197.79167
2931.832	1214.79167
2933.951	1200.125
2936.068	1178.45833
2938.184	1170.125
2940.299	1155.45833
2942.412	1137.45833
2944.524	1119.125
2946.634	1143.79167
2948.744	1082.125
2950.851	1119.45833
2952.958	1087.125
2955.063	1110.125
2957.167	1096.125
2959.269	1061.79167
2961.371	1105.79167
2963.471	1068.125
2965.569	1071.45833
2967.666	1067.79167
2969.762	1043.45833
2971.857	1053.79167
2973.95	1028.79167
2976.042	1051.125
2978.133	1026.79167
2980.222	1022.79167
2982.31	976.45833
2984.396	965.79167
2986.482	982.125
2988.566	978.45833
2990.648	977.125
2992.73	968.45833
2994.81	961.45833
2996.889	970.125
2998.966	970.79167
3001.042	978.125
3003.117	976.45833
3005.191	980.125
3007.263	966.79167
3009.334	958.45833
3011.403	963.125
3013.472	949.79167
3015.539	940.125
3017.604	939.125
3019.669	909.125
3021.732	900.45833
3023.794	911.45833
3025.854	920.79167
3027.914	908.79167
3029.971	918.45833
3032.028	907.79167
3034.083	907.125
3036.137	892.45833
3038.19	873.79167
3040.242	848.79167
3042.292	848.125
3044.341	826.125
3046.388	833.125
3048.435	815.79167
3050.48	826.45833
3052.524	825.125
3054.566	805.79167
3056.607	813.125
3058.647	797.125
3060.686	776.79167
3062.723	753.79167
3064.759	722.45833
3066.794	-0.875
3068.828	6.125
3070.86	1.45833
