-0.839	531.33333
3.438	644.66667
7.711	189.33333
11.981	59
16.247	45
20.509	50.33333
24.768	47.66667
29.024	56
33.276	44.33333
37.524	47
41.769	45
46.01	28.33333
50.247	45.66667
54.481	57
58.712	61.33333
62.939	47
67.162	65.33333
71.382	57
75.599	44.33333
79.812	56.66667
84.021	82.33333
88.227	58.33333
92.429	56
96.628	50.66667
100.823	67.33333
105.015	74.33333
109.204	64
113.388	71
117.57	73
121.748	81.33333
125.922	74.33333
130.093	94.66667
134.261	93
138.425	95
142.585	132.66667
146.742	115
150.896	142.66667
155.046	178.33333
159.193	288.66667
163.336	474.66667
167.476	863.33333
171.613	1599.66667
175.746	2678.33333
179.875	3979.33333
184.002	5183
188.124	6028.66667
192.244	6330.33333
196.36	6199
200.472	5965.33333
204.581	5751
208.687	5544.66667
212.79	5435
216.889	5407.33333
220.984	5361.33333
225.077	5324
229.165	5317.33333
233.251	5243.66667
237.333	5197
241.412	5123.33333
245.487	5044.66667
249.559	4946.66667
253.628	4940.66667
257.694	4884.66667
261.756	4784.33333
265.814	4722.33333
269.87	4554.66667
273.922	4439.66667
277.97	4340
282.016	4305.33333
286.058	4339
290.097	4412.66667
294.132	4444.33333
298.164	4394
302.193	4182.66667
306.219	3909.66667
310.241	3632
314.26	3361
318.276	3158.33333
322.288	3006.66667
326.297	2884.66667
330.303	2796
334.305	2763.66667
338.305	2716
342.301	2659.66667
346.294	2664
350.283	2624.66667
354.269	2608.33333
358.252	2579
362.232	2569.66667
366.209	2531.66667
370.182	2520.66667
374.152	2525
378.119	2530.66667
382.083	2525.66667
386.043	2527
390	2515
393.954	2487.66667
397.905	2498
401.852	2494.66667
405.797	2459.66667
409.738	2448.66667
413.676	2458.33333
417.61	2471
421.542	2425.33333
425.47	2394
429.396	2382
433.318	2374.33333
437.236	2362.66667
441.152	2394.33333
445.065	2319.33333
448.974	2349
452.88	2302.66667
456.783	2308
460.683	2295.66667
464.58	2297
468.473	2299.33333
472.364	2305
476.251	2323.66667
480.135	2321
484.016	2367.33333
487.894	2375
491.769	2403.33333
495.641	2396.33333
499.509	2386.66667
503.375	2413.66667
507.237	2408.66667
511.096	2442.66667
514.952	2554.33333
518.805	2709.33333
522.655	2795.66667
526.502	2597.66667
530.346	2413.66667
534.187	2393.66667
538.024	2407.66667
541.859	2385.33333
545.69	2434.33333
549.519	2396.66667
553.344	2359.66667
557.166	2334.66667
560.985	2318.33333
564.802	2290.33333
568.615	2239
572.425	2219
576.232	2224.66667
580.036	2206.66667
583.836	2214.33333
587.634	2227.66667
591.429	2222
595.221	2252.66667
599.01	2287.33333
602.796	2308.66667
606.578	2330.33333
610.358	2327.66667
614.135	2291.33333
617.909	2286
621.679	2260
625.447	2249.66667
629.212	2240
632.973	2252
636.732	2257.66667
640.488	2250
644.241	2233.33333
647.991	2231
651.737	2246.33333
655.481	2209
659.222	2221.33333
662.96	2207.33333
666.695	2238.33333
670.427	2227
674.156	2248.33333
677.882	2224
681.605	2219.66667
685.325	2197
689.043	2209
692.757	2208.66667
696.468	2184
700.177	2188.33333
703.882	2171
707.585	2152.66667
711.284	2171.66667
714.981	2163.66667
718.675	2151
722.366	2178
726.054	2150.66667
729.739	2148.66667
733.421	2167
737.1	2156.33333
740.777	2188.66667
744.45	2158.66667
748.121	2200.66667
751.789	2234.66667
755.453	2243.66667
759.115	2239.33333
762.774	2246.33333
766.431	2272.33333
770.084	2281.66667
773.734	2293.33333
777.382	2318.66667
781.027	2360.66667
784.669	2358
788.308	2358
791.944	2377.66667
795.577	2407.33333
799.208	2421.66667
802.835	2421.33333
806.46	2421.66667
810.082	2440
813.701	2450
817.317	2460.66667
820.931	2447.66667
824.542	2447
828.149	2427.33333
831.754	2393.66667
835.357	2399.33333
838.956	2408.66667
842.553	2392.66667
846.146	2377.66667
849.737	2353.66667
853.326	2373
856.911	2363.33333
860.493	2400.66667
864.073	2409
867.65	2445.33333
871.225	2452.66667
874.796	2472.66667
878.365	2487.66667
881.931	2501.66667
885.494	2522
889.054	2531.66667
892.612	2536.66667
896.166	2527
899.719	2512
903.268	2471.33333
906.814	2444
910.358	2416.66667
913.899	2394.66667
917.438	2387.66667
920.973	2353
924.506	2417
928.036	2439.33333
931.564	2464.33333
935.088	2506
938.61	2520.33333
942.129	2550
945.646	2586
949.16	2640
952.671	2664.33333
956.179	2661
959.685	2628.33333
963.188	2624
966.688	2603
970.185	2542.33333
973.68	2474.66667
977.173	2452.66667
980.662	2389.66667
984.149	2404.33333
987.633	2397
991.114	2427.33333
994.593	2481.33333
998.069	2527.66667
1001.542	2585.66667
1005.013	2545.66667
1008.481	2423
1011.947	2370.66667
1015.409	2361
1018.869	2344.33333
1022.327	2368.66667
1025.782	2337.33333
1029.234	2346
1032.683	2299.33333
1036.13	2223
1039.574	2153
1043.016	2106
1046.455	2080.66667
1049.891	2047.66667
1053.325	2057.66667
1056.756	2075.33333
1060.184	2094.66667
1063.61	2081.33333
1067.033	2100
1070.454	2105.66667
1073.872	2109.33333
1077.287	2115.66667
1080.7	2127
1084.11	2117.33333
1087.517	2093
1090.922	2065
1094.325	2035.66667
1097.724	2031
1101.122	2033
1104.516	2019.66667
1107.908	2030.33333
1111.298	2078.33333
1114.684	2075
1118.069	2101.66667
1121.45	2125.33333
1124.83	2125.33333
1128.206	2140.33333
1131.58	2181.66667
1134.951	2229
1138.32	2282.33333
1141.687	2359.33333
1145.05	2428.33333
1148.412	2409.33333
1151.77	2381
1155.126	2390
1158.48	2368.66667
1161.831	2409.66667
1165.18	2408.66667
1168.525	2429.66667
1171.869	2471
1175.21	2482
1178.548	2497.66667
1181.884	2545.33333
1185.217	2548.33333
1188.548	2624
1191.877	2653.33333
1195.202	2744.33333
1198.526	2772.66667
1201.846	2809.66667
1205.165	2827
1208.48	2817
1211.794	2797.66667
1215.104	2800.66667
1218.413	2792.33333
1221.719	2800.33333
1225.022	2769.66667
1228.323	2715.66667
1231.621	2692.66667
1234.917	2701
1238.21	2696
1241.501	2689
1244.79	2656
1248.076	2652
1251.359	2683
1254.64	2738
1257.919	2748.33333
1261.195	2786
1264.468	2825.33333
1267.74	2857.66667
1271.008	2887
1274.275	2835.66667
1277.538	2855
1280.8	2869
1284.059	2834.33333
1287.315	2878.66667
1290.569	2877.66667
1293.821	2889
1297.07	2939.66667
1300.317	2946.66667
1303.562	2929
1306.803	2910.66667
1310.043	2880.66667
1313.28	2877
1316.515	2866.66667
1319.747	2843.66667
1322.977	2814
1326.204	2784.66667
1329.429	2764
1332.652	2758
1335.872	2708
1339.09	2687.66667
1342.306	2664.66667
1345.519	2627
1348.729	2577.66667
1351.938	2587.33333
1355.144	2527.66667
1358.347	2518
1361.548	2519
1364.747	2508
1367.944	2458.33333
1371.138	2478.66667
1374.329	2482
1377.518	2503
1380.705	2528.66667
1383.89	2494.33333
1387.072	2415.33333
1390.252	2331
1393.429	2268.33333
1396.605	2223.66667
1399.777	2162.66667
1402.948	2135.33333
1406.116	2143
1409.282	2129.66667
1412.445	2122
1415.606	2162.66667
1418.765	2197.66667
1421.921	2217.66667
1425.075	2252.66667
1428.227	2342.66667
1431.376	2413
1434.524	2479.33333
1437.668	2549.33333
1440.811	2577
1443.951	2618.66667
1447.089	2636.33333
1450.224	2609.66667
1453.357	2605
1456.488	2562.66667
1459.617	2505.33333
1462.743	2499.66667
1465.867	2428
1468.989	2390.33333
1472.108	2367.66667
1475.225	2293.33333
1478.34	2277
1481.453	2300.66667
1484.563	2282.66667
1487.671	2319
1490.776	2338.33333
1493.88	2374.66667
1496.981	2399
1500.08	2452
1503.176	2454
1506.271	2495.66667
1509.363	2527.66667
1512.452	2544
1515.54	2581
1518.625	2603.66667
1521.708	2690
1524.789	2753
1527.867	2847.33333
1530.944	2988.66667
1534.018	3119.33333
1537.089	3262
1540.159	3296.66667
1543.226	3295
1546.291	3236.33333
1549.354	3165.66667
1552.415	3076.66667
1555.473	3015
1558.529	2975.66667
1561.583	2952
1564.634	2895
1567.684	2896.66667
1570.731	2930
1573.776	2947.33333
1576.819	2995.66667
1579.859	3019
1582.898	3060.33333
1585.934	3098.33333
1588.968	3096.66667
1591.999	3070
1595.029	3117.66667
1598.056	3137.33333
1601.081	3137.66667
1604.104	3150.33333
1607.125	3102
1610.144	3061.33333
1613.16	2983
1616.174	2931.33333
1619.186	2852.33333
1622.196	2809
1625.203	2701
1628.209	2677
1631.212	2640.66667
1634.213	2622.33333
1637.212	2611.66667
1640.209	2571.33333
1643.203	2509.66667
1646.196	2458.66667
1649.186	2356
1652.174	2293.66667
1655.16	2194.66667
1658.144	2136.33333
1661.125	2032
1664.105	1941
1667.082	1880
1670.057	1791.33333
1673.03	1678.33333
1676.001	1593.33333
1678.97	1498.66667
1681.937	1411.66667
1684.901	1330
1687.863	1294
1690.824	1237
1693.782	1215.66667
1696.738	1163
1699.692	1139
1702.643	1105.33333
1705.593	1094
1708.54	1091
1711.486	1086.33333
1714.429	1047.33333
1717.37	1056
1720.309	1020
1723.246	1039.66667
1726.181	992.33333
1729.113	1004
1732.044	997.33333
1734.972	991
1737.899	992.66667
1740.823	992
1743.745	958
1746.665	950
1749.583	932.66667
1752.499	925
1755.413	931.66667
1758.325	894.33333
1761.235	891.33333
1764.142	886.66667
1767.048	874.33333
1769.951	864
1772.852	861
1775.752	852.33333
1778.649	859.33333
1781.544	866.66667
1784.437	840
1787.328	851.33333
1790.217	842.33333
1793.104	818.33333
1795.989	817.66667
1798.872	815
1801.753	838.66667
1804.631	816
1807.508	832.66667
1810.383	821.33333
1813.255	817
1816.126	816
1818.994	814.66667
1821.861	797.33333
1824.725	807
1827.587	802.33333
1830.448	792.33333
1833.306	773.66667
1836.162	788.66667
1839.017	781.33333
1841.869	780
1844.719	773.66667
1847.567	757.33333
1850.414	762
1853.258	763.33333
1856.1	780
1858.94	784.66667
1861.778	758
1864.614	773.66667
1867.448	763.66667
1870.28	751.66667
1873.111	782.66667
1875.939	761.33333
1878.765	788.33333
1881.589	758.33333
1884.411	766.33333
1887.231	764.33333
1890.049	757.33333
1892.865	753.33333
1895.68	737.66667
1898.492	762.33333
1901.302	743.33333
1904.11	737
1906.916	735.66667
1909.721	726.66667
1912.523	745.66667
1915.323	734
1918.122	729.33333
1920.918	734.66667
1923.712	711.66667
1926.505	724.66667
1929.295	714.66667
1932.084	727.33333
1934.87	727.66667
1937.655	721.33333
1940.438	718.33333
1943.218	725
1945.997	732.33333
1948.774	732.66667
1951.549	721.33333
1954.322	707
1957.093	717
1959.862	711
1962.629	694
1965.394	712.66667
1968.157	700
1970.918	696
1973.678	693.66667
1976.435	707.33333
1979.19	693.66667
1981.944	689
1984.696	681.66667
1987.445	682.33333
1990.193	697.66667
1992.939	708.66667
1995.683	700.33333
1998.425	674.66667
2001.165	723
2003.903	683.66667
2006.639	686.33333
2009.374	701
2012.106	685
2014.837	680.33333
2017.566	686.33333
2020.292	698
2023.017	689.66667
2025.74	678.66667
2028.461	684
2031.18	681
2033.898	675.33333
2036.613	676.33333
2039.327	678
2042.038	668.33333
2044.748	666.66667
2047.456	674
2050.162	664.66667
2052.866	662.66667
2055.568	687.33333
2058.268	665
2060.967	672
2063.663	661
2066.358	669
2069.051	668.33333
2071.742	660.66667
2074.431	666
2077.118	656
2079.804	654
2082.487	663.33333
2085.169	678
2087.849	688.66667
2090.527	657
2093.203	659.66667
2095.877	691.33333
2098.55	691.66667
2101.22	694.66667
2103.889	694
2106.556	703
2109.221	721
2111.884	725
2114.546	780.33333
2117.205	816
2119.863	888.66667
2122.519	912.33333
2125.173	974.66667
2127.825	1021
2130.475	1032
2133.124	987.66667
2135.771	945.33333
2138.416	932.66667
2141.059	864
2143.7	829.66667
2146.339	794.33333
2148.977	752.66667
2151.613	766
2154.247	743
2156.879	715.33333
2159.51	694.33333
2162.138	681
2164.765	690.66667
2167.39	675
2170.013	696.33333
2172.634	689
2175.254	678
2177.872	711
2180.488	665.33333
2183.102	671.66667
2185.714	656.33333
2188.325	648.33333
2190.934	655.66667
2193.541	648.66667
2196.146	635.33333
2198.75	638.33333
2201.351	638.33333
2203.951	636.33333
2206.549	652.33333
2209.146	640
2211.74	639.66667
2214.333	638.33333
2216.924	632
2219.514	632
2222.101	626.33333
2224.687	640
2227.271	630
2229.853	621
2232.433	615.66667
2235.012	631.66667
2237.589	628
2240.164	643.66667
2242.738	628.33333
2245.309	618
2247.879	628.33333
2250.448	627
2253.014	605
2255.579	605.66667
2258.142	618.33333
2260.703	603
2263.262	615.66667
2265.82	602
2268.376	608
2270.93	602.33333
2273.483	603.66667
2276.033	608.33333
2278.583	613.66667
2281.13	604
2283.675	605.66667
2286.219	609
2288.761	610
2291.302	609.33333
2293.841	607.33333
2296.377	597
2298.913	601
2301.446	607.66667
2303.978	609.33333
2306.508	591.33333
2309.037	605.66667
2311.563	608.33333
2314.088	605.66667
2316.612	595.33333
2319.133	606
2321.653	600.33333
2324.171	589
2326.688	622.66667
2329.202	609.66667
2331.715	601
2334.227	599
2336.736	598
2339.244	591
2341.751	601
2344.255	612.33333
2346.758	605
2349.259	593.66667
2351.759	597.66667
2354.257	603
2356.753	603.33333
2359.247	607.33333
2361.74	617
2364.231	604
2366.721	618.33333
2369.209	615
2371.695	613.33333
2374.179	607.33333
2376.662	601.33333
2379.143	624.33333
2381.622	611.33333
2384.1	625
2386.576	625.66667
2389.051	625
2391.524	623
2393.995	624
2396.464	620.66667
2398.932	619.33333
2401.398	621.33333
2403.863	622.66667
2406.325	605.66667
2408.787	626.66667
2411.246	619.33333
2413.704	628
2416.16	616.33333
2418.615	623
2421.068	632.66667
2423.519	636.66667
2425.969	630.66667
2428.417	620.66667
2430.863	653
2433.308	646.66667
2435.751	639
2438.193	641
2440.633	635
2443.071	638.33333
2445.508	634.66667
2447.943	639.66667
2450.376	642.66667
2452.808	630
2455.238	633.33333
2457.667	669.33333
2460.093	642.66667
2462.519	634.66667
2464.942	642
2467.365	653.33333
2469.785	653.66667
2472.204	661.33333
2474.621	634.66667
2477.037	677.33333
2479.451	644.66667
2481.863	646.66667
2484.274	651.66667
2486.683	653.66667
2489.091	663.66667
2491.497	663.33333
2493.901	666.66667
2496.304	663
2498.705	668.33333
2501.105	656.33333
2503.503	697
2505.899	650.66667
2508.294	685
2510.687	674.33333
2513.079	672
2515.469	662.66667
2517.858	669.33333
2520.245	681
2522.63	670
2525.014	676.33333
2527.396	669.33333
2529.776	666.66667
2532.156	681
2534.533	672.33333
2536.909	673.33333
2539.283	656
2541.656	676.66667
2544.027	711
2546.397	686.33333
2548.765	682
2551.131	691.33333
2553.496	684.66667
2555.86	697.33333
2558.221	695
2560.582	699
2562.94	686.66667
2565.298	693.66667
2567.653	714
2570.007	693.66667
2572.36	710
2574.711	701
2577.06	713.66667
2579.408	713.33333
2581.754	717.66667
2584.099	719
2586.442	707.66667
2588.784	719
2591.124	716.33333
2593.463	723.66667
2595.8	725
2598.135	721.66667
2600.469	712.33333
2602.802	730.33333
2605.133	748
2607.462	718
2609.79	710
2612.116	733
2614.441	742.66667
2616.764	729.33333
2619.086	741.66667
2621.406	738
2623.725	755
2626.042	746.33333
2628.358	744
2630.672	741.33333
2632.985	765.66667
2635.296	763.33333
2637.606	763
2639.914	763
2642.22	764.66667
2644.525	764.66667
2646.829	772.33333
2649.131	789.66667
2651.432	802
2653.731	787.33333
2656.028	801.33333
2658.324	807.66667
2660.619	785.33333
2662.912	809.33333
2665.204	781.33333
2667.494	800.33333
2669.782	785.66667
2672.07	810.33333
2674.355	809
2676.639	806
2678.922	780
2681.203	804.66667
2683.483	792.33333
2685.761	789
2688.038	810
2690.313	828
2692.587	809
2694.859	819
2697.13	826.33333
2699.399	839.66667
2701.667	832.66667
2703.933	831.33333
2706.198	844
2708.461	854
2710.723	853.33333
2712.984	858
2715.243	846
2717.5	850
2719.757	870
2722.011	861
2724.264	876
2726.516	883
2728.766	880
2731.015	887.33333
2733.262	903
2735.508	885.66667
2737.753	879.33333
2739.996	875.66667
2742.237	876
2744.477	892.66667
2746.716	888
2748.953	888.66667
2751.189	888
2753.423	860.66667
2755.656	876.66667
2757.887	873.33333
2760.117	882.33333
2762.346	884.33333
2764.573	872.33333
2766.798	870.66667
2769.022	882
2771.245	883
2773.467	894.33333
2775.686	897.33333
2777.905	892
2780.122	912.33333
2782.337	918.33333
2784.552	913.33333
2786.764	924.33333
2788.976	925.33333
2791.186	924.66667
2793.394	937
2795.601	941
2797.807	963
2800.011	961.66667
2802.214	955
2804.415	965.33333
2806.615	962
2808.814	965.66667
2811.011	985.33333
2813.206	976.66667
2815.401	994.66667
2817.594	989.66667
2819.785	1004.33333
2821.975	998.66667
2824.164	1000.33333
2826.351	1004.33333
2828.537	1038
2830.722	1033.33333
2832.905	1035
2835.086	1072
2837.267	1098
2839.445	1108.33333
2841.623	1115.33333
2843.799	1118.33333
2845.974	1151
2848.147	1177.33333
2850.319	1194.66667
2852.489	1237
2854.659	1239.33333
2856.826	1245.66667
2858.993	1279
2861.158	1252
2863.321	1276.66667
2865.483	1276.33333
2867.644	1286.66667
2869.804	1265.66667
2871.962	1269
2874.118	1254.33333
2876.274	1268
2878.428	1266.66667
2880.58	1248.33333
2882.731	1238.33333
2884.881	1259.66667
2887.03	1264
2889.177	1271.66667
2891.322	1275.33333
2893.467	1276
2895.61	1288
2897.751	1282.66667
2899.892	1273.66667
2902.03	1297
2904.168	1301
2906.304	1296.66667
2908.439	1330
2910.572	1321
2912.704	1317.66667
2914.835	1334
2916.965	1322.66667
2919.093	1339.33333
2921.219	1321
2923.345	1353
2925.469	1306
2927.591	1307.66667
2929.712	1288.33333
2931.832	1300.66667
2933.951	1263.33333
2936.068	1250
2938.184	1253
2940.299	1227
2942.412	1218.66667
2944.524	1196.33333
2946.634	1200.66667
2948.744	1159.33333
2950.851	1185
2952.958	1155.66667
2955.063	1160.66667
2957.167	1154.66667
2959.269	1112.66667
2961.371	1167.33333
2963.471	1123.66667
2965.569	1142.66667
2967.666	1110.66667
2969.762	1103.33333
2971.857	1095.66667
2973.95	1072.66667
2976.042	1079.33333
2978.133	1059.66667
2980.222	1050.66667
2982.31	1024.33333
2984.396	1004
2986.482	1019.33333
2988.566	1004.33333
2990.648	992.66667
2992.73	997
2994.81	998.66667
2996.889	1004.33333
2998.966	1005.66667
3001.042	1005.33333
3003.117	1012.66667
3005.191	997.33333
3007.263	998.33333
3009.334	978
3011.403	980.66667
3013.472	974
3015.539	960
3017.604	965
3019.669	938
3021.732	929.33333
3023.794	949
3025.854	925
3027.914	933.33333
3029.971	944.66667
3032.028	926.66667
3034.083	934.66667
3036.137	923.66667
3038.19	891.33333
3040.242	878
3042.292	865.33333
3044.341	842
3046.388	869.33333
3048.435	830.33333
3050.48	853
3052.524	850
3054.566	811.33333
3056.607	819.66667
3058.647	809
3060.686	780.33333
3062.723	773.33333
3064.759	733
3066.794	0
3068.828	4
3070.86	2.33333
