-0.839	605.41667
3.438	711.08333
7.711	198.08333
11.981	65.41667
16.247	47.08333
20.509	47.41667
24.768	46.41667
29.024	57.75
33.276	44.41667
37.524	51.41667
41.769	46.75
46.01	33.41667
50.247	46.41667
54.481	56.41667
58.712	61.75
62.939	52.75
67.162	61.41667
71.382	59.41667
75.599	49.41667
79.812	60.75
84.021	80.08333
88.227	61.08333
92.429	60.41667
96.628	55.75
100.823	67.41667
105.015	75.75
109.204	66.75
113.388	78.08333
117.57	76.08333
121.748	82.75
125.922	80.41667
130.093	98.75
134.261	98.75
138.425	94.41667
142.585	137.08333
146.742	123.41667
150.896	152.08333
155.046	195.08333
159.193	300.08333
163.336	501.41667
167.476	927.08333
171.613	1685.41667
175.746	2830.08333
179.875	4169.08333
184.002	5447.41667
188.124	6338.41667
192.244	6639.75
196.36	6533.41667
200.472	6364.08333
204.581	6128.75
208.687	5894.08333
212.79	5841.08333
216.889	5802.41667
220.984	5723.41667
225.077	5726.08333
229.165	5689.75
233.251	5661.41667
237.333	5620.41667
241.412	5571.41667
245.487	5497.75
249.559	5468.41667
253.628	5408.41667
257.694	5385.75
261.756	5312.41667
265.814	5194.08333
269.87	5069.08333
273.922	4922.08333
277.97	4858.75
282.016	4817.08333
286.058	4848.75
290.097	4943.75
294.132	5049.75
298.164	5043.75
302.193	4834.75
306.219	4471.41667
310.241	4114.08333
314.26	3817.75
318.276	3537.41667
322.288	3361.08333
326.297	3202.08333
330.303	3115.75
334.305	3028.75
338.305	2981.75
342.301	2947.08333
346.294	2919.75
350.283	2887.08333
354.269	2850.75
358.252	2841.41667
362.232	2839.41667
366.209	2793.08333
370.182	2759.08333
374.152	2765.75
378.119	2772.75
382.083	2779.41667
386.043	2777.75
390	2741.75
393.954	2766.41667
397.905	2750.08333
401.852	2748.41667
405.797	2696.75
409.738	2716.75
413.676	2706.75
417.61	2697.75
421.542	2667.41667
425.47	2660.41667
429.396	2645.08333
433.318	2625.41667
437.236	2616.41667
441.152	2640.41667
445.065	2578.41667
448.974	2586.08333
452.88	2545.41667
456.783	2554.41667
460.683	2507.08333
464.58	2532.75
468.473	2542.75
472.364	2544.41667
476.251	2557.41667
480.135	2558.75
484.016	2624.41667
487.894	2632.75
491.769	2648.08333
495.641	2626.75
499.509	2627.08333
503.375	2645.41667
507.237	2621.08333
511.096	2615.41667
514.952	2634.41667
518.805	2650.08333
522.655	2639.08333
526.502	2645.41667
530.346	2636.41667
534.187	2647.41667
538.024	2650.75
541.859	2670.08333
545.69	2703.08333
549.519	2659.75
553.344	2661.75
557.166	2599.41667
560.985	2593.41667
564.802	2537.08333
568.615	2518.41667
572.425	2443.75
576.232	2436.08333
580.036	2438.08333
583.836	2446.41667
587.634	2466.08333
591.429	2462.08333
595.221	2523.08333
599.01	2531.41667
602.796	2577.41667
606.578	2578.08333
610.358	2600.75
614.135	2536.41667
617.909	2545.41667
621.679	2519.41667
625.447	2505.75
629.212	2505.08333
632.973	2514.75
636.732	2509.41667
640.488	2491.41667
644.241	2483.41667
647.991	2483.08333
651.737	2480.08333
655.481	2454.41667
659.222	2463.08333
662.96	2475.08333
666.695	2498.75
670.427	2497.41667
674.156	2510.08333
677.882	2512.08333
681.605	2511.08333
685.325	2464.75
689.043	2463.41667
692.757	2421.08333
696.468	2449.41667
700.177	2436.75
703.882	2393.75
707.585	2403.75
711.284	2393.75
714.981	2387.75
718.675	2396.08333
722.366	2410.75
726.054	2397.08333
729.739	2403.08333
733.421	2386.08333
737.1	2399.41667
740.777	2424.41667
744.45	2428.75
748.121	2438.75
751.789	2483.75
755.453	2470.08333
759.115	2484.08333
762.774	2503.08333
766.431	2500.75
770.084	2567.08333
773.734	2565.75
777.382	2608.08333
781.027	2634.41667
784.669	2629.08333
788.308	2652.08333
791.944	2624.08333
795.577	2676.75
799.208	2684.41667
802.835	2674.41667
806.46	2697.41667
810.082	2690.41667
813.701	2694.75
817.317	2735.41667
820.931	2714.08333
824.542	2734.75
828.149	2688.41667
831.754	2654.08333
835.357	2671.41667
838.956	2671.08333
842.553	2691.75
846.146	2638.41667
849.737	2621.75
853.326	2637.08333
856.911	2631.08333
860.493	2647.08333
864.073	2698.08333
867.65	2712.08333
871.225	2757.41667
874.796	2759.75
878.365	2727.08333
881.931	2767.08333
885.494	2764.41667
889.054	2779.75
892.612	2826.41667
896.166	2816.41667
899.719	2751.75
903.268	2726.41667
906.814	2732.41667
910.358	2689.08333
913.899	2657.08333
917.438	2638.08333
920.973	2626.08333
924.506	2651.41667
928.036	2710.08333
931.564	2734.08333
935.088	2773.41667
938.61	2801.08333
942.129	2848.41667
945.646	2900.41667
949.16	2946.75
952.671	2992.75
956.179	2988.08333
959.685	2954.41667
963.188	2966.75
966.688	2903.41667
970.185	2838.75
973.68	2760.41667
977.173	2710.41667
980.662	2662.08333
984.149	2646.08333
987.633	2632.75
991.114	2687.75
994.593	2731.41667
998.069	2775.75
1001.542	2862.41667
1005.013	2833.75
1008.481	2657.75
1011.947	2626.41667
1015.409	2621.08333
1018.869	2597.08333
1022.327	2608.75
1025.782	2573.41667
1029.234	2583.41667
1032.683	2554.41667
1036.13	2480.75
1039.574	2406.41667
1043.016	2328.75
1046.455	2304.08333
1049.891	2273.08333
1053.325	2286.08333
1056.756	2277.41667
1060.184	2310.75
1063.61	2297.75
1067.033	2320.08333
1070.454	2319.41667
1073.872	2365.41667
1077.287	2336.75
1080.7	2349.08333
1084.11	2339.08333
1087.517	2333.41667
1090.922	2296.75
1094.325	2278.08333
1097.724	2247.08333
1101.122	2268.75
1104.516	2254.75
1107.908	2246.41667
1111.298	2307.41667
1114.684	2305.41667
1118.069	2362.75
1121.45	2358.41667
1124.83	2371.75
1128.206	2374.41667
1131.58	2430.08333
1134.951	2475.41667
1138.32	2549.08333
1141.687	2660.75
1145.05	2716.75
1148.412	2683.08333
1151.77	2683.41667
1155.126	2683.08333
1158.48	2687.41667
1161.831	2666.08333
1165.18	2667.08333
1168.525	2708.41667
1171.869	2732.08333
1175.21	2752.41667
1178.548	2790.08333
1181.884	2821.08333
1185.217	2872.75
1188.548	2932.75
1191.877	2959.41667
1195.202	3086.75
1198.526	3144.08333
1201.846	3181.08333
1205.165	3150.75
1208.48	3184.41667
1211.794	3144.41667
1215.104	3135.75
1218.413	3141.41667
1221.719	3129.75
1225.022	3106.08333
1228.323	3036.41667
1231.621	3011.41667
1234.917	2968.41667
1238.21	2988.08333
1241.501	2956.08333
1244.79	2974.75
1248.076	2957.41667
1251.359	2967.08333
1254.64	3039.08333
1257.919	3069.41667
1261.195	3094.08333
1264.468	3161.41667
1267.74	3222.75
1271.008	3208.08333
1274.275	3215.41667
1277.538	3199.75
1280.8	3203.08333
1284.059	3184.41667
1287.315	3202.75
1290.569	3243.08333
1293.821	3245.75
1297.07	3277.75
1300.317	3271.75
1303.562	3261.75
1306.803	3254.08333
1310.043	3230.41667
1313.28	3202.41667
1316.515	3194.75
1319.747	3183.08333
1322.977	3157.75
1326.204	3108.75
1329.429	3085.41667
1332.652	3065.75
1335.872	3014.75
1339.09	2984.08333
1342.306	2935.08333
1345.519	2876.75
1348.729	2865.75
1351.938	2838.41667
1355.144	2794.41667
1358.347	2758.41667
1361.548	2779.08333
1364.747	2766.75
1367.944	2725.08333
1371.138	2730.41667
1374.329	2785.41667
1377.518	2791.08333
1380.705	2815.41667
1383.89	2794.41667
1387.072	2700.08333
1390.252	2624.08333
1393.429	2504.41667
1396.605	2424.08333
1399.777	2370.08333
1402.948	2346.08333
1406.116	2342.41667
1409.282	2325.41667
1412.445	2339.41667
1415.606	2382.08333
1418.765	2393.75
1421.921	2438.75
1425.075	2481.41667
1428.227	2555.41667
1431.376	2685.08333
1434.524	2762.41667
1437.668	2858.08333
1440.811	2896.75
1443.951	2915.41667
1447.089	2937.08333
1450.224	2918.75
1453.357	2898.41667
1456.488	2890.41667
1459.617	2813.08333
1462.743	2787.08333
1465.867	2710.41667
1468.989	2666.41667
1472.108	2639.75
1475.225	2565.41667
1478.34	2542.75
1481.453	2552.08333
1484.563	2524.41667
1487.671	2569.41667
1490.776	2596.41667
1493.88	2638.08333
1496.981	2672.41667
1500.08	2728.08333
1503.176	2741.08333
1506.271	2765.08333
1509.363	2814.75
1512.452	2860.75
1515.54	2868.75
1518.625	2913.08333
1521.708	2995.08333
1524.789	3053.75
1527.867	3168.41667
1530.944	3333.41667
1534.018	3471.08333
1537.089	3609.41667
1540.159	3605.75
1543.226	3639.08333
1546.291	3546.41667
1549.354	3502.08333
1552.415	3413.08333
1555.473	3336.41667
1558.529	3280.08333
1561.583	3249.75
1564.634	3219.75
1567.684	3224.75
1570.731	3251.75
1573.776	3282.08333
1576.819	3321.41667
1579.859	3334.41667
1582.898	3378.41667
1585.934	3418.08333
1588.968	3430.41667
1591.999	3417.08333
1595.029	3465.41667
1598.056	3484.08333
1601.081	3492.75
1604.104	3508.08333
1607.125	3472.41667
1610.144	3385.41667
1613.16	3316.08333
1616.174	3257.08333
1619.186	3177.41667
1622.196	3074.75
1625.203	3017.41667
1628.209	2950.75
1631.212	2913.41667
1634.213	2891.41667
1637.212	2886.41667
1640.209	2842.08333
1643.203	2760.75
1646.196	2658.75
1649.186	2543.08333
1652.174	2477.08333
1655.16	2402.75
1658.144	2322.75
1661.125	2223.41667
1664.105	2142.41667
1667.082	2039.08333
1670.057	1927.75
1673.03	1833.75
1676.001	1708.75
1678.97	1595.75
1681.937	1505.41667
1684.901	1426.41667
1687.863	1379.41667
1690.824	1315.08333
1693.782	1291.75
1696.738	1227.08333
1699.692	1210.08333
1702.643	1174.75
1705.593	1156.41667
1708.54	1153.41667
1711.486	1140.41667
1714.429	1107.75
1717.37	1111.08333
1720.309	1082.75
1723.246	1090.08333
1726.181	1072.08333
1729.113	1069.08333
1732.044	1044.41667
1734.972	1044.75
1737.899	1044.75
1740.823	1037.41667
1743.745	1002.41667
1746.665	998.75
1749.583	968.75
1752.499	973.08333
1755.413	953.75
1758.325	937.75
1761.235	939.41667
1764.142	927.08333
1767.048	900.08333
1769.951	911.41667
1772.852	912.08333
1775.752	894.08333
1778.649	898.41667
1781.544	911.75
1784.437	872.08333
1787.328	871.75
1790.217	867.75
1793.104	836.41667
1795.989	838.75
1798.872	839.41667
1801.753	839.75
1804.631	846.41667
1807.508	848.41667
1810.383	847.41667
1813.255	829.08333
1816.126	830.41667
1818.994	840.41667
1821.861	819.75
1824.725	819.08333
1827.587	817.41667
1830.448	810.41667
1833.306	788.41667
1836.162	798.41667
1839.017	800.41667
1841.869	791.08333
1844.719	789.75
1847.567	770.41667
1850.414	772.41667
1853.258	766.41667
1856.1	780.41667
1858.94	783.75
1861.778	765.08333
1864.614	762.08333
1867.448	754.75
1870.28	761.08333
1873.111	781.41667
1875.939	774.75
1878.765	774.08333
1881.589	752.08333
1884.411	747.75
1887.231	759.08333
1890.049	756.75
1892.865	744.08333
1895.68	730.75
1898.492	755.08333
1901.302	746.08333
1904.11	749.75
1906.916	734.41667
1909.721	728.41667
1912.523	732.41667
1915.323	717.75
1918.122	711.08333
1920.918	722.41667
1923.712	707.41667
1926.505	706.41667
1929.295	699.75
1932.084	713.08333
1934.87	712.08333
1937.655	705.75
1940.438	704.41667
1943.218	707.75
1945.997	712.75
1948.774	722.41667
1951.549	709.08333
1954.322	692.08333
1957.093	683.75
1959.862	684.41667
1962.629	679.08333
1965.394	677.75
1968.157	675.08333
1970.918	682.75
1973.678	649.75
1976.435	688.41667
1979.19	675.08333
1981.944	653.75
1984.696	665.75
1987.445	655.08333
1990.193	663.41667
1992.939	670.41667
1995.683	657.08333
1998.425	637.75
2001.165	677.75
2003.903	644.75
2006.639	645.41667
2009.374	658.75
2012.106	649.08333
2014.837	634.41667
2017.566	641.08333
2020.292	641.08333
2023.017	644.08333
2025.74	631.75
2028.461	630.41667
2031.18	628.41667
2033.898	618.75
2036.613	623.41667
2039.327	631.08333
2042.038	616.75
2044.748	616.75
2047.456	630.41667
2050.162	609.08333
2052.866	606.75
2055.568	613.41667
2058.268	599.41667
2060.967	618.41667
2063.663	595.75
2066.358	600.41667
2069.051	602.75
2071.742	597.08333
2074.431	608.75
2077.118	598.41667
2079.804	596.08333
2082.487	589.75
2085.169	608.75
2087.849	618.75
2090.527	578.08333
2093.203	593.08333
2095.877	603.75
2098.55	602.75
2101.22	603.75
2103.889	610.41667
2106.556	619.75
2109.221	622.08333
2111.884	627.41667
2114.546	674.08333
2117.205	704.41667
2119.863	747.41667
2122.519	789.75
2125.173	847.75
2127.825	901.41667
2130.475	881.75
2133.124	845.75
2135.771	813.08333
2138.416	787.41667
2141.059	728.75
2143.7	702.41667
2146.339	667.08333
2148.977	614.41667
2151.613	625.75
2154.247	604.75
2156.879	593.75
2159.51	576.41667
2162.138	567.08333
2164.765	574.75
2167.39	550.08333
2170.013	573.41667
2172.634	566.41667
2175.254	556.41667
2177.872	583.08333
2180.488	541.75
2183.102	541.08333
2185.714	538.75
2188.325	519.08333
2190.934	538.08333
2193.541	532.08333
2196.146	527.08333
2198.75	508.41667
2201.351	517.08333
2203.951	511.75
2206.549	525.08333
2209.146	504.08333
2211.74	510.08333
2214.333	507.75
2216.924	486.41667
2219.514	497.41667
2222.101	492.75
2224.687	503.08333
2227.271	493.41667
2229.853	477.41667
2232.433	480.75
2235.012	499.41667
2237.589	482.41667
2240.164	495.75
2242.738	488.75
2245.309	469.41667
2247.879	478.41667
2250.448	489.75
2253.014	465.75
2255.579	451.08333
2258.142	450.08333
2260.703	451.41667
2263.262	461.41667
2265.82	446.75
2268.376	448.75
2270.93	438.08333
2273.483	442.08333
2276.033	448.08333
2278.583	442.75
2281.13	438.75
2283.675	437.08333
2286.219	438.41667
2288.761	427.08333
2291.302	439.41667
2293.841	443.75
2296.377	423.41667
2298.913	441.41667
2301.446	443.75
2303.978	429.75
2306.508	428.08333
2309.037	425.41667
2311.563	421.41667
2314.088	423.75
2316.612	404.41667
2319.133	421.75
2321.653	421.08333
2324.171	405.08333
2326.688	428.08333
2329.202	424.75
2331.715	409.08333
2334.227	412.08333
2336.736	408.41667
2339.244	408.41667
2341.751	397.08333
2344.255	414.08333
2346.758	400.41667
2349.259	393.75
2351.759	397.08333
2354.257	394.08333
2356.753	387.41667
2359.247	396.08333
2361.74	399.08333
2364.231	393.41667
2366.721	402.75
2369.209	384.41667
2371.695	390.75
2374.179	380.41667
2376.662	377.08333
2379.143	395.75
2381.622	385.75
2384.1	394.41667
2386.576	386.08333
2389.051	390.41667
2391.524	399.75
2393.995	392.75
2396.464	377.41667
2398.932	376.75
2401.398	375.75
2403.863	382.75
2406.325	368.08333
2408.787	379.08333
2411.246	376.08333
2413.704	360.08333
2416.16	369.41667
2418.615	363.75
2421.068	381.75
2423.519	370.75
2425.969	359.08333
2428.417	377.75
2430.863	388.41667
2433.308	371.75
2435.751	369.08333
2438.193	371.08333
2440.633	367.41667
2443.071	380.75
2445.508	360.08333
2447.943	366.41667
2450.376	356.08333
2452.808	352.41667
2455.238	350.41667
2457.667	396.08333
2460.093	356.75
2462.519	346.41667
2464.942	353.08333
2467.365	361.41667
2469.785	362.08333
2472.204	360.08333
2474.621	348.41667
2477.037	370.08333
2479.451	339.41667
2481.863	334.41667
2484.274	353.41667
2486.683	347.41667
2489.091	362.75
2491.497	346.75
2493.901	354.75
2496.304	339.08333
2498.705	356.08333
2501.105	339.41667
2503.503	366.08333
2505.899	335.08333
2508.294	350.75
2510.687	338.08333
2513.079	334.08333
2515.469	325.75
2517.858	348.08333
2520.245	350.08333
2522.63	333.08333
2525.014	331.41667
2527.396	328.75
2529.776	325.41667
2532.156	337.08333
2534.533	324.75
2536.909	317.08333
2539.283	314.08333
2541.656	321.75
2544.027	346.75
2546.397	326.75
2548.765	320.41667
2551.131	319.08333
2553.496	328.75
2555.86	341.41667
2558.221	328.08333
2560.582	320.08333
2562.94	317.08333
2565.298	328.08333
2567.653	335.08333
2570.007	312.41667
2572.36	327.41667
2574.711	305.08333
2577.06	330.75
2579.408	325.41667
2581.754	317.08333
2584.099	326.75
2586.442	317.41667
2588.784	325.75
2591.124	325.75
2593.463	317.41667
2595.8	321.75
2598.135	303.75
2600.469	315.75
2602.802	327.75
2605.133	330.41667
2607.462	310.08333
2609.79	298.75
2612.116	324.75
2614.441	321.41667
2616.764	315.08333
2619.086	307.41667
2621.406	304.08333
2623.725	329.41667
2626.042	320.75
2628.358	304.41667
2630.672	300.75
2632.985	323.75
2635.296	319.75
2637.606	314.41667
2639.914	307.75
2642.22	309.75
2644.525	312.75
2646.829	316.08333
2649.131	322.41667
2651.432	325.75
2653.731	311.41667
2656.028	315.08333
2658.324	326.41667
2660.619	311.41667
2662.912	322.08333
2665.204	312.08333
2667.494	318.08333
2669.782	307.41667
2672.07	321.08333
2674.355	320.08333
2676.639	314.41667
2678.922	305.08333
2681.203	317.41667
2683.483	307.08333
2685.761	305.08333
2688.038	312.75
2690.313	333.75
2692.587	327.08333
2694.859	309.08333
2697.13	322.75
2699.399	327.75
2701.667	331.41667
2703.933	321.75
2706.198	326.75
2708.461	339.75
2710.723	336.41667
2712.984	331.41667
2715.243	337.75
2717.5	321.75
2719.757	338.08333
2722.011	335.41667
2724.264	342.41667
2726.516	350.41667
2728.766	338.75
2731.015	343.08333
2733.262	346.41667
2735.508	340.41667
2737.753	338.75
2739.996	326.41667
2742.237	318.41667
2744.477	338.41667
2746.716	344.41667
2748.953	325.75
2751.189	343.41667
2753.423	329.41667
2755.656	314.75
2757.887	307.75
2760.117	318.75
2762.346	306.75
2764.573	306.41667
2766.798	314.41667
2769.022	310.41667
2771.245	323.41667
2773.467	317.08333
2775.686	322.41667
2777.905	312.41667
2780.122	324.75
2782.337	332.75
2784.552	324.08333
2786.764	325.08333
2788.976	327.75
2791.186	328.41667
2793.394	330.75
2795.601	341.41667
2797.807	346.41667
2800.011	347.75
2802.214	355.41667
2804.415	355.08333
2806.615	345.75
2808.814	357.08333
2811.011	368.41667
2813.206	368.08333
2815.401	378.75
2817.594	375.41667
2819.785	393.41667
2821.975	376.75
2824.164	381.41667
2826.351	395.75
2828.537	415.41667
2830.722	424.41667
2832.905	417.75
2835.086	447.41667
2837.267	465.08333
2839.445	488.75
2841.623	493.75
2843.799	513.75
2845.974	538.08333
2848.147	570.41667
2850.319	585.41667
2852.489	613.75
2854.659	620.41667
2856.826	609.41667
2858.993	663.41667
2861.158	635.08333
2863.321	640.41667
2865.483	645.41667
2867.644	653.41667
2869.804	641.41667
2871.962	631.08333
2874.118	643.08333
2876.274	645.08333
2878.428	649.08333
2880.58	640.08333
2882.731	635.41667
2884.881	642.41667
2887.03	651.75
2889.177	649.41667
2891.322	655.41667
2893.467	643.75
2895.61	659.08333
2897.751	672.41667
2899.892	650.08333
2902.03	661.41667
2904.168	680.08333
2906.304	673.08333
2908.439	697.75
2910.572	681.08333
2912.704	692.08333
2914.835	691.75
2916.965	684.41667
2919.093	692.41667
2921.219	671.08333
2923.345	697.75
2925.469	670.08333
2927.591	665.41667
2929.712	647.08333
2931.832	646.41667
2933.951	631.41667
2936.068	626.75
2938.184	612.41667
2940.299	588.41667
2942.412	573.41667
2944.524	542.08333
2946.634	550.75
2948.744	502.08333
2950.851	521.75
2952.958	488.75
2955.063	489.08333
2957.167	466.75
2959.269	451.08333
2961.371	476.41667
2963.471	436.75
2965.569	437.08333
2967.666	418.41667
2969.762	415.41667
2971.857	401.41667
2973.95	386.41667
2976.042	388.08333
2978.133	382.41667
2980.222	366.41667
2982.31	358.75
2984.396	338.41667
2986.482	343.75
2988.566	342.08333
2990.648	341.41667
2992.73	332.75
2994.81	324.08333
2996.889	324.41667
2998.966	325.08333
3001.042	315.41667
3003.117	317.75
3005.191	320.41667
3007.263	313.08333
3009.334	303.41667
3011.403	309.75
3013.472	304.08333
3015.539	309.08333
3017.604	309.41667
3019.669	284.41667
3021.732	287.08333
3023.794	283.08333
3025.854	283.41667
3027.914	276.75
3029.971	281.08333
3032.028	273.75
3034.083	282.41667
3036.137	275.75
3038.19	259.08333
3040.242	264.41667
3042.292	253.08333
3044.341	244.08333
3046.388	260.75
3048.435	242.41667
3050.48	261.41667
3052.524	250.08333
3054.566	236.08333
3056.607	244.08333
3058.647	242.08333
3060.686	230.41667
3062.723	221.08333
3064.759	209.08333
3066.794	0.08333
3068.828	1.41667
3070.86	3.08333
