-0.839	482.54167
3.438	586.875
7.711	173.54167
11.981	61.54167
16.247	46.875
20.509	50.875
24.768	47.875
29.024	51.54167
33.276	45.875
37.524	47.54167
41.769	45.54167
46.01	30.875
50.247	49.20833
54.481	55.875
58.712	65.20833
62.939	48.875
67.162	60.20833
71.382	55.875
75.599	49.20833
79.812	61.54167
84.021	79.54167
88.227	60.20833
92.429	58.20833
96.628	47.20833
100.823	69.875
105.015	76.20833
109.204	69.20833
113.388	73.20833
117.57	73.54167
121.748	87.20833
125.922	77.20833
130.093	96.875
134.261	97.875
138.425	92.20833
142.585	137.875
146.742	121.875
150.896	156.54167
155.046	189.54167
159.193	296.54167
163.336	491.875
167.476	899.875
171.613	1650.20833
175.746	2776.875
179.875	4096.20833
184.002	5396.875
188.124	6229.54167
192.244	6531.875
196.36	6484.875
200.472	6301.54167
204.581	6086.54167
208.687	5929.875
212.79	5843.875
216.889	5825.20833
220.984	5837.875
225.077	5845.54167
229.165	5823.875
233.251	5830.875
237.333	5775.20833
241.412	5704.875
245.487	5630.875
249.559	5569.20833
253.628	5539.54167
257.694	5477.54167
261.756	5405.875
265.814	5306.54167
269.87	5135.20833
273.922	5000.875
277.97	4915.875
282.016	4857.875
286.058	4904.54167
290.097	5005.54167
294.132	5088.20833
298.164	5012.54167
302.193	4773.875
306.219	4416.20833
310.241	4093.20833
314.26	3746.54167
318.276	3521.875
322.288	3321.875
326.297	3184.20833
330.303	3065.20833
334.305	2991.54167
338.305	2951.54167
342.301	2885.54167
346.294	2902.20833
350.283	2874.875
354.269	2849.20833
358.252	2824.54167
362.232	2802.20833
366.209	2815.875
370.182	2744.20833
374.152	2743.875
378.119	2771.54167
382.083	2750.54167
386.043	2775.54167
390	2721.875
393.954	2733.875
397.905	2726.54167
401.852	2721.20833
405.797	2695.20833
409.738	2677.20833
413.676	2693.54167
417.61	2670.875
421.542	2627.875
425.47	2633.54167
429.396	2601.20833
433.318	2577.54167
437.236	2577.875
441.152	2629.20833
445.065	2545.20833
448.974	2546.875
452.88	2513.875
456.783	2520.875
460.683	2505.875
464.58	2508.20833
468.473	2525.20833
472.364	2516.875
476.251	2531.54167
480.135	2565.20833
484.016	2585.54167
487.894	2579.54167
491.769	2613.20833
495.641	2621.20833
499.509	2617.875
503.375	2612.20833
507.237	2607.875
511.096	2611.54167
514.952	2643.875
518.805	2674.875
522.655	2733.20833
526.502	2621.875
530.346	2613.54167
534.187	2607.20833
538.024	2595.875
541.859	2624.875
545.69	2631.20833
549.519	2633.54167
553.344	2607.875
557.166	2560.20833
560.985	2524.20833
564.802	2486.20833
568.615	2446.20833
572.425	2415.20833
576.232	2392.20833
580.036	2401.20833
583.836	2427.20833
587.634	2423.20833
591.429	2423.875
595.221	2491.54167
599.01	2508.20833
602.796	2519.20833
606.578	2544.54167
610.358	2549.54167
614.135	2509.875
617.909	2498.20833
621.679	2471.20833
625.447	2460.875
629.212	2477.54167
632.973	2475.875
636.732	2474.54167
640.488	2462.20833
644.241	2432.875
647.991	2430.20833
651.737	2448.54167
655.481	2429.875
659.222	2415.875
662.96	2400.875
666.695	2450.54167
670.427	2457.20833
674.156	2461.20833
677.882	2453.54167
681.605	2443.54167
685.325	2427.875
689.043	2418.20833
692.757	2400.20833
696.468	2401.54167
700.177	2395.875
703.882	2379.875
707.585	2378.20833
711.284	2365.54167
714.981	2371.20833
718.675	2393.54167
722.366	2387.875
726.054	2361.20833
729.739	2388.54167
733.421	2370.54167
737.1	2356.20833
740.777	2413.54167
744.45	2393.875
748.121	2406.875
751.789	2465.875
755.453	2448.875
759.115	2464.54167
762.774	2489.875
766.431	2486.875
770.084	2513.875
773.734	2537.20833
777.382	2587.875
781.027	2608.875
784.669	2590.54167
788.308	2608.20833
791.944	2641.875
795.577	2659.875
799.208	2683.54167
802.835	2691.54167
806.46	2695.875
810.082	2716.875
813.701	2711.20833
817.317	2763.875
820.931	2721.54167
824.542	2739.54167
828.149	2716.875
831.754	2702.54167
835.357	2684.875
838.956	2709.875
842.553	2697.54167
846.146	2689.20833
849.737	2668.20833
853.326	2660.20833
856.911	2657.20833
860.493	2685.54167
864.073	2704.54167
867.65	2734.20833
871.225	2759.875
874.796	2779.54167
878.365	2760.875
881.931	2797.54167
885.494	2806.875
889.054	2842.875
892.612	2835.875
896.166	2828.875
899.719	2811.875
903.268	2755.875
906.814	2732.875
910.358	2717.54167
913.899	2675.875
917.438	2674.54167
920.973	2663.54167
924.506	2700.875
928.036	2738.20833
931.564	2751.54167
935.088	2809.875
938.61	2810.875
942.129	2866.875
945.646	2908.20833
949.16	2968.875
952.671	3014.20833
956.179	2998.875
959.685	2946.54167
963.188	2971.20833
966.688	2922.20833
970.185	2859.54167
973.68	2766.875
977.173	2746.54167
980.662	2708.875
984.149	2700.875
987.633	2701.54167
991.114	2776.54167
994.593	2803.54167
998.069	2873.875
1001.542	2953.20833
1005.013	2895.875
1008.481	2752.875
1011.947	2702.54167
1015.409	2680.20833
1018.869	2709.875
1022.327	2696.875
1025.782	2667.20833
1029.234	2675.54167
1032.683	2624.54167
1036.13	2538.54167
1039.574	2440.20833
1043.016	2387.875
1046.455	2323.54167
1049.891	2315.54167
1053.325	2332.875
1056.756	2338.875
1060.184	2369.875
1063.61	2342.875
1067.033	2365.875
1070.454	2374.875
1073.872	2425.875
1077.287	2383.54167
1080.7	2393.20833
1084.11	2380.20833
1087.517	2358.875
1090.922	2324.20833
1094.325	2320.54167
1097.724	2287.54167
1101.122	2286.54167
1104.516	2313.875
1107.908	2285.875
1111.298	2322.20833
1114.684	2344.875
1118.069	2395.875
1121.45	2422.54167
1124.83	2393.20833
1128.206	2416.54167
1131.58	2464.54167
1134.951	2530.54167
1138.32	2588.20833
1141.687	2680.54167
1145.05	2715.875
1148.412	2730.20833
1151.77	2740.54167
1155.126	2739.54167
1158.48	2713.20833
1161.831	2713.20833
1165.18	2735.875
1168.525	2772.875
1171.869	2820.20833
1175.21	2834.54167
1178.548	2868.875
1181.884	2895.875
1185.217	2902.20833
1188.548	2996.875
1191.877	3040.20833
1195.202	3139.54167
1198.526	3205.875
1201.846	3201.20833
1205.165	3188.875
1208.48	3188.875
1211.794	3211.20833
1215.104	3180.54167
1218.413	3185.20833
1221.719	3175.20833
1225.022	3135.54167
1228.323	3097.20833
1231.621	3090.875
1234.917	3061.54167
1238.21	3075.875
1241.501	3042.875
1244.79	3037.54167
1248.076	3029.54167
1251.359	3059.54167
1254.64	3135.875
1257.919	3152.54167
1261.195	3184.875
1264.468	3239.20833
1267.74	3286.54167
1271.008	3283.20833
1274.275	3272.20833
1277.538	3289.875
1280.8	3235.54167
1284.059	3218.20833
1287.315	3307.20833
1290.569	3319.54167
1293.821	3325.20833
1297.07	3350.875
1300.317	3374.54167
1303.562	3349.20833
1306.803	3316.875
1310.043	3310.875
1313.28	3271.20833
1316.515	3234.20833
1319.747	3249.20833
1322.977	3193.54167
1326.204	3158.54167
1329.429	3121.54167
1332.652	3097.54167
1335.872	3068.20833
1339.09	3036.875
1342.306	3027.875
1345.519	2983.54167
1348.729	2946.875
1351.938	2954.20833
1355.144	2900.20833
1358.347	2862.875
1361.548	2827.20833
1364.747	2872.54167
1367.944	2818.875
1371.138	2850.54167
1374.329	2863.54167
1377.518	2885.54167
1380.705	2923.20833
1383.89	2885.875
1387.072	2784.54167
1390.252	2667.54167
1393.429	2573.54167
1396.605	2502.875
1399.777	2452.54167
1402.948	2406.875
1406.116	2391.54167
1409.282	2394.54167
1412.445	2409.54167
1415.606	2446.54167
1418.765	2463.875
1421.921	2530.54167
1425.075	2569.20833
1428.227	2660.54167
1431.376	2738.20833
1434.524	2866.54167
1437.668	2918.54167
1440.811	2951.20833
1443.951	2977.20833
1447.089	3000.20833
1450.224	2981.875
1453.357	2958.20833
1456.488	2937.875
1459.617	2890.54167
1462.743	2843.54167
1465.867	2791.20833
1468.989	2742.875
1472.108	2673.875
1475.225	2632.875
1478.34	2600.54167
1481.453	2598.875
1484.563	2605.875
1487.671	2651.875
1490.776	2688.875
1493.88	2710.875
1496.981	2730.54167
1500.08	2795.20833
1503.176	2833.875
1506.271	2888.20833
1509.363	2913.20833
1512.452	2943.20833
1515.54	2965.875
1518.625	3011.54167
1521.708	3079.20833
1524.789	3181.54167
1527.867	3292.20833
1530.944	3446.54167
1534.018	3601.20833
1537.089	3786.54167
1540.159	3806.875
1543.226	3825.875
1546.291	3757.20833
1549.354	3687.875
1552.415	3585.20833
1555.473	3493.54167
1558.529	3426.875
1561.583	3380.54167
1564.634	3361.20833
1567.684	3371.54167
1570.731	3373.54167
1573.776	3416.875
1576.819	3458.875
1579.859	3529.54167
1582.898	3548.20833
1585.934	3547.875
1588.968	3584.875
1591.999	3564.875
1595.029	3590.20833
1598.056	3604.54167
1601.081	3611.54167
1604.104	3604.20833
1607.125	3563.875
1610.144	3478.20833
1613.16	3423.20833
1616.174	3312.54167
1619.186	3248.875
1622.196	3140.54167
1625.203	3079.20833
1628.209	3027.875
1631.212	2992.20833
1634.213	2973.875
1637.212	2947.54167
1640.209	2919.54167
1643.203	2863.54167
1646.196	2758.54167
1649.186	2639.20833
1652.174	2556.875
1655.16	2479.20833
1658.144	2400.20833
1661.125	2306.20833
1664.105	2214.20833
1667.082	2111.54167
1670.057	2038.54167
1673.03	1908.20833
1676.001	1774.875
1678.97	1648.54167
1681.937	1548.20833
1684.901	1469.54167
1687.863	1420.54167
1690.824	1360.875
1693.782	1344.20833
1696.738	1269.54167
1699.692	1264.875
1702.643	1224.20833
1705.593	1203.54167
1708.54	1193.875
1711.486	1176.20833
1714.429	1155.54167
1717.37	1157.54167
1720.309	1144.20833
1723.246	1130.54167
1726.181	1109.54167
1729.113	1116.875
1732.044	1086.54167
1734.972	1085.875
1737.899	1090.54167
1740.823	1083.54167
1743.745	1037.875
1746.665	1032.20833
1749.583	1018.20833
1752.499	1011.875
1755.413	1005.54167
1758.325	972.20833
1761.235	971.875
1764.142	959.20833
1767.048	940.875
1769.951	933.54167
1772.852	941.20833
1775.752	924.54167
1778.649	934.20833
1781.544	923.54167
1784.437	904.20833
1787.328	925.875
1790.217	897.20833
1793.104	870.875
1795.989	884.20833
1798.872	887.875
1801.753	887.875
1804.631	887.20833
1807.508	883.54167
1810.383	878.54167
1813.255	867.54167
1816.126	864.875
1818.994	878.20833
1821.861	864.875
1824.725	857.20833
1827.587	859.20833
1830.448	852.875
1833.306	838.20833
1836.162	840.875
1839.017	834.54167
1841.869	827.875
1844.719	825.20833
1847.567	814.20833
1850.414	801.20833
1853.258	811.20833
1856.1	823.54167
1858.94	825.54167
1861.778	820.54167
1864.614	798.54167
1867.448	812.54167
1870.28	792.875
1873.111	826.875
1875.939	805.20833
1878.765	812.875
1881.589	802.875
1884.411	807.54167
1887.231	807.54167
1890.049	797.875
1892.865	796.54167
1895.68	787.20833
1898.492	800.54167
1901.302	776.20833
1904.11	780.875
1906.916	773.54167
1909.721	774.54167
1912.523	775.20833
1915.323	756.875
1918.122	753.875
1920.918	771.54167
1923.712	757.20833
1926.505	756.54167
1929.295	752.54167
1932.084	772.20833
1934.87	755.20833
1937.655	747.20833
1940.438	751.875
1943.218	746.875
1945.997	745.20833
1948.774	762.20833
1951.549	758.54167
1954.322	749.20833
1957.093	746.875
1959.862	728.20833
1962.629	734.20833
1965.394	738.54167
1968.157	719.875
1970.918	737.20833
1973.678	715.20833
1976.435	717.54167
1979.19	711.20833
1981.944	718.875
1984.696	706.20833
1987.445	690.20833
1990.193	697.875
1992.939	724.875
1995.683	698.54167
1998.425	686.20833
2001.165	720.54167
2003.903	699.875
2006.639	698.20833
2009.374	708.54167
2012.106	708.875
2014.837	687.54167
2017.566	702.20833
2020.292	706.54167
2023.017	691.20833
2025.74	682.875
2028.461	681.875
2031.18	684.20833
2033.898	681.54167
2036.613	681.875
2039.327	687.20833
2042.038	669.54167
2044.748	667.54167
2047.456	682.875
2050.162	657.20833
2052.866	665.20833
2055.568	688.54167
2058.268	658.54167
2060.967	674.875
2063.663	657.54167
2066.358	658.875
2069.051	655.54167
2071.742	658.20833
2074.431	669.54167
2077.118	672.20833
2079.804	654.875
2082.487	660.875
2085.169	673.54167
2087.849	677.875
2090.527	655.875
2093.203	664.54167
2095.877	682.54167
2098.55	678.20833
2101.22	684.875
2103.889	689.20833
2106.556	691.20833
2109.221	712.54167
2111.884	726.54167
2114.546	778.54167
2117.205	825.20833
2119.863	905.20833
2122.519	945.20833
2125.173	1002.20833
2127.825	1051.54167
2130.475	1060.54167
2133.124	1018.54167
2135.771	964.54167
2138.416	941.20833
2141.059	869.20833
2143.7	817.875
2146.339	783.54167
2148.977	747.875
2151.613	731.20833
2154.247	704.54167
2156.879	704.54167
2159.51	685.875
2162.138	670.54167
2164.765	673.875
2167.39	646.54167
2170.013	661.54167
2172.634	655.54167
2175.254	639.20833
2177.872	666.20833
2180.488	609.54167
2183.102	642.875
2185.714	613.20833
2188.325	596.875
2190.934	608.54167
2193.541	610.20833
2196.146	599.20833
2198.75	591.20833
2201.351	590.54167
2203.951	583.875
2206.549	600.54167
2209.146	579.20833
2211.74	581.54167
2214.333	573.54167
2216.924	558.54167
2219.514	578.875
2222.101	577.54167
2224.687	587.54167
2227.271	563.875
2229.853	558.875
2232.433	559.54167
2235.012	559.20833
2237.589	561.20833
2240.164	590.54167
2242.738	561.20833
2245.309	554.20833
2247.879	568.54167
2250.448	556.875
2253.014	550.20833
2255.579	537.20833
2258.142	541.875
2260.703	534.54167
2263.262	538.875
2265.82	531.875
2268.376	535.54167
2270.93	523.20833
2273.483	518.54167
2276.033	529.875
2278.583	515.54167
2281.13	533.20833
2283.675	508.54167
2286.219	519.20833
2288.761	512.20833
2291.302	520.54167
2293.841	533.54167
2296.377	502.20833
2298.913	509.54167
2301.446	527.54167
2303.978	517.875
2306.508	513.875
2309.037	509.54167
2311.563	520.54167
2314.088	512.20833
2316.612	497.875
2319.133	512.20833
2321.653	503.20833
2324.171	504.54167
2326.688	514.54167
2329.202	492.20833
2331.715	496.875
2334.227	494.54167
2336.736	498.20833
2339.244	493.875
2341.751	484.20833
2344.255	500.54167
2346.758	502.875
2349.259	479.20833
2351.759	491.54167
2354.257	492.20833
2356.753	481.54167
2359.247	490.54167
2361.74	496.875
2364.231	501.875
2366.721	485.54167
2369.209	486.54167
2371.695	487.875
2374.179	482.54167
2376.662	465.54167
2379.143	496.54167
2381.622	480.875
2384.1	482.875
2386.576	473.54167
2389.051	494.20833
2391.524	496.20833
2393.995	481.875
2396.464	478.54167
2398.932	480.875
2401.398	480.20833
2403.863	477.875
2406.325	470.20833
2408.787	468.54167
2411.246	484.875
2413.704	478.54167
2416.16	482.54167
2418.615	469.20833
2421.068	482.54167
2423.519	486.20833
2425.969	477.54167
2428.417	481.875
2430.863	499.20833
2433.308	486.20833
2435.751	476.20833
2438.193	473.875
2440.633	479.20833
2443.071	476.54167
2445.508	470.20833
2447.943	478.875
2450.376	477.875
2452.808	470.20833
2455.238	463.20833
2457.667	510.54167
2460.093	478.875
2462.519	461.54167
2464.942	477.875
2467.365	483.20833
2469.785	484.875
2472.204	480.875
2474.621	467.54167
2477.037	493.20833
2479.451	450.875
2481.863	455.875
2484.274	470.20833
2486.683	466.875
2489.091	476.20833
2491.497	469.875
2493.901	475.20833
2496.304	473.875
2498.705	485.54167
2501.105	475.20833
2503.503	494.20833
2505.899	461.20833
2508.294	485.20833
2510.687	476.54167
2513.079	469.54167
2515.469	458.54167
2517.858	472.875
2520.245	482.20833
2522.63	466.20833
2525.014	467.54167
2527.396	456.20833
2529.776	452.875
2532.156	473.54167
2534.533	461.20833
2536.909	463.54167
2539.283	454.20833
2541.656	459.20833
2544.027	475.875
2546.397	465.875
2548.765	463.54167
2551.131	467.875
2553.496	462.54167
2555.86	463.875
2558.221	465.20833
2560.582	463.20833
2562.94	446.54167
2565.298	465.875
2567.653	479.875
2570.007	457.54167
2572.36	482.875
2574.711	458.20833
2577.06	477.54167
2579.408	480.875
2581.754	472.20833
2584.099	473.875
2586.442	472.54167
2588.784	479.20833
2591.124	469.875
2593.463	469.20833
2595.8	477.54167
2598.135	466.54167
2600.469	469.875
2602.802	484.20833
2605.133	484.875
2607.462	463.54167
2609.79	456.875
2612.116	472.54167
2614.441	472.875
2616.764	479.20833
2619.086	478.20833
2621.406	465.875
2623.725	484.54167
2626.042	484.875
2628.358	463.20833
2630.672	468.875
2632.985	491.54167
2635.296	481.20833
2637.606	486.54167
2639.914	467.20833
2642.22	478.875
2644.525	484.54167
2646.829	484.54167
2649.131	500.54167
2651.432	499.20833
2653.731	482.20833
2656.028	500.20833
2658.324	500.54167
2660.619	489.875
2662.912	496.20833
2665.204	481.54167
2667.494	494.20833
2669.782	487.875
2672.07	502.875
2674.355	504.54167
2676.639	490.20833
2678.922	493.20833
2681.203	493.875
2683.483	493.20833
2685.761	490.54167
2688.038	506.54167
2690.313	523.875
2692.587	504.875
2694.859	505.54167
2697.13	508.875
2699.399	517.20833
2701.667	529.875
2703.933	511.20833
2706.198	523.20833
2708.461	532.875
2710.723	535.875
2712.984	533.20833
2715.243	528.20833
2717.5	524.54167
2719.757	542.20833
2722.011	529.54167
2724.264	542.20833
2726.516	558.20833
2728.766	552.875
2731.015	544.54167
2733.262	547.20833
2735.508	547.20833
2737.753	548.54167
2739.996	540.20833
2742.237	537.875
2744.477	544.875
2746.716	543.875
2748.953	538.54167
2751.189	550.20833
2753.423	534.54167
2755.656	521.875
2757.887	519.20833
2760.117	528.20833
2762.346	528.20833
2764.573	515.20833
2766.798	527.875
2769.022	529.54167
2771.245	539.54167
2773.467	523.875
2775.686	538.20833
2777.905	542.20833
2780.122	552.54167
2782.337	553.20833
2784.552	551.875
2786.764	542.875
2788.976	552.875
2791.186	546.54167
2793.394	570.20833
2795.601	567.20833
2797.807	576.20833
2800.011	590.875
2802.214	589.20833
2804.415	595.875
2806.615	586.875
2808.814	592.20833
2811.011	601.875
2813.206	600.54167
2815.401	623.54167
2817.594	607.875
2819.785	629.20833
2821.975	626.875
2824.164	630.20833
2826.351	641.20833
2828.537	656.54167
2830.722	661.20833
2832.905	669.875
2835.086	694.875
2837.267	725.54167
2839.445	730.54167
2841.623	741.875
2843.799	758.54167
2845.974	789.20833
2848.147	829.875
2850.319	835.875
2852.489	867.54167
2854.659	872.54167
2856.826	889.875
2858.993	918.54167
2861.158	898.875
2863.321	902.875
2865.483	914.54167
2867.644	913.54167
2869.804	912.875
2871.962	914.875
2874.118	908.20833
2876.274	916.54167
2878.428	908.54167
2880.58	894.875
2882.731	888.875
2884.881	907.54167
2887.03	897.54167
2889.177	902.20833
2891.322	920.20833
2893.467	906.54167
2895.61	908.20833
2897.751	929.20833
2899.892	918.54167
2902.03	938.54167
2904.168	942.20833
2906.304	933.875
2908.439	952.875
2910.572	943.54167
2912.704	947.875
2914.835	972.54167
2916.965	953.20833
2919.093	964.875
2921.219	947.20833
2923.345	962.20833
2925.469	945.54167
2927.591	938.20833
2929.712	915.875
2931.832	909.20833
2933.951	888.875
2936.068	877.54167
2938.184	852.54167
2940.299	837.875
2942.412	819.875
2944.524	799.54167
2946.634	798.54167
2948.744	750.54167
2950.851	772.875
2952.958	736.20833
2955.063	744.54167
2957.167	733.875
2959.269	701.54167
2961.371	734.20833
2963.471	692.20833
2965.569	703.20833
2967.666	673.20833
2969.762	668.54167
2971.857	654.875
2973.95	642.54167
2976.042	645.20833
2978.133	625.20833
2980.222	623.54167
2982.31	598.875
2984.396	577.20833
2986.482	587.20833
2988.566	586.54167
2990.648	575.875
2992.73	573.20833
2994.81	561.20833
2996.889	560.875
2998.966	564.875
3001.042	577.20833
3003.117	562.875
3005.191	564.20833
3007.263	570.54167
3009.334	545.875
3011.403	556.875
3013.472	528.20833
3015.539	537.54167
3017.604	546.54167
3019.669	505.54167
3021.732	515.54167
3023.794	520.54167
3025.854	510.20833
3027.914	515.20833
3029.971	513.875
3032.028	512.20833
3034.083	502.875
3036.137	497.875
3038.19	485.54167
3040.242	477.54167
3042.292	466.54167
3044.341	459.54167
3046.388	478.54167
3048.435	454.20833
3050.48	472.54167
3052.524	459.875
3054.566	449.20833
3056.607	452.875
3058.647	440.20833
3060.686	429.20833
3062.723	412.20833
3064.759	390.20833
3066.794	-1.45833
3068.828	1.54167
3070.86	3.875
