-0.839	486.45833
3.438	581.79167
7.711	166.125
11.981	58.45833
16.247	42.45833
20.509	53.125
24.768	45.125
29.024	57.125
33.276	44.79167
37.524	47.125
41.769	44.79167
46.01	33.79167
50.247	45.125
54.481	60.125
58.712	59.45833
62.939	49.79167
67.162	68.45833
71.382	56.79167
75.599	42.45833
79.812	58.45833
84.021	79.45833
88.227	60.45833
92.429	59.45833
96.628	55.45833
100.823	71.125
105.015	72.45833
109.204	71.125
113.388	74.79167
117.57	72.45833
121.748	88.45833
125.922	73.79167
130.093	94.79167
134.261	97.125
138.425	92.79167
142.585	139.125
146.742	122.79167
150.896	155.45833
155.046	182.45833
159.193	292.45833
163.336	487.79167
167.476	922.79167
171.613	1649.125
175.746	2808.45833
179.875	4133.79167
184.002	5407.125
188.124	6324.79167
192.244	6621.125
196.36	6567.79167
200.472	6367.45833
204.581	6119.125
208.687	6017.79167
212.79	5935.125
216.889	5937.45833
220.984	5907.45833
225.077	5918.45833
229.165	5910.45833
233.251	5933.125
237.333	5881.45833
241.412	5814.79167
245.487	5724.45833
249.559	5663.125
253.628	5627.79167
257.694	5588.125
261.756	5538.45833
265.814	5397.45833
269.87	5240.79167
273.922	5069.125
277.97	4965.125
282.016	4978.125
286.058	5019.79167
290.097	5106.79167
294.132	5164.45833
298.164	5098.79167
302.193	4870.45833
306.219	4493.125
310.241	4168.45833
314.26	3828.125
318.276	3603.45833
322.288	3427.79167
326.297	3262.125
330.303	3172.79167
334.305	3090.79167
338.305	3035.45833
342.301	2975.45833
346.294	2988.45833
350.283	2956.45833
354.269	2925.79167
358.252	2926.45833
362.232	2883.79167
366.209	2859.125
370.182	2851.79167
374.152	2851.45833
378.119	2863.125
382.083	2822.45833
386.043	2851.79167
390	2833.79167
393.954	2823.125
397.905	2809.125
401.852	2807.45833
405.797	2777.45833
409.738	2781.125
413.676	2752.125
417.61	2755.125
421.542	2740.125
425.47	2711.79167
429.396	2688.45833
433.318	2678.45833
437.236	2691.125
441.152	2711.125
445.065	2659.125
448.974	2652.79167
452.88	2613.45833
456.783	2606.45833
460.683	2589.125
464.58	2617.125
468.473	2613.125
472.364	2629.45833
476.251	2621.45833
480.135	2658.45833
484.016	2671.45833
487.894	2692.125
491.769	2693.125
495.641	2696.45833
499.509	2710.45833
503.375	2698.125
507.237	2699.125
511.096	2701.45833
514.952	2737.79167
518.805	2795.45833
522.655	2805.45833
526.502	2722.79167
530.346	2680.45833
534.187	2678.125
538.024	2679.125
541.859	2709.79167
545.69	2732.125
549.519	2722.45833
553.344	2688.45833
557.166	2657.79167
560.985	2600.125
564.802	2576.125
568.615	2542.45833
572.425	2517.79167
576.232	2496.79167
580.036	2492.125
583.836	2513.45833
587.634	2508.45833
591.429	2518.45833
595.221	2567.125
599.01	2588.79167
602.796	2620.125
606.578	2636.45833
610.358	2621.79167
614.135	2605.45833
617.909	2612.45833
621.679	2586.45833
625.447	2562.45833
629.212	2580.125
632.973	2569.45833
636.732	2565.45833
640.488	2533.45833
644.241	2534.79167
647.991	2521.79167
651.737	2525.45833
655.481	2514.45833
659.222	2488.45833
662.96	2500.45833
666.695	2530.79167
670.427	2559.45833
674.156	2553.79167
677.882	2532.125
681.605	2520.45833
685.325	2496.79167
689.043	2497.125
692.757	2497.45833
696.468	2494.45833
700.177	2503.79167
703.882	2466.45833
707.585	2456.79167
711.284	2469.125
714.981	2461.45833
718.675	2444.125
722.366	2459.45833
726.054	2459.125
729.739	2460.125
733.421	2462.45833
737.1	2442.125
740.777	2483.125
744.45	2499.125
748.121	2506.125
751.789	2564.125
755.453	2540.45833
759.115	2562.79167
762.774	2560.125
766.431	2581.79167
770.084	2626.79167
773.734	2629.125
777.382	2662.45833
781.027	2687.45833
784.669	2701.79167
788.308	2697.45833
791.944	2712.79167
795.577	2754.45833
799.208	2772.79167
802.835	2773.79167
806.46	2781.45833
810.082	2807.125
813.701	2801.125
817.317	2826.79167
820.931	2817.125
824.542	2825.125
828.149	2792.45833
831.754	2756.45833
835.357	2752.125
838.956	2757.79167
842.553	2752.45833
846.146	2734.79167
849.737	2707.45833
853.326	2727.79167
856.911	2697.45833
860.493	2755.125
864.073	2780.125
867.65	2800.45833
871.225	2846.125
874.796	2833.125
878.365	2843.125
881.931	2860.79167
885.494	2876.45833
889.054	2897.79167
892.612	2938.79167
896.166	2888.45833
899.719	2884.125
903.268	2835.45833
906.814	2802.79167
910.358	2755.79167
913.899	2730.125
917.438	2755.45833
920.973	2733.45833
924.506	2779.79167
928.036	2799.45833
931.564	2838.45833
935.088	2870.79167
938.61	2889.79167
942.129	2927.125
945.646	2984.45833
949.16	3038.125
952.671	3063.125
956.179	3083.125
959.685	3019.79167
963.188	3018.79167
966.688	3005.79167
970.185	2922.45833
973.68	2862.45833
977.173	2836.79167
980.662	2776.125
984.149	2783.125
987.633	2790.45833
991.114	2826.79167
994.593	2871.79167
998.069	2946.79167
1001.542	3035.125
1005.013	2973.125
1008.481	2829.125
1011.947	2766.125
1015.409	2752.125
1018.869	2728.79167
1022.327	2751.45833
1025.782	2718.45833
1029.234	2703.79167
1032.683	2684.79167
1036.13	2597.79167
1039.574	2515.45833
1043.016	2427.45833
1046.455	2386.79167
1049.891	2367.45833
1053.325	2392.125
1056.756	2388.125
1060.184	2407.79167
1063.61	2402.79167
1067.033	2425.125
1070.454	2408.79167
1073.872	2462.125
1077.287	2438.79167
1080.7	2468.45833
1084.11	2449.79167
1087.517	2445.125
1090.922	2404.125
1094.325	2370.79167
1097.724	2337.125
1101.122	2354.45833
1104.516	2337.79167
1107.908	2340.45833
1111.298	2388.45833
1114.684	2386.125
1118.069	2427.125
1121.45	2453.125
1124.83	2452.45833
1128.206	2466.79167
1131.58	2523.125
1134.951	2566.45833
1138.32	2622.45833
1141.687	2730.45833
1145.05	2778.45833
1148.412	2772.125
1151.77	2774.125
1155.126	2734.125
1158.48	2764.45833
1161.831	2775.79167
1165.18	2771.79167
1168.525	2826.79167
1171.869	2856.79167
1175.21	2842.45833
1178.548	2900.79167
1181.884	2936.45833
1185.217	2970.79167
1188.548	3033.45833
1191.877	3101.79167
1195.202	3193.79167
1198.526	3275.45833
1201.846	3251.125
1205.165	3262.79167
1208.48	3248.79167
1211.794	3222.125
1215.104	3243.45833
1218.413	3255.79167
1221.719	3232.79167
1225.022	3199.125
1228.323	3132.79167
1231.621	3114.79167
1234.917	3102.79167
1238.21	3128.45833
1241.501	3082.125
1244.79	3101.79167
1248.076	3102.79167
1251.359	3107.125
1254.64	3175.45833
1257.919	3202.45833
1261.195	3254.45833
1264.468	3301.79167
1267.74	3328.45833
1271.008	3351.45833
1274.275	3332.45833
1277.538	3309.45833
1280.8	3315.79167
1284.059	3291.125
1287.315	3348.79167
1290.569	3360.125
1293.821	3378.45833
1297.07	3380.125
1300.317	3401.45833
1303.562	3420.125
1306.803	3366.125
1310.043	3333.79167
1313.28	3344.45833
1316.515	3304.125
1319.747	3265.125
1322.977	3247.45833
1326.204	3218.79167
1329.429	3171.79167
1332.652	3166.125
1335.872	3145.79167
1339.09	3096.79167
1342.306	3075.79167
1345.519	3055.125
1348.729	3018.45833
1351.938	3015.125
1355.144	2983.45833
1358.347	2913.79167
1361.548	2922.79167
1364.747	2905.45833
1367.944	2901.79167
1371.138	2903.125
1374.329	2888.79167
1377.518	2945.79167
1380.705	2924.125
1383.89	2918.45833
1387.072	2820.125
1390.252	2721.45833
1393.429	2657.45833
1396.605	2566.79167
1399.777	2492.79167
1402.948	2467.125
1406.116	2450.45833
1409.282	2436.79167
1412.445	2453.45833
1415.606	2488.45833
1418.765	2507.45833
1421.921	2573.125
1425.075	2616.125
1428.227	2704.125
1431.376	2821.79167
1434.524	2904.125
1437.668	2983.125
1440.811	3023.45833
1443.951	3062.45833
1447.089	3043.125
1450.224	3025.79167
1453.357	2998.45833
1456.488	2984.45833
1459.617	2942.79167
1462.743	2902.125
1465.867	2825.45833
1468.989	2785.125
1472.108	2722.125
1475.225	2687.45833
1478.34	2634.79167
1481.453	2652.45833
1484.563	2633.45833
1487.671	2675.79167
1490.776	2715.79167
1493.88	2768.79167
1496.981	2801.45833
1500.08	2841.45833
1503.176	2859.79167
1506.271	2908.45833
1509.363	2950.45833
1512.452	2967.79167
1515.54	3009.45833
1518.625	3034.125
1521.708	3108.79167
1524.789	3204.45833
1527.867	3327.79167
1530.944	3495.125
1534.018	3646.125
1537.089	3812.79167
1540.159	3860.125
1543.226	3849.125
1546.291	3791.45833
1549.354	3695.45833
1552.415	3626.45833
1555.473	3530.79167
1558.529	3468.125
1561.583	3440.79167
1564.634	3411.125
1567.684	3394.79167
1570.731	3414.45833
1573.776	3439.79167
1576.819	3515.79167
1579.859	3537.125
1582.898	3571.79167
1585.934	3601.79167
1588.968	3626.79167
1591.999	3603.125
1595.029	3607.79167
1598.056	3623.79167
1601.081	3633.45833
1604.104	3626.79167
1607.125	3623.125
1610.144	3551.79167
1613.16	3447.79167
1616.174	3381.79167
1619.186	3291.125
1622.196	3220.45833
1625.203	3123.79167
1628.209	3072.79167
1631.212	3056.79167
1634.213	3021.79167
1637.212	3026.45833
1640.209	2992.125
1643.203	2917.79167
1646.196	2828.125
1649.186	2692.45833
1652.174	2642.125
1655.16	2553.79167
1658.144	2472.45833
1661.125	2353.45833
1664.105	2257.45833
1667.082	2164.79167
1670.057	2054.45833
1673.03	1925.79167
1676.001	1789.125
1678.97	1711.45833
1681.937	1593.79167
1684.901	1499.45833
1687.863	1461.45833
1690.824	1382.45833
1693.782	1376.45833
1696.738	1299.45833
1699.692	1285.125
1702.643	1248.125
1705.593	1245.79167
1708.54	1224.125
1711.486	1222.125
1714.429	1190.125
1717.37	1177.45833
1720.309	1155.79167
1723.246	1163.45833
1726.181	1134.125
1729.113	1139.125
1732.044	1123.125
1734.972	1117.125
1737.899	1112.45833
1740.823	1117.79167
1743.745	1092.125
1746.665	1066.45833
1749.583	1050.79167
1752.499	1043.125
1755.413	1032.125
1758.325	1013.45833
1761.235	991.125
1764.142	985.79167
1767.048	965.45833
1769.951	982.79167
1772.852	965.125
1775.752	954.79167
1778.649	952.125
1781.544	968.79167
1784.437	922.45833
1787.328	939.79167
1790.217	930.125
1793.104	904.45833
1795.989	918.45833
1798.872	902.45833
1801.753	917.125
1804.631	903.45833
1807.508	923.45833
1810.383	903.125
1813.255	898.45833
1816.126	899.45833
1818.994	902.45833
1821.861	884.79167
1824.725	888.79167
1827.587	891.79167
1830.448	877.79167
1833.306	851.125
1836.162	855.79167
1839.017	859.79167
1841.869	849.79167
1844.719	850.45833
1847.567	825.45833
1850.414	832.125
1853.258	838.45833
1856.1	852.125
1858.94	851.125
1861.778	829.45833
1864.614	834.79167
1867.448	841.79167
1870.28	816.125
1873.111	847.125
1875.939	834.45833
1878.765	835.79167
1881.589	831.125
1884.411	818.79167
1887.231	820.45833
1890.049	820.125
1892.865	826.125
1895.68	802.45833
1898.492	819.125
1901.302	806.45833
1904.11	801.125
1906.916	793.79167
1909.721	772.45833
1912.523	790.79167
1915.323	777.45833
1918.122	776.125
1920.918	785.79167
1923.712	786.45833
1926.505	773.125
1929.295	764.45833
1932.084	786.45833
1934.87	785.125
1937.655	774.125
1940.438	783.79167
1943.218	763.45833
1945.997	772.79167
1948.774	776.79167
1951.549	785.79167
1954.322	768.125
1957.093	766.45833
1959.862	757.125
1962.629	758.125
1965.394	752.125
1968.157	749.125
1970.918	747.125
1973.678	735.45833
1976.435	753.125
1979.19	746.45833
1981.944	730.125
1984.696	734.45833
1987.445	713.125
1990.193	719.45833
1992.939	734.125
1995.683	728.79167
1998.425	715.45833
2001.165	748.45833
2003.903	708.79167
2006.639	720.45833
2009.374	731.45833
2012.106	723.125
2014.837	706.45833
2017.566	720.45833
2020.292	722.79167
2023.017	715.125
2025.74	710.79167
2028.461	696.45833
2031.18	707.125
2033.898	693.45833
2036.613	701.125
2039.327	704.79167
2042.038	694.45833
2044.748	684.79167
2047.456	700.45833
2050.162	691.125
2052.866	686.125
2055.568	694.79167
2058.268	679.45833
2060.967	687.45833
2063.663	672.45833
2066.358	669.125
2069.051	675.45833
2071.742	680.125
2074.431	683.45833
2077.118	680.125
2079.804	658.125
2082.487	658.45833
2085.169	681.125
2087.849	685.79167
2090.527	669.79167
2093.203	665.45833
2095.877	687.125
2098.55	686.45833
2101.22	692.79167
2103.889	710.79167
2106.556	710.45833
2109.221	728.79167
2111.884	738.79167
2114.546	790.79167
2117.205	839.79167
2119.863	914.79167
2122.519	962.125
2125.173	1023.45833
2127.825	1056.45833
2130.475	1077.125
2133.124	1035.79167
2135.771	984.79167
2138.416	952.125
2141.059	889.45833
2143.7	849.79167
2146.339	808.125
2148.977	760.79167
2151.613	755.79167
2154.247	730.125
2156.879	709.125
2159.51	691.125
2162.138	688.45833
2164.765	668.45833
2167.39	655.45833
2170.013	683.45833
2172.634	680.125
2175.254	642.79167
2177.872	681.125
2180.488	638.45833
2183.102	635.45833
2185.714	625.125
2188.325	610.125
2190.934	617.125
2193.541	632.79167
2196.146	610.125
2198.75	598.79167
2201.351	601.125
2203.951	594.125
2206.549	605.79167
2209.146	599.125
2211.74	593.79167
2214.333	597.45833
2216.924	586.125
2219.514	584.45833
2222.101	574.79167
2224.687	592.45833
2227.271	575.125
2229.853	575.45833
2232.433	582.45833
2235.012	583.45833
2237.589	588.79167
2240.164	583.45833
2242.738	568.45833
2245.309	564.79167
2247.879	575.45833
2250.448	592.79167
2253.014	559.125
2255.579	542.45833
2258.142	551.125
2260.703	542.79167
2263.262	560.125
2265.82	538.125
2268.376	549.79167
2270.93	528.79167
2273.483	533.125
2276.033	538.79167
2278.583	531.79167
2281.13	522.45833
2283.675	528.45833
2286.219	524.79167
2288.761	522.79167
2291.302	528.45833
2293.841	539.125
2296.377	523.45833
2298.913	516.45833
2301.446	533.79167
2303.978	521.125
2306.508	513.79167
2309.037	510.79167
2311.563	526.125
2314.088	524.45833
2316.612	501.79167
2319.133	515.125
2321.653	513.45833
2324.171	508.45833
2326.688	526.125
2329.202	510.79167
2331.715	506.125
2334.227	508.45833
2336.736	508.79167
2339.244	492.45833
2341.751	484.45833
2344.255	516.45833
2346.758	492.125
2349.259	488.125
2351.759	499.125
2354.257	488.45833
2356.753	489.45833
2359.247	494.79167
2361.74	500.45833
2364.231	499.125
2366.721	504.125
2369.209	494.125
2371.695	498.125
2374.179	489.125
2376.662	478.79167
2379.143	498.125
2381.622	485.45833
2384.1	496.125
2386.576	481.125
2389.051	506.79167
2391.524	498.125
2393.995	502.125
2396.464	486.45833
2398.932	480.45833
2401.398	480.79167
2403.863	484.79167
2406.325	491.125
2408.787	485.125
2411.246	487.125
2413.704	482.125
2416.16	485.125
2418.615	486.79167
2421.068	494.45833
2423.519	491.79167
2425.969	482.125
2428.417	492.45833
2430.863	497.45833
2433.308	487.79167
2435.751	482.79167
2438.193	479.79167
2440.633	484.125
2443.071	493.125
2445.508	476.125
2447.943	467.79167
2450.376	472.45833
2452.808	476.45833
2455.238	469.79167
2457.667	512.79167
2460.093	474.45833
2462.519	472.79167
2464.942	481.79167
2467.365	477.79167
2469.785	484.125
2472.204	481.45833
2474.621	464.45833
2477.037	496.79167
2479.451	457.79167
2481.863	463.79167
2484.274	472.125
2486.683	477.45833
2489.091	479.125
2491.497	483.79167
2493.901	479.79167
2496.304	474.79167
2498.705	484.125
2501.105	474.125
2503.503	496.125
2505.899	452.79167
2508.294	494.125
2510.687	468.45833
2513.079	467.79167
2515.469	464.125
2517.858	472.125
2520.245	485.125
2522.63	470.45833
2525.014	460.45833
2527.396	474.45833
2529.776	467.45833
2532.156	478.45833
2534.533	462.45833
2536.909	457.125
2539.283	454.45833
2541.656	462.45833
2544.027	487.125
2546.397	468.79167
2548.765	463.125
2551.131	471.45833
2553.496	476.45833
2555.86	466.79167
2558.221	466.79167
2560.582	464.45833
2562.94	459.45833
2565.298	474.125
2567.653	492.79167
2570.007	458.125
2572.36	477.45833
2574.711	458.45833
2577.06	482.79167
2579.408	471.125
2581.754	470.125
2584.099	472.45833
2586.442	470.45833
2588.784	476.125
2591.124	474.45833
2593.463	477.45833
2595.8	471.125
2598.135	462.45833
2600.469	472.79167
2602.802	476.125
2605.133	482.79167
2607.462	460.45833
2609.79	463.79167
2612.116	480.45833
2614.441	479.45833
2616.764	488.45833
2619.086	477.45833
2621.406	469.79167
2623.725	480.45833
2626.042	486.45833
2628.358	468.125
2630.672	474.45833
2632.985	488.79167
2635.296	474.79167
2637.606	484.79167
2639.914	472.45833
2642.22	484.79167
2644.525	487.45833
2646.829	473.79167
2649.131	495.45833
2651.432	507.79167
2653.731	491.45833
2656.028	503.45833
2658.324	511.125
2660.619	485.45833
2662.912	498.125
2665.204	488.45833
2667.494	504.45833
2669.782	495.125
2672.07	502.125
2674.355	500.79167
2676.639	493.45833
2678.922	498.125
2681.203	499.79167
2683.483	489.79167
2685.761	493.125
2688.038	509.79167
2690.313	514.125
2692.587	519.79167
2694.859	502.125
2697.13	509.45833
2699.399	521.79167
2701.667	523.125
2703.933	521.79167
2706.198	520.79167
2708.461	525.79167
2710.723	535.79167
2712.984	529.125
2715.243	528.79167
2717.5	521.45833
2719.757	551.125
2722.011	538.125
2724.264	551.79167
2726.516	554.125
2728.766	538.125
2731.015	545.125
2733.262	544.125
2735.508	554.79167
2737.753	546.79167
2739.996	534.79167
2742.237	531.125
2744.477	549.45833
2746.716	545.79167
2748.953	533.125
2751.189	534.45833
2753.423	530.79167
2755.656	524.125
2757.887	525.125
2760.117	528.45833
2762.346	519.45833
2764.573	520.125
2766.798	525.45833
2769.022	523.79167
2771.245	530.125
2773.467	530.79167
2775.686	537.125
2777.905	544.45833
2780.122	545.79167
2782.337	557.79167
2784.552	550.125
2786.764	554.125
2788.976	546.79167
2791.186	556.79167
2793.394	561.45833
2795.601	564.79167
2797.807	579.125
2800.011	588.45833
2802.214	586.79167
2804.415	586.79167
2806.615	592.79167
2808.814	590.45833
2811.011	604.79167
2813.206	596.45833
2815.401	618.45833
2817.594	621.125
2819.785	635.45833
2821.975	609.125
2824.164	622.125
2826.351	637.79167
2828.537	653.45833
2830.722	672.125
2832.905	668.125
2835.086	677.45833
2837.267	710.79167
2839.445	736.45833
2841.623	748.125
2843.799	776.79167
2845.974	801.45833
2848.147	819.45833
2850.319	840.79167
2852.489	851.79167
2854.659	884.79167
2856.826	886.45833
2858.993	910.45833
2861.158	888.45833
2863.321	895.125
2865.483	910.125
2867.644	909.125
2869.804	912.79167
2871.962	895.125
2874.118	904.79167
2876.274	907.79167
2878.428	901.79167
2880.58	889.45833
2882.731	883.45833
2884.881	893.79167
2887.03	903.45833
2889.177	907.125
2891.322	912.45833
2893.467	893.45833
2895.61	905.79167
2897.751	926.125
2899.892	921.45833
2902.03	933.125
2904.168	938.125
2906.304	924.79167
2908.439	965.125
2910.572	937.45833
2912.704	959.79167
2914.835	949.79167
2916.965	942.45833
2919.093	962.125
2921.219	937.45833
2923.345	950.45833
2925.469	927.79167
2927.591	929.45833
2929.712	910.125
2931.832	903.45833
2933.951	884.79167
2936.068	873.45833
2938.184	863.125
2940.299	837.45833
2942.412	825.79167
2944.524	786.45833
2946.634	782.79167
2948.744	744.125
2950.851	767.79167
2952.958	729.45833
2955.063	737.125
2957.167	734.79167
2959.269	698.45833
2961.371	720.125
2963.471	685.45833
2965.569	697.79167
2967.666	660.79167
2969.762	671.125
2971.857	653.79167
2973.95	631.45833
2976.042	640.45833
2978.133	628.125
2980.222	613.125
2982.31	590.125
2984.396	580.125
2986.482	580.79167
2988.566	576.45833
2990.648	575.79167
2992.73	570.79167
2994.81	558.125
2996.889	569.79167
2998.966	567.125
3001.042	568.79167
3003.117	565.125
3005.191	561.125
3007.263	556.45833
3009.334	549.79167
3011.403	548.79167
3013.472	534.79167
3015.539	536.45833
3017.604	549.79167
3019.669	505.79167
3021.732	509.45833
3023.794	508.79167
3025.854	506.79167
3027.914	510.79167
3029.971	511.125
3032.028	503.79167
3034.083	500.125
3036.137	493.79167
3038.19	482.45833
3040.242	472.125
3042.292	459.79167
3044.341	456.125
3046.388	471.79167
3048.435	450.125
3050.48	464.79167
3052.524	451.125
3054.566	432.79167
3056.607	447.125
3058.647	437.125
3060.686	418.125
3062.723	412.79167
3064.759	389.79167
3066.794	-0.54167
3068.828	3.125
3070.86	5.45833
