-0.839	594.5
3.438	700.83333
7.711	205.16667
11.981	65.16667
16.247	45.5
20.509	47.5
24.768	46.83333
29.024	55.83333
33.276	42.83333
37.524	48.83333
41.769	45.16667
46.01	35.16667
50.247	44.83333
54.481	55.83333
58.712	65.16667
62.939	48.16667
67.162	62.16667
71.382	59.16667
75.599	46.5
79.812	63.83333
84.021	73.83333
88.227	61.16667
92.429	59.83333
96.628	51.5
100.823	68.5
105.015	76.16667
109.204	62.83333
113.388	72.16667
117.57	73.83333
121.748	83.83333
125.922	73.16667
130.093	92.83333
134.261	94.5
138.425	96.16667
142.585	129.5
146.742	119.16667
150.896	148.5
155.046	196.5
159.193	300.5
163.336	491.16667
167.476	919.83333
171.613	1687.5
175.746	2787.5
179.875	4146.16667
184.002	5423.16667
188.124	6296.16667
192.244	6561.5
196.36	6476.5
200.472	6237.5
204.581	6056.5
208.687	5831.83333
212.79	5762.16667
216.889	5686.5
220.984	5695.16667
225.077	5617.5
229.165	5615.83333
233.251	5564.83333
237.333	5518.5
241.412	5437.5
245.487	5409.83333
249.559	5343.5
253.628	5278.83333
257.694	5244.83333
261.756	5215.83333
265.814	5121.16667
269.87	4980.16667
273.922	4819.83333
277.97	4749.16667
282.016	4707.83333
286.058	4745.5
290.097	4853.5
294.132	4965.5
298.164	4916.16667
302.193	4698.83333
306.219	4385.83333
310.241	4029.83333
314.26	3733.16667
318.276	3454.16667
322.288	3272.83333
326.297	3112.83333
330.303	3007.5
334.305	2961.16667
338.305	2891.5
342.301	2871.83333
346.294	2829.5
350.283	2810.83333
354.269	2785.16667
358.252	2768.5
362.232	2752.83333
366.209	2746.16667
370.182	2694.5
374.152	2705.16667
378.119	2709.16667
382.083	2694.83333
386.043	2687.16667
390	2685.83333
393.954	2673.16667
397.905	2683.5
401.852	2674.5
405.797	2648.16667
409.738	2626.5
413.676	2626.83333
417.61	2632.83333
421.542	2577.83333
425.47	2583.83333
429.396	2562.83333
433.318	2550.16667
437.236	2540.83333
441.152	2568.5
445.065	2516.5
448.974	2511.5
452.88	2482.83333
456.783	2500.83333
460.683	2451.5
464.58	2461.83333
468.473	2462.16667
472.364	2473.83333
476.251	2467.83333
480.135	2508.5
484.016	2549.16667
487.894	2548.83333
491.769	2566.5
495.641	2550.83333
499.509	2570.16667
503.375	2564.83333
507.237	2565.16667
511.096	2540.16667
514.952	2532.16667
518.805	2542.5
522.655	2565.83333
526.502	2533.83333
530.346	2547.16667
534.187	2565.5
538.024	2603.16667
541.859	2582.5
545.69	2627.5
549.519	2600.83333
553.344	2575.83333
557.166	2553.5
560.985	2497.16667
564.802	2470.5
568.615	2403.5
572.425	2381.83333
576.232	2363.83333
580.036	2373.83333
583.836	2376.16667
587.634	2406.5
591.429	2404.5
595.221	2439.16667
599.01	2464.16667
602.796	2495.5
606.578	2512.16667
610.358	2515.16667
614.135	2475.5
617.909	2479.16667
621.679	2435.83333
625.447	2447.16667
629.212	2431.5
632.973	2427.5
636.732	2403.16667
640.488	2413.5
644.241	2403.5
647.991	2379.5
651.737	2417.5
655.481	2387.16667
659.222	2384.5
662.96	2388.5
666.695	2408.16667
670.427	2426.83333
674.156	2434.83333
677.882	2410.16667
681.605	2414.83333
685.325	2387.16667
689.043	2378.16667
692.757	2358.16667
696.468	2380.83333
700.177	2374.16667
703.882	2331.16667
707.585	2309.83333
711.284	2324.83333
714.981	2322.83333
718.675	2330.16667
722.366	2353.5
726.054	2314.83333
729.739	2326.83333
733.421	2322.83333
737.1	2329.83333
740.777	2335.16667
744.45	2362.83333
748.121	2379.83333
751.789	2402.5
755.453	2411.83333
759.115	2405.5
762.774	2424.83333
766.431	2445.83333
770.084	2481.5
773.734	2489.5
777.382	2539.16667
781.027	2522.83333
784.669	2559.16667
788.308	2558.5
791.944	2585.16667
795.577	2582.16667
799.208	2605.83333
802.835	2616.16667
806.46	2638.5
810.082	2634.5
813.701	2646.16667
817.317	2645.83333
820.931	2659.16667
824.542	2645.5
828.149	2615.5
831.754	2616.83333
835.357	2596.5
838.956	2610.16667
842.553	2604.16667
846.146	2573.83333
849.737	2544.5
853.326	2557.83333
856.911	2549.83333
860.493	2596.5
864.073	2602.83333
867.65	2639.5
871.225	2676.5
874.796	2671.16667
878.365	2683.5
881.931	2689.83333
885.494	2725.5
889.054	2711.5
892.612	2764.83333
896.166	2724.5
899.719	2702.5
903.268	2668.83333
906.814	2640.5
910.358	2608.83333
913.899	2575.83333
917.438	2580.83333
920.973	2564.16667
924.506	2602.16667
928.036	2641.16667
931.564	2676.83333
935.088	2718.5
938.61	2718.16667
942.129	2757.16667
945.646	2844.83333
949.16	2883.5
952.671	2926.83333
956.179	2916.16667
959.685	2880.16667
963.188	2857.83333
966.688	2836.83333
970.185	2747.16667
973.68	2690.16667
977.173	2645.5
980.662	2587.5
984.149	2579.16667
987.633	2564.83333
991.114	2625.16667
994.593	2641.16667
998.069	2708.16667
1001.542	2789.5
1005.013	2742.16667
1008.481	2607.16667
1011.947	2550.16667
1015.409	2563.83333
1018.869	2553.16667
1022.327	2537.16667
1025.782	2527.83333
1029.234	2536.16667
1032.683	2510.5
1036.13	2426.5
1039.574	2325.5
1043.016	2286.83333
1046.455	2240.16667
1049.891	2235.83333
1053.325	2231.5
1056.756	2231.5
1060.184	2247.16667
1063.61	2257.16667
1067.033	2268.83333
1070.454	2272.16667
1073.872	2304.16667
1077.287	2279.16667
1080.7	2286.16667
1084.11	2287.83333
1087.517	2261.16667
1090.922	2236.83333
1094.325	2218.16667
1097.724	2198.5
1101.122	2210.16667
1104.516	2214.83333
1107.908	2192.83333
1111.298	2238.5
1114.684	2270.83333
1118.069	2290.5
1121.45	2316.83333
1124.83	2321.16667
1128.206	2331.16667
1131.58	2382.16667
1134.951	2430.83333
1138.32	2514.83333
1141.687	2619.5
1145.05	2644.83333
1148.412	2660.5
1151.77	2644.16667
1155.126	2632.83333
1158.48	2607.16667
1161.831	2603.83333
1165.18	2606.16667
1168.525	2674.83333
1171.869	2702.5
1175.21	2688.83333
1178.548	2743.83333
1181.884	2799.5
1185.217	2802.16667
1188.548	2892.5
1191.877	2930.16667
1195.202	3019.16667
1198.526	3068.83333
1201.846	3105.16667
1205.165	3101.5
1208.48	3098.83333
1211.794	3077.16667
1215.104	3081.83333
1218.413	3091.5
1221.719	3083.83333
1225.022	3032.83333
1228.323	2978.5
1231.621	2930.16667
1234.917	2932.5
1238.21	2944.83333
1241.501	2909.83333
1244.79	2879.83333
1248.076	2886.16667
1251.359	2925.83333
1254.64	2978.83333
1257.919	2999.5
1261.195	3044.5
1264.468	3114.5
1267.74	3139.16667
1271.008	3154.5
1274.275	3136.83333
1277.538	3132.16667
1280.8	3127.5
1284.059	3122.16667
1287.315	3127.5
1290.569	3169.16667
1293.821	3162.83333
1297.07	3204.16667
1300.317	3211.16667
1303.562	3219.5
1306.803	3178.5
1310.043	3183.16667
1313.28	3128.16667
1316.515	3127.5
1319.747	3128.16667
1322.977	3082.16667
1326.204	3050.83333
1329.429	3013.16667
1332.652	2987.5
1335.872	2969.16667
1339.09	2921.83333
1342.306	2900.16667
1345.519	2834.16667
1348.729	2806.83333
1351.938	2798.83333
1355.144	2717.5
1358.347	2736.5
1361.548	2714.16667
1364.747	2690.83333
1367.944	2688.16667
1371.138	2694.83333
1374.329	2693.16667
1377.518	2749.16667
1380.705	2770.83333
1383.89	2739.5
1387.072	2648.5
1390.252	2553.83333
1393.429	2468.16667
1396.605	2391.83333
1399.777	2311.16667
1402.948	2304.16667
1406.116	2297.16667
1409.282	2295.83333
1412.445	2303.83333
1415.606	2323.5
1418.765	2363.83333
1421.921	2416.16667
1425.075	2458.5
1428.227	2522.5
1431.376	2626.16667
1434.524	2719.16667
1437.668	2791.16667
1440.811	2827.83333
1443.951	2851.83333
1447.089	2875.16667
1450.224	2880.16667
1453.357	2826.83333
1456.488	2810.16667
1459.617	2776.83333
1462.743	2738.83333
1465.867	2651.5
1468.989	2623.5
1472.108	2569.16667
1475.225	2536.83333
1478.34	2483.83333
1481.453	2495.5
1484.563	2512.83333
1487.671	2547.5
1490.776	2543.16667
1493.88	2605.83333
1496.981	2636.5
1500.08	2666.83333
1503.176	2716.16667
1506.271	2738.83333
1509.363	2781.83333
1512.452	2806.5
1515.54	2814.5
1518.625	2861.16667
1521.708	2929.16667
1524.789	3003.16667
1527.867	3115.83333
1530.944	3249.5
1534.018	3393.5
1537.089	3538.5
1540.159	3581.83333
1543.226	3547.16667
1546.291	3483.83333
1549.354	3426.16667
1552.415	3341.5
1555.473	3288.16667
1558.529	3223.83333
1561.583	3185.16667
1564.634	3178.16667
1567.684	3187.83333
1570.731	3181.5
1573.776	3241.5
1576.819	3254.16667
1579.859	3300.16667
1582.898	3326.16667
1585.934	3370.83333
1588.968	3359.83333
1591.999	3362.16667
1595.029	3393.83333
1598.056	3433.5
1601.081	3460.16667
1604.104	3440.16667
1607.125	3413.16667
1610.144	3336.16667
1613.16	3261.5
1616.174	3198.16667
1619.186	3111.5
1622.196	3032.16667
1625.203	2958.16667
1628.209	2878.83333
1631.212	2864.16667
1634.213	2840.16667
1637.212	2821.16667
1640.209	2780.16667
1643.203	2690.83333
1646.196	2600.5
1649.186	2493.83333
1652.174	2418.83333
1655.16	2356.16667
1658.144	2249.83333
1661.125	2174.83333
1664.105	2096.83333
1667.082	2002.5
1670.057	1911.83333
1673.03	1789.83333
1676.001	1671.16667
1678.97	1589.5
1681.937	1466.83333
1684.901	1395.16667
1687.863	1356.16667
1690.824	1277.5
1693.782	1254.16667
1696.738	1214.83333
1699.692	1191.16667
1702.643	1145.5
1705.593	1136.16667
1708.54	1132.5
1711.486	1118.5
1714.429	1081.5
1717.37	1089.5
1720.309	1055.5
1723.246	1069.83333
1726.181	1032.83333
1729.113	1041.83333
1732.044	1011.16667
1734.972	1016.16667
1737.899	1020.5
1740.823	1025.16667
1743.745	988.5
1746.665	973.5
1749.583	958.16667
1752.499	948.5
1755.413	942.83333
1758.325	922.5
1761.235	911.16667
1764.142	907.5
1767.048	884.5
1769.951	890.5
1772.852	881.16667
1775.752	873.83333
1778.649	869.83333
1781.544	878.5
1784.437	852.5
1787.328	863.16667
1790.217	846.5
1793.104	829.16667
1795.989	825.83333
1798.872	812.5
1801.753	823.16667
1804.631	824.83333
1807.508	841.16667
1810.383	826.83333
1813.255	809.16667
1816.126	817.83333
1818.994	808.16667
1821.861	806.5
1824.725	793.83333
1827.587	805.5
1830.448	783.5
1833.306	784.83333
1836.162	776.16667
1839.017	772.5
1841.869	776.83333
1844.719	776.16667
1847.567	746.16667
1850.414	751.5
1853.258	752.83333
1856.1	775.16667
1858.94	772.16667
1861.778	767.16667
1864.614	748.5
1867.448	738.5
1870.28	739.5
1873.111	769.16667
1875.939	756.83333
1878.765	757.5
1881.589	742.83333
1884.411	743.5
1887.231	746.5
1890.049	736.5
1892.865	731.5
1895.68	731.16667
1898.492	734.83333
1901.302	728.5
1904.11	723.83333
1906.916	706.83333
1909.721	694.5
1912.523	713.83333
1915.323	707.5
1918.122	701.5
1920.918	715.5
1923.712	701.16667
1926.505	690.16667
1929.295	684.5
1932.084	708.5
1934.87	704.16667
1937.655	691.5
1940.438	684.83333
1943.218	690.16667
1945.997	689.16667
1948.774	702.83333
1951.549	686.83333
1954.322	682.83333
1957.093	686.5
1959.862	670.5
1962.629	664.5
1965.394	671.5
1968.157	658.5
1970.918	668.5
1973.678	648.5
1976.435	664.83333
1979.19	656.16667
1981.944	639.83333
1984.696	637.5
1987.445	640.5
1990.193	642.16667
1992.939	660.83333
1995.683	640.5
1998.425	623.16667
2001.165	656.16667
2003.903	639.83333
2006.639	638.16667
2009.374	641.16667
2012.106	630.83333
2014.837	618.5
2017.566	635.16667
2020.292	623.5
2023.017	631.83333
2025.74	625.16667
2028.461	617.16667
2031.18	611.5
2033.898	599.5
2036.613	618.16667
2039.327	616.5
2042.038	599.83333
2044.748	606.83333
2047.456	606.83333
2050.162	595.5
2052.866	602.5
2055.568	615.16667
2058.268	593.83333
2060.967	597.16667
2063.663	578.83333
2066.358	593.83333
2069.051	591.83333
2071.742	585.5
2074.431	599.16667
2077.118	587.5
2079.804	580.83333
2082.487	581.16667
2085.169	599.83333
2087.849	607.83333
2090.527	576.83333
2093.203	581.5
2095.877	592.5
2098.55	583.5
2101.22	597.5
2103.889	612.5
2106.556	596.83333
2109.221	612.5
2111.884	620.16667
2114.546	664.83333
2117.205	699.16667
2119.863	758.16667
2122.519	787.5
2125.173	827.16667
2127.825	874.83333
2130.475	882.16667
2133.124	837.83333
2135.771	796.5
2138.416	772.5
2141.059	716.16667
2143.7	687.16667
2146.339	651.83333
2148.977	610.16667
2151.613	604.5
2154.247	602.83333
2156.879	580.83333
2159.51	568.83333
2162.138	564.5
2164.765	567.16667
2167.39	538.5
2170.013	557.5
2172.634	554.5
2175.254	548.5
2177.872	566.5
2180.488	529.16667
2183.102	547.16667
2185.714	530.16667
2188.325	505.16667
2190.934	522.5
2193.541	517.5
2196.146	521.16667
2198.75	497.5
2201.351	511.5
2203.951	486.16667
2206.549	514.83333
2209.146	495.83333
2211.74	490.5
2214.333	506.5
2216.924	488.16667
2219.514	484.5
2222.101	486.83333
2224.687	496.5
2227.271	478.83333
2229.853	470.83333
2232.433	468.16667
2235.012	479.83333
2237.589	483.5
2240.164	495.5
2242.738	475.5
2245.309	464.16667
2247.879	467.5
2250.448	486.5
2253.014	458.16667
2255.579	445.16667
2258.142	457.5
2260.703	446.16667
2263.262	456.16667
2265.82	442.5
2268.376	452.16667
2270.93	428.16667
2273.483	431.83333
2276.033	436.16667
2278.583	426.83333
2281.13	435.83333
2283.675	423.83333
2286.219	422.83333
2288.761	422.16667
2291.302	429.16667
2293.841	428.5
2296.377	410.5
2298.913	421.5
2301.446	439.5
2303.978	424.83333
2306.508	415.16667
2309.037	414.5
2311.563	420.5
2314.088	423.16667
2316.612	401.83333
2319.133	411.83333
2321.653	408.5
2324.171	408.83333
2326.688	412.83333
2329.202	403.5
2331.715	400.5
2334.227	403.16667
2336.736	409.5
2339.244	393.16667
2341.751	390.83333
2344.255	403.83333
2346.758	396.83333
2349.259	382.5
2351.759	392.16667
2354.257	384.5
2356.753	381.16667
2359.247	387.16667
2361.74	394.5
2364.231	385.83333
2366.721	393.83333
2369.209	382.5
2371.695	388.5
2374.179	375.16667
2376.662	371.83333
2379.143	382.5
2381.622	379.16667
2384.1	381.83333
2386.576	370.16667
2389.051	392.83333
2391.524	393.5
2393.995	387.83333
2396.464	374.5
2398.932	371.16667
2401.398	363.83333
2403.863	367.5
2406.325	368.5
2408.787	368.5
2411.246	369.16667
2413.704	357.5
2416.16	355.5
2418.615	364.16667
2421.068	370.5
2423.519	374.16667
2425.969	353.83333
2428.417	373.83333
2430.863	378.83333
2433.308	365.5
2435.751	362.83333
2438.193	356.16667
2440.633	363.83333
2443.071	366.83333
2445.508	353.83333
2447.943	350.16667
2450.376	343.83333
2452.808	349.16667
2455.238	348.16667
2457.667	385.16667
2460.093	347.83333
2462.519	351.5
2464.942	347.16667
2467.365	358.83333
2469.785	358.5
2472.204	352.16667
2474.621	334.83333
2477.037	361.83333
2479.451	334.16667
2481.863	341.16667
2484.274	332.83333
2486.683	336.83333
2489.091	347.16667
2491.497	341.83333
2493.901	352.83333
2496.304	339.83333
2498.705	352.16667
2501.105	337.16667
2503.503	364.5
2505.899	322.83333
2508.294	355.5
2510.687	338.5
2513.079	332.83333
2515.469	325.83333
2517.858	329.5
2520.245	342.5
2522.63	329.16667
2525.014	328.5
2527.396	325.5
2529.776	318.5
2532.156	340.5
2534.533	320.83333
2536.909	321.5
2539.283	316.16667
2541.656	318.5
2544.027	342.5
2546.397	320.5
2548.765	319.16667
2551.131	327.5
2553.496	325.83333
2555.86	329.16667
2558.221	320.5
2560.582	316.5
2562.94	315.83333
2565.298	321.83333
2567.653	338.83333
2570.007	312.16667
2572.36	325.83333
2574.711	305.83333
2577.06	335.5
2579.408	329.5
2581.754	317.16667
2584.099	314.83333
2586.442	308.83333
2588.784	322.16667
2591.124	321.83333
2593.463	308.16667
2595.8	316.16667
2598.135	302.5
2600.469	306.16667
2602.802	322.16667
2605.133	327.5
2607.462	310.5
2609.79	297.5
2612.116	311.5
2614.441	317.83333
2616.764	311.16667
2619.086	311.16667
2621.406	296.5
2623.725	317.83333
2626.042	319.83333
2628.358	309.16667
2630.672	305.83333
2632.985	320.5
2635.296	310.83333
2637.606	308.5
2639.914	297.83333
2642.22	303.16667
2644.525	312.16667
2646.829	318.16667
2649.131	318.5
2651.432	316.16667
2653.731	305.5
2656.028	319.16667
2658.324	325.16667
2660.619	312.83333
2662.912	317.5
2665.204	304.16667
2667.494	318.16667
2669.782	301.16667
2672.07	316.83333
2674.355	318.83333
2676.639	311.5
2678.922	301.5
2681.203	314.16667
2683.483	307.5
2685.761	305.16667
2688.038	314.83333
2690.313	331.5
2692.587	316.83333
2694.859	302.83333
2697.13	317.16667
2699.399	321.16667
2701.667	329.83333
2703.933	328.83333
2706.198	324.5
2708.461	325.83333
2710.723	327.5
2712.984	329.16667
2715.243	337.5
2717.5	321.83333
2719.757	336.83333
2722.011	327.5
2724.264	332.5
2726.516	348.83333
2728.766	328.5
2731.015	344.16667
2733.262	337.83333
2735.508	339.16667
2737.753	344.5
2739.996	325.83333
2742.237	329.83333
2744.477	334.83333
2746.716	336.5
2748.953	327.16667
2751.189	329.16667
2753.423	326.16667
2755.656	319.5
2757.887	320.16667
2760.117	307.16667
2762.346	303.5
2764.573	307.16667
2766.798	306.5
2769.022	307.83333
2771.245	316.83333
2773.467	317.16667
2775.686	325.5
2777.905	323.16667
2780.122	326.5
2782.337	326.83333
2784.552	331.5
2786.764	329.83333
2788.976	332.16667
2791.186	328.5
2793.394	330.16667
2795.601	337.83333
2797.807	354.83333
2800.011	349.16667
2802.214	356.83333
2804.415	355.16667
2806.615	362.5
2808.814	359.16667
2811.011	362.16667
2813.206	364.16667
2815.401	377.83333
2817.594	382.83333
2819.785	385.16667
2821.975	375.83333
2824.164	385.83333
2826.351	392.5
2828.537	410.5
2830.722	414.5
2832.905	418.83333
2835.086	445.83333
2837.267	466.16667
2839.445	479.16667
2841.623	490.5
2843.799	519.16667
2845.974	533.5
2848.147	561.83333
2850.319	577.5
2852.489	611.16667
2854.659	615.16667
2856.826	621.83333
2858.993	661.5
2861.158	616.16667
2863.321	631.5
2865.483	648.83333
2867.644	646.83333
2869.804	634.83333
2871.962	642.83333
2874.118	643.83333
2876.274	648.83333
2878.428	644.5
2880.58	634.5
2882.731	632.16667
2884.881	645.16667
2887.03	646.83333
2889.177	632.83333
2891.322	662.83333
2893.467	650.16667
2895.61	637.83333
2897.751	678.83333
2899.892	666.5
2902.03	656.16667
2904.168	674.83333
2906.304	669.16667
2908.439	684.83333
2910.572	658.83333
2912.704	688.16667
2914.835	685.83333
2916.965	687.83333
2919.093	694.83333
2921.219	670.83333
2923.345	699.83333
2925.469	656.83333
2927.591	669.83333
2929.712	637.83333
2931.832	645.5
2933.951	619.16667
2936.068	615.16667
2938.184	605.83333
2940.299	587.5
2942.412	574.83333
2944.524	536.5
2946.634	542.16667
2948.744	496.83333
2950.851	525.83333
2952.958	485.83333
2955.063	484.5
2957.167	482.83333
2959.269	441.83333
2961.371	473.16667
2963.471	431.5
2965.569	451.83333
2967.666	419.16667
2969.762	418.83333
2971.857	409.16667
2973.95	385.5
2976.042	397.16667
2978.133	379.83333
2980.222	364.83333
2982.31	352.5
2984.396	339.5
2986.482	342.16667
2988.566	340.83333
2990.648	339.83333
2992.73	326.83333
2994.81	316.5
2996.889	328.83333
2998.966	320.83333
3001.042	322.5
3003.117	325.16667
3005.191	315.83333
3007.263	313.16667
3009.334	299.16667
3011.403	311.83333
3013.472	296.16667
3015.539	309.5
3017.604	310.83333
3019.669	276.16667
3021.732	285.16667
3023.794	285.5
3025.854	274.16667
3027.914	271.16667
3029.971	284.5
3032.028	270.5
3034.083	274.16667
3036.137	272.5
3038.19	256.83333
3040.242	252.16667
3042.292	252.5
3044.341	249.5
3046.388	260.83333
3048.435	236.16667
3050.48	258.83333
3052.524	250.83333
3054.566	230.83333
3056.607	243.83333
3058.647	239.16667
3060.686	226.5
3062.723	217.5
3064.759	205.16667
3066.794	0.5
3068.828	1.16667
3070.86	3.16667
