-0.839	540.45833
3.438	640.45833
7.711	185.79167
11.981	63.125
16.247	48.125
20.509	47.125
24.768	42.45833
29.024	54.125
33.276	40.79167
37.524	48.79167
41.769	46.125
46.01	36.79167
50.247	46.125
54.481	60.45833
58.712	59.79167
62.939	48.125
67.162	64.45833
71.382	56.125
75.599	44.125
79.812	58.45833
84.021	78.125
88.227	62.45833
92.429	60.45833
96.628	49.79167
100.823	67.79167
105.015	71.45833
109.204	67.79167
113.388	74.79167
117.57	73.125
121.748	83.125
125.922	77.125
130.093	92.45833
134.261	94.79167
138.425	91.45833
142.585	139.45833
146.742	123.125
150.896	146.79167
155.046	181.125
159.193	289.45833
163.336	498.45833
167.476	880.79167
171.613	1614.79167
175.746	2721.125
179.875	4028.45833
184.002	5259.79167
188.124	6114.125
192.244	6373.45833
196.36	6326.45833
200.472	6108.79167
204.581	5870.125
208.687	5701.79167
212.79	5579.45833
216.889	5537.45833
220.984	5521.79167
225.077	5501.125
229.165	5482.125
233.251	5441.45833
237.333	5354.79167
241.412	5257.125
245.487	5213.125
249.559	5095.79167
253.628	5078.45833
257.694	5043.45833
261.756	5003.125
265.814	4889.45833
269.87	4742.79167
273.922	4558.45833
277.97	4533.125
282.016	4477.79167
286.058	4501.125
290.097	4583.125
294.132	4588.45833
298.164	4552.45833
302.193	4368.45833
306.219	4081.79167
310.241	3806.125
314.26	3525.79167
318.276	3318.79167
322.288	3209.79167
326.297	3081.79167
330.303	2964.45833
334.305	2910.79167
338.305	2888.79167
342.301	2834.45833
346.294	2815.79167
350.283	2796.45833
354.269	2760.79167
358.252	2752.125
362.232	2746.79167
366.209	2733.79167
370.182	2696.79167
374.152	2703.45833
378.119	2698.79167
382.083	2725.125
386.043	2698.125
390	2674.45833
393.954	2699.45833
397.905	2686.79167
401.852	2703.125
405.797	2658.125
409.738	2649.45833
413.676	2664.45833
417.61	2647.79167
421.542	2632.45833
425.47	2613.45833
429.396	2580.125
433.318	2576.125
437.236	2542.79167
441.152	2576.45833
445.065	2521.125
448.974	2526.45833
452.88	2499.125
456.783	2487.79167
460.683	2493.125
464.58	2499.45833
468.473	2513.79167
472.364	2517.45833
476.251	2518.125
480.135	2559.45833
484.016	2549.79167
487.894	2581.45833
491.769	2600.125
495.641	2614.125
499.509	2609.45833
503.375	2618.79167
507.237	2624.125
511.096	2637.45833
514.952	2758.125
518.805	2933.79167
522.655	2982.125
526.502	2784.45833
530.346	2615.125
534.187	2588.45833
538.024	2574.79167
541.859	2586.45833
545.69	2609.125
549.519	2578.45833
553.344	2576.79167
557.166	2546.45833
560.985	2509.125
564.802	2460.79167
568.615	2443.79167
572.425	2393.45833
576.232	2412.45833
580.036	2416.125
583.836	2411.125
587.634	2418.125
591.429	2412.125
595.221	2479.45833
599.01	2493.45833
602.796	2522.79167
606.578	2509.125
610.358	2514.79167
614.135	2503.79167
617.909	2490.125
621.679	2461.125
625.447	2449.79167
629.212	2448.79167
632.973	2466.125
636.732	2429.125
640.488	2452.79167
644.241	2419.125
647.991	2433.79167
651.737	2427.125
655.481	2402.45833
659.222	2400.45833
662.96	2414.45833
666.695	2440.125
670.427	2432.45833
674.156	2467.45833
677.882	2446.45833
681.605	2417.79167
685.325	2392.79167
689.043	2408.79167
692.757	2401.125
696.468	2393.79167
700.177	2369.45833
703.882	2370.79167
707.585	2359.45833
711.284	2337.45833
714.981	2364.79167
718.675	2336.79167
722.366	2356.125
726.054	2340.45833
729.739	2338.79167
733.421	2344.125
737.1	2335.125
740.777	2347.79167
744.45	2383.125
748.121	2372.79167
751.789	2432.79167
755.453	2393.45833
759.115	2420.45833
762.774	2431.125
766.431	2446.79167
770.084	2463.125
773.734	2466.79167
777.382	2500.45833
781.027	2496.79167
784.669	2521.125
788.308	2534.45833
791.944	2556.125
795.577	2566.45833
799.208	2580.45833
802.835	2604.79167
806.46	2609.79167
810.082	2629.45833
813.701	2634.125
817.317	2625.45833
820.931	2650.125
824.542	2649.125
828.149	2595.45833
831.754	2579.79167
835.357	2574.125
838.956	2579.45833
842.553	2580.125
846.146	2572.45833
849.737	2532.79167
853.326	2523.45833
856.911	2531.125
860.493	2553.45833
864.073	2555.125
867.65	2566.125
871.225	2634.45833
874.796	2597.45833
878.365	2624.125
881.931	2625.125
885.494	2643.125
889.054	2660.125
892.612	2673.79167
896.166	2647.79167
899.719	2632.45833
903.268	2609.125
906.814	2584.125
910.358	2561.45833
913.899	2545.79167
917.438	2535.45833
920.973	2520.79167
924.506	2551.45833
928.036	2606.79167
931.564	2645.79167
935.088	2666.79167
938.61	2658.45833
942.129	2706.79167
945.646	2739.45833
949.16	2778.45833
952.671	2796.45833
956.179	2815.45833
959.685	2772.45833
963.188	2792.45833
966.688	2740.125
970.185	2675.125
973.68	2645.125
977.173	2598.125
980.662	2564.45833
984.149	2575.45833
987.633	2529.45833
991.114	2571.79167
994.593	2610.45833
998.069	2665.125
1001.542	2724.125
1005.013	2697.45833
1008.481	2560.125
1011.947	2511.45833
1015.409	2495.79167
1018.869	2506.125
1022.327	2505.45833
1025.782	2489.79167
1029.234	2498.79167
1032.683	2430.79167
1036.13	2387.125
1039.574	2288.45833
1043.016	2239.125
1046.455	2193.79167
1049.891	2171.79167
1053.325	2195.45833
1056.756	2189.45833
1060.184	2211.125
1063.61	2216.125
1067.033	2221.45833
1070.454	2216.79167
1073.872	2263.79167
1077.287	2239.45833
1080.7	2252.79167
1084.11	2241.79167
1087.517	2229.45833
1090.922	2200.79167
1094.325	2159.79167
1097.724	2142.79167
1101.122	2134.125
1104.516	2123.45833
1107.908	2140.45833
1111.298	2162.79167
1114.684	2194.79167
1118.069	2217.45833
1121.45	2239.45833
1124.83	2235.79167
1128.206	2263.125
1131.58	2290.45833
1134.951	2325.125
1138.32	2389.79167
1141.687	2462.79167
1145.05	2510.79167
1148.412	2500.125
1151.77	2482.45833
1155.126	2496.125
1158.48	2479.79167
1161.831	2491.125
1165.18	2484.79167
1168.525	2533.79167
1171.869	2567.125
1175.21	2587.45833
1178.548	2596.125
1181.884	2623.45833
1185.217	2667.45833
1188.548	2713.125
1191.877	2744.45833
1195.202	2830.125
1198.526	2899.45833
1201.846	2915.125
1205.165	2916.79167
1208.48	2919.125
1211.794	2896.125
1215.104	2933.125
1218.413	2894.125
1221.719	2890.125
1225.022	2898.125
1228.323	2838.79167
1231.621	2803.79167
1234.917	2787.79167
1238.21	2811.125
1241.501	2787.45833
1244.79	2775.125
1248.076	2774.79167
1251.359	2779.79167
1254.64	2856.79167
1257.919	2855.79167
1261.195	2893.125
1264.468	2931.79167
1267.74	2978.45833
1271.008	2983.45833
1274.275	2956.79167
1277.538	2946.79167
1280.8	2951.125
1284.059	2942.45833
1287.315	2986.125
1290.569	2986.79167
1293.821	2996.125
1297.07	3013.79167
1300.317	3037.79167
1303.562	3035.79167
1306.803	2997.45833
1310.043	2999.79167
1313.28	2953.45833
1316.515	2943.125
1319.747	2931.125
1322.977	2895.79167
1326.204	2898.125
1329.429	2855.125
1332.652	2857.125
1335.872	2844.79167
1339.09	2806.79167
1342.306	2806.125
1345.519	2747.79167
1348.729	2731.45833
1351.938	2714.79167
1355.144	2673.79167
1358.347	2646.125
1361.548	2641.125
1364.747	2629.125
1367.944	2595.125
1371.138	2589.45833
1374.329	2587.125
1377.518	2633.125
1380.705	2646.79167
1383.89	2610.125
1387.072	2549.45833
1390.252	2454.79167
1393.429	2388.79167
1396.605	2337.45833
1399.777	2243.125
1402.948	2235.45833
1406.116	2233.125
1409.282	2227.125
1412.445	2213.45833
1415.606	2276.45833
1418.765	2278.125
1421.921	2323.125
1425.075	2367.125
1428.227	2428.125
1431.376	2513.45833
1434.524	2584.45833
1437.668	2666.125
1440.811	2693.79167
1443.951	2724.79167
1447.089	2748.45833
1450.224	2711.79167
1453.357	2702.125
1456.488	2667.79167
1459.617	2617.79167
1462.743	2594.45833
1465.867	2525.125
1468.989	2485.125
1472.108	2421.125
1475.225	2386.125
1478.34	2373.125
1481.453	2385.125
1484.563	2350.125
1487.671	2399.79167
1490.776	2432.125
1493.88	2447.125
1496.981	2472.125
1500.08	2524.79167
1503.176	2551.45833
1506.271	2577.125
1509.363	2595.79167
1512.452	2629.125
1515.54	2659.125
1518.625	2706.125
1521.708	2767.79167
1524.789	2833.125
1527.867	2950.125
1530.944	3067.45833
1534.018	3240.125
1537.089	3344.45833
1540.159	3358.79167
1543.226	3368.79167
1546.291	3303.79167
1549.354	3231.45833
1552.415	3153.45833
1555.473	3083.125
1558.529	3056.79167
1561.583	3017.79167
1564.634	2965.45833
1567.684	2995.45833
1570.731	2973.79167
1573.776	3011.125
1576.819	3081.125
1579.859	3112.45833
1582.898	3139.125
1585.934	3161.125
1588.968	3175.79167
1591.999	3145.79167
1595.029	3161.79167
1598.056	3208.125
1601.081	3201.125
1604.104	3210.125
1607.125	3200.79167
1610.144	3134.79167
1613.16	3064.125
1616.174	2999.45833
1619.186	2943.45833
1622.196	2847.125
1625.203	2810.45833
1628.209	2758.79167
1631.212	2761.125
1634.213	2755.45833
1637.212	2755.125
1640.209	2740.125
1643.203	2669.79167
1646.196	2591.45833
1649.186	2469.125
1652.174	2399.79167
1655.16	2310.125
1658.144	2252.79167
1661.125	2157.45833
1664.105	2061.45833
1667.082	1970.45833
1670.057	1870.45833
1673.03	1776.45833
1676.001	1655.125
1678.97	1571.79167
1681.937	1473.79167
1684.901	1399.45833
1687.863	1351.45833
1690.824	1297.45833
1693.782	1281.79167
1696.738	1234.79167
1699.692	1217.125
1702.643	1166.45833
1705.593	1163.125
1708.54	1147.125
1711.486	1146.79167
1714.429	1100.45833
1717.37	1121.45833
1720.309	1091.45833
1723.246	1099.45833
1726.181	1084.45833
1729.113	1057.45833
1732.044	1063.125
1734.972	1056.79167
1737.899	1061.79167
1740.823	1061.79167
1743.745	1022.125
1746.665	1009.125
1749.583	999.79167
1752.499	975.125
1755.413	985.125
1758.325	950.45833
1761.235	957.45833
1764.142	943.79167
1767.048	930.125
1769.951	938.79167
1772.852	936.79167
1775.752	922.79167
1778.649	920.45833
1781.544	930.45833
1784.437	883.79167
1787.328	913.79167
1790.217	889.79167
1793.104	893.45833
1795.989	874.79167
1798.872	878.45833
1801.753	885.125
1804.631	886.45833
1807.508	885.125
1810.383	892.79167
1813.255	869.79167
1816.126	872.125
1818.994	871.79167
1821.861	864.45833
1824.725	863.125
1827.587	856.79167
1830.448	854.125
1833.306	828.79167
1836.162	848.45833
1839.017	836.45833
1841.869	833.45833
1844.719	835.79167
1847.567	822.79167
1850.414	812.79167
1853.258	821.125
1856.1	840.125
1858.94	830.79167
1861.778	822.125
1864.614	828.125
1867.448	814.79167
1870.28	807.79167
1873.111	834.125
1875.939	809.125
1878.765	832.125
1881.589	812.125
1884.411	805.125
1887.231	823.79167
1890.049	816.79167
1892.865	821.79167
1895.68	794.79167
1898.492	805.79167
1901.302	786.79167
1904.11	793.125
1906.916	778.45833
1909.721	777.125
1912.523	795.125
1915.323	782.45833
1918.122	775.79167
1920.918	788.125
1923.712	781.45833
1926.505	773.125
1929.295	761.125
1932.084	785.79167
1934.87	782.45833
1937.655	767.79167
1940.438	765.125
1943.218	767.79167
1945.997	776.125
1948.774	786.45833
1951.549	787.79167
1954.322	762.45833
1957.093	769.45833
1959.862	761.79167
1962.629	751.45833
1965.394	763.125
1968.157	751.125
1970.918	755.79167
1973.678	737.79167
1976.435	758.125
1979.19	748.79167
1981.944	731.45833
1984.696	735.79167
1987.445	723.45833
1990.193	738.79167
1992.939	753.125
1995.683	740.45833
1998.425	723.125
2001.165	760.45833
2003.903	734.45833
2006.639	731.45833
2009.374	743.45833
2012.106	737.45833
2014.837	719.79167
2017.566	730.45833
2020.292	743.79167
2023.017	727.79167
2025.74	722.45833
2028.461	721.79167
2031.18	721.125
2033.898	718.45833
2036.613	721.125
2039.327	721.125
2042.038	719.79167
2044.748	709.125
2047.456	719.79167
2050.162	710.79167
2052.866	708.79167
2055.568	719.125
2058.268	715.45833
2060.967	717.79167
2063.663	709.45833
2066.358	702.125
2069.051	701.45833
2071.742	712.79167
2074.431	718.79167
2077.118	696.45833
2079.804	701.125
2082.487	700.79167
2085.169	709.45833
2087.849	735.125
2090.527	701.45833
2093.203	714.79167
2095.877	728.125
2098.55	716.79167
2101.22	733.125
2103.889	740.79167
2106.556	740.45833
2109.221	763.45833
2111.884	761.79167
2114.546	816.125
2117.205	866.125
2119.863	914.79167
2122.519	960.125
2125.173	1001.125
2127.825	1050.79167
2130.475	1060.125
2133.124	1028.79167
2135.771	989.45833
2138.416	952.125
2141.059	899.125
2143.7	871.79167
2146.339	832.45833
2148.977	794.79167
2151.613	779.45833
2154.247	764.125
2156.879	752.125
2159.51	728.45833
2162.138	732.79167
2164.765	719.79167
2167.39	698.125
2170.013	724.125
2172.634	732.125
2175.254	710.45833
2177.872	730.45833
2180.488	696.125
2183.102	708.125
2185.714	692.79167
2188.325	666.79167
2190.934	690.45833
2193.541	685.79167
2196.146	672.125
2198.75	663.45833
2201.351	671.79167
2203.951	659.125
2206.549	675.79167
2209.146	672.79167
2211.74	664.79167
2214.333	660.79167
2216.924	653.79167
2219.514	664.45833
2222.101	663.125
2224.687	670.45833
2227.271	651.79167
2229.853	653.125
2232.433	639.79167
2235.012	666.79167
2237.589	665.125
2240.164	668.79167
2242.738	662.45833
2245.309	644.79167
2247.879	650.79167
2250.448	659.79167
2253.014	634.45833
2255.579	636.125
2258.142	635.79167
2260.703	626.125
2263.262	635.125
2265.82	636.79167
2268.376	638.125
2270.93	615.79167
2273.483	620.45833
2276.033	644.45833
2278.583	631.125
2281.13	626.79167
2283.675	625.125
2286.219	624.125
2288.761	634.79167
2291.302	631.45833
2293.841	646.45833
2296.377	610.125
2298.913	618.45833
2301.446	631.125
2303.978	634.79167
2306.508	619.125
2309.037	636.45833
2311.563	627.45833
2314.088	637.79167
2316.612	611.45833
2319.133	629.45833
2321.653	633.45833
2324.171	619.45833
2326.688	630.45833
2329.202	628.45833
2331.715	624.45833
2334.227	621.79167
2336.736	631.45833
2339.244	628.45833
2341.751	611.79167
2344.255	642.125
2346.758	624.79167
2349.259	605.45833
2351.759	634.125
2354.257	620.79167
2356.753	614.125
2359.247	633.125
2361.74	639.125
2364.231	630.79167
2366.721	634.79167
2369.209	631.125
2371.695	636.125
2374.179	623.79167
2376.662	630.125
2379.143	636.79167
2381.622	620.125
2384.1	643.125
2386.576	630.79167
2389.051	653.79167
2391.524	646.79167
2393.995	651.125
2396.464	633.79167
2398.932	632.79167
2401.398	631.45833
2403.863	632.125
2406.325	625.125
2408.787	629.125
2411.246	638.125
2413.704	642.79167
2416.16	641.45833
2418.615	643.45833
2421.068	658.79167
2423.519	649.79167
2425.969	640.45833
2428.417	643.125
2430.863	667.79167
2433.308	664.45833
2435.751	645.125
2438.193	648.79167
2440.633	652.45833
2443.071	664.79167
2445.508	639.79167
2447.943	658.79167
2450.376	645.125
2452.808	655.79167
2455.238	650.125
2457.667	685.125
2460.093	663.125
2462.519	659.45833
2464.942	651.79167
2467.365	659.45833
2469.785	676.45833
2472.204	667.79167
2474.621	662.125
2477.037	680.79167
2479.451	658.125
2481.863	662.45833
2484.274	664.125
2486.683	667.45833
2489.091	680.79167
2491.497	668.125
2493.901	681.45833
2496.304	675.125
2498.705	680.125
2501.105	679.125
2503.503	696.45833
2505.899	663.45833
2508.294	692.79167
2510.687	689.45833
2513.079	681.45833
2515.469	680.125
2517.858	679.45833
2520.245	693.45833
2522.63	687.45833
2525.014	670.45833
2527.396	676.45833
2529.776	670.79167
2532.156	689.125
2534.533	702.79167
2536.909	682.45833
2539.283	681.45833
2541.656	695.125
2544.027	701.45833
2546.397	702.45833
2548.765	694.125
2551.131	706.45833
2553.496	697.45833
2555.86	716.79167
2558.221	701.45833
2560.582	693.125
2562.94	694.125
2565.298	701.125
2567.653	724.45833
2570.007	691.125
2572.36	726.79167
2574.711	716.125
2577.06	731.79167
2579.408	732.79167
2581.754	719.45833
2584.099	738.125
2586.442	719.79167
2588.784	738.79167
2591.124	725.45833
2593.463	735.125
2595.8	738.45833
2598.135	718.79167
2600.469	721.79167
2602.802	737.79167
2605.133	754.79167
2607.462	737.45833
2609.79	732.45833
2612.116	745.45833
2614.441	746.45833
2616.764	751.79167
2619.086	750.45833
2621.406	741.125
2623.725	765.45833
2626.042	758.45833
2628.358	744.79167
2630.672	753.45833
2632.985	773.79167
2635.296	766.45833
2637.606	770.125
2639.914	755.79167
2642.22	772.125
2644.525	765.45833
2646.829	770.79167
2649.131	792.79167
2651.432	802.125
2653.731	781.125
2656.028	814.79167
2658.324	806.125
2660.619	795.45833
2662.912	822.79167
2665.204	794.79167
2667.494	799.125
2669.782	805.45833
2672.07	813.79167
2674.355	817.45833
2676.639	798.125
2678.922	804.125
2681.203	807.125
2683.483	809.125
2685.761	805.45833
2688.038	812.79167
2690.313	839.45833
2692.587	817.45833
2694.859	819.79167
2697.13	829.125
2699.399	841.45833
2701.667	841.79167
2703.933	832.79167
2706.198	846.125
2708.461	852.45833
2710.723	852.79167
2712.984	863.125
2715.243	868.125
2717.5	845.79167
2719.757	869.45833
2722.011	870.79167
2724.264	886.79167
2726.516	898.79167
2728.766	879.125
2731.015	895.45833
2733.262	903.45833
2735.508	897.125
2737.753	882.45833
2739.996	879.79167
2742.237	881.125
2744.477	890.125
2746.716	898.45833
2748.953	874.125
2751.189	881.45833
2753.423	870.125
2755.656	870.125
2757.887	884.125
2760.117	869.79167
2762.346	879.125
2764.573	872.125
2766.798	878.79167
2769.022	889.125
2771.245	888.79167
2773.467	890.79167
2775.686	894.125
2777.905	893.125
2780.122	912.45833
2782.337	913.45833
2784.552	903.79167
2786.764	903.125
2788.976	920.125
2791.186	925.79167
2793.394	935.45833
2795.601	933.125
2797.807	960.79167
2800.011	946.45833
2802.214	961.79167
2804.415	963.45833
2806.615	969.125
2808.814	963.79167
2811.011	981.79167
2813.206	983.45833
2815.401	990.79167
2817.594	980.79167
2819.785	994.45833
2821.975	995.45833
2824.164	996.125
2826.351	1019.79167
2828.537	1023.45833
2830.722	1040.125
2832.905	1038.79167
2835.086	1057.45833
2837.267	1096.45833
2839.445	1095.79167
2841.623	1123.79167
2843.799	1133.79167
2845.974	1157.45833
2848.147	1174.45833
2850.319	1198.125
2852.489	1233.125
2854.659	1245.45833
2856.826	1258.79167
2858.993	1278.79167
2861.158	1266.125
2863.321	1264.45833
2865.483	1284.79167
2867.644	1281.45833
2869.804	1279.45833
2871.962	1267.45833
2874.118	1254.45833
2876.274	1263.45833
2878.428	1265.79167
2880.58	1263.79167
2882.731	1248.45833
2884.881	1250.125
2887.03	1254.45833
2889.177	1256.45833
2891.322	1267.79167
2893.467	1264.79167
2895.61	1273.79167
2897.751	1283.79167
2899.892	1273.79167
2902.03	1300.45833
2904.168	1297.79167
2906.304	1304.79167
2908.439	1328.45833
2910.572	1328.125
2912.704	1342.79167
2914.835	1333.125
2916.965	1327.79167
2919.093	1345.45833
2921.219	1327.45833
2923.345	1336.45833
2925.469	1317.45833
2927.591	1316.79167
2929.712	1289.125
2931.832	1292.79167
2933.951	1262.125
2936.068	1268.125
2938.184	1249.45833
2940.299	1223.45833
2942.412	1217.79167
2944.524	1197.79167
2946.634	1187.45833
2948.744	1145.125
2950.851	1184.45833
2952.958	1153.45833
2955.063	1146.79167
2957.167	1144.125
2959.269	1134.125
2961.371	1161.79167
2963.471	1111.125
2965.569	1125.79167
2967.666	1103.79167
2969.762	1092.125
2971.857	1092.125
2973.95	1075.125
2976.042	1072.125
2978.133	1053.125
2980.222	1026.45833
2982.31	1015.45833
2984.396	1011.79167
2986.482	994.79167
2988.566	994.45833
2990.648	1006.79167
2992.73	995.125
2994.81	991.79167
2996.889	998.125
2998.966	989.79167
3001.042	995.125
3003.117	1002.45833
3005.191	984.79167
3007.263	994.79167
3009.334	987.45833
3011.403	989.79167
3013.472	948.125
3015.539	952.45833
3017.604	952.125
3019.669	932.79167
3021.732	923.125
3023.794	933.45833
3025.854	931.79167
3027.914	925.45833
3029.971	925.79167
3032.028	928.125
3034.083	931.45833
3036.137	905.79167
3038.19	879.45833
3040.242	853.45833
3042.292	854.45833
3044.341	848.79167
3046.388	856.125
3048.435	826.45833
3050.48	841.45833
3052.524	820.79167
3054.566	813.45833
3056.607	829.125
3058.647	802.45833
3060.686	775.79167
3062.723	758.125
3064.759	729.79167
3066.794	0.125
3068.828	2.45833
3070.86	2.125
