-0.839	511.33333
3.438	600.33333
7.711	182
11.981	56.33333
16.247	45.66667
20.509	48.33333
24.768	43.66667
29.024	51.66667
33.276	41.66667
37.524	49.33333
41.769	45.66667
46.01	32
50.247	40.66667
54.481	55
58.712	57.33333
62.939	45.33333
67.162	55.33333
71.382	55
75.599	44.66667
79.812	57.33333
84.021	79.33333
88.227	56.66667
92.429	53
96.628	50
100.823	65.33333
105.015	67.33333
109.204	61
113.388	66.33333
117.57	68
121.748	76
125.922	67.33333
130.093	87.33333
134.261	81.33333
138.425	82
142.585	118
146.742	105.33333
150.896	136.66667
155.046	159.66667
159.193	254
163.336	425.33333
167.476	776
171.613	1413.66667
175.746	2336
179.875	3446.33333
184.002	4457.66667
188.124	5152
192.244	5361.66667
196.36	5224.33333
200.472	5018
204.581	4863
208.687	4609.33333
212.79	4492.66667
216.889	4402
220.984	4357
225.077	4329
229.165	4235.66667
233.251	4195.66667
237.333	4133.66667
241.412	4038.66667
245.487	3956
249.559	3899.66667
253.628	3859
257.694	3829.33333
261.756	3798.66667
265.814	3706.33333
269.87	3578
273.922	3490.66667
277.97	3457.33333
282.016	3449
286.058	3468.33333
290.097	3561.66667
294.132	3625.66667
298.164	3568.33333
302.193	3402
306.219	3147.66667
310.241	2898
314.26	2679.66667
318.276	2499
322.288	2356.66667
326.297	2233
330.303	2172.33333
334.305	2096.33333
338.305	2064.33333
342.301	2054.66667
346.294	2017.33333
350.283	1993.66667
354.269	1982
358.252	1959.66667
362.232	1933.66667
366.209	1941
370.182	1893
374.152	1888
378.119	1876
382.083	1874.33333
386.043	1888
390	1862
393.954	1868
397.905	1857.66667
401.852	1838.33333
405.797	1825
409.738	1825
413.676	1814.66667
417.61	1831
421.542	1803.33333
425.47	1773
429.396	1766.33333
433.318	1757
437.236	1739.66667
441.152	1778
445.065	1717.33333
448.974	1724.66667
452.88	1697.66667
456.783	1681
460.683	1653.66667
464.58	1660
468.473	1665.33333
472.364	1668.33333
476.251	1695
480.135	1665.33333
484.016	1705.66667
487.894	1721.66667
491.769	1720.33333
495.641	1708.33333
499.509	1721.66667
503.375	1743.66667
507.237	1731.66667
511.096	1760.66667
514.952	1881
518.805	2020.66667
522.655	2068.66667
526.502	1896.66667
530.346	1766
534.187	1745
538.024	1743.33333
541.859	1741.66667
545.69	1782.33333
549.519	1756
553.344	1742.66667
557.166	1701.66667
560.985	1694.66667
564.802	1648
568.615	1626.33333
572.425	1615
576.232	1603
580.036	1583
583.836	1602.33333
587.634	1621.33333
591.429	1609.66667
595.221	1662.33333
599.01	1684.66667
602.796	1695.33333
606.578	1680
610.358	1695.33333
614.135	1660.33333
617.909	1666.33333
621.679	1638.33333
625.447	1634.66667
629.212	1628
632.973	1645.66667
636.732	1627.66667
640.488	1634
644.241	1614.33333
647.991	1615.66667
651.737	1617
655.481	1597.66667
659.222	1578.66667
662.96	1581
666.695	1613
670.427	1622.33333
674.156	1647.33333
677.882	1627.66667
681.605	1614.66667
685.325	1596.33333
689.043	1603.33333
692.757	1579.66667
696.468	1601
700.177	1594.66667
703.882	1558.33333
707.585	1564
711.284	1573.33333
714.981	1559.66667
718.675	1563.33333
722.366	1590
726.054	1572.66667
729.739	1583
733.421	1587.66667
737.1	1583
740.777	1602
744.45	1606.66667
748.121	1615
751.789	1649.66667
755.453	1631.66667
759.115	1652.33333
762.774	1652.66667
766.431	1657
770.084	1682
773.734	1687.33333
777.382	1723.66667
781.027	1751.33333
784.669	1762.33333
788.308	1752.66667
791.944	1771.33333
795.577	1787.66667
799.208	1802.66667
802.835	1814.66667
806.46	1803.33333
810.082	1816
813.701	1821.66667
817.317	1823.33333
820.931	1814
824.542	1833
828.149	1802.66667
831.754	1794.33333
835.357	1785.33333
838.956	1808
842.553	1804
846.146	1794.66667
849.737	1782.66667
853.326	1771.33333
856.911	1784.33333
860.493	1804
864.073	1826.33333
867.65	1854.33333
871.225	1887.66667
874.796	1880.33333
878.365	1873.66667
881.931	1898.66667
885.494	1921.66667
889.054	1901.33333
892.612	1932.33333
896.166	1908.66667
899.719	1912.33333
903.268	1867.66667
906.814	1854.66667
910.358	1824.33333
913.899	1806.33333
917.438	1804
920.973	1786
924.506	1815.33333
928.036	1835.66667
931.564	1881.33333
935.088	1906.66667
938.61	1924.33333
942.129	1935.66667
945.646	1991.66667
949.16	2013.66667
952.671	2037.33333
956.179	2013.33333
959.685	2012.66667
963.188	1989.66667
966.688	1966
970.185	1903.66667
973.68	1866.33333
977.173	1833.66667
980.662	1803
984.149	1822.33333
987.633	1797.66667
991.114	1832
994.593	1852
998.069	1925.33333
1001.542	1975
1005.013	1940
1008.481	1839.66667
1011.947	1814.33333
1015.409	1790.66667
1018.869	1793
1022.327	1807
1025.782	1761.66667
1029.234	1781.33333
1032.683	1747
1036.13	1701.33333
1039.574	1640.66667
1043.016	1587.33333
1046.455	1569.33333
1049.891	1546.66667
1053.325	1570
1056.756	1566
1060.184	1574.33333
1063.61	1584
1067.033	1602
1070.454	1590.66667
1073.872	1623.66667
1077.287	1611.33333
1080.7	1603.66667
1084.11	1612
1087.517	1598.33333
1090.922	1569
1094.325	1547.33333
1097.724	1539.33333
1101.122	1557
1104.516	1532
1107.908	1546.33333
1111.298	1567
1114.684	1588.66667
1118.069	1617
1121.45	1640
1124.83	1638.66667
1128.206	1655
1131.58	1693.33333
1134.951	1715.66667
1138.32	1777
1141.687	1836.33333
1145.05	1879.33333
1148.412	1881.33333
1151.77	1843.33333
1155.126	1847.33333
1158.48	1847.66667
1161.831	1836
1165.18	1862.33333
1168.525	1897.33333
1171.869	1898.33333
1175.21	1913.66667
1178.548	1936.66667
1181.884	1962.66667
1185.217	1966.66667
1188.548	2033
1191.877	2056.66667
1195.202	2153.66667
1198.526	2193
1201.846	2198
1205.165	2199.66667
1208.48	2203.33333
1211.794	2177.66667
1215.104	2181.66667
1218.413	2198.66667
1221.719	2194.66667
1225.022	2165.66667
1228.323	2131.66667
1231.621	2126
1234.917	2074.33333
1238.21	2096.66667
1241.501	2074
1244.79	2083.66667
1248.076	2059.33333
1251.359	2101.33333
1254.64	2159.33333
1257.919	2135
1261.195	2183.66667
1264.468	2218.66667
1267.74	2247
1271.008	2245.33333
1274.275	2223
1277.538	2223
1280.8	2233
1284.059	2206
1287.315	2259.66667
1290.569	2270.66667
1293.821	2289.33333
1297.07	2309.66667
1300.317	2337
1303.562	2322.66667
1306.803	2333
1310.043	2295.66667
1313.28	2273.66667
1316.515	2242
1319.747	2240.33333
1322.977	2233.66667
1326.204	2180.66667
1329.429	2174.33333
1332.652	2156.33333
1335.872	2133.66667
1339.09	2099.66667
1342.306	2081.33333
1345.519	2038.66667
1348.729	2007.66667
1351.938	2003.33333
1355.144	1970.66667
1358.347	1970.33333
1361.548	1966.33333
1364.747	1969.66667
1367.944	1926
1371.138	1949.33333
1374.329	1972.66667
1377.518	1981.66667
1380.705	1998
1383.89	1949
1387.072	1896
1390.252	1832.66667
1393.429	1780
1396.605	1733.66667
1399.777	1669.33333
1402.948	1661.33333
1406.116	1651.33333
1409.282	1662.33333
1412.445	1661.66667
1415.606	1693
1418.765	1704.33333
1421.921	1744
1425.075	1779
1428.227	1829.66667
1431.376	1921.66667
1434.524	1963.66667
1437.668	2037
1440.811	2063
1443.951	2086.66667
1447.089	2059.33333
1450.224	2061.33333
1453.357	2052
1456.488	2023.66667
1459.617	1989.66667
1462.743	1954.66667
1465.867	1898.33333
1468.989	1870.66667
1472.108	1853.33333
1475.225	1813.66667
1478.34	1784.33333
1481.453	1782
1484.563	1769.33333
1487.671	1819
1490.776	1834
1493.88	1856.66667
1496.981	1877.66667
1500.08	1915.33333
1503.176	1944
1506.271	1961.66667
1509.363	1967
1512.452	2007.33333
1515.54	2019
1518.625	2029.33333
1521.708	2078
1524.789	2145
1527.867	2176.66667
1530.944	2317.66667
1534.018	2432.33333
1537.089	2511.66667
1540.159	2546
1543.226	2543
1546.291	2529.33333
1549.354	2456.33333
1552.415	2412
1555.473	2350.33333
1558.529	2347
1561.583	2328.33333
1564.634	2288.33333
1567.684	2297
1570.731	2305
1573.776	2341
1576.819	2384.33333
1579.859	2375.66667
1582.898	2402.33333
1585.934	2444.66667
1588.968	2435.33333
1591.999	2432
1595.029	2464.66667
1598.056	2485.66667
1601.081	2515.33333
1604.104	2525.33333
1607.125	2490.33333
1610.144	2435.66667
1613.16	2362.66667
1616.174	2333
1619.186	2240
1622.196	2161
1625.203	2131.66667
1628.209	2049.66667
1631.212	2031
1634.213	2000.33333
1637.212	2000
1640.209	1961.66667
1643.203	1918.66667
1646.196	1867.66667
1649.186	1820
1652.174	1777.33333
1655.16	1719.66667
1658.144	1664.66667
1661.125	1594
1664.105	1552.66667
1667.082	1476.66667
1670.057	1402.33333
1673.03	1306.33333
1676.001	1226
1678.97	1155.66667
1681.937	1105.33333
1684.901	1028.33333
1687.863	1002
1690.824	940
1693.782	942.33333
1696.738	900
1699.692	874.66667
1702.643	849.33333
1705.593	841.33333
1708.54	839
1711.486	845
1714.429	823
1717.37	813.66667
1720.309	797.33333
1723.246	792.66667
1726.181	771.66667
1729.113	772.33333
1732.044	773
1734.972	752
1737.899	765.33333
1740.823	759.66667
1743.745	719
1746.665	733.33333
1749.583	717
1752.499	704.33333
1755.413	705
1758.325	687
1761.235	686.33333
1764.142	677
1767.048	662.66667
1769.951	661.33333
1772.852	665
1775.752	663.33333
1778.649	659.33333
1781.544	663.66667
1784.437	637
1787.328	651.66667
1790.217	636
1793.104	611
1795.989	632.66667
1798.872	619
1801.753	637.33333
1804.631	622.66667
1807.508	633.66667
1810.383	625.33333
1813.255	622
1816.126	628.33333
1818.994	624.66667
1821.861	611.33333
1824.725	615.66667
1827.587	623.33333
1830.448	607.66667
1833.306	595.33333
1836.162	601.33333
1839.017	605.66667
1841.869	595.33333
1844.719	587
1847.567	576
1850.414	580.66667
1853.258	589.66667
1856.1	597
1858.94	603
1861.778	586.66667
1864.614	602
1867.448	594.33333
1870.28	583.66667
1873.111	599.33333
1875.939	587
1878.765	598.33333
1881.589	577
1884.411	579
1887.231	581.33333
1890.049	578
1892.865	580
1895.68	579
1898.492	583.66667
1901.302	575.33333
1904.11	580
1906.916	562.33333
1909.721	561
1912.523	571.66667
1915.323	555.33333
1918.122	557.33333
1920.918	561.66667
1923.712	558.33333
1926.505	550
1929.295	544.66667
1932.084	562.66667
1934.87	563
1937.655	562
1940.438	562.66667
1943.218	555
1945.997	567.66667
1948.774	575.33333
1951.549	566.66667
1954.322	560.66667
1957.093	554.66667
1959.862	551.66667
1962.629	543
1965.394	545.66667
1968.157	534.33333
1970.918	558.33333
1973.678	530.66667
1976.435	557.66667
1979.19	550.66667
1981.944	544.33333
1984.696	537.33333
1987.445	531.66667
1990.193	551.33333
1992.939	554
1995.683	547
1998.425	516.66667
2001.165	559
2003.903	530
2006.639	533.33333
2009.374	546
2012.106	545.66667
2014.837	535
2017.566	539
2020.292	541.33333
2023.017	534.33333
2025.74	531.33333
2028.461	536
2031.18	525.66667
2033.898	531.33333
2036.613	529
2039.327	544.66667
2042.038	526
2044.748	525.33333
2047.456	540
2050.162	524
2052.866	528
2055.568	547.66667
2058.268	527.33333
2060.967	531.33333
2063.663	518.33333
2066.358	518
2069.051	518.33333
2071.742	537
2074.431	530.33333
2077.118	532.33333
2079.804	515
2082.487	536.66667
2085.169	535
2087.849	556
2090.527	524.66667
2093.203	528.33333
2095.877	560.33333
2098.55	546
2101.22	556.66667
2103.889	547.66667
2106.556	557
2109.221	574.33333
2111.884	575.33333
2114.546	616.33333
2117.205	644.33333
2119.863	700
2122.519	720
2125.173	745
2127.825	785.33333
2130.475	778
2133.124	738.66667
2135.771	722
2138.416	697.66667
2141.059	654.66667
2143.7	644
2146.339	608
2148.977	575.33333
2151.613	580.66667
2154.247	576.33333
2156.879	568.33333
2159.51	551.33333
2162.138	539
2164.765	551
2167.39	539.66667
2170.013	557.33333
2172.634	551.33333
2175.254	542.33333
2177.872	574.66667
2180.488	524
2183.102	542.66667
2185.714	533.66667
2188.325	510.66667
2190.934	531.66667
2193.541	537.66667
2196.146	534.66667
2198.75	511.66667
2201.351	521
2203.951	510.66667
2206.549	533
2209.146	523.66667
2211.74	523.66667
2214.333	529
2216.924	509.33333
2219.514	523
2222.101	514.33333
2224.687	532.33333
2227.271	524.33333
2229.853	518.66667
2232.433	504
2235.012	521
2237.589	525.66667
2240.164	542
2242.738	516.66667
2245.309	507.33333
2247.879	523
2250.448	533.33333
2253.014	504.33333
2255.579	499.33333
2258.142	507
2260.703	502.66667
2263.262	511.66667
2265.82	508.66667
2268.376	518.66667
2270.93	491.66667
2273.483	502
2276.033	516.66667
2278.583	502.33333
2281.13	503.66667
2283.675	502.66667
2286.219	506.33333
2288.761	515.66667
2291.302	515
2293.841	529.33333
2296.377	504
2298.913	501.33333
2301.446	517.66667
2303.978	519.33333
2306.508	513.66667
2309.037	515.33333
2311.563	527.66667
2314.088	523.33333
2316.612	497.66667
2319.133	518.66667
2321.653	526.33333
2324.171	507
2326.688	529.66667
2329.202	519
2331.715	523.66667
2334.227	512.66667
2336.736	521
2339.244	514.33333
2341.751	504
2344.255	532.33333
2346.758	522.66667
2349.259	514.33333
2351.759	519
2354.257	520.66667
2356.753	516.33333
2359.247	525.33333
2361.74	534.66667
2364.231	532
2366.721	530.66667
2369.209	517
2371.695	532
2374.179	530.66667
2376.662	520.33333
2379.143	541
2381.622	525.66667
2384.1	534.66667
2386.576	530.66667
2389.051	553.66667
2391.524	548.66667
2393.995	551
2396.464	544.66667
2398.932	544.66667
2401.398	539.33333
2403.863	546.33333
2406.325	545.66667
2408.787	541.66667
2411.246	551.33333
2413.704	546.66667
2416.16	543.66667
2418.615	547.33333
2421.068	567.33333
2423.519	566.66667
2425.969	551.66667
2428.417	565
2430.863	584
2433.308	564.66667
2435.751	560.33333
2438.193	567.66667
2440.633	562.33333
2443.071	570.33333
2445.508	563
2447.943	569.66667
2450.376	556.33333
2452.808	578
2455.238	561.66667
2457.667	608.33333
2460.093	576
2462.519	561.33333
2464.942	576
2467.365	586
2469.785	593.33333
2472.204	583.33333
2474.621	579
2477.037	610.66667
2479.451	577
2481.863	577.66667
2484.274	580.33333
2486.683	586
2489.091	603.66667
2491.497	591
2493.901	607
2496.304	592
2498.705	606.66667
2501.105	600.66667
2503.503	629.66667
2505.899	591.66667
2508.294	632.66667
2510.687	609.66667
2513.079	616.66667
2515.469	603.33333
2517.858	624.66667
2520.245	621.66667
2522.63	620.33333
2525.014	610.66667
2527.396	606.33333
2529.776	608.33333
2532.156	633
2534.533	617
2536.909	617
2539.283	606
2541.656	629.66667
2544.027	639
2546.397	632.66667
2548.765	631.33333
2551.131	627
2553.496	628.66667
2555.86	641
2558.221	643.66667
2560.582	637.66667
2562.94	640
2565.298	644.33333
2567.653	660.33333
2570.007	638.66667
2572.36	662.33333
2574.711	652.66667
2577.06	662.33333
2579.408	672
2581.754	654
2584.099	661.33333
2586.442	660.33333
2588.784	669.66667
2591.124	660.33333
2593.463	674
2595.8	679.66667
2598.135	663
2600.469	667.33333
2602.802	687.66667
2605.133	679.33333
2607.462	676.33333
2609.79	672
2612.116	677
2614.441	674
2616.764	697
2619.086	693
2621.406	684.66667
2623.725	708.33333
2626.042	705.66667
2628.358	700.66667
2630.672	685
2632.985	716
2635.296	710
2637.606	711.66667
2639.914	700
2642.22	707.66667
2644.525	713.33333
2646.829	725.66667
2649.131	731.33333
2651.432	743.33333
2653.731	729
2656.028	747.33333
2658.324	753
2660.619	741
2662.912	745.66667
2665.204	736.66667
2667.494	759.66667
2669.782	744.66667
2672.07	762.33333
2674.355	763.66667
2676.639	759.66667
2678.922	750.66667
2681.203	764.33333
2683.483	748.66667
2685.761	745.66667
2688.038	767.66667
2690.313	777.66667
2692.587	777
2694.859	770
2697.13	774.33333
2699.399	788.66667
2701.667	780
2703.933	801.66667
2706.198	799
2708.461	808.66667
2710.723	811
2712.984	806
2715.243	815.33333
2717.5	792.33333
2719.757	825.66667
2722.011	829.33333
2724.264	844.33333
2726.516	844.33333
2728.766	822.33333
2731.015	844
2733.262	840.33333
2735.508	833
2737.753	839.33333
2739.996	842.33333
2742.237	838
2744.477	849
2746.716	855.33333
2748.953	837.66667
2751.189	841.66667
2753.423	836.66667
2755.656	835.33333
2757.887	838
2760.117	832.66667
2762.346	839
2764.573	833
2766.798	834
2769.022	842
2771.245	842.66667
2773.467	849
2775.686	862.33333
2777.905	857
2780.122	866
2782.337	876
2784.552	879
2786.764	882.66667
2788.976	884.33333
2791.186	883
2793.394	886.33333
2795.601	892.33333
2797.807	913
2800.011	907.33333
2802.214	921
2804.415	930
2806.615	922
2808.814	921
2811.011	931
2813.206	935
2815.401	943
2817.594	951.33333
2819.785	958.33333
2821.975	949.33333
2824.164	948
2826.351	965.33333
2828.537	969.33333
2830.722	987.66667
2832.905	992.66667
2835.086	1006.33333
2837.267	1036
2839.445	1044
2841.623	1055
2843.799	1072.66667
2845.974	1080
2848.147	1104.33333
2850.319	1129.33333
2852.489	1159.33333
2854.659	1160.66667
2856.826	1176
2858.993	1201
2861.158	1170.33333
2863.321	1180.66667
2865.483	1195.66667
2867.644	1196
2869.804	1192.66667
2871.962	1174.66667
2874.118	1168
2876.274	1182
2878.428	1185.33333
2880.58	1176
2882.731	1168.33333
2884.881	1174.66667
2887.03	1170.33333
2889.177	1169.66667
2891.322	1203
2893.467	1186
2895.61	1189.66667
2897.751	1222.33333
2899.892	1193.33333
2902.03	1213.33333
2904.168	1214.66667
2906.304	1222.33333
2908.439	1250
2910.572	1209
2912.704	1244.33333
2914.835	1240
2916.965	1249
2919.093	1264.33333
2921.219	1240.66667
2923.345	1262.33333
2925.469	1239.33333
2927.591	1231.33333
2929.712	1208
2931.832	1203.33333
2933.951	1187.66667
2936.068	1166.33333
2938.184	1171.66667
2940.299	1154.66667
2942.412	1140.66667
2944.524	1125
2946.634	1134.66667
2948.744	1088.33333
2950.851	1127
2952.958	1096.66667
2955.063	1096.33333
2957.167	1101.33333
2959.269	1092.66667
2961.371	1108.66667
2963.471	1082.33333
2965.569	1086
2967.666	1065
2969.762	1061.66667
2971.857	1057.66667
2973.95	1037.33333
2976.042	1028.33333
2978.133	1026
2980.222	1010.66667
2982.31	1001.66667
2984.396	958.33333
2986.482	980
2988.566	968
2990.648	972.66667
2992.73	973.66667
2994.81	965
2996.889	968.33333
2998.966	973
3001.042	994.66667
3003.117	983.66667
3005.191	977.33333
3007.263	978
3009.334	960
3011.403	978.33333
3013.472	946.33333
3015.539	937.66667
3017.604	938
3019.669	909
3021.732	920.66667
3023.794	920.66667
3025.854	928.66667
3027.914	906
3029.971	915
3032.028	921.66667
3034.083	917
3036.137	897.33333
3038.19	869.33333
3040.242	864.33333
3042.292	844.66667
3044.341	831
3046.388	850
3048.435	813.66667
3050.48	828.33333
3052.524	818.66667
3054.566	809
3056.607	816.66667
3058.647	797
3060.686	781.33333
3062.723	744.66667
3064.759	727
3066.794	-0.66667
3068.828	4.66667
3070.86	3.33333
