-0.839	614.20833
3.438	693.54167
7.711	198.875
11.981	63.54167
16.247	49.20833
20.509	51.875
24.768	44.54167
29.024	55.54167
33.276	46.20833
37.524	51.20833
41.769	46.54167
46.01	32.54167
50.247	48.54167
54.481	59.54167
58.712	59.875
62.939	48.20833
67.162	61.875
71.382	58.875
75.599	44.54167
79.812	62.20833
84.021	82.20833
88.227	61.20833
92.429	56.875
96.628	51.54167
100.823	72.54167
105.015	75.20833
109.204	67.875
113.388	71.20833
117.57	75.54167
121.748	92.54167
125.922	79.54167
130.093	98.20833
134.261	98.54167
138.425	101.54167
142.585	133.875
146.742	134.875
150.896	161.20833
155.046	192.54167
159.193	298.875
163.336	508.20833
167.476	942.20833
171.613	1720.875
175.746	2861.875
179.875	4234.20833
184.002	5553.20833
188.124	6470.20833
192.244	6790.20833
196.36	6737.54167
200.472	6515.20833
204.581	6306.875
208.687	6127.875
212.79	6033.54167
216.889	5983.54167
220.984	5976.875
225.077	5931.875
229.165	5945.54167
233.251	5931.20833
237.333	5865.875
241.412	5790.54167
245.487	5789.20833
249.559	5669.875
253.628	5653.875
257.694	5576.54167
261.756	5543.54167
265.814	5455.54167
269.87	5309.875
273.922	5178.20833
277.97	5097.54167
282.016	5041.20833
286.058	5067.54167
290.097	5178.20833
294.132	5265.20833
298.164	5233.20833
302.193	5048.54167
306.219	4736.54167
310.241	4368.54167
314.26	4036.875
318.276	3742.875
322.288	3574.875
326.297	3422.54167
330.303	3301.875
334.305	3222.54167
338.305	3213.20833
342.301	3152.875
346.294	3118.875
350.283	3080.54167
354.269	3062.54167
358.252	3047.20833
362.232	3038.875
366.209	3040.20833
370.182	3016.54167
374.152	2974.875
378.119	2986.875
382.083	3016.54167
386.043	3022.875
390	2976.54167
393.954	2983.875
397.905	2976.875
401.852	2989.54167
405.797	2941.875
409.738	2946.20833
413.676	2943.54167
417.61	2963.54167
421.542	2919.20833
425.47	2891.875
429.396	2868.20833
433.318	2854.54167
437.236	2854.54167
441.152	2886.54167
445.065	2819.54167
448.974	2847.875
452.88	2771.54167
456.783	2790.20833
460.683	2763.54167
464.58	2776.54167
468.473	2778.875
472.364	2797.54167
476.251	2793.875
480.135	2815.875
484.016	2858.875
487.894	2869.875
491.769	2883.54167
495.641	2875.54167
499.509	2897.20833
503.375	2899.875
507.237	2885.875
511.096	2845.20833
514.952	2859.20833
518.805	2863.875
522.655	2873.875
526.502	2861.875
530.346	2863.875
534.187	2872.875
538.024	2884.875
541.859	2905.875
545.69	2941.875
549.519	2898.875
553.344	2879.20833
557.166	2842.875
560.985	2825.54167
564.802	2769.54167
568.615	2712.875
572.425	2687.20833
576.232	2677.875
580.036	2669.54167
583.836	2678.20833
587.634	2694.20833
591.429	2686.20833
595.221	2774.875
599.01	2784.20833
602.796	2804.875
606.578	2830.20833
610.358	2824.875
614.135	2797.20833
617.909	2776.54167
621.679	2740.875
625.447	2748.54167
629.212	2760.875
632.973	2747.20833
636.732	2731.54167
640.488	2740.20833
644.241	2723.875
647.991	2685.20833
651.737	2722.875
655.481	2690.875
659.222	2728.54167
662.96	2697.20833
666.695	2722.20833
670.427	2748.20833
674.156	2779.20833
677.882	2749.54167
681.605	2733.875
685.325	2685.20833
689.043	2711.875
692.757	2679.875
696.468	2672.875
700.177	2662.54167
703.882	2644.54167
707.585	2620.20833
711.284	2634.20833
714.981	2591.20833
718.675	2621.54167
722.366	2625.54167
726.054	2622.875
729.739	2608.875
733.421	2622.875
737.1	2625.54167
740.777	2628.54167
744.45	2650.875
748.121	2663.875
751.789	2716.875
755.453	2688.875
759.115	2713.54167
762.774	2743.20833
766.431	2750.875
770.084	2768.875
773.734	2775.54167
777.382	2823.875
781.027	2827.875
784.669	2856.54167
788.308	2845.20833
791.944	2861.54167
795.577	2882.875
799.208	2896.20833
802.835	2930.20833
806.46	2912.875
810.082	2921.20833
813.701	2947.20833
817.317	2956.875
820.931	2972.20833
824.542	2955.875
828.149	2925.54167
831.754	2890.875
835.357	2890.54167
838.956	2896.54167
842.553	2878.20833
846.146	2863.54167
849.737	2816.54167
853.326	2818.20833
856.911	2823.54167
860.493	2870.54167
864.073	2878.54167
867.65	2908.20833
871.225	2943.20833
874.796	2931.54167
878.365	2958.875
881.931	2947.20833
885.494	2971.54167
889.054	2984.54167
892.612	3014.54167
896.166	2954.54167
899.719	2952.20833
903.268	2921.54167
906.814	2896.20833
910.358	2850.54167
913.899	2831.20833
917.438	2813.875
920.973	2824.20833
924.506	2863.20833
928.036	2879.875
931.564	2936.875
935.088	2977.54167
938.61	2985.20833
942.129	3026.20833
945.646	3112.20833
949.16	3145.54167
952.671	3203.54167
956.179	3193.20833
959.685	3140.54167
963.188	3158.875
966.688	3136.54167
970.185	3039.20833
973.68	2968.54167
977.173	2899.20833
980.662	2869.875
984.149	2840.875
987.633	2832.875
991.114	2881.875
994.593	2920.875
998.069	2980.54167
1001.542	3035.875
1005.013	2995.875
1008.481	2848.20833
1011.947	2830.20833
1015.409	2814.20833
1018.869	2813.54167
1022.327	2797.20833
1025.782	2768.875
1029.234	2796.20833
1032.683	2753.875
1036.13	2670.20833
1039.574	2579.54167
1043.016	2504.20833
1046.455	2464.20833
1049.891	2451.54167
1053.325	2481.20833
1056.756	2460.54167
1060.184	2460.875
1063.61	2497.54167
1067.033	2506.875
1070.454	2499.20833
1073.872	2517.54167
1077.287	2525.54167
1080.7	2526.875
1084.11	2521.54167
1087.517	2503.54167
1090.922	2454.20833
1094.325	2424.20833
1097.724	2420.54167
1101.122	2414.875
1104.516	2405.20833
1107.908	2394.20833
1111.298	2442.54167
1114.684	2476.54167
1118.069	2494.54167
1121.45	2540.875
1124.83	2531.875
1128.206	2548.875
1131.58	2593.54167
1134.951	2649.875
1138.32	2705.54167
1141.687	2812.875
1145.05	2864.20833
1148.412	2868.20833
1151.77	2847.20833
1155.126	2835.20833
1158.48	2823.875
1161.831	2806.20833
1165.18	2810.20833
1168.525	2880.20833
1171.869	2865.20833
1175.21	2914.20833
1178.548	2960.54167
1181.884	2972.875
1185.217	3002.54167
1188.548	3073.875
1191.877	3144.54167
1195.202	3235.20833
1198.526	3306.54167
1201.846	3330.875
1205.165	3344.54167
1208.48	3309.20833
1211.794	3305.875
1215.104	3301.54167
1218.413	3329.54167
1221.719	3299.54167
1225.022	3244.875
1228.323	3191.54167
1231.621	3174.875
1234.917	3157.875
1238.21	3126.875
1241.501	3129.54167
1244.79	3110.54167
1248.076	3106.875
1251.359	3137.875
1254.64	3196.875
1257.919	3205.54167
1261.195	3263.875
1264.468	3311.875
1267.74	3354.54167
1271.008	3372.20833
1274.275	3357.875
1277.538	3343.54167
1280.8	3328.54167
1284.059	3338.20833
1287.315	3369.875
1290.569	3379.54167
1293.821	3400.54167
1297.07	3398.54167
1300.317	3416.875
1303.562	3411.20833
1306.803	3390.875
1310.043	3372.20833
1313.28	3353.875
1316.515	3350.875
1319.747	3339.20833
1322.977	3300.54167
1326.204	3268.20833
1329.429	3231.54167
1332.652	3211.875
1335.872	3199.54167
1339.09	3165.54167
1342.306	3114.54167
1345.519	3058.875
1348.729	3029.54167
1351.938	3033.875
1355.144	2998.20833
1358.347	2947.875
1361.548	2924.54167
1364.747	2930.875
1367.944	2901.20833
1371.138	2899.54167
1374.329	2920.20833
1377.518	2941.54167
1380.705	2972.54167
1383.89	2965.20833
1387.072	2868.20833
1390.252	2739.54167
1393.429	2649.875
1396.605	2578.54167
1399.777	2521.20833
1402.948	2466.54167
1406.116	2479.54167
1409.282	2478.54167
1412.445	2458.875
1415.606	2492.54167
1418.765	2532.875
1421.921	2589.20833
1425.075	2629.54167
1428.227	2696.875
1431.376	2848.875
1434.524	2910.54167
1437.668	3012.875
1440.811	3042.875
1443.951	3053.875
1447.089	3062.20833
1450.224	3064.20833
1453.357	3054.54167
1456.488	3023.875
1459.617	2981.54167
1462.743	2934.875
1465.867	2862.20833
1468.989	2832.54167
1472.108	2777.20833
1475.225	2726.20833
1478.34	2671.54167
1481.453	2674.54167
1484.563	2669.875
1487.671	2694.20833
1490.776	2718.54167
1493.88	2771.875
1496.981	2809.875
1500.08	2856.875
1503.176	2895.20833
1506.271	2910.54167
1509.363	2953.54167
1512.452	2986.20833
1515.54	3024.54167
1518.625	3044.20833
1521.708	3111.54167
1524.789	3209.54167
1527.867	3302.875
1530.944	3468.20833
1534.018	3580.875
1537.089	3735.875
1540.159	3781.54167
1543.226	3778.20833
1546.291	3671.875
1549.354	3608.875
1552.415	3546.20833
1555.473	3460.20833
1558.529	3404.875
1561.583	3343.875
1564.634	3341.54167
1567.684	3323.875
1570.731	3347.54167
1573.776	3406.54167
1576.819	3472.54167
1579.859	3468.20833
1582.898	3505.54167
1585.934	3541.54167
1588.968	3558.20833
1591.999	3549.875
1595.029	3566.875
1598.056	3608.54167
1601.081	3619.875
1604.104	3591.875
1607.125	3607.54167
1610.144	3521.20833
1613.16	3408.875
1616.174	3356.875
1619.186	3297.54167
1622.196	3223.54167
1625.203	3140.875
1628.209	3096.875
1631.212	3089.54167
1634.213	3073.20833
1637.212	3081.54167
1640.209	3033.875
1643.203	2955.20833
1646.196	2853.54167
1649.186	2721.875
1652.174	2635.20833
1655.16	2566.20833
1658.144	2495.54167
1661.125	2383.20833
1664.105	2286.875
1667.082	2168.875
1670.057	2071.875
1673.03	1941.20833
1676.001	1816.20833
1678.97	1705.20833
1681.937	1593.875
1684.901	1524.20833
1687.863	1459.20833
1690.824	1388.20833
1693.782	1367.20833
1696.738	1326.875
1699.692	1303.875
1702.643	1263.875
1705.593	1247.20833
1708.54	1240.54167
1711.486	1223.54167
1714.429	1201.54167
1717.37	1196.875
1720.309	1165.20833
1723.246	1160.54167
1726.181	1144.54167
1729.113	1149.54167
1732.044	1142.54167
1734.972	1121.54167
1737.899	1137.875
1740.823	1132.20833
1743.745	1075.875
1746.665	1077.875
1749.583	1052.20833
1752.499	1057.54167
1755.413	1043.875
1758.325	1022.20833
1761.235	1003.54167
1764.142	989.20833
1767.048	977.54167
1769.951	990.20833
1772.852	980.54167
1775.752	978.20833
1778.649	985.54167
1781.544	964.54167
1784.437	949.20833
1787.328	957.875
1790.217	950.20833
1793.104	921.54167
1795.989	920.875
1798.872	908.875
1801.753	934.54167
1804.631	918.54167
1807.508	938.54167
1810.383	919.20833
1813.255	914.54167
1816.126	900.20833
1818.994	910.20833
1821.861	901.20833
1824.725	899.54167
1827.587	890.54167
1830.448	887.20833
1833.306	856.875
1836.162	880.875
1839.017	867.54167
1841.869	849.875
1844.719	856.20833
1847.567	855.875
1850.414	843.875
1853.258	833.54167
1856.1	858.54167
1858.94	845.20833
1861.778	847.54167
1864.614	840.20833
1867.448	839.54167
1870.28	836.54167
1873.111	851.20833
1875.939	837.20833
1878.765	841.20833
1881.589	817.54167
1884.411	834.20833
1887.231	825.875
1890.049	825.20833
1892.865	829.20833
1895.68	807.54167
1898.492	822.875
1901.302	810.54167
1904.11	804.20833
1906.916	789.875
1909.721	793.875
1912.523	793.20833
1915.323	780.20833
1918.122	783.20833
1920.918	795.20833
1923.712	773.54167
1926.505	779.875
1929.295	764.54167
1932.084	782.54167
1934.87	772.875
1937.655	768.54167
1940.438	770.20833
1943.218	755.20833
1945.997	765.20833
1948.774	769.20833
1951.549	774.54167
1954.322	763.875
1957.093	761.20833
1959.862	748.875
1962.629	747.20833
1965.394	738.20833
1968.157	733.54167
1970.918	749.54167
1973.678	722.875
1976.435	737.54167
1979.19	731.875
1981.944	713.54167
1984.696	720.54167
1987.445	702.54167
1990.193	716.54167
1992.939	731.54167
1995.683	710.20833
1998.425	683.54167
2001.165	723.54167
2003.903	697.875
2006.639	707.875
2009.374	713.20833
2012.106	699.20833
2014.837	688.20833
2017.566	693.875
2020.292	699.54167
2023.017	693.54167
2025.74	697.20833
2028.461	682.20833
2031.18	682.875
2033.898	686.20833
2036.613	679.54167
2039.327	685.875
2042.038	666.20833
2044.748	671.20833
2047.456	687.54167
2050.162	659.20833
2052.866	657.54167
2055.568	674.875
2058.268	656.20833
2060.967	666.54167
2063.663	645.54167
2066.358	652.20833
2069.051	641.20833
2071.742	654.875
2074.431	653.20833
2077.118	647.54167
2079.804	641.20833
2082.487	646.54167
2085.169	654.875
2087.849	662.875
2090.527	644.20833
2093.203	636.54167
2095.877	655.54167
2098.55	646.875
2101.22	653.20833
2103.889	652.20833
2106.556	655.54167
2109.221	683.20833
2111.884	668.54167
2114.546	724.20833
2117.205	767.54167
2119.863	806.20833
2122.519	841.20833
2125.173	885.54167
2127.825	929.54167
2130.475	920.54167
2133.124	896.54167
2135.771	855.875
2138.416	836.54167
2141.059	782.875
2143.7	747.875
2146.339	707.54167
2148.977	674.54167
2151.613	668.875
2154.247	645.54167
2156.879	644.54167
2159.51	620.20833
2162.138	611.875
2164.765	620.20833
2167.39	591.875
2170.013	604.20833
2172.634	609.54167
2175.254	596.20833
2177.872	626.875
2180.488	584.875
2183.102	599.875
2185.714	580.875
2188.325	552.54167
2190.934	560.54167
2193.541	568.20833
2196.146	563.20833
2198.75	550.875
2201.351	551.54167
2203.951	543.54167
2206.549	547.875
2209.146	540.54167
2211.74	542.875
2214.333	546.54167
2216.924	524.875
2219.514	532.54167
2222.101	527.54167
2224.687	541.54167
2227.271	528.54167
2229.853	518.875
2232.433	504.875
2235.012	534.875
2237.589	522.54167
2240.164	527.54167
2242.738	529.54167
2245.309	508.875
2247.879	517.54167
2250.448	520.20833
2253.014	495.54167
2255.579	480.875
2258.142	493.875
2260.703	491.54167
2263.262	489.20833
2265.82	486.20833
2268.376	487.875
2270.93	476.54167
2273.483	463.54167
2276.033	484.54167
2278.583	468.20833
2281.13	474.54167
2283.675	464.875
2286.219	462.875
2288.761	466.54167
2291.302	473.54167
2293.841	472.875
2296.377	452.54167
2298.913	464.875
2301.446	471.20833
2303.978	464.54167
2306.508	447.54167
2309.037	457.875
2311.563	450.54167
2314.088	456.54167
2316.612	426.54167
2319.133	441.54167
2321.653	452.54167
2324.171	431.54167
2326.688	460.875
2329.202	441.20833
2331.715	440.54167
2334.227	433.875
2336.736	439.875
2339.244	435.54167
2341.751	422.20833
2344.255	439.20833
2346.758	433.54167
2349.259	409.54167
2351.759	431.20833
2354.257	417.20833
2356.753	420.20833
2359.247	423.54167
2361.74	438.54167
2364.231	416.875
2366.721	427.20833
2369.209	421.20833
2371.695	421.54167
2374.179	397.54167
2376.662	408.54167
2379.143	419.54167
2381.622	404.875
2384.1	418.54167
2386.576	405.20833
2389.051	422.20833
2391.524	421.54167
2393.995	413.20833
2396.464	402.20833
2398.932	401.875
2401.398	392.20833
2403.863	396.20833
2406.325	390.54167
2408.787	403.54167
2411.246	394.875
2413.704	395.54167
2416.16	395.20833
2418.615	395.54167
2421.068	404.54167
2423.519	395.875
2425.969	377.20833
2428.417	399.20833
2430.863	398.875
2433.308	406.20833
2435.751	397.54167
2438.193	389.875
2440.633	392.54167
2443.071	389.54167
2445.508	375.54167
2447.943	383.54167
2450.376	374.54167
2452.808	379.20833
2455.238	374.54167
2457.667	407.20833
2460.093	380.54167
2462.519	367.20833
2464.942	375.20833
2467.365	374.54167
2469.785	381.875
2472.204	374.20833
2474.621	370.20833
2477.037	382.20833
2479.451	359.875
2481.863	359.20833
2484.274	357.875
2486.683	362.20833
2489.091	380.54167
2491.497	363.875
2493.901	366.875
2496.304	368.54167
2498.705	372.875
2501.105	356.20833
2503.503	386.54167
2505.899	345.20833
2508.294	369.875
2510.687	359.54167
2513.079	354.875
2515.469	353.20833
2517.858	349.54167
2520.245	363.875
2522.63	356.20833
2525.014	344.20833
2527.396	342.875
2529.776	349.20833
2532.156	352.54167
2534.533	340.54167
2536.909	343.20833
2539.283	328.54167
2541.656	336.20833
2544.027	360.875
2546.397	334.54167
2548.765	341.54167
2551.131	337.875
2553.496	342.875
2555.86	348.20833
2558.221	332.875
2560.582	341.54167
2562.94	330.54167
2565.298	336.20833
2567.653	350.54167
2570.007	317.54167
2572.36	340.875
2574.711	331.54167
2577.06	347.20833
2579.408	339.875
2581.754	334.875
2584.099	341.20833
2586.442	334.54167
2588.784	344.875
2591.124	330.54167
2593.463	325.875
2595.8	336.875
2598.135	324.20833
2600.469	330.20833
2602.802	334.20833
2605.133	337.54167
2607.462	312.20833
2609.79	311.875
2612.116	326.54167
2614.441	333.875
2616.764	324.20833
2619.086	321.54167
2621.406	312.54167
2623.725	336.20833
2626.042	330.875
2628.358	321.875
2630.672	312.875
2632.985	332.875
2635.296	332.875
2637.606	329.20833
2639.914	316.20833
2642.22	323.54167
2644.525	323.875
2646.829	322.875
2649.131	335.875
2651.432	333.20833
2653.731	317.20833
2656.028	334.54167
2658.324	338.54167
2660.619	319.875
2662.912	328.54167
2665.204	318.20833
2667.494	326.875
2669.782	315.20833
2672.07	330.875
2674.355	340.20833
2676.639	327.875
2678.922	308.54167
2681.203	329.54167
2683.483	322.875
2685.761	317.54167
2688.038	339.54167
2690.313	329.875
2692.587	329.54167
2694.859	323.875
2697.13	329.54167
2699.399	342.20833
2701.667	345.54167
2703.933	333.20833
2706.198	339.20833
2708.461	342.875
2710.723	341.875
2712.984	342.875
2715.243	348.54167
2717.5	340.20833
2719.757	351.875
2722.011	341.875
2724.264	346.20833
2726.516	357.54167
2728.766	341.20833
2731.015	344.54167
2733.262	349.875
2735.508	350.54167
2737.753	354.54167
2739.996	338.875
2742.237	337.54167
2744.477	342.54167
2746.716	354.54167
2748.953	336.875
2751.189	342.20833
2753.423	334.54167
2755.656	314.875
2757.887	323.54167
2760.117	318.54167
2762.346	321.875
2764.573	314.20833
2766.798	313.54167
2769.022	311.54167
2771.245	327.875
2773.467	321.54167
2775.686	329.54167
2777.905	329.20833
2780.122	330.875
2782.337	338.20833
2784.552	334.875
2786.764	335.20833
2788.976	341.54167
2791.186	339.875
2793.394	339.875
2795.601	339.20833
2797.807	358.875
2800.011	363.875
2802.214	353.875
2804.415	356.54167
2806.615	353.54167
2808.814	358.54167
2811.011	369.54167
2813.206	364.875
2815.401	383.875
2817.594	388.20833
2819.785	395.54167
2821.975	382.54167
2824.164	385.20833
2826.351	402.54167
2828.537	411.54167
2830.722	421.54167
2832.905	435.875
2835.086	446.20833
2837.267	475.20833
2839.445	483.20833
2841.623	492.20833
2843.799	512.54167
2845.974	543.875
2848.147	566.875
2850.319	585.54167
2852.489	612.875
2854.659	626.875
2856.826	629.20833
2858.993	659.54167
2861.158	637.20833
2863.321	640.20833
2865.483	653.875
2867.644	663.54167
2869.804	649.54167
2871.962	654.875
2874.118	652.20833
2876.274	648.54167
2878.428	655.875
2880.58	653.20833
2882.731	639.20833
2884.881	647.20833
2887.03	656.875
2889.177	653.20833
2891.322	661.54167
2893.467	648.54167
2895.61	642.54167
2897.751	687.20833
2899.892	662.54167
2902.03	672.20833
2904.168	685.20833
2906.304	670.54167
2908.439	702.20833
2910.572	680.20833
2912.704	690.20833
2914.835	691.875
2916.965	694.54167
2919.093	705.54167
2921.219	680.875
2923.345	717.875
2925.469	676.20833
2927.591	664.54167
2929.712	653.875
2931.832	645.875
2933.951	632.20833
2936.068	617.54167
2938.184	607.54167
2940.299	602.875
2942.412	589.20833
2944.524	560.54167
2946.634	552.54167
2948.744	502.20833
2950.851	532.54167
2952.958	489.875
2955.063	484.20833
2957.167	487.20833
2959.269	464.20833
2961.371	469.875
2963.471	443.54167
2965.569	447.875
2967.666	419.20833
2969.762	415.875
2971.857	415.54167
2973.95	390.875
2976.042	389.20833
2978.133	378.875
2980.222	367.54167
2982.31	354.875
2984.396	343.54167
2986.482	348.875
2988.566	345.54167
2990.648	338.20833
2992.73	332.20833
2994.81	316.54167
2996.889	320.20833
2998.966	319.20833
3001.042	327.54167
3003.117	321.875
3005.191	322.875
3007.263	322.20833
3009.334	305.54167
3011.403	314.20833
3013.472	300.20833
3015.539	307.875
3017.604	311.875
3019.669	273.54167
3021.732	292.54167
3023.794	278.20833
3025.854	272.54167
3027.914	281.875
3029.971	284.875
3032.028	276.875
3034.083	273.20833
3036.137	273.875
3038.19	265.54167
3040.242	254.875
3042.292	247.875
3044.341	252.20833
3046.388	264.54167
3048.435	245.20833
3050.48	264.20833
3052.524	252.54167
3054.566	240.875
3056.607	253.54167
3058.647	242.54167
3060.686	231.20833
3062.723	223.875
3064.759	209.20833
3066.794	0.875
3068.828	1.20833
3070.86	2.54167
