-0.839	493.41667
3.438	560.08333
7.711	165.75
11.981	62.75
16.247	46.75
20.509	51.08333
24.768	46.75
29.024	58.41667
33.276	46.75
37.524	51.41667
41.769	44.75
46.01	32.08333
50.247	49.75
54.481	62.08333
58.712	64.08333
62.939	47.08333
67.162	63.41667
71.382	54.41667
75.599	50.41667
79.812	65.75
84.021	81.08333
88.227	58.75
92.429	63.08333
96.628	50.75
100.823	76.08333
105.015	80.08333
109.204	71.41667
113.388	73.08333
117.57	78.41667
121.748	83.08333
125.922	85.08333
130.093	99.41667
134.261	99.75
138.425	97.41667
142.585	136.75
146.742	130.08333
150.896	157.75
155.046	197.75
159.193	312.75
163.336	511.08333
167.476	918.41667
171.613	1703.75
175.746	2869.41667
179.875	4275.08333
184.002	5630.08333
188.124	6560.41667
192.244	6888.08333
196.36	6855.75
200.472	6670.75
204.581	6501.41667
208.687	6356.41667
212.79	6313.75
216.889	6298.75
220.984	6327.41667
225.077	6365.75
229.165	6324.08333
233.251	6350.41667
237.333	6344.75
241.412	6266.75
245.487	6183.75
249.559	6145.08333
253.628	6090.75
257.694	6060.41667
261.756	6023.41667
265.814	5838.75
269.87	5716.75
273.922	5530.75
277.97	5462.41667
282.016	5401.41667
286.058	5418.75
290.097	5582.41667
294.132	5627.08333
298.164	5576.75
302.193	5339.75
306.219	4990.75
310.241	4621.41667
314.26	4260.75
318.276	4006.75
322.288	3830.75
326.297	3694.41667
330.303	3588.08333
334.305	3500.08333
338.305	3457.08333
342.301	3428.75
346.294	3408.41667
350.283	3380.75
354.269	3366.41667
358.252	3337.41667
362.232	3326.41667
366.209	3316.08333
370.182	3291.75
374.152	3289.75
378.119	3305.75
382.083	3317.75
386.043	3310.75
390	3280.41667
393.954	3289.08333
397.905	3270.08333
401.852	3273.75
405.797	3250.08333
409.738	3222.75
413.676	3231.08333
417.61	3226.08333
421.542	3198.41667
425.47	3184.41667
429.396	3177.41667
433.318	3135.41667
437.236	3150.08333
441.152	3197.75
445.065	3114.08333
448.974	3112.75
452.88	3083.75
456.783	3097.75
460.683	3087.41667
464.58	3063.41667
468.473	3082.08333
472.364	3095.41667
476.251	3113.41667
480.135	3119.08333
484.016	3171.41667
487.894	3197.08333
491.769	3219.75
495.641	3204.08333
499.509	3212.41667
503.375	3202.75
507.237	3198.75
511.096	3181.08333
514.952	3228.08333
518.805	3276.08333
522.655	3277.41667
526.502	3222.75
530.346	3171.75
534.187	3159.75
538.024	3186.08333
541.859	3186.08333
545.69	3207.08333
549.519	3186.41667
553.344	3149.08333
557.166	3132.75
560.985	3078.75
564.802	3041.75
568.615	3010.75
572.425	2982.75
576.232	2962.08333
580.036	2938.41667
583.836	2981.75
587.634	2988.08333
591.429	2966.41667
595.221	3047.75
599.01	3094.41667
602.796	3088.41667
606.578	3095.08333
610.358	3100.41667
614.135	3078.75
617.909	3062.41667
621.679	3058.75
625.447	3040.75
629.212	3028.08333
632.973	3038.08333
636.732	3007.75
640.488	3021.08333
644.241	2970.08333
647.991	2986.75
651.737	3004.08333
655.481	2969.41667
659.222	2992.41667
662.96	3009.41667
666.695	3000.75
670.427	3033.75
674.156	3030.41667
677.882	3013.41667
681.605	3004.41667
685.325	2986.41667
689.043	2980.75
692.757	2958.75
696.468	2940.08333
700.177	2960.08333
703.882	2903.08333
707.585	2899.75
711.284	2910.41667
714.981	2900.08333
718.675	2893.41667
722.366	2921.75
726.054	2884.75
729.739	2882.75
733.421	2902.41667
737.1	2891.41667
740.777	2934.75
744.45	2928.75
748.121	2933.08333
751.789	2992.41667
755.453	3000.41667
759.115	2993.08333
762.774	3003.08333
766.431	3018.75
770.084	3029.75
773.734	3040.08333
777.382	3062.75
781.027	3098.41667
784.669	3102.08333
788.308	3142.08333
791.944	3158.41667
795.577	3171.75
799.208	3214.08333
802.835	3215.08333
806.46	3227.08333
810.082	3239.41667
813.701	3247.41667
817.317	3275.75
820.931	3270.75
824.542	3264.75
828.149	3230.75
831.754	3189.41667
835.357	3148.08333
838.956	3166.75
842.553	3175.08333
846.146	3134.08333
849.737	3089.08333
853.326	3086.41667
856.911	3092.41667
860.493	3122.41667
864.073	3170.75
867.65	3181.41667
871.225	3215.41667
874.796	3201.41667
878.365	3231.41667
881.931	3238.75
885.494	3269.75
889.054	3263.08333
892.612	3273.08333
896.166	3242.75
899.719	3223.75
903.268	3180.08333
906.814	3163.41667
910.358	3121.75
913.899	3091.75
917.438	3087.41667
920.973	3094.41667
924.506	3101.41667
928.036	3178.08333
931.564	3228.08333
935.088	3246.08333
938.61	3265.75
942.129	3280.08333
945.646	3385.41667
949.16	3396.41667
952.671	3430.75
956.179	3441.08333
959.685	3406.41667
963.188	3417.41667
966.688	3393.08333
970.185	3302.75
973.68	3250.75
977.173	3212.41667
980.662	3154.41667
984.149	3144.41667
987.633	3138.41667
991.114	3179.75
994.593	3253.75
998.069	3332.08333
1001.542	3411.75
1005.013	3353.41667
1008.481	3189.75
1011.947	3097.75
1015.409	3089.75
1018.869	3094.41667
1022.327	3082.41667
1025.782	3090.41667
1029.234	3075.41667
1032.683	3012.75
1036.13	2956.75
1039.574	2843.08333
1043.016	2778.75
1046.455	2722.08333
1049.891	2692.75
1053.325	2687.41667
1056.756	2693.41667
1060.184	2725.41667
1063.61	2724.08333
1067.033	2758.75
1070.454	2739.08333
1073.872	2776.08333
1077.287	2777.08333
1080.7	2789.75
1084.11	2773.75
1087.517	2753.75
1090.922	2707.08333
1094.325	2679.75
1097.724	2665.41667
1101.122	2630.75
1104.516	2634.75
1107.908	2612.75
1111.298	2665.75
1114.684	2703.41667
1118.069	2714.41667
1121.45	2757.08333
1124.83	2754.41667
1128.206	2745.08333
1131.58	2804.41667
1134.951	2844.75
1138.32	2924.75
1141.687	3028.75
1145.05	3083.08333
1148.412	3077.75
1151.77	3057.08333
1155.126	3043.41667
1158.48	3036.41667
1161.831	3027.75
1165.18	3069.41667
1168.525	3089.75
1171.869	3122.08333
1175.21	3139.08333
1178.548	3151.08333
1181.884	3185.08333
1185.217	3213.08333
1188.548	3297.75
1191.877	3332.41667
1195.202	3463.08333
1198.526	3529.41667
1201.846	3541.08333
1205.165	3538.08333
1208.48	3528.41667
1211.794	3517.08333
1215.104	3547.41667
1218.413	3534.41667
1221.719	3522.75
1225.022	3507.75
1228.323	3423.41667
1231.621	3416.08333
1234.917	3379.41667
1238.21	3397.08333
1241.501	3376.75
1244.79	3361.41667
1248.076	3374.08333
1251.359	3372.41667
1254.64	3469.08333
1257.919	3482.75
1261.195	3538.75
1264.468	3580.75
1267.74	3603.41667
1271.008	3613.75
1274.275	3606.75
1277.538	3593.41667
1280.8	3586.75
1284.059	3571.41667
1287.315	3621.41667
1290.569	3635.41667
1293.821	3640.08333
1297.07	3684.08333
1300.317	3655.41667
1303.562	3671.08333
1306.803	3637.08333
1310.043	3589.41667
1313.28	3567.41667
1316.515	3533.75
1319.747	3520.08333
1322.977	3538.75
1326.204	3507.08333
1329.429	3448.41667
1332.652	3441.08333
1335.872	3419.08333
1339.09	3383.08333
1342.306	3385.41667
1345.519	3369.41667
1348.729	3342.08333
1351.938	3340.75
1355.144	3303.08333
1358.347	3221.41667
1361.548	3218.41667
1364.747	3198.75
1367.944	3164.75
1371.138	3184.08333
1374.329	3184.75
1377.518	3219.75
1380.705	3221.08333
1383.89	3197.08333
1387.072	3082.08333
1390.252	2995.75
1393.429	2898.08333
1396.605	2831.41667
1399.777	2726.41667
1402.948	2727.08333
1406.116	2695.08333
1409.282	2697.08333
1412.445	2699.75
1415.606	2738.75
1418.765	2757.75
1421.921	2796.41667
1425.075	2866.75
1428.227	2944.75
1431.376	3039.08333
1434.524	3146.41667
1437.668	3239.08333
1440.811	3278.41667
1443.951	3291.08333
1447.089	3291.41667
1450.224	3276.08333
1453.357	3261.75
1456.488	3220.41667
1459.617	3175.75
1462.743	3128.75
1465.867	3043.75
1468.989	3017.08333
1472.108	2966.75
1475.225	2926.08333
1478.34	2887.41667
1481.453	2886.41667
1484.563	2852.75
1487.671	2889.41667
1490.776	2916.08333
1493.88	2989.75
1496.981	3013.75
1500.08	3057.75
1503.176	3089.08333
1506.271	3129.41667
1509.363	3154.41667
1512.452	3189.75
1515.54	3234.41667
1518.625	3265.08333
1521.708	3325.08333
1524.789	3434.41667
1527.867	3569.41667
1530.944	3721.08333
1534.018	3909.08333
1537.089	4003.75
1540.159	4091.08333
1543.226	4071.08333
1546.291	3981.41667
1549.354	3905.75
1552.415	3859.08333
1555.473	3731.08333
1558.529	3700.75
1561.583	3624.08333
1564.634	3608.08333
1567.684	3595.08333
1570.731	3623.41667
1573.776	3665.75
1576.819	3693.08333
1579.859	3720.75
1582.898	3777.75
1585.934	3809.75
1588.968	3821.08333
1591.999	3806.08333
1595.029	3809.75
1598.056	3850.41667
1601.081	3830.75
1604.104	3851.41667
1607.125	3823.08333
1610.144	3750.75
1613.16	3660.75
1616.174	3556.08333
1619.186	3501.41667
1622.196	3404.08333
1625.203	3352.41667
1628.209	3301.08333
1631.212	3285.41667
1634.213	3291.08333
1637.212	3318.08333
1640.209	3286.41667
1643.203	3243.75
1646.196	3123.75
1649.186	2971.41667
1652.174	2861.41667
1655.16	2804.41667
1658.144	2728.08333
1661.125	2606.75
1664.105	2483.41667
1667.082	2366.75
1670.057	2243.41667
1673.03	2130.41667
1676.001	2011.08333
1678.97	1871.75
1681.937	1756.75
1684.901	1686.08333
1687.863	1610.75
1690.824	1558.08333
1693.782	1529.41667
1696.738	1461.08333
1699.692	1434.41667
1702.643	1401.08333
1705.593	1384.41667
1708.54	1370.75
1711.486	1368.08333
1714.429	1330.75
1717.37	1340.75
1720.309	1297.75
1723.246	1312.41667
1726.181	1271.08333
1729.113	1295.41667
1732.044	1264.75
1734.972	1245.08333
1737.899	1262.41667
1740.823	1256.75
1743.745	1216.41667
1746.665	1207.75
1749.583	1190.75
1752.499	1179.08333
1755.413	1173.41667
1758.325	1154.75
1761.235	1136.08333
1764.142	1108.75
1767.048	1112.75
1769.951	1125.08333
1772.852	1101.08333
1775.752	1091.08333
1778.649	1100.08333
1781.544	1091.75
1784.437	1067.41667
1787.328	1086.08333
1790.217	1071.08333
1793.104	1039.08333
1795.989	1054.08333
1798.872	1045.41667
1801.753	1056.08333
1804.631	1034.75
1807.508	1046.75
1810.383	1041.41667
1813.255	1035.41667
1816.126	1024.75
1818.994	1032.41667
1821.861	1013.75
1824.725	1018.41667
1827.587	1010.41667
1830.448	1003.41667
1833.306	1001.41667
1836.162	989.75
1839.017	987.08333
1841.869	982.75
1844.719	980.41667
1847.567	963.41667
1850.414	960.41667
1853.258	967.41667
1856.1	976.75
1858.94	963.75
1861.778	967.08333
1864.614	949.41667
1867.448	945.08333
1870.28	938.75
1873.111	977.41667
1875.939	943.41667
1878.765	962.41667
1881.589	946.08333
1884.411	950.75
1887.231	954.08333
1890.049	937.41667
1892.865	947.75
1895.68	930.41667
1898.492	934.75
1901.302	922.41667
1904.11	918.41667
1906.916	914.75
1909.721	907.08333
1912.523	910.41667
1915.323	896.41667
1918.122	903.41667
1920.918	915.75
1923.712	895.08333
1926.505	877.75
1929.295	886.41667
1932.084	896.75
1934.87	900.08333
1937.655	896.75
1940.438	874.41667
1943.218	875.41667
1945.997	892.41667
1948.774	885.75
1951.549	886.41667
1954.322	876.08333
1957.093	873.75
1959.862	866.75
1962.629	858.41667
1965.394	865.08333
1968.157	853.75
1970.918	854.08333
1973.678	832.75
1976.435	842.75
1979.19	849.41667
1981.944	832.41667
1984.696	834.75
1987.445	815.08333
1990.193	825.41667
1992.939	834.08333
1995.683	813.75
1998.425	807.08333
2001.165	841.75
2003.903	810.75
2006.639	823.75
2009.374	817.75
2012.106	816.08333
2014.837	799.75
2017.566	813.75
2020.292	817.75
2023.017	812.08333
2025.74	804.41667
2028.461	793.41667
2031.18	793.75
2033.898	783.41667
2036.613	798.08333
2039.327	791.08333
2042.038	777.41667
2044.748	771.75
2047.456	777.75
2050.162	776.75
2052.866	779.08333
2055.568	784.41667
2058.268	780.75
2060.967	776.41667
2063.663	758.75
2066.358	755.08333
2069.051	760.08333
2071.742	774.41667
2074.431	764.75
2077.118	750.75
2079.804	752.75
2082.487	763.75
2085.169	777.75
2087.849	775.08333
2090.527	756.08333
2093.203	757.75
2095.877	769.08333
2098.55	776.75
2101.22	780.75
2103.889	788.08333
2106.556	783.08333
2109.221	829.41667
2111.884	822.75
2114.546	876.75
2117.205	918.41667
2119.863	983.08333
2122.519	1040.75
2125.173	1089.75
2127.825	1147.08333
2130.475	1146.41667
2133.124	1105.08333
2135.771	1074.41667
2138.416	1007.75
2141.059	958.75
2143.7	926.41667
2146.339	882.08333
2148.977	841.41667
2151.613	828.08333
2154.247	802.75
2156.879	785.08333
2159.51	765.08333
2162.138	754.08333
2164.765	753.08333
2167.39	733.75
2170.013	740.41667
2172.634	727.08333
2175.254	726.41667
2177.872	750.08333
2180.488	704.41667
2183.102	720.75
2185.714	694.41667
2188.325	679.75
2190.934	682.08333
2193.541	690.41667
2196.146	677.41667
2198.75	663.75
2201.351	663.41667
2203.951	655.41667
2206.549	675.75
2209.146	675.75
2211.74	664.75
2214.333	667.75
2216.924	637.75
2219.514	649.75
2222.101	639.08333
2224.687	654.41667
2227.271	646.75
2229.853	632.41667
2232.433	637.41667
2235.012	645.41667
2237.589	644.41667
2240.164	646.08333
2242.738	633.08333
2245.309	626.08333
2247.879	628.41667
2250.448	629.41667
2253.014	624.75
2255.579	605.41667
2258.142	613.41667
2260.703	605.41667
2263.262	600.08333
2265.82	603.41667
2268.376	601.41667
2270.93	588.08333
2273.483	583.75
2276.033	589.08333
2278.583	583.75
2281.13	590.75
2283.675	577.41667
2286.219	578.41667
2288.761	586.41667
2291.302	576.08333
2293.841	585.08333
2296.377	576.08333
2298.913	573.75
2301.446	591.41667
2303.978	574.08333
2306.508	565.75
2309.037	572.08333
2311.563	573.08333
2314.088	572.41667
2316.612	548.41667
2319.133	568.41667
2321.653	559.75
2324.171	559.41667
2326.688	564.08333
2329.202	569.75
2331.715	556.41667
2334.227	555.75
2336.736	558.41667
2339.244	555.08333
2341.751	538.08333
2344.255	555.08333
2346.758	545.75
2349.259	537.75
2351.759	543.08333
2354.257	536.41667
2356.753	530.75
2359.247	549.41667
2361.74	540.08333
2364.231	539.75
2366.721	539.75
2369.209	540.41667
2371.695	540.08333
2374.179	525.08333
2376.662	528.08333
2379.143	543.41667
2381.622	536.08333
2384.1	536.08333
2386.576	533.75
2389.051	541.08333
2391.524	543.08333
2393.995	542.75
2396.464	528.08333
2398.932	529.41667
2401.398	525.08333
2403.863	525.75
2406.325	517.75
2408.787	526.08333
2411.246	532.75
2413.704	512.41667
2416.16	519.75
2418.615	518.41667
2421.068	531.75
2423.519	526.08333
2425.969	515.08333
2428.417	519.75
2430.863	532.75
2433.308	524.75
2435.751	525.41667
2438.193	509.08333
2440.633	522.08333
2443.071	535.08333
2445.508	518.41667
2447.943	522.41667
2450.376	511.75
2452.808	513.08333
2455.238	506.75
2457.667	542.75
2460.093	504.75
2462.519	497.08333
2464.942	510.41667
2467.365	515.41667
2469.785	523.75
2472.204	512.08333
2474.621	504.75
2477.037	528.75
2479.451	495.75
2481.863	496.08333
2484.274	504.08333
2486.683	509.75
2489.091	507.41667
2491.497	512.41667
2493.901	505.08333
2496.304	514.41667
2498.705	510.75
2501.105	502.41667
2503.503	532.41667
2505.899	484.08333
2508.294	515.08333
2510.687	505.75
2513.079	497.08333
2515.469	491.08333
2517.858	498.08333
2520.245	510.75
2522.63	501.75
2525.014	489.41667
2527.396	488.75
2529.776	488.08333
2532.156	505.08333
2534.533	485.75
2536.909	491.75
2539.283	474.41667
2541.656	493.41667
2544.027	506.75
2546.397	491.41667
2548.765	492.75
2551.131	497.08333
2553.496	491.75
2555.86	491.75
2558.221	494.41667
2560.582	491.08333
2562.94	490.08333
2565.298	483.75
2567.653	513.75
2570.007	485.41667
2572.36	488.41667
2574.711	482.41667
2577.06	505.75
2579.408	498.41667
2581.754	499.41667
2584.099	507.41667
2586.442	488.08333
2588.784	499.75
2591.124	495.75
2593.463	491.08333
2595.8	501.08333
2598.135	486.41667
2600.469	492.75
2602.802	500.41667
2605.133	509.75
2607.462	489.08333
2609.79	470.41667
2612.116	495.41667
2614.441	493.41667
2616.764	497.08333
2619.086	498.41667
2621.406	479.08333
2623.725	501.41667
2626.042	499.08333
2628.358	486.41667
2630.672	490.41667
2632.985	514.08333
2635.296	502.41667
2637.606	492.75
2639.914	488.41667
2642.22	496.41667
2644.525	498.41667
2646.829	500.75
2649.131	525.08333
2651.432	519.08333
2653.731	507.41667
2656.028	521.75
2658.324	519.75
2660.619	510.41667
2662.912	515.41667
2665.204	496.08333
2667.494	513.08333
2669.782	500.75
2672.07	526.41667
2674.355	509.41667
2676.639	521.08333
2678.922	506.08333
2681.203	514.08333
2683.483	508.41667
2685.761	511.75
2688.038	513.41667
2690.313	530.08333
2692.587	520.41667
2694.859	507.75
2697.13	518.75
2699.399	528.08333
2701.667	530.08333
2703.933	535.41667
2706.198	531.08333
2708.461	546.08333
2710.723	535.75
2712.984	533.75
2715.243	538.75
2717.5	532.41667
2719.757	563.75
2722.011	545.08333
2724.264	564.41667
2726.516	568.75
2728.766	556.08333
2731.015	553.41667
2733.262	571.08333
2735.508	551.08333
2737.753	558.41667
2739.996	541.08333
2742.237	547.08333
2744.477	557.41667
2746.716	560.75
2748.953	543.75
2751.189	555.41667
2753.423	545.41667
2755.656	528.08333
2757.887	530.75
2760.117	547.08333
2762.346	530.08333
2764.573	532.75
2766.798	537.41667
2769.022	530.75
2771.245	538.41667
2773.467	544.08333
2775.686	547.75
2777.905	545.75
2780.122	558.08333
2782.337	551.08333
2784.552	557.08333
2786.764	550.75
2788.976	560.08333
2791.186	561.41667
2793.394	578.75
2795.601	575.41667
2797.807	587.08333
2800.011	588.08333
2802.214	587.08333
2804.415	594.75
2806.615	597.41667
2808.814	589.41667
2811.011	613.75
2813.206	601.75
2815.401	619.75
2817.594	619.08333
2819.785	629.41667
2821.975	627.41667
2824.164	626.75
2826.351	635.75
2828.537	652.75
2830.722	666.75
2832.905	664.41667
2835.086	687.08333
2837.267	722.41667
2839.445	732.08333
2841.623	747.75
2843.799	765.75
2845.974	797.75
2848.147	824.08333
2850.319	847.75
2852.489	870.41667
2854.659	878.41667
2856.826	880.41667
2858.993	918.75
2861.158	902.41667
2863.321	899.08333
2865.483	920.08333
2867.644	922.41667
2869.804	904.41667
2871.962	908.41667
2874.118	904.08333
2876.274	910.75
2878.428	894.08333
2880.58	905.41667
2882.731	900.08333
2884.881	889.75
2887.03	902.41667
2889.177	894.08333
2891.322	922.08333
2893.467	914.75
2895.61	910.08333
2897.751	920.08333
2899.892	918.41667
2902.03	930.41667
2904.168	930.41667
2906.304	932.41667
2908.439	948.75
2910.572	933.08333
2912.704	951.08333
2914.835	952.41667
2916.965	954.08333
2919.093	977.75
2921.219	946.41667
2923.345	950.41667
2925.469	921.08333
2927.591	933.08333
2929.712	898.75
2931.832	879.41667
2933.951	879.41667
2936.068	877.08333
2938.184	860.08333
2940.299	827.08333
2942.412	811.41667
2944.524	785.75
2946.634	777.41667
2948.744	739.41667
2950.851	760.75
2952.958	735.08333
2955.063	734.75
2957.167	724.41667
2959.269	703.75
2961.371	732.41667
2963.471	684.75
2965.569	691.08333
2967.666	665.41667
2969.762	657.08333
2971.857	663.41667
2973.95	642.08333
2976.042	640.75
2978.133	625.08333
2980.222	618.08333
2982.31	593.75
2984.396	571.41667
2986.482	581.41667
2988.566	572.41667
2990.648	572.75
2992.73	569.08333
2994.81	553.08333
2996.889	561.41667
2998.966	559.41667
3001.042	565.41667
3003.117	558.41667
3005.191	556.08333
3007.263	561.41667
3009.334	543.41667
3011.403	543.75
3013.472	525.75
3015.539	537.75
3017.604	538.41667
3019.669	509.08333
3021.732	507.75
3023.794	507.08333
3025.854	500.08333
3027.914	498.41667
3029.971	514.75
3032.028	497.41667
3034.083	498.75
3036.137	490.41667
3038.19	481.75
3040.242	464.08333
3042.292	461.41667
3044.341	452.41667
3046.388	466.75
3048.435	443.41667
3050.48	469.41667
3052.524	446.41667
3054.566	430.75
3056.607	447.75
3058.647	435.75
3060.686	419.41667
3062.723	412.75
3064.759	393.41667
3066.794	-0.58333
3068.828	1.08333
3070.86	1.41667
