-0.839	482.875
3.438	576.20833
7.711	165.875
11.981	57.54167
16.247	45.54167
20.509	49.875
24.768	43.54167
29.024	51.20833
33.276	42.20833
37.524	47.875
41.769	46.54167
46.01	30.875
50.247	42.54167
54.481	62.875
58.712	65.875
62.939	46.20833
67.162	60.875
71.382	51.875
75.599	44.54167
79.812	61.20833
84.021	77.20833
88.227	59.54167
92.429	60.20833
96.628	50.20833
100.823	66.20833
105.015	75.20833
109.204	67.54167
113.388	75.875
117.57	75.54167
121.748	78.54167
125.922	78.54167
130.093	96.20833
134.261	91.875
138.425	97.875
142.585	133.20833
146.742	122.20833
150.896	152.875
155.046	188.54167
159.193	295.875
163.336	494.875
167.476	899.54167
171.613	1662.20833
175.746	2759.875
179.875	4063.54167
184.002	5322.875
188.124	6188.20833
192.244	6506.20833
196.36	6395.875
200.472	6204.875
204.581	5963.20833
208.687	5834.20833
212.79	5719.54167
216.889	5686.54167
220.984	5682.20833
225.077	5660.54167
229.165	5628.54167
233.251	5647.875
237.333	5577.875
241.412	5563.54167
245.487	5463.54167
249.559	5413.20833
253.628	5364.875
257.694	5345.54167
261.756	5251.875
265.814	5144.54167
269.87	4955.875
273.922	4840.875
277.97	4760.54167
282.016	4715.54167
286.058	4748.20833
290.097	4873.20833
294.132	4929.20833
298.164	4899.875
302.193	4600.875
306.219	4302.875
310.241	3934.875
314.26	3615.54167
318.276	3354.54167
322.288	3212.54167
326.297	3052.20833
330.303	2956.54167
334.305	2866.54167
338.305	2837.875
342.301	2782.20833
346.294	2770.875
350.283	2728.54167
354.269	2713.875
358.252	2701.20833
362.232	2658.54167
366.209	2655.20833
370.182	2626.875
374.152	2636.875
378.119	2620.875
382.083	2592.54167
386.043	2642.20833
390	2609.54167
393.954	2600.875
397.905	2579.875
401.852	2576.875
405.797	2538.54167
409.738	2537.875
413.676	2524.54167
417.61	2525.54167
421.542	2517.875
425.47	2486.875
429.396	2452.54167
433.318	2450.875
437.236	2438.20833
441.152	2453.875
445.065	2397.20833
448.974	2432.875
452.88	2356.54167
456.783	2371.20833
460.683	2341.54167
464.58	2380.54167
468.473	2356.875
472.364	2353.875
476.251	2362.54167
480.135	2387.54167
484.016	2407.875
487.894	2433.20833
491.769	2442.875
495.641	2453.20833
499.509	2448.20833
503.375	2446.54167
507.237	2430.54167
511.096	2474.875
514.952	2490.54167
518.805	2536.54167
522.655	2562.20833
526.502	2486.54167
530.346	2444.875
534.187	2442.875
538.024	2448.875
541.859	2476.54167
545.69	2476.54167
549.519	2470.875
553.344	2434.54167
557.166	2406.54167
560.985	2383.54167
564.802	2335.54167
568.615	2320.875
572.425	2262.875
576.232	2250.20833
580.036	2282.875
583.836	2273.20833
587.634	2285.54167
591.429	2274.54167
595.221	2330.875
599.01	2374.54167
602.796	2393.54167
606.578	2407.875
610.358	2377.20833
614.135	2372.20833
617.909	2347.54167
621.679	2319.20833
625.447	2310.20833
629.212	2317.20833
632.973	2329.875
636.732	2329.20833
640.488	2331.54167
644.241	2271.54167
647.991	2291.875
651.737	2300.875
655.481	2281.54167
659.222	2265.875
662.96	2243.20833
666.695	2292.20833
670.427	2306.875
674.156	2300.875
677.882	2290.20833
681.605	2304.875
685.325	2292.20833
689.043	2292.20833
692.757	2290.54167
696.468	2264.20833
700.177	2275.20833
703.882	2239.54167
707.585	2230.54167
711.284	2230.54167
714.981	2249.20833
718.675	2243.875
722.366	2260.875
726.054	2231.54167
729.739	2237.20833
733.421	2252.20833
737.1	2242.20833
740.777	2270.875
744.45	2256.875
748.121	2292.20833
751.789	2332.20833
755.453	2319.20833
759.115	2347.54167
762.774	2353.20833
766.431	2371.875
770.084	2411.54167
773.734	2414.20833
777.382	2463.54167
781.027	2471.875
784.669	2488.54167
788.308	2506.875
791.944	2503.875
795.577	2515.875
799.208	2553.54167
802.835	2570.54167
806.46	2563.20833
810.082	2577.20833
813.701	2553.20833
817.317	2599.20833
820.931	2604.20833
824.542	2597.20833
828.149	2581.20833
831.754	2558.20833
835.357	2563.54167
838.956	2558.54167
842.553	2559.54167
846.146	2555.20833
849.737	2518.20833
853.326	2535.20833
856.911	2546.20833
860.493	2589.875
864.073	2606.875
867.65	2639.20833
871.225	2644.20833
874.796	2649.20833
878.365	2665.20833
881.931	2681.20833
885.494	2722.54167
889.054	2711.875
892.612	2750.54167
896.166	2721.54167
899.719	2710.875
903.268	2656.20833
906.814	2622.54167
910.358	2599.20833
913.899	2583.20833
917.438	2565.54167
920.973	2569.875
924.506	2594.20833
928.036	2624.875
931.564	2652.20833
935.088	2692.20833
938.61	2726.875
942.129	2737.54167
945.646	2818.875
949.16	2865.54167
952.671	2876.875
956.179	2896.875
959.685	2855.875
963.188	2823.54167
966.688	2785.875
970.185	2710.54167
973.68	2676.20833
977.173	2634.54167
980.662	2601.54167
984.149	2587.54167
987.633	2588.875
991.114	2648.54167
994.593	2665.54167
998.069	2762.54167
1001.542	2841.54167
1005.013	2775.875
1008.481	2634.20833
1011.947	2604.20833
1015.409	2568.875
1018.869	2583.54167
1022.327	2582.20833
1025.782	2557.54167
1029.234	2549.20833
1032.683	2506.54167
1036.13	2422.54167
1039.574	2359.20833
1043.016	2302.20833
1046.455	2240.20833
1049.891	2228.875
1053.325	2243.54167
1056.756	2238.20833
1060.184	2259.875
1063.61	2308.54167
1067.033	2755.54167
1070.454	2614.54167
1073.872	2308.875
1077.287	2494.20833
1080.7	2303.875
1084.11	2301.875
1087.517	2299.875
1090.922	2236.54167
1094.325	2233.875
1097.724	2211.54167
1101.122	2210.875
1104.516	2218.54167
1107.908	2216.20833
1111.298	2259.54167
1114.684	2288.875
1118.069	2308.54167
1121.45	2338.875
1124.83	2307.54167
1128.206	2360.20833
1131.58	2396.20833
1134.951	2457.54167
1138.32	2522.875
1141.687	2618.875
1145.05	2658.20833
1148.412	2675.20833
1151.77	2635.875
1155.126	2663.875
1158.48	2631.875
1161.831	2643.875
1165.18	2654.20833
1168.525	2699.20833
1171.869	2713.20833
1175.21	2767.20833
1178.548	2789.20833
1181.884	2821.54167
1185.217	2828.875
1188.548	2926.20833
1191.877	2963.875
1195.202	3054.20833
1198.526	3113.20833
1201.846	3135.54167
1205.165	3107.20833
1208.48	3108.875
1211.794	3121.54167
1215.104	3129.20833
1218.413	3090.875
1221.719	3093.54167
1225.022	3069.54167
1228.323	3030.875
1231.621	2990.54167
1234.917	2961.20833
1238.21	2963.54167
1241.501	2961.54167
1244.79	2935.875
1248.076	2973.875
1251.359	2987.875
1254.64	3061.20833
1257.919	3080.54167
1261.195	3098.875
1264.468	3169.875
1267.74	3202.20833
1271.008	3218.875
1274.275	3197.875
1277.538	3168.54167
1280.8	3179.20833
1284.059	3155.875
1287.315	3200.54167
1290.569	3212.54167
1293.821	3256.20833
1297.07	3258.875
1300.317	3292.20833
1303.562	3278.54167
1306.803	3233.875
1310.043	3231.875
1313.28	3186.54167
1316.515	3155.875
1319.747	3151.54167
1322.977	3124.20833
1326.204	3063.20833
1329.429	3008.54167
1332.652	3005.54167
1335.872	2995.54167
1339.09	2952.54167
1342.306	2918.20833
1345.519	2912.20833
1348.729	2867.54167
1351.938	2840.875
1355.144	2819.54167
1358.347	2759.20833
1361.548	2763.875
1364.747	2771.54167
1367.944	2729.875
1371.138	2750.20833
1374.329	2781.875
1377.518	2823.20833
1380.705	2821.54167
1383.89	2785.54167
1387.072	2694.20833
1390.252	2579.875
1393.429	2520.20833
1396.605	2440.54167
1399.777	2382.54167
1402.948	2338.20833
1406.116	2352.54167
1409.282	2341.54167
1412.445	2352.54167
1415.606	2384.54167
1418.765	2406.54167
1421.921	2452.875
1425.075	2511.54167
1428.227	2586.875
1431.376	2711.875
1434.524	2787.20833
1437.668	2866.54167
1440.811	2899.875
1443.951	2946.875
1447.089	2934.875
1450.224	2913.875
1453.357	2916.875
1456.488	2859.875
1459.617	2828.20833
1462.743	2760.20833
1465.867	2706.875
1468.989	2661.20833
1472.108	2616.20833
1475.225	2567.875
1478.34	2535.54167
1481.453	2552.54167
1484.563	2532.875
1487.671	2579.54167
1490.776	2622.20833
1493.88	2670.875
1496.981	2697.875
1500.08	2727.875
1503.176	2777.875
1506.271	2817.54167
1509.363	2870.20833
1512.452	2866.20833
1515.54	2919.54167
1518.625	2965.875
1521.708	3029.20833
1524.789	3102.20833
1527.867	3218.54167
1530.944	3383.54167
1534.018	3530.20833
1537.089	3693.54167
1540.159	3745.54167
1543.226	3761.20833
1546.291	3678.20833
1549.354	3612.54167
1552.415	3514.20833
1555.473	3455.875
1558.529	3369.875
1561.583	3340.54167
1564.634	3319.875
1567.684	3327.54167
1570.731	3328.20833
1573.776	3379.54167
1576.819	3407.875
1579.859	3440.20833
1582.898	3482.875
1585.934	3513.54167
1588.968	3532.20833
1591.999	3508.54167
1595.029	3520.20833
1598.056	3538.20833
1601.081	3583.20833
1604.104	3554.20833
1607.125	3559.875
1610.144	3440.54167
1613.16	3374.54167
1616.174	3281.20833
1619.186	3205.875
1622.196	3114.875
1625.203	3012.20833
1628.209	2940.54167
1631.212	2897.54167
1634.213	2871.54167
1637.212	2856.875
1640.209	2797.875
1643.203	2727.875
1646.196	2643.875
1649.186	2542.54167
1652.174	2484.20833
1655.16	2379.875
1658.144	2330.20833
1661.125	2210.54167
1664.105	2149.54167
1667.082	2054.54167
1670.057	1963.20833
1673.03	1844.54167
1676.001	1715.875
1678.97	1614.20833
1681.937	1521.54167
1684.901	1427.875
1687.863	1383.875
1690.824	1325.20833
1693.782	1317.54167
1696.738	1243.54167
1699.692	1223.20833
1702.643	1187.54167
1705.593	1184.20833
1708.54	1176.875
1711.486	1152.875
1714.429	1111.20833
1717.37	1110.54167
1720.309	1088.54167
1723.246	1099.875
1726.181	1060.20833
1729.113	1072.54167
1732.044	1051.875
1734.972	1054.875
1737.899	1029.54167
1740.823	1043.54167
1743.745	1017.20833
1746.665	1004.875
1749.583	979.875
1752.499	971.20833
1755.413	971.54167
1758.325	928.875
1761.235	942.875
1764.142	917.20833
1767.048	897.875
1769.951	909.20833
1772.852	903.875
1775.752	892.20833
1778.649	884.875
1781.544	906.54167
1784.437	863.875
1787.328	872.54167
1790.217	868.875
1793.104	852.54167
1795.989	840.54167
1798.872	850.875
1801.753	850.875
1804.631	847.20833
1807.508	844.875
1810.383	847.875
1813.255	834.20833
1816.126	843.20833
1818.994	829.875
1821.861	825.875
1824.725	828.20833
1827.587	830.875
1830.448	813.875
1833.306	791.875
1836.162	803.54167
1839.017	794.54167
1841.869	800.20833
1844.719	802.54167
1847.567	769.54167
1850.414	764.54167
1853.258	783.20833
1856.1	788.20833
1858.94	786.54167
1861.778	783.54167
1864.614	771.54167
1867.448	768.20833
1870.28	762.54167
1873.111	782.54167
1875.939	778.20833
1878.765	788.54167
1881.589	770.54167
1884.411	900.54167
1887.231	802.20833
1890.049	757.54167
1892.865	771.875
1895.68	738.875
1898.492	764.20833
1901.302	760.875
1904.11	749.54167
1906.916	747.54167
1909.721	732.54167
1912.523	746.20833
1915.323	727.20833
1918.122	731.54167
1920.918	734.54167
1923.712	712.20833
1926.505	730.54167
1929.295	710.54167
1932.084	734.20833
1934.87	723.875
1937.655	722.20833
1940.438	719.54167
1943.218	724.20833
1945.997	730.54167
1948.774	728.875
1951.549	719.875
1954.322	712.20833
1957.093	709.875
1959.862	698.875
1962.629	706.875
1965.394	705.875
1968.157	692.875
1970.918	696.54167
1973.678	670.875
1976.435	703.875
1979.19	686.54167
1981.944	689.875
1984.696	687.20833
1987.445	674.20833
1990.193	684.875
1992.939	700.54167
1995.683	676.20833
1998.425	667.54167
2001.165	697.875
2003.903	663.54167
2006.639	667.54167
2009.374	680.875
2012.106	681.20833
2014.837	652.54167
2017.566	666.54167
2020.292	661.54167
2023.017	668.20833
2025.74	662.875
2028.461	644.54167
2031.18	654.875
2033.898	649.54167
2036.613	655.54167
2039.327	656.54167
2042.038	637.875
2044.748	645.875
2047.456	657.54167
2050.162	634.20833
2052.866	640.54167
2055.568	650.875
2058.268	637.875
2060.967	637.54167
2063.663	631.875
2066.358	635.875
2069.051	626.20833
2071.742	637.20833
2074.431	645.875
2077.118	635.20833
2079.804	630.54167
2082.487	629.875
2085.169	646.875
2087.849	656.54167
2090.527	642.20833
2093.203	653.20833
2095.877	657.20833
2098.55	650.20833
2101.22	663.54167
2103.889	678.54167
2106.556	671.54167
2109.221	692.875
2111.884	709.54167
2114.546	779.54167
2117.205	816.54167
2119.863	881.54167
2122.519	929.20833
2125.173	980.20833
2127.825	1042.54167
2130.475	1040.875
2133.124	988.875
2135.771	943.20833
2138.416	923.20833
2141.059	854.875
2143.7	821.875
2146.339	758.875
2148.977	721.875
2151.613	716.20833
2154.247	686.54167
2156.879	677.54167
2159.51	657.875
2162.138	644.875
2164.765	643.20833
2167.39	630.20833
2170.013	632.54167
2172.634	632.54167
2175.254	625.54167
2177.872	643.20833
2180.488	599.875
2183.102	620.875
2185.714	607.54167
2188.325	579.20833
2190.934	594.875
2193.541	606.875
2196.146	579.20833
2198.75	575.54167
2201.351	577.20833
2203.951	562.20833
2206.549	591.20833
2209.146	567.20833
2211.74	566.20833
2214.333	566.54167
2216.924	550.54167
2219.514	562.875
2222.101	552.875
2224.687	567.875
2227.271	558.20833
2229.853	549.54167
2232.433	544.20833
2235.012	557.54167
2237.589	560.20833
2240.164	559.54167
2242.738	550.54167
2245.309	532.54167
2247.879	548.20833
2250.448	553.54167
2253.014	533.875
2255.579	522.875
2258.142	524.875
2260.703	515.54167
2263.262	525.54167
2265.82	513.54167
2268.376	516.875
2270.93	507.20833
2273.483	509.20833
2276.033	516.20833
2278.583	513.20833
2281.13	504.20833
2283.675	491.875
2286.219	500.20833
2288.761	508.54167
2291.302	510.875
2293.841	510.20833
2296.377	490.20833
2298.913	497.875
2301.446	518.20833
2303.978	506.875
2306.508	498.54167
2309.037	507.875
2311.563	499.875
2314.088	505.875
2316.612	480.20833
2319.133	494.20833
2321.653	496.875
2324.171	483.20833
2326.688	486.875
2329.202	487.54167
2331.715	491.875
2334.227	495.20833
2336.736	492.875
2339.244	480.54167
2341.751	471.20833
2344.255	488.20833
2346.758	484.54167
2349.259	475.54167
2351.759	481.875
2354.257	480.54167
2356.753	471.54167
2359.247	472.875
2361.74	486.54167
2364.231	479.54167
2366.721	486.54167
2369.209	472.20833
2371.695	483.20833
2374.179	479.54167
2376.662	466.54167
2379.143	484.54167
2381.622	471.20833
2384.1	479.20833
2386.576	476.54167
2389.051	494.875
2391.524	497.875
2393.995	483.875
2396.464	471.54167
2398.932	475.875
2401.398	469.20833
2403.863	473.20833
2406.325	457.54167
2408.787	472.20833
2411.246	466.20833
2413.704	468.54167
2416.16	462.875
2418.615	473.875
2421.068	473.875
2423.519	474.875
2425.969	472.875
2428.417	468.875
2430.863	492.20833
2433.308	483.875
2435.751	479.20833
2438.193	463.20833
2440.633	466.20833
2443.071	480.875
2445.508	462.20833
2447.943	471.875
2450.376	460.875
2452.808	457.20833
2455.238	465.54167
2457.667	500.875
2460.093	463.54167
2462.519	459.20833
2464.942	471.20833
2467.365	478.20833
2469.785	480.875
2472.204	467.875
2474.621	464.875
2477.037	482.54167
2479.451	463.875
2481.863	458.54167
2484.274	450.54167
2486.683	467.54167
2489.091	475.875
2491.497	467.875
2493.901	471.20833
2496.304	461.54167
2498.705	475.875
2501.105	468.54167
2503.503	487.875
2505.899	461.20833
2508.294	479.54167
2510.687	464.54167
2513.079	462.54167
2515.469	458.20833
2517.858	471.54167
2520.245	480.20833
2522.63	468.20833
2525.014	459.875
2527.396	459.54167
2529.776	448.875
2532.156	476.54167
2534.533	453.54167
2536.909	460.20833
2539.283	447.875
2541.656	446.875
2544.027	477.20833
2546.397	455.54167
2548.765	458.875
2551.131	452.54167
2553.496	467.20833
2555.86	467.875
2558.221	457.20833
2560.582	458.875
2562.94	451.875
2565.298	458.875
2567.653	484.54167
2570.007	458.20833
2572.36	470.20833
2574.711	458.875
2577.06	487.54167
2579.408	480.20833
2581.754	470.875
2584.099	487.54167
2586.442	473.54167
2588.784	469.875
2591.124	477.54167
2593.463	474.20833
2595.8	481.875
2598.135	469.20833
2600.469	464.54167
2602.802	472.20833
2605.133	478.20833
2607.462	467.20833
2609.79	459.875
2612.116	476.54167
2614.441	465.20833
2616.764	483.54167
2619.086	475.54167
2621.406	467.54167
2623.725	492.875
2626.042	487.20833
2628.358	476.54167
2630.672	479.54167
2632.985	492.54167
2635.296	486.20833
2637.606	481.54167
2639.914	476.20833
2642.22	473.875
2644.525	492.20833
2646.829	489.875
2649.131	493.875
2651.432	508.20833
2653.731	493.20833
2656.028	503.875
2658.324	503.20833
2660.619	498.54167
2662.912	498.20833
2665.204	495.875
2667.494	500.20833
2669.782	491.20833
2672.07	513.54167
2674.355	506.875
2676.639	500.54167
2678.922	488.875
2681.203	499.20833
2683.483	497.20833
2685.761	495.54167
2688.038	509.875
2690.313	523.54167
2692.587	515.20833
2694.859	505.875
2697.13	513.54167
2699.399	517.54167
2701.667	524.20833
2703.933	532.875
2706.198	535.875
2708.461	540.20833
2710.723	541.20833
2712.984	530.54167
2715.243	535.54167
2717.5	529.54167
2719.757	550.875
2722.011	537.54167
2724.264	550.54167
2726.516	561.875
2728.766	551.54167
2731.015	557.875
2733.262	551.54167
2735.508	558.20833
2737.753	559.20833
2739.996	546.20833
2742.237	537.875
2744.477	555.20833
2746.716	556.54167
2748.953	540.20833
2751.189	553.20833
2753.423	531.20833
2755.656	528.54167
2757.887	527.20833
2760.117	532.875
2762.346	531.54167
2764.573	514.20833
2766.798	536.875
2769.022	532.875
2771.245	539.875
2773.467	542.875
2775.686	541.20833
2777.905	543.20833
2780.122	551.20833
2782.337	559.20833
2784.552	546.875
2786.764	559.20833
2788.976	568.875
2791.186	560.875
2793.394	572.875
2795.601	578.54167
2797.807	593.20833
2800.011	602.54167
2802.214	598.875
2804.415	601.20833
2806.615	595.20833
2808.814	604.875
2811.011	616.20833
2813.206	612.54167
2815.401	632.54167
2817.594	634.20833
2819.785	641.20833
2821.975	637.54167
2824.164	644.875
2826.351	661.20833
2828.537	674.20833
2830.722	671.54167
2832.905	673.20833
2835.086	708.54167
2837.267	743.20833
2839.445	735.54167
2841.623	763.54167
2843.799	778.54167
2845.974	800.875
2848.147	839.20833
2850.319	867.20833
2852.489	888.54167
2854.659	886.875
2856.826	905.20833
2858.993	929.54167
2861.158	901.20833
2863.321	919.875
2865.483	926.20833
2867.644	929.54167
2869.804	919.54167
2871.962	915.20833
2874.118	926.54167
2876.274	931.875
2878.428	919.875
2880.58	922.875
2882.731	904.20833
2884.881	906.875
2887.03	916.54167
2889.177	912.54167
2891.322	927.875
2893.467	924.875
2895.61	932.875
2897.751	946.875
2899.892	932.54167
2902.03	940.875
2904.168	949.54167
2906.304	943.54167
2908.439	968.875
2910.572	959.875
2912.704	976.875
2914.835	973.54167
2916.965	968.20833
2919.093	975.875
2921.219	956.20833
2923.345	979.54167
2925.469	951.54167
2927.591	945.875
2929.712	915.875
2931.832	915.54167
2933.951	896.875
2936.068	894.54167
2938.184	878.20833
2940.299	847.875
2942.412	835.875
2944.524	821.875
2946.634	808.54167
2948.744	759.875
2950.851	778.875
2952.958	743.875
2955.063	752.875
2957.167	748.20833
2959.269	718.875
2961.371	737.54167
2963.471	706.54167
2965.569	710.875
2967.666	691.54167
2969.762	690.54167
2971.857	681.54167
2973.95	657.54167
2976.042	647.54167
2978.133	632.875
2980.222	626.54167
2982.31	615.875
2984.396	589.20833
2986.482	590.875
2988.566	591.54167
2990.648	593.54167
2992.73	583.54167
2994.81	579.20833
2996.889	580.20833
2998.966	574.875
3001.042	577.875
3003.117	566.54167
3005.191	571.54167
3007.263	574.54167
3009.334	560.20833
3011.403	563.875
3013.472	555.54167
3015.539	559.875
3017.604	549.875
3019.669	514.20833
3021.732	517.875
3023.794	528.875
3025.854	521.20833
3027.914	518.20833
3029.971	525.20833
3032.028	522.875
3034.083	521.54167
3036.137	508.20833
3038.19	492.20833
3040.242	492.875
3042.292	470.20833
3044.341	476.875
3046.388	481.20833
3048.435	460.54167
3050.48	477.20833
3052.524	466.875
3054.566	455.20833
3056.607	463.54167
3058.647	451.875
3060.686	438.875
3062.723	413.875
3064.759	402.20833
3066.794	-0.125
3068.828	3.54167
3070.86	3.875
