-0.839	540.125
3.438	635.45833
7.711	196.125
11.981	62.125
16.247	44.45833
20.509	48.79167
24.768	47.125
29.024	52.125
33.276	42.79167
37.524	49.79167
41.769	43.79167
46.01	31.125
50.247	47.79167
54.481	59.45833
58.712	62.125
62.939	46.125
67.162	62.79167
71.382	54.45833
75.599	44.45833
79.812	60.79167
84.021	80.125
88.227	61.125
92.429	54.45833
96.628	50.79167
100.823	68.125
105.015	70.45833
109.204	66.125
113.388	71.45833
117.57	71.79167
121.748	81.79167
125.922	77.45833
130.093	91.45833
134.261	93.125
138.425	93.125
142.585	129.125
146.742	125.45833
150.896	146.125
155.046	183.45833
159.193	286.79167
163.336	476.125
167.476	885.45833
171.613	1611.79167
175.746	2661.45833
179.875	3980.45833
184.002	5200.45833
188.124	6026.125
192.244	6351.125
196.36	6235.45833
200.472	6036.45833
204.581	5782.79167
208.687	5600.79167
212.79	5500.79167
216.889	5466.125
220.984	5400.45833
225.077	5400.45833
229.165	5371.45833
233.251	5352.45833
237.333	5242.45833
241.412	5180.45833
245.487	5110.125
249.559	5019.45833
253.628	5002.125
257.694	4942.125
261.756	4882.79167
265.814	4778.45833
269.87	4608.45833
273.922	4477.45833
277.97	4413.125
282.016	4365.125
286.058	4403.45833
290.097	4467.125
294.132	4492.125
298.164	4454.125
302.193	4258.45833
306.219	3991.79167
310.241	3676.125
314.26	3421.125
318.276	3217.79167
322.288	3072.45833
326.297	2937.79167
330.303	2890.45833
334.305	2805.125
338.305	2771.79167
342.301	2736.45833
346.294	2714.45833
350.283	2692.79167
354.269	2660.125
358.252	2647.125
362.232	2656.125
366.209	2613.79167
370.182	2608.79167
374.152	2592.45833
378.119	2596.79167
382.083	2613.125
386.043	2608.125
390	2582.125
393.954	2585.125
397.905	2561.125
401.852	2573.45833
405.797	2564.125
409.738	2531.125
413.676	2538.79167
417.61	2540.79167
421.542	2505.79167
425.47	2483.125
429.396	2477.79167
433.318	2454.45833
437.236	2444.125
441.152	2479.45833
445.065	2409.79167
448.974	2402.45833
452.88	2396.45833
456.783	2399.125
460.683	2391.125
464.58	2372.79167
468.473	2365.45833
472.364	2390.79167
476.251	2372.125
480.135	2404.45833
484.016	2458.125
487.894	2466.125
491.769	2471.125
495.641	2479.45833
499.509	2504.45833
503.375	2493.79167
507.237	2484.125
511.096	2505.79167
514.952	2644.79167
518.805	2803.125
522.655	2865.125
526.502	2653.45833
530.346	2485.125
534.187	2483.45833
538.024	2474.125
541.859	2482.45833
545.69	2486.45833
549.519	2447.125
553.344	2460.79167
557.166	2416.125
560.985	2393.125
564.802	2357.79167
568.615	2337.79167
572.425	2298.79167
576.232	2286.125
580.036	2293.79167
583.836	2288.125
587.634	2311.125
591.429	2309.125
595.221	2354.125
599.01	2365.125
602.796	2421.125
606.578	2383.79167
610.358	2408.45833
614.135	2379.45833
617.909	2378.125
621.679	2343.45833
625.447	2355.79167
629.212	2332.79167
632.973	2354.125
636.732	2332.45833
640.488	2323.125
644.241	2321.79167
647.991	2301.125
651.737	2313.45833
655.481	2299.79167
659.222	2310.45833
662.96	2291.45833
666.695	2332.125
670.427	2306.79167
674.156	2328.45833
677.882	2330.45833
681.605	2320.79167
685.325	2280.79167
689.043	2297.125
692.757	2265.45833
696.468	2264.45833
700.177	2269.79167
703.882	2259.79167
707.585	2233.125
711.284	2240.79167
714.981	2236.79167
718.675	2234.125
722.366	2250.79167
726.054	2209.79167
729.739	2238.125
733.421	2229.125
737.1	2235.125
740.777	2255.45833
744.45	2276.79167
748.121	2276.125
751.789	2338.125
755.453	2319.79167
759.115	2322.45833
762.774	2326.45833
766.431	2338.125
770.084	2338.125
773.734	2371.45833
777.382	2410.125
781.027	2415.45833
784.669	2429.125
788.308	2431.79167
791.944	2444.79167
795.577	2450.125
799.208	2478.79167
802.835	2492.79167
806.46	2502.125
810.082	2523.79167
813.701	2501.45833
817.317	2567.45833
820.931	2547.125
824.542	2548.79167
828.149	2484.125
831.754	2457.125
835.357	2461.79167
838.956	2471.45833
842.553	2478.45833
846.146	2449.45833
849.737	2427.79167
853.326	2436.45833
856.911	2437.125
860.493	2474.45833
864.073	2446.45833
867.65	2521.79167
871.225	2518.79167
874.796	2523.79167
878.365	2510.79167
881.931	2552.79167
885.494	2591.79167
889.054	2569.79167
892.612	2609.79167
896.166	2583.125
899.719	2565.45833
903.268	2520.125
906.814	2484.45833
910.358	2468.45833
913.899	2438.45833
917.438	2468.125
920.973	2443.79167
924.506	2486.45833
928.036	2515.79167
931.564	2542.79167
935.088	2596.79167
938.61	2587.45833
942.129	2606.45833
945.646	2637.79167
949.16	2684.79167
952.671	2712.79167
956.179	2720.79167
959.685	2690.45833
963.188	2697.45833
966.688	2651.79167
970.185	2590.45833
973.68	2541.79167
977.173	2486.45833
980.662	2456.79167
984.149	2481.125
987.633	2448.125
991.114	2486.125
994.593	2540.125
998.069	2590.125
1001.542	2650.79167
1005.013	2624.79167
1008.481	2464.125
1011.947	2427.79167
1015.409	2413.45833
1018.869	2404.45833
1022.327	2402.125
1025.782	2391.79167
1029.234	2410.45833
1032.683	2369.79167
1036.13	2303.79167
1039.574	2218.45833
1043.016	2154.79167
1046.455	2106.125
1049.891	2111.79167
1053.325	2111.79167
1056.756	2122.45833
1060.184	2127.79167
1063.61	2142.45833
1067.033	2140.125
1070.454	2145.79167
1073.872	2172.45833
1077.287	2167.125
1080.7	2166.125
1084.11	2169.125
1087.517	2157.125
1090.922	2122.45833
1094.325	2097.45833
1097.724	2057.125
1101.122	2091.125
1104.516	2069.79167
1107.908	2085.45833
1111.298	2102.45833
1114.684	2118.125
1118.069	2143.79167
1121.45	2179.79167
1124.83	2169.125
1128.206	2188.79167
1131.58	2226.79167
1134.951	2278.45833
1138.32	2327.79167
1141.687	2412.45833
1145.05	2428.79167
1148.412	2438.79167
1151.77	2440.79167
1155.126	2424.79167
1158.48	2408.45833
1161.831	2418.79167
1165.18	2435.125
1168.525	2472.45833
1171.869	2490.125
1175.21	2504.45833
1178.548	2543.79167
1181.884	2575.125
1185.217	2592.45833
1188.548	2634.125
1191.877	2667.125
1195.202	2781.125
1198.526	2823.125
1201.846	2848.125
1205.165	2843.45833
1208.48	2844.79167
1211.794	2825.125
1215.104	2857.125
1218.413	2844.125
1221.719	2833.45833
1225.022	2791.125
1228.323	2756.79167
1231.621	2718.45833
1234.917	2713.45833
1238.21	2722.45833
1241.501	2727.79167
1244.79	2717.125
1248.076	2708.45833
1251.359	2736.79167
1254.64	2781.79167
1257.919	2814.79167
1261.195	2836.125
1264.468	2874.45833
1267.74	2909.79167
1271.008	2919.125
1274.275	2905.125
1277.538	2882.45833
1280.8	2915.45833
1284.059	2877.79167
1287.315	2901.45833
1290.569	2943.79167
1293.821	2928.79167
1297.07	2946.79167
1300.317	2974.125
1303.562	2960.45833
1306.803	2917.79167
1310.043	2935.125
1313.28	2915.45833
1316.515	2885.79167
1319.747	2874.125
1322.977	2877.125
1326.204	2837.79167
1329.429	2793.45833
1332.652	2776.45833
1335.872	2788.79167
1339.09	2740.79167
1342.306	2731.79167
1345.519	2695.125
1348.729	2653.79167
1351.938	2654.79167
1355.144	2612.125
1358.347	2580.125
1361.548	2565.79167
1364.747	2550.45833
1367.944	2531.79167
1371.138	2532.125
1374.329	2539.45833
1377.518	2541.125
1380.705	2566.79167
1383.89	2538.79167
1387.072	2468.125
1390.252	2379.125
1393.429	2325.125
1396.605	2259.125
1399.777	2214.125
1402.948	2184.45833
1406.116	2169.125
1409.282	2177.45833
1412.445	2170.125
1415.606	2224.45833
1418.765	2220.125
1421.921	2266.125
1425.075	2284.79167
1428.227	2359.125
1431.376	2450.125
1434.524	2551.45833
1437.668	2604.125
1440.811	2641.125
1443.951	2664.79167
1447.089	2654.79167
1450.224	2652.79167
1453.357	2643.45833
1456.488	2617.125
1459.617	2565.45833
1462.743	2539.45833
1465.867	2464.125
1468.989	2430.45833
1472.108	2388.45833
1475.225	2361.79167
1478.34	2327.45833
1481.453	2330.79167
1484.563	2312.125
1487.671	2366.45833
1490.776	2383.79167
1493.88	2424.79167
1496.981	2443.125
1500.08	2455.45833
1503.176	2504.45833
1506.271	2514.125
1509.363	2566.45833
1512.452	2575.79167
1515.54	2606.45833
1518.625	2648.45833
1521.708	2715.45833
1524.789	2778.45833
1527.867	2890.45833
1530.944	3044.79167
1534.018	3151.45833
1537.089	3296.45833
1540.159	3334.79167
1543.226	3323.79167
1546.291	3249.79167
1549.354	3195.125
1552.415	3121.45833
1555.473	3045.79167
1558.529	2984.125
1561.583	2969.125
1564.634	2947.125
1567.684	2945.79167
1570.731	2956.125
1573.776	2985.125
1576.819	3022.79167
1579.859	3045.125
1582.898	3079.79167
1585.934	3127.125
1588.968	3116.45833
1591.999	3130.45833
1595.029	3129.79167
1598.056	3146.79167
1601.081	3168.45833
1604.104	3183.45833
1607.125	3158.45833
1610.144	3080.45833
1613.16	3018.125
1616.174	2949.79167
1619.186	2901.125
1622.196	2835.79167
1625.203	2770.45833
1628.209	2723.79167
1631.212	2693.125
1634.213	2685.79167
1637.212	2697.125
1640.209	2648.125
1643.203	2590.45833
1646.196	2514.45833
1649.186	2421.45833
1652.174	2359.79167
1655.16	2263.45833
1658.144	2179.45833
1661.125	2099.79167
1664.105	2015.45833
1667.082	1902.79167
1670.057	1823.79167
1673.03	1704.125
1676.001	1598.45833
1678.97	1525.125
1681.937	1443.45833
1684.901	1363.125
1687.863	1322.125
1690.824	1251.79167
1693.782	1242.79167
1696.738	1183.125
1699.692	1165.79167
1702.643	1135.79167
1705.593	1136.125
1708.54	1116.79167
1711.486	1111.45833
1714.429	1076.79167
1717.37	1077.45833
1720.309	1060.125
1723.246	1057.45833
1726.181	1044.125
1729.113	1036.125
1732.044	1019.79167
1734.972	1020.79167
1737.899	1018.45833
1740.823	1018.79167
1743.745	967.45833
1746.665	980.125
1749.583	968.45833
1752.499	961.125
1755.413	947.79167
1758.325	917.79167
1761.235	911.79167
1764.142	903.79167
1767.048	892.125
1769.951	901.125
1772.852	898.79167
1775.752	898.79167
1778.649	897.79167
1781.544	891.45833
1784.437	861.125
1787.328	883.79167
1790.217	865.79167
1793.104	845.79167
1795.989	844.79167
1798.872	849.125
1801.753	844.79167
1804.631	851.79167
1807.508	845.79167
1810.383	848.79167
1813.255	847.79167
1816.126	842.45833
1818.994	833.125
1821.861	829.45833
1824.725	834.45833
1827.587	826.45833
1830.448	830.125
1833.306	792.79167
1836.162	810.45833
1839.017	804.45833
1841.869	806.45833
1844.719	800.125
1847.567	787.79167
1850.414	782.79167
1853.258	795.125
1856.1	800.125
1858.94	807.45833
1861.778	781.125
1864.614	787.125
1867.448	784.125
1870.28	776.79167
1873.111	796.79167
1875.939	788.45833
1878.765	801.125
1881.589	773.45833
1884.411	779.79167
1887.231	784.79167
1890.049	780.45833
1892.865	788.45833
1895.68	775.125
1898.492	784.125
1901.302	780.45833
1904.11	766.79167
1906.916	759.79167
1909.721	758.45833
1912.523	768.125
1915.323	753.45833
1918.122	736.79167
1920.918	753.45833
1923.712	739.125
1926.505	745.45833
1929.295	742.125
1932.084	752.125
1934.87	750.45833
1937.655	748.45833
1940.438	748.79167
1943.218	749.45833
1945.997	740.45833
1948.774	741.125
1951.549	764.45833
1954.322	747.79167
1957.093	742.125
1959.862	721.125
1962.629	725.79167
1965.394	734.125
1968.157	719.125
1970.918	716.45833
1973.678	714.45833
1976.435	726.79167
1979.19	711.125
1981.944	717.125
1984.696	718.79167
1987.445	682.45833
1990.193	717.125
1992.939	731.125
1995.683	717.125
1998.425	701.79167
2001.165	726.125
2003.903	706.125
2006.639	711.79167
2009.374	706.45833
2012.106	707.125
2014.837	695.125
2017.566	706.79167
2020.292	711.79167
2023.017	703.45833
2025.74	704.79167
2028.461	695.45833
2031.18	693.45833
2033.898	691.45833
2036.613	698.79167
2039.327	699.125
2042.038	685.45833
2044.748	693.125
2047.456	682.45833
2050.162	678.79167
2052.866	678.79167
2055.568	689.79167
2058.268	675.125
2060.967	688.79167
2063.663	690.125
2066.358	687.79167
2069.051	685.79167
2071.742	689.45833
2074.431	681.79167
2077.118	683.45833
2079.804	674.45833
2082.487	691.79167
2085.169	696.45833
2087.849	704.79167
2090.527	679.79167
2093.203	696.125
2095.877	694.79167
2098.55	703.79167
2101.22	705.125
2103.889	715.79167
2106.556	710.79167
2109.221	742.79167
2111.884	754.125
2114.546	804.45833
2117.205	843.45833
2119.863	903.79167
2122.519	944.45833
2125.173	987.125
2127.825	1048.79167
2130.475	1043.79167
2133.124	1005.125
2135.771	960.45833
2138.416	944.79167
2141.059	890.45833
2143.7	852.79167
2146.339	808.79167
2148.977	774.79167
2151.613	769.125
2154.247	739.79167
2156.879	737.125
2159.51	718.79167
2162.138	701.79167
2164.765	701.45833
2167.39	689.79167
2170.013	707.79167
2172.634	699.45833
2175.254	695.45833
2177.872	721.125
2180.488	668.125
2183.102	678.125
2185.714	673.79167
2188.325	651.45833
2190.934	665.45833
2193.541	668.125
2196.146	664.125
2198.75	642.45833
2201.351	643.45833
2203.951	656.125
2206.549	655.79167
2209.146	646.79167
2211.74	641.79167
2214.333	644.45833
2216.924	634.125
2219.514	649.45833
2222.101	642.79167
2224.687	654.125
2227.271	640.79167
2229.853	629.125
2232.433	619.45833
2235.012	649.45833
2237.589	638.125
2240.164	651.125
2242.738	636.125
2245.309	639.45833
2247.879	645.45833
2250.448	644.125
2253.014	630.125
2255.579	618.125
2258.142	623.125
2260.703	618.45833
2263.262	626.45833
2265.82	616.125
2268.376	621.79167
2270.93	614.125
2273.483	610.45833
2276.033	621.125
2278.583	617.125
2281.13	611.45833
2283.675	600.45833
2286.219	612.125
2288.761	612.125
2291.302	618.125
2293.841	629.125
2296.377	593.125
2298.913	612.125
2301.446	630.125
2303.978	617.45833
2306.508	606.125
2309.037	621.45833
2311.563	618.45833
2314.088	627.125
2316.612	605.125
2319.133	613.79167
2321.653	613.45833
2324.171	618.45833
2326.688	626.45833
2329.202	620.125
2331.715	610.45833
2334.227	611.125
2336.736	619.79167
2339.244	608.125
2341.751	597.79167
2344.255	616.45833
2346.758	616.45833
2349.259	602.79167
2351.759	619.125
2354.257	612.79167
2356.753	614.45833
2359.247	620.125
2361.74	625.79167
2364.231	614.79167
2366.721	626.79167
2369.209	626.45833
2371.695	618.79167
2374.179	610.45833
2376.662	606.125
2379.143	622.79167
2381.622	620.45833
2384.1	635.125
2386.576	626.79167
2389.051	631.125
2391.524	634.125
2393.995	641.45833
2396.464	621.45833
2398.932	634.125
2401.398	626.79167
2403.863	636.45833
2406.325	611.125
2408.787	635.125
2411.246	631.125
2413.704	630.125
2416.16	615.79167
2418.615	631.125
2421.068	641.125
2423.519	631.125
2425.969	629.79167
2428.417	643.125
2430.863	657.45833
2433.308	651.125
2435.751	644.45833
2438.193	632.45833
2440.633	645.125
2443.071	649.45833
2445.508	644.125
2447.943	650.125
2450.376	637.125
2452.808	643.79167
2455.238	638.79167
2457.667	682.45833
2460.093	645.79167
2462.519	644.45833
2464.942	643.79167
2467.365	654.125
2469.785	670.45833
2472.204	653.79167
2474.621	640.45833
2477.037	674.79167
2479.451	652.79167
2481.863	636.79167
2484.274	656.125
2486.683	667.45833
2489.091	660.79167
2491.497	661.79167
2493.901	669.125
2496.304	671.45833
2498.705	678.79167
2501.105	667.79167
2503.503	682.45833
2505.899	658.45833
2508.294	694.79167
2510.687	669.79167
2513.079	688.79167
2515.469	679.125
2517.858	678.45833
2520.245	695.125
2522.63	674.125
2525.014	677.79167
2527.396	674.79167
2529.776	666.79167
2532.156	685.79167
2534.533	683.79167
2536.909	675.45833
2539.283	675.125
2541.656	683.79167
2544.027	707.125
2546.397	695.79167
2548.765	688.79167
2551.131	688.79167
2553.496	686.79167
2555.86	697.125
2558.221	689.45833
2560.582	693.125
2562.94	688.45833
2565.298	699.125
2567.653	716.125
2570.007	692.45833
2572.36	711.45833
2574.711	709.45833
2577.06	728.45833
2579.408	710.125
2581.754	718.45833
2584.099	723.79167
2586.442	715.79167
2588.784	725.125
2591.124	728.125
2593.463	724.45833
2595.8	729.79167
2598.135	713.125
2600.469	730.79167
2602.802	741.45833
2605.133	735.79167
2607.462	726.125
2609.79	728.79167
2612.116	734.79167
2614.441	746.45833
2616.764	744.45833
2619.086	734.45833
2621.406	732.125
2623.725	748.125
2626.042	758.125
2628.358	754.125
2630.672	747.45833
2632.985	769.125
2635.296	769.125
2637.606	751.79167
2639.914	754.79167
2642.22	770.79167
2644.525	768.45833
2646.829	776.125
2649.131	793.125
2651.432	791.79167
2653.731	789.45833
2656.028	802.125
2658.324	804.125
2660.619	785.125
2662.912	797.45833
2665.204	794.125
2667.494	805.45833
2669.782	794.79167
2672.07	804.45833
2674.355	811.79167
2676.639	803.45833
2678.922	791.125
2681.203	812.45833
2683.483	793.45833
2685.761	807.125
2688.038	821.45833
2690.313	827.125
2692.587	822.79167
2694.859	815.79167
2697.13	826.45833
2699.399	840.79167
2701.667	837.45833
2703.933	834.45833
2706.198	845.79167
2708.461	848.125
2710.723	854.125
2712.984	849.125
2715.243	863.79167
2717.5	852.125
2719.757	871.79167
2722.011	873.79167
2724.264	878.45833
2726.516	895.79167
2728.766	877.45833
2731.015	898.125
2733.262	884.45833
2735.508	886.79167
2737.753	898.125
2739.996	871.45833
2742.237	879.45833
2744.477	882.79167
2746.716	886.79167
2748.953	877.125
2751.189	889.125
2753.423	881.125
2755.656	873.45833
2757.887	869.45833
2760.117	872.45833
2762.346	883.45833
2764.573	856.45833
2766.798	870.45833
2769.022	873.45833
2771.245	893.79167
2773.467	883.125
2775.686	891.79167
2777.905	901.45833
2780.122	901.45833
2782.337	920.125
2784.552	913.79167
2786.764	913.125
2788.976	916.125
2791.186	929.125
2793.394	941.125
2795.601	942.79167
2797.807	962.45833
2800.011	962.79167
2802.214	956.45833
2804.415	962.125
2806.615	974.79167
2808.814	974.45833
2811.011	981.125
2813.206	977.79167
2815.401	988.45833
2817.594	995.125
2819.785	999.79167
2821.975	985.79167
2824.164	997.79167
2826.351	1005.125
2828.537	1033.79167
2830.722	1037.79167
2832.905	1032.79167
2835.086	1060.79167
2837.267	1099.79167
2839.445	1094.125
2841.623	1108.79167
2843.799	1142.45833
2845.974	1153.79167
2848.147	1194.79167
2850.319	1203.125
2852.489	1238.45833
2854.659	1222.45833
2856.826	1247.45833
2858.993	1273.79167
2861.158	1257.125
2863.321	1274.79167
2865.483	1287.79167
2867.644	1261.79167
2869.804	1273.125
2871.962	1270.125
2874.118	1259.125
2876.274	1261.79167
2878.428	1263.125
2880.58	1240.45833
2882.731	1257.125
2884.881	1236.45833
2887.03	1260.125
2889.177	1251.45833
2891.322	1269.125
2893.467	1254.45833
2895.61	1257.125
2897.751	1289.79167
2899.892	1278.79167
2902.03	1299.125
2904.168	1317.45833
2906.304	1312.125
2908.439	1332.125
2910.572	1310.125
2912.704	1338.125
2914.835	1337.125
2916.965	1332.125
2919.093	1339.79167
2921.219	1328.79167
2923.345	1362.125
2925.469	1311.45833
2927.591	1308.79167
2929.712	1296.79167
2931.832	1291.79167
2933.951	1267.125
2936.068	1261.125
2938.184	1246.125
2940.299	1217.45833
2942.412	1206.125
2944.524	1183.79167
2946.634	1182.125
2948.744	1152.125
2950.851	1168.79167
2952.958	1142.79167
2955.063	1146.45833
2957.167	1147.45833
2959.269	1127.45833
2961.371	1160.125
2963.471	1133.45833
2965.569	1116.79167
2967.666	1112.79167
2969.762	1082.79167
2971.857	1083.125
2973.95	1078.79167
2976.042	1075.125
2978.133	1053.125
2980.222	1037.125
2982.31	1015.125
2984.396	999.125
2986.482	996.125
2988.566	1008.45833
2990.648	998.125
2992.73	997.79167
2994.81	991.79167
2996.889	1002.45833
2998.966	987.125
3001.042	1005.45833
3003.117	1001.79167
3005.191	992.125
3007.263	994.125
3009.334	987.79167
3011.403	971.79167
3013.472	958.125
3015.539	949.125
3017.604	956.45833
3019.669	906.45833
3021.732	932.79167
3023.794	932.45833
3025.854	926.45833
3027.914	915.125
3029.971	931.125
3032.028	925.45833
3034.083	924.45833
3036.137	909.125
3038.19	888.125
3040.242	869.79167
3042.292	855.79167
3044.341	847.79167
3046.388	859.45833
3048.435	826.79167
3050.48	844.79167
3052.524	837.45833
3054.566	820.45833
3056.607	836.79167
3058.647	813.79167
3060.686	777.125
3062.723	764.79167
3064.759	738.45833
3066.794	-0.54167
3068.828	2.45833
3070.86	2.79167
