-0.839	532.04167
3.438	643.375
7.711	195.375
11.981	62.70833
16.247	47.375
20.509	52.375
24.768	45.375
29.024	56.375
33.276	46.375
37.524	51.04167
41.769	46.70833
46.01	35.70833
50.247	47.375
54.481	61.04167
58.712	61.04167
62.939	47.04167
67.162	60.70833
71.382	56.70833
75.599	45.70833
79.812	62.70833
84.021	79.375
88.227	60.04167
92.429	57.04167
96.628	50.375
100.823	72.375
105.015	75.70833
109.204	64.70833
113.388	72.04167
117.57	75.375
121.748	84.04167
125.922	76.04167
130.093	98.70833
134.261	97.70833
138.425	96.04167
142.585	137.375
146.742	132.375
150.896	160.70833
155.046	195.375
159.193	294.375
163.336	506.70833
167.476	923.04167
171.613	1713.375
175.746	2847.04167
179.875	4196.70833
184.002	5523.70833
188.124	6441.375
192.244	6789.70833
196.36	6737.70833
200.472	6495.04167
204.581	6297.04167
208.687	6098.70833
212.79	6013.70833
216.889	5966.70833
220.984	5973.04167
225.077	5924.375
229.165	5914.04167
233.251	5883.70833
237.333	5845.375
241.412	5746.04167
245.487	5700.04167
249.559	5607.70833
253.628	5530.70833
257.694	5487.375
261.756	5465.04167
265.814	5346.375
269.87	5259.04167
273.922	5085.375
277.97	5006.70833
282.016	4932.70833
286.058	4956.70833
290.097	5042.70833
294.132	5057.04167
298.164	5062.04167
302.193	4814.375
306.219	4575.375
310.241	4278.375
314.26	3984.04167
318.276	3771.04167
322.288	3635.375
326.297	3518.375
330.303	3426.375
334.305	3380.70833
338.305	3354.70833
342.301	3315.70833
346.294	3284.04167
350.283	3263.70833
354.269	3254.04167
358.252	3229.70833
362.232	3218.04167
366.209	3211.375
370.182	3198.70833
374.152	3167.04167
378.119	3181.70833
382.083	3194.70833
386.043	3201.04167
390	3183.375
393.954	3180.04167
397.905	3158.375
401.852	3193.04167
405.797	3145.04167
409.738	3148.375
413.676	3169.70833
417.61	3147.70833
421.542	3144.70833
425.47	3105.04167
429.396	3076.04167
433.318	3079.04167
437.236	3049.70833
441.152	3075.04167
445.065	3053.375
448.974	3057.70833
452.88	3007.04167
456.783	3036.375
460.683	3019.375
464.58	2998.04167
468.473	3014.70833
472.364	3032.375
476.251	3033.375
480.135	3056.70833
484.016	3097.70833
487.894	3112.375
491.769	3144.375
495.641	3130.04167
499.509	3149.04167
503.375	3145.70833
507.237	3133.375
511.096	3160.375
514.952	3298.04167
518.805	3421.04167
522.655	3490.04167
526.502	3294.04167
530.346	3116.04167
534.187	3099.70833
538.024	3105.04167
541.859	3088.70833
545.69	3106.04167
549.519	3117.375
553.344	3082.70833
557.166	3059.375
560.985	3014.04167
564.802	2998.375
568.615	2949.70833
572.425	2889.04167
576.232	2899.04167
580.036	2917.04167
583.836	2918.70833
587.634	2911.04167
591.429	2928.04167
595.221	2982.70833
599.01	3009.70833
602.796	3043.70833
606.578	3039.70833
610.358	3049.04167
614.135	3046.04167
617.909	2994.04167
621.679	2984.375
625.447	2984.375
629.212	2976.375
632.973	2956.70833
636.732	2944.04167
640.488	2957.70833
644.241	2929.04167
647.991	2935.375
651.737	2940.375
655.481	2923.375
659.222	2950.375
662.96	2942.375
666.695	2943.70833
670.427	2985.70833
674.156	2979.04167
677.882	2958.04167
681.605	2920.04167
685.325	2905.04167
689.043	2938.70833
692.757	2886.04167
696.468	2886.70833
700.177	2870.375
703.882	2855.70833
707.585	2836.70833
711.284	2845.70833
714.981	2834.375
718.675	2817.70833
722.366	2837.70833
726.054	2790.375
729.739	2815.375
733.421	2802.375
737.1	2832.70833
740.777	2832.70833
744.45	2841.70833
748.121	2858.70833
751.789	2921.04167
755.453	2885.70833
759.115	2908.04167
762.774	2908.375
766.431	2907.70833
770.084	2945.375
773.734	2921.04167
777.382	2972.70833
781.027	3000.04167
784.669	2978.375
788.308	3003.04167
791.944	2973.375
795.577	3020.70833
799.208	3060.70833
802.835	3060.70833
806.46	3085.375
810.082	3090.70833
813.701	3101.04167
817.317	3140.70833
820.931	3138.04167
824.542	3096.70833
828.149	3061.70833
831.754	3025.04167
835.357	3010.375
838.956	3053.04167
842.553	3033.04167
846.146	2993.04167
849.737	2950.04167
853.326	2949.04167
856.911	2942.70833
860.493	2942.70833
864.073	2972.04167
867.65	3017.04167
871.225	3031.70833
874.796	3039.04167
878.365	3032.04167
881.931	3044.375
885.494	3075.375
889.054	3076.70833
892.612	3094.70833
896.166	3067.375
899.719	3045.375
903.268	3028.04167
906.814	2998.70833
910.358	2947.04167
913.899	2920.375
917.438	2940.04167
920.973	2927.04167
924.506	2964.04167
928.036	3019.375
931.564	3032.375
935.088	3080.04167
938.61	3084.375
942.129	3107.375
945.646	3152.04167
949.16	3166.04167
952.671	3212.70833
956.179	3221.375
959.685	3169.04167
963.188	3177.70833
966.688	3151.375
970.185	3045.375
973.68	3027.70833
977.173	2997.70833
980.662	2945.04167
984.149	2953.375
987.633	2953.04167
991.114	2989.04167
994.593	2988.375
998.069	3063.375
1001.542	3114.375
1005.013	3110.04167
1008.481	2951.375
1011.947	2901.04167
1015.409	2881.70833
1018.869	2871.04167
1022.327	2875.375
1025.782	2861.375
1029.234	2866.04167
1032.683	2806.04167
1036.13	2743.70833
1039.574	2648.04167
1043.016	2576.70833
1046.455	2547.375
1049.891	2528.04167
1053.325	2524.70833
1056.756	2551.70833
1060.184	2550.70833
1063.61	2559.375
1067.033	2559.375
1070.454	2572.70833
1073.872	2580.375
1077.287	2600.04167
1080.7	2599.04167
1084.11	2604.375
1087.517	2581.70833
1090.922	2521.70833
1094.325	2499.70833
1097.724	2465.375
1101.122	2457.70833
1104.516	2468.375
1107.908	2456.04167
1111.298	2502.375
1114.684	2507.70833
1118.069	2531.70833
1121.45	2563.04167
1124.83	2547.375
1128.206	2574.04167
1131.58	2605.70833
1134.951	2672.375
1138.32	2711.375
1141.687	2800.04167
1145.05	2830.375
1148.412	2824.375
1151.77	2820.375
1155.126	2814.375
1158.48	2795.375
1161.831	2800.375
1165.18	2803.04167
1168.525	2820.375
1171.869	2857.04167
1175.21	2852.70833
1178.548	2907.375
1181.884	2929.375
1185.217	2961.70833
1188.548	2982.04167
1191.877	3053.70833
1195.202	3138.04167
1198.526	3201.375
1201.846	3227.375
1205.165	3228.375
1208.48	3238.04167
1211.794	3232.375
1215.104	3225.375
1218.413	3209.375
1221.719	3203.04167
1225.022	3182.375
1228.323	3105.375
1231.621	3105.04167
1234.917	3061.04167
1238.21	3110.375
1241.501	3068.375
1244.79	3058.375
1248.076	3087.04167
1251.359	3089.70833
1254.64	3176.375
1257.919	3163.375
1261.195	3214.04167
1264.468	3242.375
1267.74	3293.04167
1271.008	3279.375
1274.275	3269.04167
1277.538	3258.04167
1280.8	3243.70833
1284.059	3249.375
1287.315	3286.70833
1290.569	3290.375
1293.821	3301.375
1297.07	3327.04167
1300.317	3309.375
1303.562	3290.04167
1306.803	3259.375
1310.043	3282.04167
1313.28	3240.04167
1316.515	3243.04167
1319.747	3220.375
1322.977	3198.375
1326.204	3180.375
1329.429	3161.70833
1332.652	3176.375
1335.872	3133.375
1339.09	3132.375
1342.306	3121.375
1345.519	3079.04167
1348.729	3054.04167
1351.938	3055.70833
1355.144	3014.375
1358.347	2957.70833
1361.548	2943.70833
1364.747	2922.375
1367.944	2895.04167
1371.138	2902.70833
1374.329	2881.70833
1377.518	2885.375
1380.705	2916.375
1383.89	2891.70833
1387.072	2829.70833
1390.252	2753.04167
1393.429	2658.70833
1396.605	2602.375
1399.777	2519.70833
1402.948	2503.04167
1406.116	2483.375
1409.282	2489.375
1412.445	2480.70833
1415.606	2537.375
1418.765	2550.04167
1421.921	2575.375
1425.075	2613.375
1428.227	2685.04167
1431.376	2762.04167
1434.524	2834.04167
1437.668	2924.04167
1440.811	2959.04167
1443.951	2984.70833
1447.089	2992.375
1450.224	2958.375
1453.357	2962.04167
1456.488	2940.70833
1459.617	2898.70833
1462.743	2852.70833
1465.867	2769.04167
1468.989	2762.04167
1472.108	2670.70833
1475.225	2663.04167
1478.34	2618.70833
1481.453	2610.375
1484.563	2609.04167
1487.671	2630.375
1490.776	2641.04167
1493.88	2699.70833
1496.981	2703.04167
1500.08	2757.04167
1503.176	2773.04167
1506.271	2838.70833
1509.363	2856.375
1512.452	2874.375
1515.54	2892.70833
1518.625	2938.375
1521.708	3005.70833
1524.789	3083.70833
1527.867	3204.375
1530.944	3342.04167
1534.018	3463.70833
1537.089	3630.70833
1540.159	3623.70833
1543.226	3602.04167
1546.291	3559.70833
1549.354	3472.04167
1552.415	3402.70833
1555.473	3330.375
1558.529	3287.70833
1561.583	3224.04167
1564.634	3207.375
1567.684	3202.70833
1570.731	3201.70833
1573.776	3250.04167
1576.819	3290.375
1579.859	3310.70833
1582.898	3354.70833
1585.934	3397.04167
1588.968	3395.375
1591.999	3374.04167
1595.029	3382.375
1598.056	3414.04167
1601.081	3451.375
1604.104	3397.375
1607.125	3416.375
1610.144	3331.375
1613.16	3260.375
1616.174	3221.70833
1619.186	3179.70833
1622.196	3112.375
1625.203	3031.04167
1628.209	2989.04167
1631.212	2972.04167
1634.213	3016.70833
1637.212	3024.375
1640.209	3031.70833
1643.203	2952.375
1646.196	2859.70833
1649.186	2728.04167
1652.174	2638.04167
1655.16	2554.375
1658.144	2481.04167
1661.125	2389.375
1664.105	2271.04167
1667.082	2170.375
1670.057	2094.04167
1673.03	1965.70833
1676.001	1841.70833
1678.97	1754.04167
1681.937	1646.04167
1684.901	1585.70833
1687.863	1539.04167
1690.824	1474.375
1693.782	1451.375
1696.738	1403.04167
1699.692	1384.04167
1702.643	1339.70833
1705.593	1322.04167
1708.54	1322.70833
1711.486	1297.375
1714.429	1270.70833
1717.37	1287.04167
1720.309	1254.04167
1723.246	1259.70833
1726.181	1243.375
1729.113	1230.375
1732.044	1220.04167
1734.972	1200.70833
1737.899	1229.70833
1740.823	1229.04167
1743.745	1181.70833
1746.665	1172.70833
1749.583	1164.70833
1752.499	1147.375
1755.413	1147.04167
1758.325	1120.04167
1761.235	1111.375
1764.142	1106.375
1767.048	1075.70833
1769.951	1079.70833
1772.852	1083.70833
1775.752	1076.04167
1778.649	1082.375
1781.544	1076.70833
1784.437	1060.04167
1787.328	1068.04167
1790.217	1049.70833
1793.104	1019.375
1795.989	1028.04167
1798.872	1011.04167
1801.753	1035.375
1804.631	1030.70833
1807.508	1035.375
1810.383	1025.375
1813.255	1022.375
1816.126	1015.375
1818.994	1016.375
1821.861	1012.375
1824.725	1007.375
1827.587	1003.70833
1830.448	997.375
1833.306	964.375
1836.162	974.04167
1839.017	979.70833
1841.869	959.70833
1844.719	966.375
1847.567	951.70833
1850.414	949.375
1853.258	966.375
1856.1	970.70833
1858.94	966.04167
1861.778	966.04167
1864.614	960.70833
1867.448	957.70833
1870.28	941.70833
1873.111	971.70833
1875.939	949.375
1878.765	971.375
1881.589	932.375
1884.411	952.70833
1887.231	950.375
1890.049	941.375
1892.865	942.04167
1895.68	924.375
1898.492	934.04167
1901.302	913.375
1904.11	921.375
1906.916	911.70833
1909.721	893.04167
1912.523	908.70833
1915.323	906.375
1918.122	893.70833
1920.918	909.375
1923.712	886.70833
1926.505	887.70833
1929.295	880.375
1932.084	906.04167
1934.87	901.04167
1937.655	899.70833
1940.438	877.70833
1943.218	885.375
1945.997	894.04167
1948.774	915.04167
1951.549	897.04167
1954.322	891.70833
1957.093	867.04167
1959.862	883.04167
1962.629	871.375
1965.394	878.04167
1968.157	868.04167
1970.918	858.04167
1973.678	852.04167
1976.435	869.375
1979.19	852.375
1981.944	846.375
1984.696	847.70833
1987.445	832.375
1990.193	855.70833
1992.939	856.375
1995.683	844.375
1998.425	814.04167
2001.165	849.04167
2003.903	825.70833
2006.639	845.04167
2009.374	859.70833
2012.106	840.70833
2014.837	821.04167
2017.566	827.375
2020.292	832.375
2023.017	828.375
2025.74	832.375
2028.461	808.375
2031.18	831.375
2033.898	817.04167
2036.613	824.70833
2039.327	818.04167
2042.038	812.04167
2044.748	812.04167
2047.456	808.04167
2050.162	793.70833
2052.866	813.375
2055.568	806.04167
2058.268	807.04167
2060.967	802.70833
2063.663	789.04167
2066.358	808.375
2069.051	787.375
2071.742	805.70833
2074.431	805.04167
2077.118	807.04167
2079.804	794.04167
2082.487	798.70833
2085.169	819.70833
2087.849	812.375
2090.527	792.70833
2093.203	808.04167
2095.877	813.375
2098.55	803.375
2101.22	819.70833
2103.889	821.04167
2106.556	826.70833
2109.221	844.70833
2111.884	844.375
2114.546	912.70833
2117.205	935.04167
2119.863	998.375
2122.519	1032.04167
2125.173	1078.375
2127.825	1123.70833
2130.475	1132.70833
2133.124	1116.375
2135.771	1063.375
2138.416	1041.04167
2141.059	981.70833
2143.7	951.70833
2146.339	909.375
2148.977	871.70833
2151.613	867.70833
2154.247	842.04167
2156.879	824.70833
2159.51	801.375
2162.138	798.70833
2164.765	805.70833
2167.39	781.375
2170.013	798.375
2172.634	788.70833
2175.254	782.70833
2177.872	810.375
2180.488	761.04167
2183.102	767.70833
2185.714	768.375
2188.325	740.70833
2190.934	740.70833
2193.541	748.375
2196.146	742.04167
2198.75	738.04167
2201.351	728.375
2203.951	723.375
2206.549	742.375
2209.146	720.70833
2211.74	720.375
2214.333	732.70833
2216.924	709.04167
2219.514	722.04167
2222.101	717.04167
2224.687	731.375
2227.271	714.70833
2229.853	706.375
2232.433	706.04167
2235.012	727.375
2237.589	714.04167
2240.164	732.375
2242.738	715.70833
2245.309	706.375
2247.879	718.375
2250.448	719.04167
2253.014	702.04167
2255.579	685.70833
2258.142	695.70833
2260.703	689.375
2263.262	691.04167
2265.82	687.04167
2268.376	689.70833
2270.93	667.04167
2273.483	677.70833
2276.033	689.375
2278.583	679.04167
2281.13	674.70833
2283.675	671.70833
2286.219	671.04167
2288.761	688.70833
2291.302	685.375
2293.841	691.375
2296.377	662.70833
2298.913	670.375
2301.446	692.375
2303.978	685.375
2306.508	674.375
2309.037	672.04167
2311.563	680.375
2314.088	685.375
2316.612	657.375
2319.133	683.375
2321.653	667.375
2324.171	658.70833
2326.688	693.70833
2329.202	666.70833
2331.715	667.375
2334.227	668.04167
2336.736	673.70833
2339.244	655.375
2341.751	649.70833
2344.255	675.04167
2346.758	670.04167
2349.259	655.70833
2351.759	677.04167
2354.257	662.375
2356.753	658.375
2359.247	670.375
2361.74	678.04167
2364.231	671.70833
2366.721	683.375
2369.209	660.70833
2371.695	678.70833
2374.179	659.04167
2376.662	659.375
2379.143	685.375
2381.622	662.375
2384.1	688.04167
2386.576	667.04167
2389.051	695.04167
2391.524	699.70833
2393.995	680.70833
2396.464	668.375
2398.932	670.70833
2401.398	672.70833
2403.863	677.04167
2406.325	676.375
2408.787	680.04167
2411.246	665.70833
2413.704	681.375
2416.16	675.70833
2418.615	682.70833
2421.068	681.70833
2423.519	681.70833
2425.969	679.375
2428.417	684.375
2430.863	699.70833
2433.308	689.70833
2435.751	680.375
2438.193	679.70833
2440.633	689.375
2443.071	679.375
2445.508	676.70833
2447.943	676.04167
2450.376	676.70833
2452.808	690.375
2455.238	678.70833
2457.667	720.375
2460.093	692.04167
2462.519	679.70833
2464.942	685.375
2467.365	687.04167
2469.785	694.70833
2472.204	693.04167
2474.621	687.375
2477.037	716.375
2479.451	684.375
2481.863	692.70833
2484.274	690.375
2486.683	685.375
2489.091	696.70833
2491.497	685.375
2493.901	704.70833
2496.304	695.04167
2498.705	706.375
2501.105	693.70833
2503.503	731.375
2505.899	690.375
2508.294	717.04167
2510.687	697.375
2513.079	704.375
2515.469	699.04167
2517.858	706.04167
2520.245	711.70833
2522.63	695.04167
2525.014	701.375
2527.396	687.375
2529.776	702.70833
2532.156	711.04167
2534.533	704.70833
2536.909	701.375
2539.283	702.04167
2541.656	707.04167
2544.027	716.04167
2546.397	708.04167
2548.765	712.70833
2551.131	720.04167
2553.496	714.04167
2555.86	734.70833
2558.221	734.375
2560.582	711.375
2562.94	714.70833
2565.298	719.04167
2567.653	733.04167
2570.007	709.04167
2572.36	728.70833
2574.711	720.04167
2577.06	742.375
2579.408	743.04167
2581.754	728.04167
2584.099	730.375
2586.442	736.04167
2588.784	753.04167
2591.124	734.04167
2593.463	739.375
2595.8	756.70833
2598.135	735.375
2600.469	738.04167
2602.802	753.04167
2605.133	760.70833
2607.462	734.04167
2609.79	735.04167
2612.116	749.04167
2614.441	751.04167
2616.764	759.375
2619.086	765.375
2621.406	756.70833
2623.725	786.70833
2626.042	774.70833
2628.358	763.375
2630.672	763.70833
2632.985	781.375
2635.296	770.70833
2637.606	774.70833
2639.914	760.375
2642.22	767.70833
2644.525	774.70833
2646.829	784.375
2649.131	807.70833
2651.432	804.70833
2653.731	799.04167
2656.028	799.375
2658.324	816.70833
2660.619	790.04167
2662.912	809.70833
2665.204	798.70833
2667.494	809.375
2669.782	809.04167
2672.07	811.70833
2674.355	812.375
2676.639	818.375
2678.922	807.04167
2681.203	814.04167
2683.483	799.70833
2685.761	814.04167
2688.038	818.04167
2690.313	831.04167
2692.587	822.04167
2694.859	826.70833
2697.13	828.04167
2699.399	840.04167
2701.667	838.04167
2703.933	852.04167
2706.198	848.70833
2708.461	855.70833
2710.723	858.375
2712.984	854.70833
2715.243	863.375
2717.5	844.70833
2719.757	893.375
2722.011	860.70833
2724.264	872.70833
2726.516	902.70833
2728.766	881.70833
2731.015	895.70833
2733.262	899.375
2735.508	893.375
2737.753	903.04167
2739.996	883.375
2742.237	882.70833
2744.477	885.375
2746.716	882.70833
2748.953	889.375
2751.189	893.04167
2753.423	872.375
2755.656	868.04167
2757.887	873.70833
2760.117	879.375
2762.346	863.70833
2764.573	865.70833
2766.798	872.375
2769.022	884.375
2771.245	878.70833
2773.467	883.04167
2775.686	904.375
2777.905	896.70833
2780.122	905.70833
2782.337	910.70833
2784.552	899.375
2786.764	916.04167
2788.976	913.04167
2791.186	925.70833
2793.394	925.04167
2795.601	947.375
2797.807	955.375
2800.011	965.04167
2802.214	950.375
2804.415	941.04167
2806.615	967.375
2808.814	972.04167
2811.011	973.375
2813.206	969.375
2815.401	989.375
2817.594	979.70833
2819.785	996.04167
2821.975	983.375
2824.164	980.375
2826.351	1002.04167
2828.537	1016.04167
2830.722	1018.375
2832.905	1031.04167
2835.086	1037.70833
2837.267	1080.375
2839.445	1083.04167
2841.623	1096.375
2843.799	1117.70833
2845.974	1153.04167
2848.147	1183.04167
2850.319	1191.04167
2852.489	1211.04167
2854.659	1232.70833
2856.826	1246.04167
2858.993	1278.70833
2861.158	1234.70833
2863.321	1252.375
2865.483	1279.04167
2867.644	1265.70833
2869.804	1245.375
2871.962	1269.70833
2874.118	1253.375
2876.274	1250.70833
2878.428	1253.70833
2880.58	1231.375
2882.731	1233.375
2884.881	1243.375
2887.03	1240.70833
2889.177	1252.04167
2891.322	1268.70833
2893.467	1269.04167
2895.61	1254.375
2897.751	1284.04167
2899.892	1276.04167
2902.03	1304.375
2904.168	1288.375
2906.304	1295.70833
2908.439	1322.04167
2910.572	1291.04167
2912.704	1329.70833
2914.835	1321.375
2916.965	1318.375
2919.093	1331.375
2921.219	1311.70833
2923.345	1333.04167
2925.469	1310.70833
2927.591	1309.04167
2929.712	1279.70833
2931.832	1270.04167
2933.951	1267.375
2936.068	1237.375
2938.184	1232.04167
2940.299	1215.04167
2942.412	1197.70833
2944.524	1170.70833
2946.634	1168.04167
2948.744	1130.04167
2950.851	1173.375
2952.958	1138.04167
2955.063	1138.70833
2957.167	1144.70833
2959.269	1097.04167
2961.371	1135.375
2963.471	1106.375
2965.569	1106.375
2967.666	1087.375
2969.762	1077.375
2971.857	1078.04167
2973.95	1053.70833
2976.042	1055.04167
2978.133	1039.375
2980.222	1037.04167
2982.31	1014.04167
2984.396	978.375
2986.482	992.375
2988.566	985.04167
2990.648	973.04167
2992.73	974.04167
2994.81	967.04167
2996.889	982.375
2998.966	968.70833
3001.042	986.375
3003.117	984.04167
3005.191	979.04167
3007.263	972.04167
3009.334	969.04167
3011.403	959.375
3013.472	941.04167
3015.539	944.70833
3017.604	953.375
3019.669	912.375
3021.732	912.04167
3023.794	903.375
3025.854	896.70833
3027.914	909.375
3029.971	920.375
3032.028	916.375
3034.083	915.04167
3036.137	900.04167
3038.19	862.04167
3040.242	842.70833
3042.292	834.70833
3044.341	829.04167
3046.388	839.375
3048.435	816.375
3050.48	818.70833
3052.524	823.04167
3054.566	809.375
3056.607	809.70833
3058.647	788.70833
3060.686	772.70833
3062.723	734.04167
3064.759	714.70833
3066.794	-0.95833
3068.828	4.04167
3070.86	1.70833
