-0.839	490.95833
3.438	583.29167
7.711	173.95833
11.981	58.95833
16.247	44.95833
20.509	51.95833
24.768	45.95833
29.024	50.29167
33.276	41.29167
37.524	48.625
41.769	46.95833
46.01	33.29167
50.247	46.625
54.481	61.625
58.712	64.625
62.939	48.95833
67.162	59.95833
71.382	55.95833
75.599	44.625
79.812	62.95833
84.021	77.29167
88.227	59.625
92.429	60.29167
96.628	49.95833
100.823	71.625
105.015	71.29167
109.204	63.29167
113.388	73.95833
117.57	71.95833
121.748	81.625
125.922	73.95833
130.093	99.95833
134.261	95.625
138.425	94.625
142.585	136.625
146.742	121.95833
150.896	150.625
155.046	190.625
159.193	294.95833
163.336	495.625
167.476	905.29167
171.613	1665.625
175.746	2764.95833
179.875	4090.29167
184.002	5348.625
188.124	6193.29167
192.244	6484.29167
196.36	6423.95833
200.472	6171.625
204.581	6000.29167
208.687	5800.95833
212.79	5772.95833
216.889	5707.95833
220.984	5678.29167
225.077	5668.95833
229.165	5656.95833
233.251	5651.29167
237.333	5600.95833
241.412	5518.625
245.487	5442.29167
249.559	5363.625
253.628	5364.29167
257.694	5296.29167
261.756	5222.95833
265.814	5146.625
269.87	4960.29167
273.922	4826.625
277.97	4729.95833
282.016	4742.29167
286.058	4765.95833
290.097	4855.29167
294.132	4927.95833
298.164	4849.95833
302.193	4595.29167
306.219	4248.95833
310.241	3927.29167
314.26	3627.29167
318.276	3350.29167
322.288	3211.625
326.297	3025.625
330.303	2948.625
334.305	2853.625
338.305	2818.625
342.301	2759.29167
346.294	2780.625
350.283	2728.29167
354.269	2694.29167
358.252	2688.625
362.232	2659.95833
366.209	2654.29167
370.182	2606.29167
374.152	2608.29167
378.119	2619.29167
382.083	2609.625
386.043	2602.95833
390	2573.625
393.954	2581.29167
397.905	2555.95833
401.852	2579.29167
405.797	2533.625
409.738	2528.625
413.676	2517.625
417.61	2487.625
421.542	2480.95833
425.47	2454.625
429.396	2444.95833
433.318	2429.625
437.236	2429.95833
441.152	2451.625
445.065	2405.625
448.974	2388.625
452.88	2354.625
456.783	2352.625
460.683	2329.95833
464.58	2336.95833
468.473	2329.29167
472.364	2354.95833
476.251	2359.29167
480.135	2360.29167
484.016	2402.95833
487.894	2418.29167
491.769	2439.29167
495.641	2414.29167
499.509	2425.29167
503.375	2441.625
507.237	2435.625
511.096	2402.95833
514.952	2469.625
518.805	2527.625
522.655	2539.625
526.502	2460.95833
530.346	2418.29167
534.187	2411.95833
538.024	2441.29167
541.859	2440.625
545.69	2468.29167
549.519	2452.625
553.344	2443.625
557.166	2389.625
560.985	2390.95833
564.802	2311.625
568.615	2294.625
572.425	2244.29167
576.232	2252.625
580.036	2250.29167
583.836	2239.95833
587.634	2265.95833
591.429	2265.95833
595.221	2325.29167
599.01	2350.95833
602.796	2361.29167
606.578	2365.625
610.358	2375.95833
614.135	2341.625
617.909	2333.29167
621.679	2320.625
625.447	2294.625
629.212	2307.95833
632.973	2333.625
636.732	2300.95833
640.488	2326.625
644.241	2276.29167
647.991	2261.95833
651.737	2281.95833
655.481	2235.95833
659.222	2257.625
662.96	2242.625
666.695	2268.29167
670.427	2267.625
674.156	2315.29167
677.882	2284.95833
681.605	2276.29167
685.325	2278.95833
689.043	2276.95833
692.757	2238.625
696.468	2259.29167
700.177	2239.625
703.882	2243.29167
707.585	2228.29167
711.284	2218.95833
714.981	2225.625
718.675	2240.95833
722.366	2232.625
726.054	2211.29167
729.739	2225.29167
733.421	2232.95833
737.1	2247.29167
740.777	2264.29167
744.45	2281.95833
748.121	2277.625
751.789	2312.95833
755.453	2318.29167
759.115	2308.625
762.774	2342.95833
766.431	2344.625
770.084	2378.95833
773.734	2420.29167
777.382	2431.625
781.027	2467.29167
784.669	2474.29167
788.308	2490.95833
791.944	2486.95833
795.577	2494.625
799.208	2538.29167
802.835	2526.95833
806.46	2545.29167
810.082	2557.29167
813.701	2535.625
817.317	2573.29167
820.931	2551.29167
824.542	2588.29167
828.149	2563.29167
831.754	2556.29167
835.357	2557.625
838.956	2559.29167
842.553	2567.625
846.146	2543.625
849.737	2544.29167
853.326	2543.95833
856.911	2527.95833
860.493	2578.625
864.073	2585.625
867.65	2640.625
871.225	2677.29167
874.796	2657.29167
878.365	2681.95833
881.931	2677.29167
885.494	2696.95833
889.054	2710.625
892.612	2750.29167
896.166	2694.625
899.719	2708.29167
903.268	2675.95833
906.814	2629.95833
910.358	2606.625
913.899	2565.625
917.438	2560.625
920.973	2555.29167
924.506	2569.29167
928.036	2613.95833
931.564	2648.625
935.088	2678.625
938.61	2712.95833
942.129	2754.29167
945.646	2788.625
949.16	2824.625
952.671	2865.95833
956.179	2870.625
959.685	2849.95833
963.188	2797.95833
966.688	2781.625
970.185	2694.95833
973.68	2657.29167
977.173	2633.625
980.662	2600.95833
984.149	2577.625
987.633	2569.95833
991.114	2645.625
994.593	2681.29167
998.069	2762.29167
1001.542	2811.625
1005.013	2795.29167
1008.481	2636.29167
1011.947	2586.29167
1015.409	2574.95833
1018.869	2566.625
1022.327	2589.625
1025.782	2534.95833
1029.234	2522.29167
1032.683	2494.625
1036.13	2436.95833
1039.574	2344.95833
1043.016	2295.625
1046.455	2243.95833
1049.891	2221.625
1053.325	2218.29167
1056.756	2230.95833
1060.184	2254.625
1063.61	2255.29167
1067.033	2271.625
1070.454	2285.625
1073.872	2294.625
1077.287	2300.625
1080.7	2281.625
1084.11	2274.29167
1087.517	2261.29167
1090.922	2231.625
1094.325	2218.625
1097.724	2201.95833
1101.122	2200.95833
1104.516	2201.95833
1107.908	2192.625
1111.298	2236.29167
1114.684	2263.29167
1118.069	2291.29167
1121.45	2338.625
1124.83	2305.95833
1128.206	2355.625
1131.58	2392.625
1134.951	2440.625
1138.32	2519.95833
1141.687	2611.95833
1145.05	2667.95833
1148.412	2659.95833
1151.77	2651.625
1155.126	2650.625
1158.48	2645.625
1161.831	2657.29167
1165.18	2680.29167
1168.525	2703.625
1171.869	2739.29167
1175.21	2749.95833
1178.548	2785.625
1181.884	2814.625
1185.217	2836.29167
1188.548	2899.625
1191.877	2978.29167
1195.202	3055.29167
1198.526	3123.95833
1201.846	3106.29167
1205.165	3135.625
1208.48	3102.625
1211.794	3073.29167
1215.104	3074.29167
1218.413	3087.625
1221.719	3084.95833
1225.022	3018.625
1228.323	3004.95833
1231.621	2997.625
1234.917	2939.29167
1238.21	2982.95833
1241.501	2954.29167
1244.79	2942.95833
1248.076	2955.95833
1251.359	2981.625
1254.64	3055.29167
1257.919	3061.95833
1261.195	3102.95833
1264.468	3171.95833
1267.74	3203.29167
1271.008	3215.625
1274.275	3200.625
1277.538	3170.29167
1280.8	3197.29167
1284.059	3174.625
1287.315	3213.625
1290.569	3221.95833
1293.821	3238.29167
1297.07	3257.625
1300.317	3284.625
1303.562	3257.29167
1306.803	3229.29167
1310.043	3238.625
1313.28	3190.29167
1316.515	3182.625
1319.747	3130.95833
1322.977	3113.95833
1326.204	3078.625
1329.429	3006.95833
1332.652	3004.625
1335.872	2975.29167
1339.09	2940.95833
1342.306	2907.625
1345.519	2876.29167
1348.729	2854.625
1351.938	2854.95833
1355.144	2803.95833
1358.347	2769.625
1361.548	2748.95833
1364.747	2773.95833
1367.944	2718.625
1371.138	2744.29167
1374.329	2761.95833
1377.518	2780.625
1380.705	2790.29167
1383.89	2773.29167
1387.072	2676.95833
1390.252	2591.625
1393.429	2490.625
1396.605	2436.95833
1399.777	2372.29167
1402.948	2339.95833
1406.116	2350.29167
1409.282	2321.95833
1412.445	2316.29167
1415.606	2363.625
1418.765	2405.29167
1421.921	2447.95833
1425.075	2506.625
1428.227	2579.625
1431.376	2694.29167
1434.524	2784.95833
1437.668	2858.95833
1440.811	2898.625
1443.951	2919.95833
1447.089	2910.625
1450.224	2920.29167
1453.357	2884.625
1456.488	2874.95833
1459.617	2815.95833
1462.743	2771.625
1465.867	2729.95833
1468.989	2662.29167
1472.108	2624.29167
1475.225	2579.95833
1478.34	2531.29167
1481.453	2527.29167
1484.563	2540.95833
1487.671	2591.29167
1490.776	2623.29167
1493.88	2673.625
1496.981	2711.625
1500.08	2753.29167
1503.176	2782.95833
1506.271	2806.95833
1509.363	2849.29167
1512.452	2883.625
1515.54	2908.95833
1518.625	2952.625
1521.708	3042.29167
1524.789	3112.29167
1527.867	3231.95833
1530.944	3380.95833
1534.018	3556.29167
1537.089	3689.625
1540.159	3756.95833
1543.226	3773.29167
1546.291	3679.625
1549.354	3621.95833
1552.415	3543.95833
1555.473	3438.625
1558.529	3409.625
1561.583	3338.29167
1564.634	3325.29167
1567.684	3307.625
1570.731	3361.95833
1573.776	3389.625
1576.819	3418.29167
1579.859	3421.625
1582.898	3483.625
1585.934	3550.625
1588.968	3542.95833
1591.999	3545.95833
1595.029	3542.29167
1598.056	3566.625
1601.081	3587.29167
1604.104	3560.625
1607.125	3529.95833
1610.144	3456.95833
1613.16	3350.29167
1616.174	3275.95833
1619.186	3183.95833
1622.196	3084.29167
1625.203	2994.29167
1628.209	2929.95833
1631.212	2893.625
1634.213	2866.29167
1637.212	2828.95833
1640.209	2773.29167
1643.203	2716.29167
1646.196	2647.95833
1649.186	2547.29167
1652.174	2475.29167
1655.16	2380.29167
1658.144	2302.29167
1661.125	2208.29167
1664.105	2125.95833
1667.082	2043.95833
1670.057	1943.625
1673.03	1827.625
1676.001	1711.95833
1678.97	1615.29167
1681.937	1508.29167
1684.901	1442.625
1687.863	1370.29167
1690.824	1321.95833
1693.782	1302.29167
1696.738	1234.625
1699.692	1218.95833
1702.643	1190.625
1705.593	1166.625
1708.54	1162.95833
1711.486	1159.95833
1714.429	1111.29167
1717.37	1122.29167
1720.309	1083.625
1723.246	1093.29167
1726.181	1066.95833
1729.113	1059.625
1732.044	1048.29167
1734.972	1049.95833
1737.899	1043.29167
1740.823	1041.29167
1743.745	1004.29167
1746.665	1002.29167
1749.583	975.95833
1752.499	976.95833
1755.413	967.29167
1758.325	932.625
1761.235	921.625
1764.142	911.625
1767.048	887.95833
1769.951	898.95833
1772.852	891.29167
1775.752	888.29167
1778.649	885.95833
1781.544	901.625
1784.437	857.625
1787.328	873.95833
1790.217	862.625
1793.104	843.95833
1795.989	849.625
1798.872	833.625
1801.753	858.29167
1804.631	839.29167
1807.508	861.625
1810.383	825.625
1813.255	825.29167
1816.126	824.625
1818.994	833.29167
1821.861	814.95833
1824.725	822.625
1827.587	825.29167
1830.448	805.625
1833.306	784.625
1836.162	800.29167
1839.017	796.625
1841.869	788.95833
1844.719	790.95833
1847.567	776.625
1850.414	764.625
1853.258	770.95833
1856.1	791.625
1858.94	793.95833
1861.778	778.95833
1864.614	766.625
1867.448	775.29167
1870.28	759.29167
1873.111	771.625
1875.939	770.95833
1878.765	782.625
1881.589	756.95833
1884.411	761.95833
1887.231	762.95833
1890.049	756.29167
1892.865	762.29167
1895.68	746.625
1898.492	753.95833
1901.302	761.95833
1904.11	757.625
1906.916	738.29167
1909.721	738.95833
1912.523	738.625
1915.323	719.95833
1918.122	721.625
1920.918	732.625
1923.712	720.29167
1926.505	720.625
1929.295	714.29167
1932.084	733.95833
1934.87	726.29167
1937.655	727.625
1940.438	706.29167
1943.218	709.29167
1945.997	723.625
1948.774	730.625
1951.549	725.29167
1954.322	723.625
1957.093	711.95833
1959.862	706.29167
1962.629	692.625
1965.394	698.29167
1968.157	693.29167
1970.918	697.95833
1973.678	680.95833
1976.435	704.29167
1979.19	691.95833
1981.944	685.29167
1984.696	679.29167
1987.445	669.95833
1990.193	685.29167
1992.939	698.95833
1995.683	679.625
1998.425	661.625
2001.165	689.95833
2003.903	667.625
2006.639	668.625
2009.374	677.95833
2012.106	675.625
2014.837	651.625
2017.566	671.625
2020.292	669.625
2023.017	670.29167
2025.74	664.625
2028.461	653.95833
2031.18	654.625
2033.898	653.95833
2036.613	658.95833
2039.327	661.95833
2042.038	641.29167
2044.748	649.625
2047.456	652.95833
2050.162	633.29167
2052.866	640.625
2055.568	652.29167
2058.268	636.95833
2060.967	652.625
2063.663	628.29167
2066.358	629.625
2069.051	628.625
2071.742	639.625
2074.431	639.95833
2077.118	637.95833
2079.804	635.625
2082.487	647.29167
2085.169	647.625
2087.849	659.29167
2090.527	639.95833
2093.203	637.29167
2095.877	658.625
2098.55	645.95833
2101.22	651.625
2103.889	668.625
2106.556	660.95833
2109.221	696.95833
2111.884	709.95833
2114.546	758.29167
2117.205	805.95833
2119.863	877.625
2122.519	923.625
2125.173	986.625
2127.825	1032.625
2130.475	1032.29167
2133.124	988.95833
2135.771	949.29167
2138.416	916.29167
2141.059	849.625
2143.7	816.625
2146.339	763.95833
2148.977	725.29167
2151.613	709.29167
2154.247	699.95833
2156.879	679.625
2159.51	656.625
2162.138	641.625
2164.765	643.625
2167.39	620.95833
2170.013	648.29167
2172.634	621.95833
2175.254	613.625
2177.872	650.625
2180.488	598.29167
2183.102	614.29167
2185.714	595.625
2188.325	588.29167
2190.934	595.95833
2193.541	592.95833
2196.146	580.95833
2198.75	564.95833
2201.351	576.625
2203.951	564.29167
2206.549	579.29167
2209.146	564.29167
2211.74	577.95833
2214.333	583.625
2216.924	552.625
2219.514	560.29167
2222.101	548.625
2224.687	585.29167
2227.271	544.625
2229.853	547.625
2232.433	530.95833
2235.012	557.625
2237.589	555.95833
2240.164	561.29167
2242.738	544.95833
2245.309	534.625
2247.879	548.29167
2250.448	546.95833
2253.014	530.29167
2255.579	512.625
2258.142	531.95833
2260.703	522.95833
2263.262	533.625
2265.82	513.29167
2268.376	526.29167
2270.93	503.95833
2273.483	500.95833
2276.033	513.625
2278.583	506.95833
2281.13	506.95833
2283.675	497.95833
2286.219	501.29167
2288.761	507.29167
2291.302	509.29167
2293.841	516.625
2296.377	489.95833
2298.913	505.29167
2301.446	514.29167
2303.978	510.625
2306.508	502.95833
2309.037	500.625
2311.563	500.29167
2314.088	501.95833
2316.612	484.95833
2319.133	498.625
2321.653	492.95833
2324.171	491.95833
2326.688	506.29167
2329.202	494.29167
2331.715	494.29167
2334.227	491.625
2336.736	485.95833
2339.244	490.29167
2341.751	483.95833
2344.255	486.95833
2346.758	487.95833
2349.259	467.625
2351.759	481.95833
2354.257	478.29167
2356.753	477.29167
2359.247	483.625
2361.74	483.625
2364.231	487.625
2366.721	488.625
2369.209	475.95833
2371.695	483.29167
2374.179	471.29167
2376.662	464.29167
2379.143	488.625
2381.622	477.625
2384.1	485.625
2386.576	482.625
2389.051	490.95833
2391.524	486.95833
2393.995	483.95833
2396.464	466.95833
2398.932	466.29167
2401.398	476.95833
2403.863	471.95833
2406.325	466.29167
2408.787	479.29167
2411.246	478.95833
2413.704	469.29167
2416.16	469.29167
2418.615	468.625
2421.068	474.625
2423.519	476.625
2425.969	458.95833
2428.417	479.95833
2430.863	491.95833
2433.308	475.29167
2435.751	478.29167
2438.193	472.95833
2440.633	471.29167
2443.071	480.95833
2445.508	468.625
2447.943	470.625
2450.376	470.625
2452.808	467.95833
2455.238	459.625
2457.667	497.625
2460.093	462.625
2462.519	458.95833
2464.942	471.29167
2467.365	471.625
2469.785	471.29167
2472.204	474.29167
2474.621	463.95833
2477.037	486.625
2479.451	455.625
2481.863	460.29167
2484.274	459.29167
2486.683	464.625
2489.091	471.95833
2491.497	467.625
2493.901	469.95833
2496.304	464.29167
2498.705	474.29167
2501.105	468.95833
2503.503	496.29167
2505.899	454.95833
2508.294	470.625
2510.687	469.625
2513.079	470.29167
2515.469	460.95833
2517.858	461.29167
2520.245	469.95833
2522.63	464.29167
2525.014	459.625
2527.396	450.29167
2529.776	456.29167
2532.156	478.625
2534.533	465.625
2536.909	460.625
2539.283	446.29167
2541.656	463.95833
2544.027	479.95833
2546.397	464.625
2548.765	467.95833
2551.131	465.29167
2553.496	454.95833
2555.86	468.29167
2558.221	475.625
2560.582	457.625
2562.94	461.625
2565.298	467.95833
2567.653	481.625
2570.007	460.95833
2572.36	477.625
2574.711	458.625
2577.06	485.625
2579.408	478.29167
2581.754	466.95833
2584.099	474.625
2586.442	469.29167
2588.784	471.29167
2591.124	468.29167
2593.463	472.29167
2595.8	477.29167
2598.135	462.625
2600.469	475.29167
2602.802	485.625
2605.133	491.95833
2607.462	477.625
2609.79	467.625
2612.116	478.95833
2614.441	475.29167
2616.764	477.625
2619.086	482.625
2621.406	465.625
2623.725	489.95833
2626.042	484.625
2628.358	467.29167
2630.672	480.95833
2632.985	495.625
2635.296	479.29167
2637.606	487.29167
2639.914	477.95833
2642.22	491.95833
2644.525	487.625
2646.829	486.625
2649.131	511.625
2651.432	496.95833
2653.731	497.625
2656.028	507.29167
2658.324	505.95833
2660.619	487.625
2662.912	500.95833
2665.204	485.95833
2667.494	511.95833
2669.782	500.625
2672.07	503.625
2674.355	503.29167
2676.639	510.29167
2678.922	505.625
2681.203	509.95833
2683.483	501.625
2685.761	503.625
2688.038	510.95833
2690.313	522.95833
2692.587	517.625
2694.859	502.29167
2697.13	515.29167
2699.399	525.95833
2701.667	532.29167
2703.933	532.29167
2706.198	526.95833
2708.461	529.625
2710.723	544.95833
2712.984	546.29167
2715.243	541.29167
2717.5	539.29167
2719.757	559.95833
2722.011	543.95833
2724.264	561.95833
2726.516	565.95833
2728.766	545.29167
2731.015	551.625
2733.262	562.95833
2735.508	545.95833
2737.753	555.625
2739.996	543.95833
2742.237	540.29167
2744.477	566.29167
2746.716	567.95833
2748.953	535.625
2751.189	554.95833
2753.423	549.95833
2755.656	541.625
2757.887	531.29167
2760.117	533.29167
2762.346	544.95833
2764.573	529.29167
2766.798	540.625
2769.022	532.29167
2771.245	555.95833
2773.467	549.29167
2775.686	545.29167
2777.905	547.95833
2780.122	554.95833
2782.337	568.625
2784.552	559.29167
2786.764	561.625
2788.976	564.95833
2791.186	571.625
2793.394	581.95833
2795.601	587.29167
2797.807	599.29167
2800.011	598.29167
2802.214	595.95833
2804.415	606.29167
2806.615	609.95833
2808.814	621.95833
2811.011	619.29167
2813.206	617.95833
2815.401	632.625
2817.594	638.29167
2819.785	646.625
2821.975	640.95833
2824.164	637.625
2826.351	661.29167
2828.537	675.625
2830.722	674.95833
2832.905	685.95833
2835.086	709.625
2837.267	738.29167
2839.445	742.625
2841.623	758.625
2843.799	779.625
2845.974	812.29167
2848.147	846.29167
2850.319	868.29167
2852.489	898.29167
2854.659	900.29167
2856.826	905.29167
2858.993	941.625
2861.158	927.95833
2863.321	930.95833
2865.483	947.625
2867.644	929.95833
2869.804	929.625
2871.962	931.625
2874.118	920.29167
2876.274	927.95833
2878.428	919.625
2880.58	923.625
2882.731	902.29167
2884.881	917.625
2887.03	937.95833
2889.177	929.95833
2891.322	946.29167
2893.467	941.29167
2895.61	927.95833
2897.751	959.625
2899.892	952.29167
2902.03	943.625
2904.168	958.625
2906.304	956.29167
2908.439	963.95833
2910.572	969.29167
2912.704	956.95833
2914.835	980.95833
2916.965	962.625
2919.093	987.625
2921.219	962.29167
2923.345	984.95833
2925.469	962.95833
2927.591	952.95833
2929.712	926.95833
2931.832	929.29167
2933.951	907.625
2936.068	904.29167
2938.184	879.95833
2940.299	864.95833
2942.412	847.29167
2944.524	829.29167
2946.634	812.29167
2948.744	774.95833
2950.851	794.625
2952.958	755.95833
2955.063	757.29167
2957.167	746.29167
2959.269	718.95833
2961.371	758.95833
2963.471	700.29167
2965.569	717.29167
2967.666	697.29167
2969.762	692.625
2971.857	668.625
2973.95	665.625
2976.042	650.625
2978.133	639.95833
2980.222	631.29167
2982.31	614.625
2984.396	587.95833
2986.482	604.95833
2988.566	589.29167
2990.648	602.29167
2992.73	589.29167
2994.81	582.625
2996.889	586.29167
2998.966	587.29167
3001.042	587.29167
3003.117	585.625
3005.191	577.95833
3007.263	581.29167
3009.334	565.29167
3011.403	567.95833
3013.472	553.95833
3015.539	559.95833
3017.604	561.29167
3019.669	519.625
3021.732	531.625
3023.794	530.625
3025.854	522.625
3027.914	529.625
3029.971	539.625
3032.028	523.625
3034.083	526.29167
3036.137	509.95833
3038.19	494.625
3040.242	492.625
3042.292	473.625
3044.341	474.29167
3046.388	494.625
3048.435	474.625
3050.48	481.29167
3052.524	469.625
3054.566	449.29167
3056.607	471.29167
3058.647	454.29167
3060.686	438.95833
3062.723	435.625
3064.759	405.625
3066.794	-0.70833
3068.828	2.29167
3070.86	2.95833
