-0.839	480.83333
3.438	581.5
7.711	174.16667
11.981	61.16667
16.247	42.83333
20.509	49.16667
24.768	45.5
29.024	50.83333
33.276	45.5
37.524	48.83333
41.769	46.5
46.01	32.16667
50.247	46.16667
54.481	58.16667
58.712	63.16667
62.939	46.83333
67.162	61.16667
71.382	56.16667
75.599	43.16667
79.812	63.5
84.021	78.16667
88.227	59.16667
92.429	57.83333
96.628	55.16667
100.823	71.16667
105.015	74.5
109.204	63.83333
113.388	76.16667
117.57	75.83333
121.748	81.83333
125.922	75.83333
130.093	95.5
134.261	94.16667
138.425	98.5
142.585	137.16667
146.742	124.83333
150.896	150.5
155.046	186.5
159.193	293.16667
163.336	503.16667
167.476	904.16667
171.613	1663.83333
175.746	2776.5
179.875	4112.5
184.002	5398.16667
188.124	6296.16667
192.244	6557.83333
196.36	6486.83333
200.472	6313.5
204.581	6104.16667
208.687	5962.83333
212.79	5884.5
216.889	5866.16667
220.984	5871.83333
225.077	5885.16667
229.165	5859.16667
233.251	5871.5
237.333	5803.83333
241.412	5727.16667
245.487	5636.83333
249.559	5588.5
253.628	5569.83333
257.694	5515.16667
261.756	5446.16667
265.814	5343.16667
269.87	5153.83333
273.922	5017.83333
277.97	4945.5
282.016	4888.83333
286.058	4914.5
290.097	5021.83333
294.132	5094.16667
298.164	5047.16667
302.193	4811.5
306.219	4452.83333
310.241	4110.83333
314.26	3791.5
318.276	3530.16667
322.288	3345.5
326.297	3202.5
330.303	3098.5
334.305	3031.5
338.305	2963.16667
342.301	2943.16667
346.294	2914.16667
350.283	2887.83333
354.269	2875.5
358.252	2867.16667
362.232	2840.5
366.209	2816.5
370.182	2788.83333
374.152	2790.16667
378.119	2804.5
382.083	2770.5
386.043	2790.83333
390	2739.5
393.954	2778.83333
397.905	2752.16667
401.852	2771.5
405.797	2707.83333
409.738	2683.5
413.676	2707.5
417.61	2691.83333
421.542	2657.83333
425.47	2644.5
429.396	2642.16667
433.318	2621.5
437.236	2614.5
441.152	2623.83333
445.065	2574.5
448.974	2573.16667
452.88	2547.16667
456.783	2555.83333
460.683	2526.5
464.58	2537.16667
468.473	2531.83333
472.364	2552.83333
476.251	2550.83333
480.135	2571.5
484.016	2618.83333
487.894	2637.16667
491.769	2627.83333
495.641	2674.16667
499.509	2642.83333
503.375	2658.83333
507.237	2629.5
511.096	2627.5
514.952	2669.5
518.805	2706.5
522.655	2739.5
526.502	2649.16667
530.346	2616.16667
534.187	2636.16667
538.024	2626.16667
541.859	2631.5
545.69	2659.5
549.519	2641.5
553.344	2619.5
557.166	2584.5
560.985	2557.16667
564.802	2523.5
568.615	2480.83333
572.425	2427.83333
576.232	2445.5
580.036	2419.5
583.836	2439.83333
587.634	2444.5
591.429	2437.16667
595.221	2501.16667
599.01	2533.83333
602.796	2543.16667
606.578	2552.5
610.358	2566.16667
614.135	2539.83333
617.909	2534.16667
621.679	2521.5
625.447	2490.5
629.212	2513.16667
632.973	2490.16667
636.732	2494.83333
640.488	2473.16667
644.241	2457.5
647.991	2443.83333
651.737	2475.83333
655.481	2440.5
659.222	2449.16667
662.96	2431.5
666.695	2459.83333
670.427	2471.83333
674.156	2487.5
677.882	2476.5
681.605	2456.83333
685.325	2438.5
689.043	2432.16667
692.757	2413.16667
696.468	2421.5
700.177	2429.16667
703.882	2406.83333
707.585	2401.5
711.284	2381.5
714.981	2378.83333
718.675	2401.16667
722.366	2397.5
726.054	2360.16667
729.739	2394.83333
733.421	2393.16667
737.1	2421.83333
740.777	2432.83333
744.45	2424.5
748.121	2430.83333
751.789	2492.16667
755.453	2470.83333
759.115	2499.16667
762.774	2540.83333
766.431	2532.83333
770.084	2549.83333
773.734	2578.83333
777.382	2614.5
781.027	2615.5
784.669	2620.16667
788.308	2666.5
791.944	2658.5
795.577	2660.83333
799.208	2703.5
802.835	2712.83333
806.46	2723.16667
810.082	2743.16667
813.701	2737.83333
817.317	2745.5
820.931	2763.16667
824.542	2755.5
828.149	2718.16667
831.754	2712.16667
835.357	2721.16667
838.956	2722.16667
842.553	2687.83333
846.146	2695.5
849.737	2684.5
853.326	2664.83333
856.911	2666.83333
860.493	2702.16667
864.073	2728.5
867.65	2755.5
871.225	2804.5
874.796	2811.83333
878.365	2791.5
881.931	2826.83333
885.494	2850.83333
889.054	2841.5
892.612	2870.5
896.166	2833.83333
899.719	2836.5
903.268	2760.5
906.814	2757.5
910.358	2733.5
913.899	2692.5
917.438	2681.83333
920.973	2667.5
924.506	2712.83333
928.036	2743.83333
931.564	2784.83333
935.088	2818.16667
938.61	2844.5
942.129	2852.16667
945.646	2928.16667
949.16	2982.16667
952.671	3006.16667
956.179	3005.16667
959.685	2987.83333
963.188	2968.16667
966.688	2935.83333
970.185	2860.83333
973.68	2807.83333
977.173	2758.5
980.662	2742.16667
984.149	2732.16667
987.633	2731.83333
991.114	2787.83333
994.593	2813.16667
998.069	2903.83333
1001.542	2976.83333
1005.013	2935.5
1008.481	2736.5
1011.947	2725.16667
1015.409	2700.16667
1018.869	2703.83333
1022.327	2701.16667
1025.782	2678.5
1029.234	2672.83333
1032.683	2637.83333
1036.13	2563.5
1039.574	2464.83333
1043.016	2389.16667
1046.455	2363.83333
1049.891	2348.83333
1053.325	2344.16667
1056.756	2364.83333
1060.184	2363.83333
1063.61	2382.5
1067.033	2390.5
1070.454	2357.5
1073.872	2417.5
1077.287	2406.83333
1080.7	2412.16667
1084.11	2406.83333
1087.517	2380.16667
1090.922	2337.16667
1094.325	2328.83333
1097.724	2295.5
1101.122	2325.83333
1104.516	2298.5
1107.908	2304.5
1111.298	2329.83333
1114.684	2362.83333
1118.069	2390.16667
1121.45	2435.83333
1124.83	2405.16667
1128.206	2446.83333
1131.58	2477.5
1134.951	2538.83333
1138.32	2602.5
1141.687	2703.5
1145.05	2765.83333
1148.412	2760.5
1151.77	2758.5
1155.126	2750.16667
1158.48	2704.83333
1161.831	2736.5
1165.18	2747.16667
1168.525	2795.83333
1171.869	2821.83333
1175.21	2827.83333
1178.548	2860.5
1181.884	2893.5
1185.217	2926.5
1188.548	3005.5
1191.877	3063.16667
1195.202	3141.5
1198.526	3229.5
1201.846	3231.83333
1205.165	3223.83333
1208.48	3199.83333
1211.794	3207.5
1215.104	3206.83333
1218.413	3192.16667
1221.719	3196.5
1225.022	3165.5
1228.323	3091.5
1231.621	3091.83333
1234.917	3059.16667
1238.21	3068.5
1241.501	3057.83333
1244.79	3063.83333
1248.076	3053.16667
1251.359	3063.5
1254.64	3170.5
1257.919	3139.83333
1261.195	3202.5
1264.468	3266.16667
1267.74	3285.16667
1271.008	3297.5
1274.275	3271.5
1277.538	3255.83333
1280.8	3254.16667
1284.059	3249.83333
1287.315	3287.5
1290.569	3305.83333
1293.821	3321.83333
1297.07	3357.5
1300.317	3365.83333
1303.562	3370.5
1306.803	3343.83333
1310.043	3333.5
1313.28	3270.5
1316.515	3247.83333
1319.747	3238.5
1322.977	3192.16667
1326.204	3166.5
1329.429	3140.83333
1332.652	3107.83333
1335.872	3079.83333
1339.09	3074.16667
1342.306	3035.16667
1345.519	3010.83333
1348.729	2975.5
1351.938	2942.83333
1355.144	2917.83333
1358.347	2888.16667
1361.548	2871.5
1364.747	2863.83333
1367.944	2852.5
1371.138	2875.16667
1374.329	2846.5
1377.518	2879.83333
1380.705	2919.5
1383.89	2872.16667
1387.072	2791.5
1390.252	2701.5
1393.429	2577.5
1396.605	2527.16667
1399.777	2457.83333
1402.948	2435.5
1406.116	2411.5
1409.282	2410.16667
1412.445	2416.16667
1415.606	2451.5
1418.765	2482.5
1421.921	2510.16667
1425.075	2576.83333
1428.227	2666.16667
1431.376	2755.83333
1434.524	2849.16667
1437.668	2944.16667
1440.811	2977.16667
1443.951	3007.5
1447.089	3011.16667
1450.224	3010.83333
1453.357	2974.83333
1456.488	2953.83333
1459.617	2892.16667
1462.743	2859.16667
1465.867	2773.16667
1468.989	2726.83333
1472.108	2700.16667
1475.225	2654.83333
1478.34	2623.83333
1481.453	2609.16667
1484.563	2611.83333
1487.671	2668.16667
1490.776	2663.5
1493.88	2727.83333
1496.981	2744.16667
1500.08	2798.83333
1503.176	2840.16667
1506.271	2882.83333
1509.363	2910.5
1512.452	2950.5
1515.54	2969.16667
1518.625	3012.16667
1521.708	3090.83333
1524.789	3183.16667
1527.867	3289.16667
1530.944	3461.83333
1534.018	3616.5
1537.089	3816.16667
1540.159	3838.83333
1543.226	3813.83333
1546.291	3765.16667
1549.354	3674.5
1552.415	3607.83333
1555.473	3511.83333
1558.529	3448.83333
1561.583	3425.5
1564.634	3360.83333
1567.684	3386.5
1570.731	3396.16667
1573.776	3440.83333
1576.819	3498.16667
1579.859	3510.83333
1582.898	3536.16667
1585.934	3596.16667
1588.968	3572.5
1591.999	3576.83333
1595.029	3577.83333
1598.056	3605.16667
1601.081	3640.83333
1604.104	3623.83333
1607.125	3574.83333
1610.144	3510.83333
1613.16	3446.5
1616.174	3354.83333
1619.186	3279.5
1622.196	3181.5
1625.203	3085.16667
1628.209	3039.83333
1631.212	2986.5
1634.213	2969.16667
1637.212	2975.5
1640.209	2936.83333
1643.203	2852.83333
1646.196	2779.5
1649.186	2646.5
1652.174	2601.16667
1655.16	2473.83333
1658.144	2409.5
1661.125	2307.83333
1664.105	2224.5
1667.082	2150.5
1670.057	2037.83333
1673.03	1896.5
1676.001	1784.16667
1678.97	1679.16667
1681.937	1570.5
1684.901	1482.5
1687.863	1431.83333
1690.824	1367.83333
1693.782	1355.5
1696.738	1302.5
1699.692	1256.83333
1702.643	1232.16667
1705.593	1220.83333
1708.54	1200.83333
1711.486	1206.16667
1714.429	1158.16667
1717.37	1158.83333
1720.309	1115.5
1723.246	1135.16667
1726.181	1117.16667
1729.113	1111.16667
1732.044	1091.83333
1734.972	1093.83333
1737.899	1095.16667
1740.823	1084.83333
1743.745	1056.5
1746.665	1044.16667
1749.583	1030.83333
1752.499	1022.83333
1755.413	1002.5
1758.325	986.83333
1761.235	982.5
1764.142	958.16667
1767.048	944.5
1769.951	947.83333
1772.852	941.16667
1775.752	941.5
1778.649	932.16667
1781.544	939.5
1784.437	915.5
1787.328	929.16667
1790.217	904.5
1793.104	883.5
1795.989	894.83333
1798.872	885.16667
1801.753	891.83333
1804.631	879.83333
1807.508	893.16667
1810.383	890.16667
1813.255	873.83333
1816.126	885.16667
1818.994	871.5
1821.861	857.5
1824.725	872.5
1827.587	862.5
1830.448	859.16667
1833.306	832.16667
1836.162	832.16667
1839.017	840.5
1841.869	846.83333
1844.719	827.16667
1847.567	821.5
1850.414	816.83333
1853.258	812.5
1856.1	838.83333
1858.94	837.5
1861.778	818.16667
1864.614	813.83333
1867.448	813.83333
1870.28	799.5
1873.111	821.5
1875.939	813.16667
1878.765	827.5
1881.589	807.83333
1884.411	817.5
1887.231	811.83333
1890.049	808.16667
1892.865	804.83333
1895.68	792.5
1898.492	790.83333
1901.302	798.83333
1904.11	774.83333
1906.916	787.16667
1909.721	774.5
1912.523	776.16667
1915.323	763.16667
1918.122	758.16667
1920.918	775.83333
1923.712	766.83333
1926.505	754.83333
1929.295	745.5
1932.084	768.16667
1934.87	769.5
1937.655	746.5
1940.438	744.16667
1943.218	767.83333
1945.997	758.83333
1948.774	764.16667
1951.549	769.5
1954.322	747.83333
1957.093	739.83333
1959.862	742.83333
1962.629	739.5
1965.394	731.83333
1968.157	721.83333
1970.918	723.83333
1973.678	708.16667
1976.435	737.5
1979.19	728.83333
1981.944	719.5
1984.696	714.5
1987.445	703.83333
1990.193	716.5
1992.939	724.16667
1995.683	718.16667
1998.425	695.5
2001.165	722.83333
2003.903	700.5
2006.639	699.5
2009.374	704.5
2012.106	714.83333
2014.837	694.16667
2017.566	694.16667
2020.292	700.5
2023.017	697.83333
2025.74	701.16667
2028.461	685.5
2031.18	680.83333
2033.898	673.83333
2036.613	682.16667
2039.327	679.16667
2042.038	661.16667
2044.748	675.5
2047.456	681.5
2050.162	662.83333
2052.866	670.5
2055.568	681.16667
2058.268	669.5
2060.967	667.83333
2063.663	661.5
2066.358	662.83333
2069.051	663.16667
2071.742	665.5
2074.431	664.16667
2077.118	657.83333
2079.804	645.83333
2082.487	668.16667
2085.169	673.5
2087.849	692.16667
2090.527	663.16667
2093.203	677.83333
2095.877	689.16667
2098.55	683.83333
2101.22	683.83333
2103.889	705.83333
2106.556	696.83333
2109.221	717.83333
2111.884	718.83333
2114.546	791.83333
2117.205	830.5
2119.863	894.83333
2122.519	933.16667
2125.173	995.5
2127.825	1055.5
2130.475	1052.83333
2133.124	1010.5
2135.771	974.5
2138.416	931.83333
2141.059	873.16667
2143.7	834.16667
2146.339	782.83333
2148.977	747.16667
2151.613	737.16667
2154.247	721.5
2156.879	691.16667
2159.51	682.16667
2162.138	665.83333
2164.765	665.5
2167.39	647.5
2170.013	660.5
2172.634	653.16667
2175.254	638.5
2177.872	667.83333
2180.488	624.83333
2183.102	621.5
2185.714	623.83333
2188.325	609.83333
2190.934	614.16667
2193.541	614.83333
2196.146	613.5
2198.75	585.83333
2201.351	595.83333
2203.951	586.5
2206.549	598.5
2209.146	590.5
2211.74	585.83333
2214.333	588.83333
2216.924	565.5
2219.514	582.5
2222.101	576.83333
2224.687	586.5
2227.271	575.16667
2229.853	559.83333
2232.433	568.16667
2235.012	579.83333
2237.589	568.16667
2240.164	577.5
2242.738	565.16667
2245.309	562.16667
2247.879	557.83333
2250.448	572.5
2253.014	545.16667
2255.579	533.5
2258.142	539.5
2260.703	543.5
2263.262	531.83333
2265.82	540.5
2268.376	531.16667
2270.93	524.5
2273.483	528.5
2276.033	532.83333
2278.583	529.16667
2281.13	516.83333
2283.675	519.83333
2286.219	522.83333
2288.761	520.5
2291.302	534.83333
2293.841	534.5
2296.377	501.16667
2298.913	511.16667
2301.446	525.16667
2303.978	521.5
2306.508	510.83333
2309.037	523.5
2311.563	516.83333
2314.088	513.16667
2316.612	487.83333
2319.133	512.83333
2321.653	506.16667
2324.171	501.16667
2326.688	506.16667
2329.202	504.83333
2331.715	500.16667
2334.227	486.5
2336.736	502.16667
2339.244	497.5
2341.751	486.16667
2344.255	500.16667
2346.758	488.16667
2349.259	487.83333
2351.759	496.5
2354.257	486.5
2356.753	479.5
2359.247	488.83333
2361.74	499.5
2364.231	493.5
2366.721	495.83333
2369.209	481.83333
2371.695	487.5
2374.179	484.83333
2376.662	473.83333
2379.143	488.83333
2381.622	476.83333
2384.1	490.83333
2386.576	482.5
2389.051	496.83333
2391.524	505.16667
2393.995	489.16667
2396.464	477.5
2398.932	484.83333
2401.398	472.16667
2403.863	481.5
2406.325	479.83333
2408.787	482.5
2411.246	481.16667
2413.704	478.16667
2416.16	474.83333
2418.615	475.83333
2421.068	489.16667
2423.519	494.83333
2425.969	472.16667
2428.417	486.83333
2430.863	503.83333
2433.308	483.16667
2435.751	486.83333
2438.193	475.5
2440.633	474.83333
2443.071	479.5
2445.508	476.5
2447.943	470.16667
2450.376	467.16667
2452.808	473.16667
2455.238	470.5
2457.667	503.5
2460.093	470.5
2462.519	476.16667
2464.942	471.83333
2467.365	490.16667
2469.785	479.16667
2472.204	474.16667
2474.621	469.16667
2477.037	486.16667
2479.451	455.16667
2481.863	454.83333
2484.274	465.16667
2486.683	474.5
2489.091	479.5
2491.497	470.16667
2493.901	479.83333
2496.304	474.83333
2498.705	490.16667
2501.105	470.16667
2503.503	498.83333
2505.899	463.83333
2508.294	487.5
2510.687	474.83333
2513.079	473.16667
2515.469	463.16667
2517.858	464.16667
2520.245	481.16667
2522.63	463.83333
2525.014	471.16667
2527.396	459.16667
2529.776	459.83333
2532.156	470.5
2534.533	462.16667
2536.909	454.5
2539.283	449.5
2541.656	455.83333
2544.027	485.5
2546.397	463.83333
2548.765	469.16667
2551.131	471.83333
2553.496	461.16667
2555.86	477.83333
2558.221	466.16667
2560.582	472.5
2562.94	453.83333
2565.298	459.5
2567.653	484.16667
2570.007	459.5
2572.36	471.16667
2574.711	463.16667
2577.06	480.83333
2579.408	472.16667
2581.754	464.16667
2584.099	477.83333
2586.442	467.16667
2588.784	475.16667
2591.124	473.83333
2593.463	480.5
2595.8	477.5
2598.135	469.83333
2600.469	465.5
2602.802	477.16667
2605.133	479.16667
2607.462	460.83333
2609.79	459.5
2612.116	476.16667
2614.441	475.5
2616.764	478.83333
2619.086	479.16667
2621.406	470.16667
2623.725	486.5
2626.042	484.16667
2628.358	467.16667
2630.672	472.83333
2632.985	488.83333
2635.296	479.83333
2637.606	483.83333
2639.914	468.16667
2642.22	486.5
2644.525	479.83333
2646.829	491.16667
2649.131	497.16667
2651.432	498.5
2653.731	485.16667
2656.028	495.5
2658.324	505.16667
2660.619	497.83333
2662.912	499.16667
2665.204	484.5
2667.494	504.5
2669.782	490.5
2672.07	509.83333
2674.355	500.5
2676.639	504.83333
2678.922	496.16667
2681.203	512.16667
2683.483	490.5
2685.761	489.16667
2688.038	509.16667
2690.313	521.16667
2692.587	510.16667
2694.859	497.5
2697.13	507.83333
2699.399	511.16667
2701.667	525.83333
2703.933	519.5
2706.198	525.5
2708.461	529.5
2710.723	532.5
2712.984	528.83333
2715.243	539.83333
2717.5	525.83333
2719.757	544.83333
2722.011	528.16667
2724.264	541.5
2726.516	556.83333
2728.766	540.16667
2731.015	553.83333
2733.262	549.83333
2735.508	545.16667
2737.753	552.5
2739.996	536.5
2742.237	537.16667
2744.477	542.16667
2746.716	549.5
2748.953	542.16667
2751.189	547.83333
2753.423	536.5
2755.656	525.16667
2757.887	518.83333
2760.117	523.83333
2762.346	521.16667
2764.573	525.16667
2766.798	529.16667
2769.022	527.5
2771.245	534.83333
2773.467	538.16667
2775.686	546.83333
2777.905	539.16667
2780.122	546.83333
2782.337	560.83333
2784.552	548.83333
2786.764	541.5
2788.976	551.16667
2791.186	563.5
2793.394	556.83333
2795.601	568.83333
2797.807	579.16667
2800.011	586.16667
2802.214	595.16667
2804.415	579.5
2806.615	580.5
2808.814	595.5
2811.011	606.83333
2813.206	612.83333
2815.401	616.16667
2817.594	620.83333
2819.785	634.5
2821.975	620.83333
2824.164	631.5
2826.351	653.16667
2828.537	659.83333
2830.722	673.83333
2832.905	665.5
2835.086	695.5
2837.267	721.5
2839.445	730.83333
2841.623	745.16667
2843.799	763.83333
2845.974	789.5
2848.147	820.16667
2850.319	846.83333
2852.489	863.5
2854.659	874.16667
2856.826	888.16667
2858.993	920.83333
2861.158	894.5
2863.321	901.83333
2865.483	911.5
2867.644	910.5
2869.804	918.5
2871.962	904.5
2874.118	907.5
2876.274	911.16667
2878.428	891.5
2880.58	903.5
2882.731	894.5
2884.881	887.5
2887.03	912.5
2889.177	895.83333
2891.322	908.83333
2893.467	921.5
2895.61	914.5
2897.751	936.16667
2899.892	933.16667
2902.03	939.16667
2904.168	937.16667
2906.304	938.83333
2908.439	951.5
2910.572	946.5
2912.704	948.16667
2914.835	949.5
2916.965	945.5
2919.093	954.5
2921.219	949.83333
2923.345	948.83333
2925.469	926.5
2927.591	928.5
2929.712	914.5
2931.832	894.5
2933.951	881.5
2936.068	869.5
2938.184	854.16667
2940.299	839.83333
2942.412	825.83333
2944.524	787.16667
2946.634	792.16667
2948.744	747.5
2950.851	768.83333
2952.958	723.5
2955.063	749.83333
2957.167	728.83333
2959.269	706.83333
2961.371	724.5
2963.471	696.16667
2965.569	696.5
2967.666	681.16667
2969.762	675.16667
2971.857	668.16667
2973.95	649.5
2976.042	650.83333
2978.133	630.83333
2980.222	611.16667
2982.31	594.5
2984.396	579.83333
2986.482	578.16667
2988.566	587.16667
2990.648	571.16667
2992.73	570.16667
2994.81	563.16667
2996.889	575.5
2998.966	574.16667
3001.042	577.5
3003.117	567.83333
3005.191	571.16667
3007.263	569.83333
3009.334	555.16667
3011.403	566.16667
3013.472	535.83333
3015.539	534.83333
3017.604	544.83333
3019.669	503.83333
3021.732	515.83333
3023.794	519.83333
3025.854	513.83333
3027.914	506.16667
3029.971	514.16667
3032.028	507.16667
3034.083	509.16667
3036.137	502.5
3038.19	486.5
3040.242	477.83333
3042.292	466.16667
3044.341	461.5
3046.388	475.5
3048.435	445.16667
3050.48	461.83333
3052.524	456.83333
3054.566	432.5
3056.607	460.16667
3058.647	445.83333
3060.686	426.83333
3062.723	415.83333
3064.759	399.16667
3066.794	-1.16667
3068.828	3.5
3070.86	2.16667
