-0.839	541.625
3.438	640.95833
7.711	193.29167
11.981	63.29167
16.247	43.625
20.509	52.29167
24.768	46.29167
29.024	54.625
33.276	44.29167
37.524	47.95833
41.769	45.95833
46.01	33.625
50.247	45.29167
54.481	58.95833
58.712	61.625
62.939	49.625
67.162	59.625
71.382	51.95833
75.599	45.29167
79.812	60.29167
84.021	77.95833
88.227	60.29167
92.429	58.95833
96.628	49.29167
100.823	71.625
105.015	73.625
109.204	65.625
113.388	69.95833
117.57	70.625
121.748	83.29167
125.922	74.95833
130.093	93.95833
134.261	91.95833
138.425	94.95833
142.585	130.29167
146.742	121.95833
150.896	146.95833
155.046	178.95833
159.193	279.29167
163.336	473.29167
167.476	873.625
171.613	1593.95833
175.746	2662.95833
179.875	3961.95833
184.002	5146.95833
188.124	5994.625
192.244	6274.95833
196.36	6155.29167
200.472	5960.625
204.581	5728.29167
208.687	5512.95833
212.79	5421.95833
216.889	5362.95833
220.984	5317.29167
225.077	5297.95833
229.165	5281.95833
233.251	5268.29167
237.333	5188.625
241.412	5104.29167
245.487	5037.29167
249.559	4948.625
253.628	4893.29167
257.694	4856.29167
261.756	4799.95833
265.814	4666.29167
269.87	4536.625
273.922	4392.29167
277.97	4352.625
282.016	4315.625
286.058	4310.29167
290.097	4394.29167
294.132	4421.625
298.164	4373.29167
302.193	4209.95833
306.219	3871.95833
310.241	3599.95833
314.26	3323.29167
318.276	3137.95833
322.288	2992.29167
326.297	2857.95833
330.303	2797.29167
334.305	2723.29167
338.305	2700.95833
342.301	2656.95833
346.294	2633.625
350.283	2616.95833
354.269	2579.95833
358.252	2558.625
362.232	2527.625
366.209	2525.95833
370.182	2490.625
374.152	2496.29167
378.119	2482.29167
382.083	2491.625
386.043	2512.95833
390	2476.95833
393.954	2485.29167
397.905	2474.29167
401.852	2457.29167
405.797	2427.29167
409.738	2442.29167
413.676	2416.625
417.61	2425.29167
421.542	2387.29167
425.47	2379.29167
429.396	2356.29167
433.318	2337.625
437.236	2338.625
441.152	2366.95833
445.065	2324.29167
448.974	2316.95833
452.88	2275.625
456.783	2278.625
460.683	2261.95833
464.58	2256.29167
468.473	2267.95833
472.364	2288.29167
476.251	2275.29167
480.135	2301.95833
484.016	2338.95833
487.894	2343.29167
491.769	2378.95833
495.641	2374.29167
499.509	2380.95833
503.375	2362.95833
507.237	2367.29167
511.096	2396.29167
514.952	2530.95833
518.805	2683.95833
522.655	2758.29167
526.502	2542.29167
530.346	2407.29167
534.187	2358.29167
538.024	2344.625
541.859	2349.625
545.69	2376.29167
549.519	2363.29167
553.344	2340.95833
557.166	2310.625
560.985	2303.29167
564.802	2249.625
568.615	2216.95833
572.425	2180.95833
576.232	2170.95833
580.036	2167.625
583.836	2190.625
587.634	2188.95833
591.429	2188.29167
595.221	2248.95833
599.01	2245.29167
602.796	2289.95833
606.578	2280.625
610.358	2283.29167
614.135	2264.95833
617.909	2246.95833
621.679	2246.29167
625.447	2224.95833
629.212	2223.625
632.973	2234.95833
636.732	2217.95833
640.488	2207.95833
644.241	2193.625
647.991	2198.29167
651.737	2206.29167
655.481	2193.95833
659.222	2180.95833
662.96	2180.625
666.695	2188.95833
670.427	2203.29167
674.156	2227.95833
677.882	2207.29167
681.605	2211.29167
685.325	2168.29167
689.043	2182.29167
692.757	2142.29167
696.468	2163.29167
700.177	2156.625
703.882	2133.29167
707.585	2140.625
711.284	2123.29167
714.981	2140.29167
718.675	2137.29167
722.366	2136.29167
726.054	2123.95833
729.739	2129.95833
733.421	2147.95833
737.1	2134.625
740.777	2156.95833
744.45	2158.625
748.121	2161.95833
751.789	2210.95833
755.453	2203.625
759.115	2216.625
762.774	2222.29167
766.431	2240.95833
770.084	2255.95833
773.734	2274.29167
777.382	2305.95833
781.027	2330.95833
784.669	2324.95833
788.308	2326.625
791.944	2352.95833
795.577	2371.29167
799.208	2367.625
802.835	2397.95833
806.46	2407.29167
810.082	2427.95833
813.701	2401.95833
817.317	2425.625
820.931	2433.29167
824.542	2420.95833
828.149	2399.625
831.754	2366.625
835.357	2359.29167
838.956	2376.625
842.553	2387.29167
846.146	2364.29167
849.737	2353.625
853.326	2358.95833
856.911	2340.95833
860.493	2365.95833
864.073	2387.95833
867.65	2426.95833
871.225	2448.95833
874.796	2444.29167
878.365	2477.95833
881.931	2474.625
885.494	2487.29167
889.054	2498.95833
892.612	2521.29167
896.166	2503.95833
899.719	2490.625
903.268	2423.95833
906.814	2432.625
910.358	2421.625
913.899	2368.29167
917.438	2371.29167
920.973	2362.29167
924.506	2375.29167
928.036	2419.95833
931.564	2452.95833
935.088	2463.95833
938.61	2503.29167
942.129	2514.29167
945.646	2577.625
949.16	2614.625
952.671	2629.29167
956.179	2632.95833
959.685	2616.95833
963.188	2590.29167
966.688	2566.29167
970.185	2493.29167
973.68	2452.625
977.173	2414.625
980.662	2389.29167
984.149	2402.95833
987.633	2358.29167
991.114	2392.95833
994.593	2432.95833
998.069	2503.625
1001.542	2568.625
1005.013	2518.95833
1008.481	2390.29167
1011.947	2348.95833
1015.409	2347.95833
1018.869	2345.95833
1022.327	2334.95833
1025.782	2333.625
1029.234	2326.29167
1032.683	2281.625
1036.13	2224.29167
1039.574	2141.625
1043.016	2098.29167
1046.455	2049.625
1049.891	2034.625
1053.325	2029.95833
1056.756	2040.95833
1060.184	2051.95833
1063.61	2054.29167
1067.033	2081.29167
1070.454	2070.29167
1073.872	2116.29167
1077.287	2079.29167
1080.7	2093.95833
1084.11	2096.29167
1087.517	2053.29167
1090.922	2022.625
1094.325	2013.29167
1097.724	1997.95833
1101.122	1999.625
1104.516	1995.95833
1107.908	2005.625
1111.298	2051.29167
1114.684	2054.95833
1118.069	2066.95833
1121.45	2118.95833
1124.83	2089.95833
1128.206	2111.95833
1131.58	2159.625
1134.951	2207.29167
1138.32	2252.625
1141.687	2330.625
1145.05	2376.95833
1148.412	2387.29167
1151.77	2378.29167
1155.126	2374.95833
1158.48	2373.29167
1161.831	2381.625
1165.18	2389.29167
1168.525	2421.625
1171.869	2457.95833
1175.21	2484.29167
1178.548	2476.29167
1181.884	2529.29167
1185.217	2536.625
1188.548	2611.95833
1191.877	2640.625
1195.202	2725.29167
1198.526	2776.625
1201.846	2803.625
1205.165	2800.95833
1208.48	2798.95833
1211.794	2772.95833
1215.104	2797.625
1218.413	2784.625
1221.719	2787.95833
1225.022	2747.29167
1228.323	2674.625
1231.621	2689.29167
1234.917	2656.29167
1238.21	2666.625
1241.501	2651.625
1244.79	2634.625
1248.076	2646.29167
1251.359	2669.625
1254.64	2731.29167
1257.919	2747.95833
1261.195	2785.29167
1264.468	2842.95833
1267.74	2861.29167
1271.008	2848.29167
1274.275	2845.95833
1277.538	2827.625
1280.8	2821.625
1284.059	2813.29167
1287.315	2865.29167
1290.569	2857.29167
1293.821	2880.29167
1297.07	2899.29167
1300.317	2916.29167
1303.562	2917.95833
1306.803	2888.95833
1310.043	2875.625
1313.28	2837.95833
1316.515	2809.29167
1319.747	2816.95833
1322.977	2801.95833
1326.204	2774.95833
1329.429	2724.95833
1332.652	2736.29167
1335.872	2695.29167
1339.09	2677.625
1342.306	2646.625
1345.519	2621.29167
1348.729	2592.95833
1351.938	2571.95833
1355.144	2536.29167
1358.347	2509.29167
1361.548	2508.95833
1364.747	2502.625
1367.944	2443.29167
1371.138	2468.625
1374.329	2489.29167
1377.518	2479.29167
1380.705	2518.95833
1383.89	2487.625
1387.072	2409.29167
1390.252	2331.625
1393.429	2261.29167
1396.605	2209.29167
1399.777	2161.625
1402.948	2116.95833
1406.116	2113.95833
1409.282	2134.95833
1412.445	2131.29167
1415.606	2141.95833
1418.765	2181.625
1421.921	2219.95833
1425.075	2257.95833
1428.227	2328.29167
1431.376	2404.29167
1434.524	2465.29167
1437.668	2548.625
1440.811	2578.29167
1443.951	2613.625
1447.089	2606.29167
1450.224	2607.29167
1453.357	2579.29167
1456.488	2561.95833
1459.617	2528.95833
1462.743	2497.29167
1465.867	2425.95833
1468.989	2381.625
1472.108	2354.95833
1475.225	2298.29167
1478.34	2277.95833
1481.453	2270.625
1484.563	2247.29167
1487.671	2290.29167
1490.776	2340.625
1493.88	2368.95833
1496.981	2395.625
1500.08	2420.29167
1503.176	2469.29167
1506.271	2488.95833
1509.363	2537.625
1512.452	2560.29167
1515.54	2571.625
1518.625	2601.95833
1521.708	2666.625
1524.789	2747.625
1527.867	2828.625
1530.944	2988.625
1534.018	3118.29167
1537.089	3255.29167
1540.159	3298.29167
1543.226	3282.625
1546.291	3217.95833
1549.354	3118.29167
1552.415	3096.29167
1555.473	3021.625
1558.529	2969.95833
1561.583	2929.95833
1564.634	2899.29167
1567.684	2906.29167
1570.731	2902.625
1573.776	2947.625
1576.819	2975.625
1579.859	2999.95833
1582.898	3037.95833
1585.934	3091.29167
1588.968	3075.95833
1591.999	3079.625
1595.029	3105.95833
1598.056	3132.95833
1601.081	3143.29167
1604.104	3129.95833
1607.125	3098.95833
1610.144	3055.625
1613.16	2985.95833
1616.174	2911.625
1619.186	2853.625
1622.196	2757.29167
1625.203	2708.625
1628.209	2664.625
1631.212	2621.95833
1634.213	2616.625
1637.212	2617.29167
1640.209	2576.29167
1643.203	2505.29167
1646.196	2422.625
1649.186	2357.625
1652.174	2263.95833
1655.16	2181.95833
1658.144	2116.95833
1661.125	2044.625
1664.105	1963.625
1667.082	1855.29167
1670.057	1789.29167
1673.03	1692.95833
1676.001	1587.95833
1678.97	1489.95833
1681.937	1393.95833
1684.901	1334.29167
1687.863	1299.625
1690.824	1230.625
1693.782	1210.29167
1696.738	1161.95833
1699.692	1124.95833
1702.643	1113.29167
1705.593	1074.625
1708.54	1081.625
1711.486	1081.95833
1714.429	1044.625
1717.37	1043.29167
1720.309	1003.625
1723.246	1026.29167
1726.181	1000.625
1729.113	999.29167
1732.044	985.95833
1734.972	983.625
1737.899	989.625
1740.823	986.625
1743.745	948.625
1746.665	952.95833
1749.583	941.29167
1752.499	923.29167
1755.413	909.29167
1758.325	893.29167
1761.235	886.29167
1764.142	879.29167
1767.048	863.29167
1769.951	858.95833
1772.852	867.95833
1775.752	865.95833
1778.649	848.95833
1781.544	855.625
1784.437	826.29167
1787.328	846.625
1790.217	833.95833
1793.104	807.95833
1795.989	815.29167
1798.872	805.29167
1801.753	829.625
1804.631	827.625
1807.508	828.625
1810.383	818.625
1813.255	816.95833
1816.126	807.625
1818.994	795.29167
1821.861	800.625
1824.725	790.625
1827.587	790.95833
1830.448	783.95833
1833.306	778.29167
1836.162	788.95833
1839.017	783.95833
1841.869	768.29167
1844.719	771.29167
1847.567	746.29167
1850.414	748.95833
1853.258	760.95833
1856.1	766.625
1858.94	769.95833
1861.778	762.29167
1864.614	756.625
1867.448	755.95833
1870.28	744.625
1873.111	771.95833
1875.939	753.29167
1878.765	774.95833
1881.589	760.29167
1884.411	764.625
1887.231	756.95833
1890.049	749.29167
1892.865	753.95833
1895.68	739.625
1898.492	748.29167
1901.302	747.95833
1904.11	738.95833
1906.916	729.95833
1909.721	719.625
1912.523	731.95833
1915.323	713.95833
1918.122	721.29167
1920.918	728.29167
1923.712	720.95833
1926.505	707.95833
1929.295	711.29167
1932.084	721.95833
1934.87	713.625
1937.655	709.29167
1940.438	714.29167
1943.218	707.625
1945.997	720.29167
1948.774	732.625
1951.549	737.29167
1954.322	722.29167
1957.093	713.29167
1959.862	701.95833
1962.629	700.95833
1965.394	713.29167
1968.157	702.29167
1970.918	696.95833
1973.678	690.29167
1976.435	715.95833
1979.19	686.29167
1981.944	691.625
1984.696	678.95833
1987.445	682.95833
1990.193	687.625
1992.939	692.29167
1995.683	678.625
1998.425	677.29167
2001.165	708.29167
2003.903	678.29167
2006.639	674.29167
2009.374	691.29167
2012.106	679.95833
2014.837	667.95833
2017.566	694.625
2020.292	683.29167
2023.017	682.29167
2025.74	677.625
2028.461	662.95833
2031.18	681.29167
2033.898	661.29167
2036.613	668.95833
2039.327	672.29167
2042.038	661.29167
2044.748	662.95833
2047.456	672.625
2050.162	659.29167
2052.866	669.29167
2055.568	676.95833
2058.268	658.95833
2060.967	671.29167
2063.663	654.29167
2066.358	660.29167
2069.051	657.95833
2071.742	652.625
2074.431	669.95833
2077.118	667.29167
2079.804	660.625
2082.487	671.29167
2085.169	679.625
2087.849	690.29167
2090.527	656.625
2093.203	663.625
2095.877	679.29167
2098.55	686.29167
2101.22	695.625
2103.889	694.29167
2106.556	702.95833
2109.221	715.29167
2111.884	726.625
2114.546	782.29167
2117.205	810.625
2119.863	879.625
2122.519	911.29167
2125.173	973.29167
2127.825	1026.95833
2130.475	1026.625
2133.124	973.625
2135.771	944.625
2138.416	916.625
2141.059	863.625
2143.7	821.625
2146.339	778.95833
2148.977	745.29167
2151.613	743.29167
2154.247	720.95833
2156.879	706.95833
2159.51	699.625
2162.138	694.95833
2164.765	688.29167
2167.39	682.95833
2170.013	682.95833
2172.634	677.625
2175.254	674.29167
2177.872	694.95833
2180.488	649.625
2183.102	669.29167
2185.714	655.95833
2188.325	634.95833
2190.934	646.95833
2193.541	657.95833
2196.146	650.95833
2198.75	629.95833
2201.351	634.625
2203.951	633.29167
2206.549	636.29167
2209.146	636.29167
2211.74	635.625
2214.333	629.29167
2216.924	616.625
2219.514	631.95833
2222.101	633.95833
2224.687	635.625
2227.271	628.95833
2229.853	619.625
2232.433	617.625
2235.012	625.29167
2237.589	633.625
2240.164	647.625
2242.738	614.29167
2245.309	615.95833
2247.879	626.625
2250.448	628.95833
2253.014	615.625
2255.579	600.95833
2258.142	609.95833
2260.703	605.95833
2263.262	606.29167
2265.82	608.29167
2268.376	617.95833
2270.93	588.625
2273.483	598.29167
2276.033	608.95833
2278.583	601.625
2281.13	599.95833
2283.675	595.625
2286.219	599.95833
2288.761	605.29167
2291.302	597.95833
2293.841	613.625
2296.377	596.29167
2298.913	607.625
2301.446	614.625
2303.978	612.95833
2306.508	596.625
2309.037	602.29167
2311.563	605.29167
2314.088	599.95833
2316.612	586.625
2319.133	612.625
2321.653	605.95833
2324.171	608.29167
2326.688	613.29167
2329.202	586.29167
2331.715	597.95833
2334.227	593.625
2336.736	608.95833
2339.244	598.95833
2341.751	593.625
2344.255	614.625
2346.758	600.95833
2349.259	595.625
2351.759	613.95833
2354.257	601.95833
2356.753	599.95833
2359.247	607.95833
2361.74	604.95833
2364.231	609.29167
2366.721	615.625
2369.209	606.625
2371.695	613.625
2374.179	598.95833
2376.662	595.95833
2379.143	617.29167
2381.622	607.95833
2384.1	612.29167
2386.576	610.29167
2389.051	630.625
2391.524	621.625
2393.995	617.95833
2396.464	607.29167
2398.932	607.95833
2401.398	608.95833
2403.863	607.625
2406.325	605.625
2408.787	615.95833
2411.246	619.625
2413.704	618.625
2416.16	611.29167
2418.615	627.29167
2421.068	630.95833
2423.519	634.625
2425.969	626.29167
2428.417	628.29167
2430.863	648.95833
2433.308	640.625
2435.751	643.95833
2438.193	637.625
2440.633	634.625
2443.071	632.95833
2445.508	633.625
2447.943	630.95833
2450.376	621.625
2452.808	634.625
2455.238	628.29167
2457.667	670.95833
2460.093	636.625
2462.519	643.29167
2464.942	657.625
2467.365	657.29167
2469.785	657.625
2472.204	647.95833
2474.621	636.95833
2477.037	675.29167
2479.451	632.95833
2481.863	641.625
2484.274	648.625
2486.683	660.625
2489.091	651.625
2491.497	652.95833
2493.901	659.95833
2496.304	650.95833
2498.705	673.29167
2501.105	654.625
2503.503	686.625
2505.899	656.29167
2508.294	671.95833
2510.687	673.625
2513.079	662.95833
2515.469	665.625
2517.858	673.95833
2520.245	680.625
2522.63	660.625
2525.014	667.29167
2527.396	666.95833
2529.776	671.625
2532.156	686.625
2534.533	668.625
2536.909	669.625
2539.283	663.29167
2541.656	674.95833
2544.027	698.29167
2546.397	675.95833
2548.765	683.29167
2551.131	685.95833
2553.496	683.625
2555.86	704.625
2558.221	681.625
2560.582	691.625
2562.94	685.625
2565.298	692.625
2567.653	705.95833
2570.007	679.95833
2572.36	709.625
2574.711	696.95833
2577.06	720.625
2579.408	721.29167
2581.754	709.625
2584.099	717.625
2586.442	711.95833
2588.784	725.625
2591.124	727.625
2593.463	725.29167
2595.8	718.625
2598.135	712.625
2600.469	721.29167
2602.802	726.625
2605.133	733.29167
2607.462	712.625
2609.79	716.29167
2612.116	731.29167
2614.441	736.29167
2616.764	739.625
2619.086	746.95833
2621.406	714.95833
2623.725	752.29167
2626.042	744.625
2628.358	744.625
2630.672	737.95833
2632.985	754.29167
2635.296	757.625
2637.606	757.625
2639.914	754.29167
2642.22	747.95833
2644.525	757.95833
2646.829	769.625
2649.131	778.29167
2651.432	780.29167
2653.731	778.625
2656.028	797.29167
2658.324	793.625
2660.619	773.95833
2662.912	786.95833
2665.204	790.95833
2667.494	786.95833
2669.782	787.29167
2672.07	793.625
2674.355	807.625
2676.639	799.29167
2678.922	802.29167
2681.203	798.625
2683.483	800.29167
2685.761	785.29167
2688.038	811.29167
2690.313	825.29167
2692.587	811.625
2694.859	808.29167
2697.13	821.29167
2699.399	829.95833
2701.667	836.625
2703.933	833.29167
2706.198	835.625
2708.461	847.95833
2710.723	864.95833
2712.984	849.95833
2715.243	849.625
2717.5	844.95833
2719.757	863.29167
2722.011	856.625
2724.264	877.625
2726.516	888.29167
2728.766	877.29167
2731.015	883.95833
2733.262	892.29167
2735.508	882.95833
2737.753	893.29167
2739.996	887.625
2742.237	863.29167
2744.477	891.29167
2746.716	897.625
2748.953	875.625
2751.189	878.625
2753.423	877.625
2755.656	869.625
2757.887	870.29167
2760.117	892.29167
2762.346	870.29167
2764.573	865.625
2766.798	879.95833
2769.022	884.95833
2771.245	886.625
2773.467	893.95833
2775.686	897.95833
2777.905	880.95833
2780.122	898.625
2782.337	920.95833
2784.552	909.29167
2786.764	910.95833
2788.976	911.625
2791.186	928.29167
2793.394	934.29167
2795.601	936.625
2797.807	962.625
2800.011	962.95833
2802.214	962.29167
2804.415	957.29167
2806.615	970.95833
2808.814	963.95833
2811.011	981.29167
2813.206	961.29167
2815.401	988.95833
2817.594	992.29167
2819.785	992.29167
2821.975	992.625
2824.164	993.29167
2826.351	1019.625
2828.537	1035.29167
2830.722	1025.625
2832.905	1033.625
2835.086	1056.95833
2837.267	1089.95833
2839.445	1107.29167
2841.623	1104.625
2843.799	1125.95833
2845.974	1153.625
2848.147	1194.29167
2850.319	1206.95833
2852.489	1240.29167
2854.659	1248.625
2856.826	1245.625
2858.993	1284.95833
2861.158	1248.29167
2863.321	1268.95833
2865.483	1262.29167
2867.644	1275.625
2869.804	1261.625
2871.962	1264.95833
2874.118	1258.29167
2876.274	1259.625
2878.428	1259.29167
2880.58	1249.625
2882.731	1240.625
2884.881	1244.29167
2887.03	1260.29167
2889.177	1264.625
2891.322	1282.29167
2893.467	1276.95833
2895.61	1265.625
2897.751	1284.625
2899.892	1277.29167
2902.03	1294.29167
2904.168	1297.95833
2906.304	1311.95833
2908.439	1327.95833
2910.572	1310.95833
2912.704	1335.95833
2914.835	1331.625
2916.965	1324.95833
2919.093	1351.29167
2921.219	1325.95833
2923.345	1332.95833
2925.469	1322.95833
2927.591	1308.625
2929.712	1280.625
2931.832	1288.95833
2933.951	1266.29167
2936.068	1254.95833
2938.184	1249.625
2940.299	1219.95833
2942.412	1206.95833
2944.524	1186.625
2946.634	1188.95833
2948.744	1136.95833
2950.851	1171.29167
2952.958	1139.625
2955.063	1136.29167
2957.167	1160.29167
2959.269	1111.95833
2961.371	1155.29167
2963.471	1130.625
2965.569	1110.95833
2967.666	1101.29167
2969.762	1102.29167
2971.857	1098.95833
2973.95	1069.29167
2976.042	1069.625
2978.133	1048.95833
2980.222	1042.95833
2982.31	1020.95833
2984.396	999.95833
2986.482	1005.625
2988.566	998.95833
2990.648	999.625
2992.73	999.625
2994.81	995.95833
2996.889	1003.95833
2998.966	995.625
3001.042	1006.29167
3003.117	1011.625
3005.191	988.29167
3007.263	997.95833
3009.334	977.625
3011.403	984.95833
3013.472	942.29167
3015.539	955.625
3017.604	969.95833
3019.669	917.95833
3021.732	928.95833
3023.794	934.625
3025.854	936.95833
3027.914	925.95833
3029.971	939.95833
3032.028	923.625
3034.083	920.95833
3036.137	918.29167
3038.19	889.95833
3040.242	862.29167
3042.292	849.95833
3044.341	848.95833
3046.388	857.625
3048.435	823.95833
3050.48	843.625
3052.524	836.29167
3054.566	818.625
3056.607	831.95833
3058.647	815.29167
3060.686	784.95833
3062.723	759.625
3064.759	743.29167
3066.794	-1.375
3068.828	3.29167
3070.86	2.29167
