-0.839	509.95833
3.438	594.625
7.711	173.29167
11.981	61.95833
16.247	44.95833
20.509	49.625
24.768	43.95833
29.024	52.29167
33.276	44.29167
37.524	50.95833
41.769	42.625
46.01	28.95833
50.247	40.625
54.481	55.625
58.712	63.29167
62.939	47.95833
67.162	59.29167
71.382	55.29167
75.599	40.625
79.812	56.29167
84.021	74.95833
88.227	56.29167
92.429	51.95833
96.628	48.625
100.823	64.625
105.015	70.29167
109.204	57.625
113.388	69.29167
117.57	66.625
121.748	78.625
125.922	68.625
130.093	85.625
134.261	82.625
138.425	84.29167
142.585	119.95833
146.742	106.95833
150.896	141.95833
155.046	159.625
159.193	256.625
163.336	426.625
167.476	784.95833
171.613	1434.625
175.746	2384.625
179.875	3483.95833
184.002	4515.625
188.124	5213.95833
192.244	5423.625
196.36	5323.29167
200.472	5110.29167
204.581	4907.625
208.687	4706.95833
212.79	4605.625
216.889	4495.29167
220.984	4474.29167
225.077	4440.95833
229.165	4363.625
233.251	4300.625
237.333	4242.625
241.412	4159.29167
245.487	4059.625
249.559	4015.29167
253.628	3965.625
257.694	3942.29167
261.756	3898.95833
265.814	3813.95833
269.87	3711.29167
273.922	3583.95833
277.97	3569.625
282.016	3550.95833
286.058	3559.29167
290.097	3660.625
294.132	3697.29167
298.164	3671.95833
302.193	3521.29167
306.219	3264.625
310.241	3008.95833
314.26	2781.29167
318.276	2580.95833
322.288	2446.625
326.297	2331.625
330.303	2263.29167
334.305	2185.29167
338.305	2148.29167
342.301	2123.625
346.294	2096.95833
350.283	2075.625
354.269	2043.95833
358.252	2034.625
362.232	2032.29167
366.209	2015.95833
370.182	1961.95833
374.152	1959.95833
378.119	1981.29167
382.083	1958.95833
386.043	1977.625
390	1966.625
393.954	1952.625
397.905	1934.625
401.852	1940.625
405.797	1904.95833
409.738	1919.95833
413.676	1924.29167
417.61	1907.625
421.542	1885.625
425.47	1885.29167
429.396	1835.29167
433.318	1827.29167
437.236	1840.29167
441.152	1861.95833
445.065	1806.625
448.974	1794.95833
452.88	1774.625
456.783	1768.95833
460.683	1758.29167
464.58	1755.29167
468.473	1761.625
472.364	1775.95833
476.251	1775.95833
480.135	1770.29167
484.016	1824.29167
487.894	1815.29167
491.769	1831.29167
495.641	1821.95833
499.509	1835.625
503.375	1840.625
507.237	1843.95833
511.096	1865.625
514.952	1989.29167
518.805	2109.95833
522.655	2168.29167
526.502	1998.625
530.346	1875.95833
534.187	1839.29167
538.024	1830.29167
541.859	1845.625
545.69	1866.29167
549.519	1858.95833
553.344	1811.95833
557.166	1800.95833
560.985	1789.95833
564.802	1757.625
568.615	1726.625
572.425	1696.95833
576.232	1695.29167
580.036	1687.29167
583.836	1698.625
587.634	1717.625
591.429	1709.29167
595.221	1760.29167
599.01	1759.625
602.796	1780.95833
606.578	1780.95833
610.358	1771.29167
614.135	1754.95833
617.909	1748.625
621.679	1727.625
625.447	1719.625
629.212	1721.95833
632.973	1736.625
636.732	1727.29167
640.488	1746.95833
644.241	1699.625
647.991	1703.29167
651.737	1721.625
655.481	1702.29167
659.222	1683.95833
662.96	1677.625
666.695	1722.95833
670.427	1718.29167
674.156	1734.95833
677.882	1731.29167
681.605	1725.625
685.325	1680.29167
689.043	1707.29167
692.757	1674.29167
696.468	1693.625
700.177	1686.29167
703.882	1677.95833
707.585	1663.625
711.284	1670.625
714.981	1668.29167
718.675	1665.29167
722.366	1677.29167
726.054	1650.29167
729.739	1658.29167
733.421	1678.625
737.1	1644.95833
740.777	1698.29167
744.45	1685.95833
748.121	1705.625
751.789	1738.95833
755.453	1727.95833
759.115	1730.95833
762.774	1744.29167
766.431	1734.95833
770.084	1774.29167
773.734	1777.29167
777.382	1806.625
781.027	1840.625
784.669	1839.95833
788.308	1849.625
791.944	1863.625
795.577	1868.29167
799.208	1882.29167
802.835	1902.95833
806.46	1895.625
810.082	1925.29167
813.701	1899.29167
817.317	1927.29167
820.931	1925.29167
824.542	1910.95833
828.149	1902.29167
831.754	1876.29167
835.357	1867.95833
838.956	1890.29167
842.553	1882.95833
846.146	1860.29167
849.737	1853.29167
853.326	1865.625
856.911	1845.625
860.493	1891.95833
864.073	1916.29167
867.65	1931.29167
871.225	1958.95833
874.796	1951.29167
878.365	1950.95833
881.931	1954.29167
885.494	1982.625
889.054	1994.625
892.612	1994.625
896.166	2007.95833
899.719	1964.95833
903.268	1941.95833
906.814	1926.625
910.358	1884.95833
913.899	1871.95833
917.438	1885.95833
920.973	1880.29167
924.506	1904.29167
928.036	1924.29167
931.564	1940.625
935.088	1988.95833
938.61	1982.29167
942.129	2006.625
945.646	2077.625
949.16	2098.29167
952.671	2119.29167
956.179	2100.625
959.685	2081.625
963.188	2079.625
966.688	2059.29167
970.185	1989.29167
973.68	1939.29167
977.173	1943.95833
980.662	1873.95833
984.149	1892.625
987.633	1877.625
991.114	1910.625
994.593	1936.625
998.069	1998.625
1001.542	2051.625
1005.013	2017.29167
1008.481	1898.29167
1011.947	1875.29167
1015.409	1861.29167
1018.869	1861.625
1022.327	1852.29167
1025.782	1845.625
1029.234	1845.95833
1032.683	1815.625
1036.13	1753.625
1039.574	1709.625
1043.016	1654.29167
1046.455	1633.95833
1049.891	1620.29167
1053.325	1638.625
1056.756	1625.29167
1060.184	1639.29167
1063.61	1663.95833
1067.033	1652.29167
1070.454	1651.625
1073.872	1698.625
1077.287	1672.29167
1080.7	1670.29167
1084.11	1676.29167
1087.517	1643.95833
1090.922	1627.625
1094.325	1622.625
1097.724	1587.95833
1101.122	1607.625
1104.516	1611.29167
1107.908	1596.95833
1111.298	1634.625
1114.684	1664.625
1118.069	1679.29167
1121.45	1705.625
1124.83	1682.29167
1128.206	1707.29167
1131.58	1725.625
1134.951	1785.95833
1138.32	1837.625
1141.687	1916.95833
1145.05	1929.29167
1148.412	1924.625
1151.77	1922.625
1155.126	1898.29167
1158.48	1882.625
1161.831	1930.95833
1165.18	1915.625
1168.525	1948.625
1171.869	1961.95833
1175.21	1949.29167
1178.548	1980.95833
1181.884	1998.625
1185.217	2022.625
1188.548	2080.95833
1191.877	2156.625
1195.202	2204.29167
1198.526	2240.95833
1201.846	2275.29167
1205.165	2279.625
1208.48	2269.625
1211.794	2264.95833
1215.104	2267.625
1218.413	2269.29167
1221.719	2263.29167
1225.022	2237.29167
1228.323	2183.625
1231.621	2172.29167
1234.917	2160.29167
1238.21	2157.625
1241.501	2151.625
1244.79	2146.29167
1248.076	2138.95833
1251.359	2131.625
1254.64	2195.625
1257.919	2206.95833
1261.195	2237.29167
1264.468	2260.95833
1267.74	2292.29167
1271.008	2314.95833
1274.275	2272.625
1277.538	2278.625
1280.8	2285.29167
1284.059	2283.29167
1287.315	2317.625
1290.569	2314.625
1293.821	2354.29167
1297.07	2370.625
1300.317	2384.625
1303.562	2369.625
1306.803	2382.95833
1310.043	2361.29167
1313.28	2312.29167
1316.515	2316.29167
1319.747	2299.95833
1322.977	2273.95833
1326.204	2237.95833
1329.429	2226.625
1332.652	2212.625
1335.872	2195.625
1339.09	2140.625
1342.306	2133.29167
1345.519	2103.95833
1348.729	2085.625
1351.938	2076.95833
1355.144	2067.29167
1358.347	2041.29167
1361.548	2032.29167
1364.747	2016.95833
1367.944	1986.625
1371.138	2007.625
1374.329	2021.95833
1377.518	2037.29167
1380.705	2071.625
1383.89	2043.625
1387.072	1978.29167
1390.252	1900.625
1393.429	1836.95833
1396.605	1794.95833
1399.777	1739.95833
1402.948	1709.29167
1406.116	1735.95833
1409.282	1716.95833
1412.445	1724.625
1415.606	1749.625
1418.765	1766.95833
1421.921	1808.625
1425.075	1835.95833
1428.227	1888.29167
1431.376	1962.625
1434.524	2034.625
1437.668	2090.29167
1440.811	2104.95833
1443.951	2136.29167
1447.089	2127.95833
1450.224	2115.95833
1453.357	2099.625
1456.488	2083.95833
1459.617	2059.29167
1462.743	2003.29167
1465.867	1953.95833
1468.989	1917.95833
1472.108	1885.95833
1475.225	1855.95833
1478.34	1815.95833
1481.453	1826.95833
1484.563	1822.625
1487.671	1851.95833
1490.776	1875.95833
1493.88	1911.29167
1496.981	1920.29167
1500.08	1958.29167
1503.176	1992.29167
1506.271	1998.95833
1509.363	2039.29167
1512.452	2052.625
1515.54	2063.95833
1518.625	2089.29167
1521.708	2147.625
1524.789	2178.95833
1527.867	2263.29167
1530.944	2354.625
1534.018	2467.625
1537.089	2577.29167
1540.159	2607.625
1543.226	2594.29167
1546.291	2549.95833
1549.354	2492.625
1552.415	2479.95833
1555.473	2426.95833
1558.529	2377.625
1561.583	2361.29167
1564.634	2353.95833
1567.684	2356.95833
1570.731	2362.95833
1573.776	2387.625
1576.819	2401.95833
1579.859	2445.29167
1582.898	2449.95833
1585.934	2475.95833
1588.968	2490.95833
1591.999	2502.29167
1595.029	2511.95833
1598.056	2544.625
1601.081	2564.95833
1604.104	2556.625
1607.125	2524.95833
1610.144	2479.29167
1613.16	2401.29167
1616.174	2358.95833
1619.186	2295.625
1622.196	2225.95833
1625.203	2155.29167
1628.209	2108.29167
1631.212	2067.29167
1634.213	2063.625
1637.212	2070.29167
1640.209	2032.625
1643.203	2009.29167
1646.196	1937.625
1649.186	1883.29167
1652.174	1843.625
1655.16	1793.95833
1658.144	1739.29167
1661.125	1660.95833
1664.105	1606.29167
1667.082	1529.95833
1670.057	1443.29167
1673.03	1342.95833
1676.001	1270.29167
1678.97	1187.95833
1681.937	1130.29167
1684.901	1063.29167
1687.863	1040.625
1690.824	973.95833
1693.782	990.625
1696.738	919.95833
1699.692	924.625
1702.643	883.29167
1705.593	875.625
1708.54	869.625
1711.486	868.29167
1714.429	833.625
1717.37	860.95833
1720.309	826.625
1723.246	824.29167
1726.181	805.29167
1729.113	800.625
1732.044	799.29167
1734.972	787.95833
1737.899	800.95833
1740.823	786.29167
1743.745	760.625
1746.665	767.29167
1749.583	751.29167
1752.499	748.29167
1755.413	745.95833
1758.325	704.625
1761.235	714.29167
1764.142	710.95833
1767.048	693.625
1769.951	690.29167
1772.852	694.29167
1775.752	684.625
1778.649	695.29167
1781.544	694.29167
1784.437	667.29167
1787.328	687.29167
1790.217	665.95833
1793.104	637.625
1795.989	648.625
1798.872	658.625
1801.753	664.29167
1804.631	653.29167
1807.508	661.625
1810.383	656.29167
1813.255	648.95833
1816.126	645.95833
1818.994	658.29167
1821.861	637.625
1824.725	649.95833
1827.587	648.625
1830.448	640.29167
1833.306	622.95833
1836.162	634.625
1839.017	622.29167
1841.869	624.29167
1844.719	618.29167
1847.567	605.625
1850.414	606.95833
1853.258	613.625
1856.1	622.29167
1858.94	626.29167
1861.778	622.625
1864.614	613.95833
1867.448	601.95833
1870.28	596.625
1873.111	631.625
1875.939	610.29167
1878.765	617.625
1881.589	616.625
1884.411	610.95833
1887.231	604.625
1890.049	609.95833
1892.865	605.29167
1895.68	592.29167
1898.492	604.29167
1901.302	606.29167
1904.11	602.625
1906.916	587.625
1909.721	583.625
1912.523	601.29167
1915.323	573.625
1918.122	576.95833
1920.918	597.29167
1923.712	584.95833
1926.505	581.29167
1929.295	578.625
1932.084	593.95833
1934.87	590.95833
1937.655	583.95833
1940.438	584.29167
1943.218	587.29167
1945.997	593.625
1948.774	595.625
1951.549	594.625
1954.322	585.625
1957.093	589.625
1959.862	573.29167
1962.629	575.95833
1965.394	573.29167
1968.157	570.95833
1970.918	574.29167
1973.678	558.29167
1976.435	570.29167
1979.19	560.29167
1981.944	545.95833
1984.696	562.95833
1987.445	543.29167
1990.193	565.29167
1992.939	577.29167
1995.683	555.95833
1998.425	555.29167
2001.165	574.625
2003.903	550.29167
2006.639	557.625
2009.374	573.625
2012.106	562.95833
2014.837	546.625
2017.566	569.29167
2020.292	560.95833
2023.017	569.29167
2025.74	563.29167
2028.461	550.95833
2031.18	551.95833
2033.898	546.29167
2036.613	557.625
2039.327	559.29167
2042.038	540.625
2044.748	544.95833
2047.456	547.625
2050.162	535.95833
2052.866	555.95833
2055.568	557.625
2058.268	547.625
2060.967	546.29167
2063.663	540.29167
2066.358	545.625
2069.051	537.625
2071.742	543.95833
2074.431	562.29167
2077.118	546.625
2079.804	536.625
2082.487	556.29167
2085.169	557.29167
2087.849	567.625
2090.527	539.29167
2093.203	546.95833
2095.877	568.29167
2098.55	569.29167
2101.22	565.625
2103.889	574.95833
2106.556	577.29167
2109.221	599.95833
2111.884	592.29167
2114.546	627.625
2117.205	664.29167
2119.863	710.95833
2122.519	727.625
2125.173	759.95833
2127.825	798.29167
2130.475	790.95833
2133.124	764.625
2135.771	724.29167
2138.416	712.95833
2141.059	676.95833
2143.7	656.29167
2146.339	628.95833
2148.977	588.95833
2151.613	600.625
2154.247	583.29167
2156.879	579.625
2159.51	575.625
2162.138	557.29167
2164.765	559.625
2167.39	549.29167
2170.013	571.29167
2172.634	559.29167
2175.254	550.625
2177.872	583.95833
2180.488	544.29167
2183.102	565.625
2185.714	562.625
2188.325	525.29167
2190.934	549.29167
2193.541	558.29167
2196.146	551.29167
2198.75	529.625
2201.351	538.95833
2203.951	536.95833
2206.549	553.625
2209.146	527.625
2211.74	539.625
2214.333	541.625
2216.924	524.95833
2219.514	523.625
2222.101	528.29167
2224.687	541.95833
2227.271	530.29167
2229.853	532.625
2232.433	513.95833
2235.012	545.95833
2237.589	533.625
2240.164	545.95833
2242.738	539.95833
2245.309	530.29167
2247.879	539.29167
2250.448	537.625
2253.014	520.625
2255.579	506.95833
2258.142	523.95833
2260.703	510.29167
2263.262	522.29167
2265.82	514.625
2268.376	526.95833
2270.93	509.95833
2273.483	519.29167
2276.033	526.625
2278.583	524.95833
2281.13	531.625
2283.675	500.625
2286.219	516.625
2288.761	523.29167
2291.302	528.625
2293.841	537.29167
2296.377	517.29167
2298.913	515.625
2301.446	533.29167
2303.978	522.95833
2306.508	519.625
2309.037	523.95833
2311.563	520.95833
2314.088	533.95833
2316.612	513.95833
2319.133	528.95833
2321.653	527.625
2324.171	515.625
2326.688	538.95833
2329.202	526.95833
2331.715	523.29167
2334.227	528.29167
2336.736	533.29167
2339.244	515.29167
2341.751	511.29167
2344.255	528.625
2346.758	530.95833
2349.259	515.95833
2351.759	535.29167
2354.257	528.29167
2356.753	526.95833
2359.247	538.625
2361.74	542.95833
2364.231	540.29167
2366.721	538.95833
2369.209	532.625
2371.695	542.29167
2374.179	532.29167
2376.662	526.29167
2379.143	556.625
2381.622	530.95833
2384.1	548.625
2386.576	542.625
2389.051	560.95833
2391.524	571.29167
2393.995	563.29167
2396.464	549.29167
2398.932	557.29167
2401.398	547.95833
2403.863	546.625
2406.325	546.625
2408.787	549.625
2411.246	555.625
2413.704	555.29167
2416.16	554.625
2418.615	557.29167
2421.068	572.625
2423.519	574.95833
2425.969	558.625
2428.417	561.95833
2430.863	581.95833
2433.308	570.625
2435.751	579.95833
2438.193	569.95833
2440.633	576.625
2443.071	578.625
2445.508	575.29167
2447.943	571.95833
2450.376	556.95833
2452.808	572.29167
2455.238	563.29167
2457.667	610.29167
2460.093	583.29167
2462.519	573.95833
2464.942	577.625
2467.365	587.29167
2469.785	590.625
2472.204	585.95833
2474.621	579.29167
2477.037	605.95833
2479.451	578.95833
2481.863	586.95833
2484.274	581.625
2486.683	603.95833
2489.091	609.95833
2491.497	599.625
2493.901	609.29167
2496.304	615.29167
2498.705	620.29167
2501.105	606.29167
2503.503	633.95833
2505.899	594.625
2508.294	627.29167
2510.687	609.95833
2513.079	615.625
2515.469	608.29167
2517.858	610.29167
2520.245	630.625
2522.63	604.95833
2525.014	604.625
2527.396	603.29167
2529.776	603.625
2532.156	626.29167
2534.533	620.625
2536.909	616.29167
2539.283	620.625
2541.656	621.29167
2544.027	642.625
2546.397	632.625
2548.765	626.625
2551.131	629.625
2553.496	625.29167
2555.86	645.625
2558.221	637.625
2560.582	638.95833
2562.94	625.29167
2565.298	650.29167
2567.653	661.625
2570.007	634.29167
2572.36	664.29167
2574.711	637.95833
2577.06	671.625
2579.408	660.29167
2581.754	655.95833
2584.099	653.625
2586.442	658.29167
2588.784	660.625
2591.124	679.95833
2593.463	667.625
2595.8	675.29167
2598.135	662.95833
2600.469	664.95833
2602.802	688.625
2605.133	695.95833
2607.462	667.29167
2609.79	670.625
2612.116	687.625
2614.441	686.625
2616.764	688.625
2619.086	697.29167
2621.406	685.625
2623.725	707.29167
2626.042	708.625
2628.358	691.95833
2630.672	701.29167
2632.985	719.625
2635.296	720.625
2637.606	713.95833
2639.914	691.625
2642.22	713.95833
2644.525	719.29167
2646.829	723.625
2649.131	736.29167
2651.432	733.29167
2653.731	730.29167
2656.028	750.95833
2658.324	759.625
2660.619	740.29167
2662.912	744.29167
2665.204	741.625
2667.494	753.29167
2669.782	736.95833
2672.07	759.95833
2674.355	768.29167
2676.639	757.29167
2678.922	752.625
2681.203	752.625
2683.483	750.625
2685.761	749.29167
2688.038	778.29167
2690.313	784.29167
2692.587	773.95833
2694.859	770.29167
2697.13	774.95833
2699.399	788.29167
2701.667	795.625
2703.933	785.29167
2706.198	801.625
2708.461	798.29167
2710.723	796.625
2712.984	801.29167
2715.243	807.29167
2717.5	801.29167
2719.757	817.29167
2722.011	814.29167
2724.264	822.29167
2726.516	834.29167
2728.766	822.29167
2731.015	844.29167
2733.262	840.29167
2735.508	837.29167
2737.753	843.95833
2739.996	834.29167
2742.237	830.625
2744.477	850.625
2746.716	849.95833
2748.953	838.625
2751.189	838.95833
2753.423	833.29167
2755.656	827.95833
2757.887	833.625
2760.117	844.625
2762.346	829.95833
2764.573	820.625
2766.798	834.95833
2769.022	842.625
2771.245	850.95833
2773.467	843.29167
2775.686	860.29167
2777.905	858.29167
2780.122	872.29167
2782.337	868.625
2784.552	855.95833
2786.764	867.95833
2788.976	871.29167
2791.186	884.29167
2793.394	887.625
2795.601	896.29167
2797.807	898.625
2800.011	918.625
2802.214	926.29167
2804.415	916.95833
2806.615	917.95833
2808.814	917.95833
2811.011	934.95833
2813.206	925.95833
2815.401	938.95833
2817.594	941.95833
2819.785	953.625
2821.975	931.29167
2824.164	938.95833
2826.351	948.625
2828.537	981.95833
2830.722	973.625
2832.905	968.625
2835.086	1007.95833
2837.267	1024.95833
2839.445	1033.29167
2841.623	1052.29167
2843.799	1058.95833
2845.974	1078.29167
2848.147	1119.29167
2850.319	1117.29167
2852.489	1136.95833
2854.659	1169.625
2856.826	1175.95833
2858.993	1191.29167
2861.158	1170.95833
2863.321	1186.95833
2865.483	1191.625
2867.644	1193.95833
2869.804	1179.625
2871.962	1189.29167
2874.118	1181.95833
2876.274	1175.95833
2878.428	1188.29167
2880.58	1171.29167
2882.731	1168.625
2884.881	1162.29167
2887.03	1165.29167
2889.177	1173.625
2891.322	1177.95833
2893.467	1173.625
2895.61	1169.95833
2897.751	1213.29167
2899.892	1201.625
2902.03	1200.29167
2904.168	1215.29167
2906.304	1209.29167
2908.439	1245.29167
2910.572	1209.625
2912.704	1234.625
2914.835	1246.95833
2916.965	1242.29167
2919.093	1268.95833
2921.219	1247.95833
2923.345	1249.29167
2925.469	1222.29167
2927.591	1219.29167
2929.712	1202.625
2931.832	1204.95833
2933.951	1182.625
2936.068	1164.95833
2938.184	1181.625
2940.299	1147.29167
2942.412	1143.95833
2944.524	1110.625
2946.634	1133.29167
2948.744	1099.625
2950.851	1111.95833
2952.958	1079.29167
2955.063	1101.95833
2957.167	1087.29167
2959.269	1078.29167
2961.371	1102.625
2963.471	1067.29167
2965.569	1074.625
2967.666	1058.95833
2969.762	1056.625
2971.857	1045.95833
2973.95	1020.29167
2976.042	1041.29167
2978.133	1008.29167
2980.222	1001.625
2982.31	980.95833
2984.396	968.29167
2986.482	983.29167
2988.566	962.29167
2990.648	970.29167
2992.73	960.29167
2994.81	963.95833
2996.889	971.95833
2998.966	969.95833
3001.042	980.625
3003.117	974.29167
3005.191	966.29167
3007.263	965.95833
3009.334	949.29167
3011.403	967.625
3013.472	930.625
3015.539	928.95833
3017.604	930.29167
3019.669	901.625
3021.732	911.29167
3023.794	906.95833
3025.854	895.95833
3027.914	902.95833
3029.971	916.29167
3032.028	913.29167
3034.083	922.95833
3036.137	886.625
3038.19	873.95833
3040.242	853.29167
3042.292	828.95833
3044.341	828.29167
3046.388	829.625
3048.435	806.95833
3050.48	826.95833
3052.524	826.29167
3054.566	795.625
3056.607	805.625
3058.647	794.29167
3060.686	758.95833
3062.723	749.29167
3064.759	721.95833
3066.794	-1.04167
3068.828	2.95833
3070.86	2.29167
