-0.839	513
3.438	604.33333
7.711	183.33333
11.981	63.33333
16.247	44.33333
20.509	44.66667
24.768	43
29.024	51.33333
33.276	41.33333
37.524	48.66667
41.769	44
46.01	30.66667
50.247	47
54.481	55.66667
58.712	62.33333
62.939	44.33333
67.162	61.33333
71.382	53
75.599	43.66667
79.812	57.66667
84.021	75
88.227	54.66667
92.429	55.66667
96.628	46
100.823	64.33333
105.015	70.33333
109.204	66
113.388	70.33333
117.57	65.66667
121.748	79.66667
125.922	71.66667
130.093	93
134.261	84
138.425	82.66667
142.585	126.33333
146.742	104.66667
150.896	132.66667
155.046	164.66667
159.193	248.66667
163.336	419
167.476	776.66667
171.613	1402.66667
175.746	2343.33333
179.875	3455
184.002	4482.66667
188.124	5177.66667
192.244	5381.33333
196.36	5255.33333
200.472	5025
204.581	4826.66667
208.687	4638.66667
212.79	4500
216.889	4408.33333
220.984	4398.66667
225.077	4299
229.165	4283.33333
233.251	4192.66667
237.333	4122.33333
241.412	4044.33333
245.487	3979
249.559	3898.33333
253.628	3859
257.694	3858.33333
261.756	3798.33333
265.814	3715.66667
269.87	3604
273.922	3507.33333
277.97	3465
282.016	3460.66667
286.058	3479
290.097	3579.33333
294.132	3621.66667
298.164	3592.33333
302.193	3390.33333
306.219	3143.66667
310.241	2925
314.26	2694
318.276	2476.33333
322.288	2359.33333
326.297	2244.66667
330.303	2174
334.305	2111.66667
338.305	2077
342.301	2056.33333
346.294	2032
350.283	2012
354.269	1972
358.252	1966.33333
362.232	1950.66667
366.209	1921
370.182	1903
374.152	1892.66667
378.119	1895.33333
382.083	1898.66667
386.043	1916.33333
390	1855
393.954	1874
397.905	1843.66667
401.852	1861
405.797	1825.66667
409.738	1820.66667
413.676	1826.66667
417.61	1825.33333
421.542	1805.66667
425.47	1773
429.396	1778.66667
433.318	1769.66667
437.236	1757.33333
441.152	1780.66667
445.065	1721
448.974	1709.66667
452.88	1701
456.783	1679.66667
460.683	1668
464.58	1679.33333
468.473	1686.33333
472.364	1700.66667
476.251	1672.33333
480.135	1699
484.016	1735
487.894	1735.66667
491.769	1744.33333
495.641	1747.33333
499.509	1734.33333
503.375	1743.33333
507.237	1746
511.096	1777.33333
514.952	1881.33333
518.805	2038.66667
522.655	2098.33333
526.502	1908
530.346	1768.33333
534.187	1768.33333
538.024	1757.66667
541.859	1770
545.69	1792
549.519	1762.66667
553.344	1742
557.166	1730
560.985	1712.66667
564.802	1671
568.615	1630.33333
572.425	1618.33333
576.232	1632.66667
580.036	1602.66667
583.836	1599
587.634	1624
591.429	1626.33333
595.221	1674.33333
599.01	1663.66667
602.796	1682.66667
606.578	1702.66667
610.358	1707.33333
614.135	1674.33333
617.909	1679
621.679	1647.33333
625.447	1626
629.212	1647.66667
632.973	1651.33333
636.732	1651.66667
640.488	1636.66667
644.241	1633.66667
647.991	1622.66667
651.737	1637.33333
655.481	1603
659.222	1604.33333
662.96	1592
666.695	1648
670.427	1639.66667
674.156	1661
677.882	1646
681.605	1639.33333
685.325	1612.66667
689.043	1616
692.757	1598.33333
696.468	1613.33333
700.177	1602.33333
703.882	1578
707.585	1593.33333
711.284	1583.33333
714.981	1575.66667
718.675	1593.33333
722.366	1594.66667
726.054	1578.66667
729.739	1601
733.421	1602
737.1	1590
740.777	1600
744.45	1607
748.121	1619
751.789	1666
755.453	1635.33333
759.115	1656.66667
762.774	1666
766.431	1673.66667
770.084	1687.33333
773.734	1707
777.382	1735.66667
781.027	1746
784.669	1767.33333
788.308	1770.66667
791.944	1781
795.577	1797
799.208	1817.33333
802.835	1824
806.46	1832
810.082	1817.66667
813.701	1815
817.317	1844.66667
820.931	1823.66667
824.542	1839
828.149	1817.66667
831.754	1798.33333
835.357	1785
838.956	1827.33333
842.553	1817.66667
846.146	1803
849.737	1787.33333
853.326	1771
856.911	1786
860.493	1828
864.073	1838.66667
867.65	1857.33333
871.225	1873.66667
874.796	1872.66667
878.365	1871.33333
881.931	1885
885.494	1904
889.054	1934
892.612	1939.66667
896.166	1921.66667
899.719	1908.33333
903.268	1860.33333
906.814	1862
910.358	1831
913.899	1788.33333
917.438	1802.33333
920.973	1786
924.506	1822.33333
928.036	1839.66667
931.564	1874.66667
935.088	1920
938.61	1896
942.129	1942.33333
945.646	1978.33333
949.16	2023.66667
952.671	2046.66667
956.179	2046.33333
959.685	1994.33333
963.188	1998.66667
966.688	1970.66667
970.185	1921.33333
973.68	1881
977.173	1839
980.662	1817.33333
984.149	1816.33333
987.633	1791.66667
991.114	1839.33333
994.593	1860.33333
998.069	1922.66667
1001.542	1993.66667
1005.013	1941
1008.481	1837.66667
1011.947	1815
1015.409	1804.33333
1018.869	1798.66667
1022.327	1795.33333
1025.782	1787.66667
1029.234	1767
1032.683	1759.33333
1036.13	1710
1039.574	1627.33333
1043.016	1601
1046.455	1586.66667
1049.891	1574.66667
1053.325	1561.33333
1056.756	1577.66667
1060.184	1575.33333
1063.61	1575.33333
1067.033	1602
1070.454	1580.66667
1073.872	1610
1077.287	1619.33333
1080.7	1617.33333
1084.11	1604.66667
1087.517	1589.66667
1090.922	1575.66667
1094.325	1567.66667
1097.724	1540
1101.122	1562.33333
1104.516	1552
1107.908	1547.33333
1111.298	1591.33333
1114.684	1620.33333
1118.069	1626
1121.45	1653.66667
1124.83	1634.66667
1128.206	1641.33333
1131.58	1681
1134.951	1719.33333
1138.32	1758
1141.687	1834.33333
1145.05	1886.33333
1148.412	1885.66667
1151.77	1847.33333
1155.126	1850
1158.48	1849.66667
1161.831	1864
1165.18	1874.33333
1168.525	1901
1171.869	1922.66667
1175.21	1926.66667
1178.548	1946
1181.884	1958
1185.217	1982.66667
1188.548	2013.33333
1191.877	2067
1195.202	2157
1198.526	2208.33333
1201.846	2216.66667
1205.165	2212.66667
1208.48	2204
1211.794	2190
1215.104	2200.66667
1218.413	2185.33333
1221.719	2215.66667
1225.022	2188
1228.323	2138.33333
1231.621	2106
1234.917	2082.66667
1238.21	2107.33333
1241.501	2077
1244.79	2076.66667
1248.076	2068.66667
1251.359	2092.66667
1254.64	2152.66667
1257.919	2158.33333
1261.195	2167.66667
1264.468	2224.33333
1267.74	2247
1271.008	2249.66667
1274.275	2254.33333
1277.538	2230.66667
1280.8	2231.66667
1284.059	2220.33333
1287.315	2243
1290.569	2289.33333
1293.821	2306.33333
1297.07	2318.66667
1300.317	2320.33333
1303.562	2338
1306.803	2306.33333
1310.043	2303
1313.28	2278.66667
1316.515	2260.33333
1319.747	2252.66667
1322.977	2229
1326.204	2190.66667
1329.429	2161
1332.652	2151
1335.872	2152
1339.09	2092.33333
1342.306	2062.66667
1345.519	2055.66667
1348.729	2020.33333
1351.938	2024
1355.144	1999.66667
1358.347	1969
1361.548	1976.33333
1364.747	1976.66667
1367.944	1927.66667
1371.138	1958.33333
1374.329	1969
1377.518	1968.33333
1380.705	1988.33333
1383.89	1977.33333
1387.072	1917.33333
1390.252	1828.33333
1393.429	1771.66667
1396.605	1725
1399.777	1681.66667
1402.948	1662
1406.116	1669.66667
1409.282	1676.33333
1412.445	1669.33333
1415.606	1696
1418.765	1717.66667
1421.921	1742
1425.075	1790
1428.227	1849
1431.376	1917.33333
1434.524	1980.33333
1437.668	2043.33333
1440.811	2053
1443.951	2086
1447.089	2082
1450.224	2072.33333
1453.357	2038.66667
1456.488	2026
1459.617	1996.66667
1462.743	1960
1465.867	1907.66667
1468.989	1880.33333
1472.108	1851.33333
1475.225	1805.33333
1478.34	1765.33333
1481.453	1784.66667
1484.563	1788
1487.671	1826
1490.776	1823.66667
1493.88	1870.33333
1496.981	1894.66667
1500.08	1914
1503.176	1933
1506.271	1944
1509.363	1980
1512.452	1984.33333
1515.54	2017.33333
1518.625	2035
1521.708	2085.33333
1524.789	2131.33333
1527.867	2214.33333
1530.944	2323.66667
1534.018	2412
1537.089	2537.66667
1540.159	2549
1543.226	2553.66667
1546.291	2516
1549.354	2470.33333
1552.415	2424.66667
1555.473	2380
1558.529	2308.33333
1561.583	2307.66667
1564.634	2302
1567.684	2308
1570.731	2314.33333
1573.776	2355.33333
1576.819	2371.33333
1579.859	2378.33333
1582.898	2385.33333
1585.934	2444
1588.968	2443.33333
1591.999	2469.66667
1595.029	2452.33333
1598.056	2486.33333
1601.081	2523.33333
1604.104	2503.66667
1607.125	2511.66667
1610.144	2420
1613.16	2357
1616.174	2313.33333
1619.186	2251
1622.196	2165.33333
1625.203	2127.66667
1628.209	2064.66667
1631.212	2021
1634.213	2023
1637.212	1994.66667
1640.209	1957
1643.203	1920
1646.196	1883.33333
1649.186	1812.66667
1652.174	1781.33333
1655.16	1719.33333
1658.144	1665.66667
1661.125	1595
1664.105	1535
1667.082	1472.33333
1670.057	1406
1673.03	1315
1676.001	1236.33333
1678.97	1166.66667
1681.937	1112.33333
1684.901	1028.66667
1687.863	999
1690.824	946
1693.782	950.33333
1696.738	901
1699.692	886
1702.643	843.33333
1705.593	838.33333
1708.54	839
1711.486	839.66667
1714.429	805.33333
1717.37	816.66667
1720.309	783
1723.246	790
1726.181	786.66667
1729.113	785.33333
1732.044	784.33333
1734.972	768.33333
1737.899	777.66667
1740.823	766.66667
1743.745	734.66667
1746.665	739
1749.583	713.66667
1752.499	714
1755.413	717.33333
1758.325	683
1761.235	689
1764.142	668.66667
1767.048	654.66667
1769.951	661.33333
1772.852	656.66667
1775.752	665
1778.649	664.66667
1781.544	675.66667
1784.437	643.66667
1787.328	665.33333
1790.217	644.66667
1793.104	624
1795.989	631.33333
1798.872	608
1801.753	634.66667
1804.631	626.66667
1807.508	639.66667
1810.383	628
1813.255	616.66667
1816.126	618.33333
1818.994	617.33333
1821.861	612
1824.725	612.66667
1827.587	622.33333
1830.448	616
1833.306	589
1836.162	604.66667
1839.017	594.66667
1841.869	605.66667
1844.719	604
1847.567	580.33333
1850.414	584
1853.258	576
1856.1	599.33333
1858.94	608.66667
1861.778	607.66667
1864.614	593.33333
1867.448	589
1870.28	573
1873.111	597.66667
1875.939	579.66667
1878.765	603
1881.589	575.66667
1884.411	586.33333
1887.231	591
1890.049	585.66667
1892.865	584
1895.68	577.66667
1898.492	575.33333
1901.302	574
1904.11	580.66667
1906.916	570
1909.721	560.66667
1912.523	564.66667
1915.323	568
1918.122	554
1920.918	575.33333
1923.712	564
1926.505	557.33333
1929.295	553.33333
1932.084	571.66667
1934.87	564.33333
1937.655	554.66667
1940.438	553
1943.218	559.33333
1945.997	568.33333
1948.774	579.66667
1951.549	580
1954.322	561
1957.093	563.66667
1959.862	549.66667
1962.629	551.33333
1965.394	548
1968.157	536
1970.918	559
1973.678	544.33333
1976.435	555
1979.19	545.66667
1981.944	541.33333
1984.696	547.66667
1987.445	531.33333
1990.193	549.33333
1992.939	555.66667
1995.683	540
1998.425	520.66667
2001.165	565
2003.903	551.66667
2006.639	545.33333
2009.374	554.33333
2012.106	545.33333
2014.837	534
2017.566	543.33333
2020.292	560
2023.017	550.33333
2025.74	535.66667
2028.461	546.66667
2031.18	541.33333
2033.898	520.66667
2036.613	534
2039.327	543.33333
2042.038	512
2044.748	541
2047.456	541
2050.162	526
2052.866	531
2055.568	534.66667
2058.268	525.33333
2060.967	538
2063.663	523.66667
2066.358	535.66667
2069.051	526.33333
2071.742	536.33333
2074.431	539.33333
2077.118	533
2079.804	529.66667
2082.487	533.33333
2085.169	546
2087.849	556
2090.527	530
2093.203	533.66667
2095.877	540
2098.55	548
2101.22	559.66667
2103.889	560
2106.556	560.33333
2109.221	573.33333
2111.884	581
2114.546	631
2117.205	645
2119.863	689.66667
2122.519	721.33333
2125.173	752.66667
2127.825	788
2130.475	776.66667
2133.124	743
2135.771	703.33333
2138.416	689.33333
2141.059	655.33333
2143.7	645
2146.339	610.33333
2148.977	594.33333
2151.613	573.66667
2154.247	578.33333
2156.879	568.33333
2159.51	554.66667
2162.138	545.66667
2164.765	547
2167.39	535
2170.013	557.33333
2172.634	548.33333
2175.254	537.66667
2177.872	575
2180.488	526
2183.102	540.66667
2185.714	529.66667
2188.325	521
2190.934	538
2193.541	542.33333
2196.146	541
2198.75	525
2201.351	519.33333
2203.951	517.66667
2206.549	533.33333
2209.146	522.66667
2211.74	524.66667
2214.333	528.66667
2216.924	504.66667
2219.514	530.33333
2222.101	525.33333
2224.687	534.33333
2227.271	527.33333
2229.853	511.66667
2232.433	506.66667
2235.012	526.66667
2237.589	532.33333
2240.164	535.33333
2242.738	521
2245.309	506
2247.879	524
2250.448	528.66667
2253.014	508
2255.579	490
2258.142	513
2260.703	507.66667
2263.262	516.33333
2265.82	505
2268.376	514
2270.93	500.33333
2273.483	506.33333
2276.033	517
2278.583	507.66667
2281.13	513
2283.675	500
2286.219	507
2288.761	499.33333
2291.302	521.66667
2293.841	524.33333
2296.377	509.66667
2298.913	510.66667
2301.446	526.33333
2303.978	522.66667
2306.508	511.33333
2309.037	520
2311.563	524.33333
2314.088	525.33333
2316.612	502
2319.133	517.66667
2321.653	513.66667
2324.171	506.66667
2326.688	530
2329.202	520.66667
2331.715	522
2334.227	520.66667
2336.736	515.66667
2339.244	512.66667
2341.751	523
2344.255	525.66667
2346.758	522.66667
2349.259	502.33333
2351.759	524.33333
2354.257	515.33333
2356.753	512.33333
2359.247	521
2361.74	534.33333
2364.231	534.66667
2366.721	532.66667
2369.209	529.66667
2371.695	531
2374.179	522.33333
2376.662	512.66667
2379.143	544
2381.622	525.33333
2384.1	532
2386.576	543.66667
2389.051	553.66667
2391.524	551.33333
2393.995	555.33333
2396.464	534
2398.932	543.33333
2401.398	543.66667
2403.863	543
2406.325	539.66667
2408.787	546
2411.246	549.33333
2413.704	549
2416.16	549.66667
2418.615	540.66667
2421.068	563.33333
2423.519	556.66667
2425.969	556.66667
2428.417	557
2430.863	584
2433.308	574.33333
2435.751	565
2438.193	564.33333
2440.633	561.66667
2443.071	567
2445.508	550.66667
2447.943	562.33333
2450.376	563.66667
2452.808	572.33333
2455.238	568.33333
2457.667	609.33333
2460.093	571.66667
2462.519	570.66667
2464.942	576
2467.365	580.33333
2469.785	596.33333
2472.204	591.66667
2474.621	572
2477.037	600.66667
2479.451	576
2481.863	569.66667
2484.274	585.66667
2486.683	581.33333
2489.091	596
2491.497	599
2493.901	608
2496.304	599
2498.705	604.66667
2501.105	596
2503.503	635.33333
2505.899	595
2508.294	620.33333
2510.687	606.33333
2513.079	617.33333
2515.469	600.33333
2517.858	617.33333
2520.245	630.33333
2522.63	616.33333
2525.014	612.33333
2527.396	611
2529.776	610.66667
2532.156	630
2534.533	605.33333
2536.909	616.66667
2539.283	605.33333
2541.656	616.66667
2544.027	644
2546.397	622.33333
2548.765	632.66667
2551.131	646.66667
2553.496	625
2555.86	645
2558.221	639.66667
2560.582	638.66667
2562.94	633
2565.298	642
2567.653	655.33333
2570.007	629.66667
2572.36	658.66667
2574.711	645
2577.06	665.66667
2579.408	657.66667
2581.754	658.66667
2584.099	658.66667
2586.442	662
2588.784	671
2591.124	669
2593.463	669.66667
2595.8	680
2598.135	661
2600.469	674.33333
2602.802	688.66667
2605.133	682
2607.462	671.66667
2609.79	662
2612.116	693.33333
2614.441	696.66667
2616.764	692.66667
2619.086	692.33333
2621.406	686.66667
2623.725	703.66667
2626.042	702.33333
2628.358	698.66667
2630.672	706.66667
2632.985	710
2635.296	717.66667
2637.606	712.33333
2639.914	696.33333
2642.22	714.66667
2644.525	713.66667
2646.829	718.33333
2649.131	737.33333
2651.432	737.33333
2653.731	741
2656.028	752
2658.324	744
2660.619	739
2662.912	754
2665.204	745.33333
2667.494	752.66667
2669.782	743
2672.07	764.66667
2674.355	765.66667
2676.639	768.66667
2678.922	747
2681.203	766.33333
2683.483	742.33333
2685.761	755
2688.038	771
2690.313	777.66667
2692.587	773.66667
2694.859	765.66667
2697.13	780
2699.399	791.66667
2701.667	795.33333
2703.933	801.33333
2706.198	786.66667
2708.461	802.66667
2710.723	805.33333
2712.984	808.33333
2715.243	807
2717.5	805.66667
2719.757	832.66667
2722.011	827.66667
2724.264	837
2726.516	851
2728.766	829.33333
2731.015	836.33333
2733.262	847.33333
2735.508	848.66667
2737.753	842.66667
2739.996	833.66667
2742.237	829.66667
2744.477	850.66667
2746.716	841.66667
2748.953	831.66667
2751.189	850
2753.423	848.33333
2755.656	831
2757.887	831.66667
2760.117	836
2762.346	840
2764.573	825.66667
2766.798	841.66667
2769.022	833.33333
2771.245	852.66667
2773.467	854
2775.686	862.33333
2777.905	843.66667
2780.122	856
2782.337	878
2784.552	866.66667
2786.764	880
2788.976	885.33333
2791.186	891.66667
2793.394	892
2795.601	891
2797.807	920
2800.011	908
2802.214	928.33333
2804.415	904.33333
2806.615	916.33333
2808.814	935.33333
2811.011	936
2813.206	924.66667
2815.401	940.33333
2817.594	941
2819.785	952
2821.975	942.66667
2824.164	948.66667
2826.351	954.33333
2828.537	982.33333
2830.722	983.66667
2832.905	987.33333
2835.086	1014.66667
2837.267	1032
2839.445	1033
2841.623	1040.66667
2843.799	1068.66667
2845.974	1082.33333
2848.147	1117
2850.319	1124
2852.489	1157.66667
2854.659	1158.66667
2856.826	1172.66667
2858.993	1202.66667
2861.158	1175
2863.321	1185.66667
2865.483	1182
2867.644	1195.66667
2869.804	1183.33333
2871.962	1179.66667
2874.118	1182.66667
2876.274	1178.33333
2878.428	1180
2880.58	1172
2882.731	1172
2884.881	1167.33333
2887.03	1187
2889.177	1162.66667
2891.322	1178
2893.467	1184.66667
2895.61	1179.66667
2897.751	1208
2899.892	1206
2902.03	1212.66667
2904.168	1215
2906.304	1214.33333
2908.439	1243.33333
2910.572	1213.33333
2912.704	1240.33333
2914.835	1244.66667
2916.965	1238
2919.093	1253.33333
2921.219	1243.33333
2923.345	1246.66667
2925.469	1232.33333
2927.591	1225
2929.712	1203.33333
2931.832	1212.33333
2933.951	1184
2936.068	1176.66667
2938.184	1179.33333
2940.299	1153.33333
2942.412	1150.33333
2944.524	1128.66667
2946.634	1127
2948.744	1077.66667
2950.851	1133
2952.958	1091.66667
2955.063	1094.33333
2957.167	1091.66667
2959.269	1074.33333
2961.371	1106.66667
2963.471	1064.66667
2965.569	1093
2967.666	1057
2969.762	1060.33333
2971.857	1051.66667
2973.95	1039
2976.042	1037.33333
2978.133	1007.33333
2980.222	1005.66667
2982.31	991
2984.396	957
2986.482	981.33333
2988.566	978.33333
2990.648	975
2992.73	957
2994.81	968.33333
2996.889	969.33333
2998.966	976.66667
3001.042	981.33333
3003.117	974.66667
3005.191	980.66667
3007.263	974.66667
3009.334	950.66667
3011.403	956
3013.472	943.66667
3015.539	937
3017.604	945
3019.669	907.66667
3021.732	918.33333
3023.794	919
3025.854	909.33333
3027.914	920.66667
3029.971	921.66667
3032.028	917.66667
3034.083	910.66667
3036.137	901.33333
3038.19	867
3040.242	854.33333
3042.292	838.66667
3044.341	831.66667
3046.388	838.33333
3048.435	802.33333
3050.48	840.33333
3052.524	820
3054.566	810
3056.607	803
3058.647	794
3060.686	773
3062.723	753.33333
3064.759	713.66667
3066.794	0.33333
3068.828	4.33333
3070.86	1.33333
