-0.839	486.08333
3.438	576.08333
7.711	168.08333
11.981	59.08333
16.247	42.08333
20.509	51.41667
24.768	45.08333
29.024	54.75
33.276	42.75
37.524	52.75
41.769	49.08333
46.01	29.08333
50.247	50.75
54.481	56.75
58.712	62.08333
62.939	50.08333
67.162	64.41667
71.382	62.41667
75.599	45.75
79.812	67.41667
84.021	81.08333
88.227	59.75
92.429	57.75
96.628	53.41667
100.823	69.08333
105.015	72.08333
109.204	70.08333
113.388	75.41667
117.57	71.08333
121.748	86.08333
125.922	79.08333
130.093	99.08333
134.261	98.08333
138.425	94.41667
142.585	136.75
146.742	129.08333
150.896	161.41667
155.046	188.41667
159.193	299.41667
163.336	500.75
167.476	910.08333
171.613	1689.41667
175.746	2814.08333
179.875	4213.41667
184.002	5520.08333
188.124	6439.41667
192.244	6747.08333
196.36	6709.75
200.472	6518.08333
204.581	6356.75
208.687	6184.08333
212.79	6139.75
216.889	6130.41667
220.984	6151.75
225.077	6144.41667
229.165	6150.08333
233.251	6203.41667
237.333	6116.08333
241.412	6064.75
245.487	6021.41667
249.559	5935.75
253.628	5885.08333
257.694	5858.41667
261.756	5812.41667
265.814	5673.41667
269.87	5496.41667
273.922	5363.75
277.97	5229.08333
282.016	5211.08333
286.058	5203.75
290.097	5345.41667
294.132	5435.08333
298.164	5360.08333
302.193	5143.08333
306.219	4757.75
310.241	4411.08333
314.26	4062.75
318.276	3817.08333
322.288	3640.75
326.297	3481.41667
330.303	3394.75
334.305	3307.08333
338.305	3304.08333
342.301	3229.08333
346.294	3195.75
350.283	3174.08333
354.269	3186.41667
358.252	3146.08333
362.232	3144.75
366.209	3125.08333
370.182	3088.41667
374.152	3096.75
378.119	3090.08333
382.083	3101.41667
386.043	3107.75
390	3087.41667
393.954	3097.75
397.905	3083.75
401.852	3068.41667
405.797	3050.75
409.738	3027.08333
413.676	3013.08333
417.61	3034.08333
421.542	3003.75
425.47	2969.41667
429.396	2973.41667
433.318	2945.08333
437.236	2926.41667
441.152	2955.08333
445.065	2885.08333
448.974	2918.75
452.88	2867.75
456.783	2883.41667
460.683	2882.41667
464.58	2862.08333
468.473	2880.08333
472.364	2880.41667
476.251	2892.75
480.135	2931.75
484.016	2938.08333
487.894	2960.75
491.769	2983.41667
495.641	2982.41667
499.509	2983.41667
503.375	3017.08333
507.237	2995.08333
511.096	2953.75
514.952	3011.75
518.805	3049.75
522.655	3070.08333
526.502	3008.41667
530.346	2957.41667
534.187	2967.08333
538.024	2951.08333
541.859	2962.41667
545.69	2989.41667
549.519	2975.41667
553.344	2945.75
557.166	2898.75
560.985	2886.75
564.802	2836.08333
568.615	2804.75
572.425	2756.41667
576.232	2737.41667
580.036	2743.08333
583.836	2761.75
587.634	2762.08333
591.429	2784.08333
595.221	2821.41667
599.01	2860.75
602.796	2893.41667
606.578	2901.08333
610.358	2902.08333
614.135	2865.41667
617.909	2836.41667
621.679	2841.08333
625.447	2817.75
629.212	2822.75
632.973	2812.08333
636.732	2792.75
640.488	2837.41667
644.241	2797.41667
647.991	2783.75
651.737	2803.75
655.481	2781.75
659.222	2765.75
662.96	2762.08333
666.695	2810.41667
670.427	2824.75
674.156	2827.41667
677.882	2810.75
681.605	2785.75
685.325	2766.41667
689.043	2749.41667
692.757	2749.08333
696.468	2740.75
700.177	2761.75
703.882	2728.41667
707.585	2727.08333
711.284	2727.41667
714.981	2725.75
718.675	2695.08333
722.366	2720.75
726.054	2684.08333
729.739	2686.75
733.421	2729.08333
737.1	2699.75
740.777	2719.75
744.45	2728.41667
748.121	2740.08333
751.789	2808.41667
755.453	2778.08333
759.115	2810.41667
762.774	2813.41667
766.431	2855.75
770.084	2847.75
773.734	2856.41667
777.382	2898.75
781.027	2912.08333
784.669	2954.75
788.308	2922.75
791.944	2963.08333
795.577	2975.08333
799.208	3000.41667
802.835	3018.41667
806.46	3023.75
810.082	3047.41667
813.701	3050.41667
817.317	3089.75
820.931	3103.41667
824.542	3068.75
828.149	3025.08333
831.754	2959.08333
835.357	2976.41667
838.956	3004.75
842.553	2974.75
846.146	2949.08333
849.737	2936.08333
853.326	2947.75
856.911	2930.08333
860.493	2965.41667
864.073	2977.75
867.65	3003.08333
871.225	3050.41667
874.796	3052.75
878.365	3032.08333
881.931	3048.08333
885.494	3088.75
889.054	3101.08333
892.612	3103.75
896.166	3074.75
899.719	3068.08333
903.268	3029.75
906.814	3015.08333
910.358	2976.41667
913.899	2940.41667
917.438	2953.75
920.973	2941.41667
924.506	2974.08333
928.036	3008.75
931.564	3064.75
935.088	3092.41667
938.61	3092.41667
942.129	3121.75
945.646	3191.75
949.16	3237.08333
952.671	3283.08333
956.179	3298.75
959.685	3254.08333
963.188	3255.08333
966.688	3236.08333
970.185	3148.08333
973.68	3085.41667
977.173	3048.75
980.662	2999.75
984.149	2995.08333
987.633	2998.08333
991.114	3034.08333
994.593	3073.41667
998.069	3156.75
1001.542	3245.08333
1005.013	3191.75
1008.481	3013.41667
1011.947	2964.75
1015.409	2929.41667
1018.869	2929.08333
1022.327	2952.08333
1025.782	2923.08333
1029.234	2900.75
1032.683	2879.75
1036.13	2794.41667
1039.574	2705.75
1043.016	2641.08333
1046.455	2602.41667
1049.891	2567.75
1053.325	2579.75
1056.756	2568.75
1060.184	2591.41667
1063.61	2588.41667
1067.033	2627.75
1070.454	2616.41667
1073.872	2648.08333
1077.287	2628.75
1080.7	2653.08333
1084.11	2638.08333
1087.517	2613.41667
1090.922	2572.08333
1094.325	2545.75
1097.724	2508.75
1101.122	2506.41667
1104.516	2507.08333
1107.908	2513.08333
1111.298	2548.41667
1114.684	2574.41667
1118.069	2623.41667
1121.45	2637.75
1124.83	2591.75
1128.206	2644.75
1131.58	2677.08333
1134.951	2722.08333
1138.32	2829.08333
1141.687	2891.75
1145.05	2963.75
1148.412	2950.08333
1151.77	2928.08333
1155.126	2915.41667
1158.48	2890.41667
1161.831	2919.75
1165.18	2914.75
1168.525	2986.08333
1171.869	2998.08333
1175.21	3011.41667
1178.548	3056.41667
1181.884	3073.41667
1185.217	3111.08333
1188.548	3168.75
1191.877	3250.41667
1195.202	3356.41667
1198.526	3390.75
1201.846	3423.41667
1205.165	3420.75
1208.48	3412.75
1211.794	3403.41667
1215.104	3396.41667
1218.413	3381.41667
1221.719	3417.41667
1225.022	3360.08333
1228.323	3297.41667
1231.621	3279.75
1234.917	3253.75
1238.21	3271.41667
1241.501	3256.75
1244.79	3241.41667
1248.076	3236.08333
1251.359	3263.75
1254.64	3358.75
1257.919	3355.75
1261.195	3404.08333
1264.468	3463.75
1267.74	3492.41667
1271.008	3484.08333
1274.275	3497.08333
1277.538	3467.75
1280.8	3482.41667
1284.059	3449.41667
1287.315	3501.41667
1290.569	3513.08333
1293.821	3548.41667
1297.07	3511.41667
1300.317	3567.41667
1303.562	3539.75
1306.803	3507.08333
1310.043	3515.41667
1313.28	3461.75
1316.515	3447.41667
1319.747	3440.75
1322.977	3400.75
1326.204	3379.08333
1329.429	3336.75
1332.652	3338.41667
1335.872	3295.75
1339.09	3272.75
1342.306	3254.41667
1345.519	3213.75
1348.729	3203.75
1351.938	3198.41667
1355.144	3143.41667
1358.347	3079.41667
1361.548	3078.08333
1364.747	3073.75
1367.944	3041.08333
1371.138	3072.08333
1374.329	3064.08333
1377.518	3102.41667
1380.705	3112.75
1383.89	3087.08333
1387.072	2977.08333
1390.252	2886.41667
1393.429	2804.41667
1396.605	2700.08333
1399.777	2634.75
1402.948	2622.08333
1406.116	2574.75
1409.282	2600.75
1412.445	2568.41667
1415.606	2609.75
1418.765	2658.08333
1421.921	2717.75
1425.075	2763.41667
1428.227	2851.75
1431.376	2953.41667
1434.524	3062.41667
1437.668	3116.08333
1440.811	3170.08333
1443.951	3205.75
1447.089	3180.41667
1450.224	3180.41667
1453.357	3179.41667
1456.488	3118.75
1459.617	3064.08333
1462.743	3043.75
1465.867	2953.75
1468.989	2912.41667
1472.108	2877.75
1475.225	2817.75
1478.34	2756.75
1481.453	2776.41667
1484.563	2775.08333
1487.671	2808.08333
1490.776	2820.41667
1493.88	2870.41667
1496.981	2905.75
1500.08	2961.08333
1503.176	2984.75
1506.271	3021.41667
1509.363	3089.41667
1512.452	3104.75
1515.54	3137.41667
1518.625	3155.41667
1521.708	3275.75
1524.789	3360.08333
1527.867	3439.75
1530.944	3633.08333
1534.018	3805.08333
1537.089	3959.08333
1540.159	3989.75
1543.226	3973.08333
1546.291	3902.08333
1549.354	3824.08333
1552.415	3738.41667
1555.473	3648.08333
1558.529	3587.75
1561.583	3551.08333
1564.634	3548.41667
1567.684	3499.08333
1570.731	3550.75
1573.776	3551.08333
1576.819	3627.75
1579.859	3659.75
1582.898	3680.08333
1585.934	3722.08333
1588.968	3725.08333
1591.999	3725.08333
1595.029	3747.41667
1598.056	3737.75
1601.081	3777.75
1604.104	3764.41667
1607.125	3738.75
1610.144	3629.08333
1613.16	3567.41667
1616.174	3492.41667
1619.186	3425.41667
1622.196	3341.41667
1625.203	3246.08333
1628.209	3199.41667
1631.212	3189.41667
1634.213	3200.41667
1637.212	3212.08333
1640.209	3169.41667
1643.203	3114.08333
1646.196	3009.41667
1649.186	2884.08333
1652.174	2771.08333
1655.16	2698.08333
1658.144	2616.75
1661.125	2516.08333
1664.105	2392.41667
1667.082	2290.41667
1670.057	2175.41667
1673.03	2041.41667
1676.001	1916.75
1678.97	1797.75
1681.937	1700.41667
1684.901	1600.08333
1687.863	1548.41667
1690.824	1487.41667
1693.782	1457.75
1696.738	1398.08333
1699.692	1371.08333
1702.643	1356.75
1705.593	1318.75
1708.54	1299.41667
1711.486	1308.75
1714.429	1265.41667
1717.37	1262.75
1720.309	1255.41667
1723.246	1254.08333
1726.181	1220.08333
1729.113	1223.75
1732.044	1212.08333
1734.972	1195.41667
1737.899	1195.08333
1740.823	1203.41667
1743.745	1158.75
1746.665	1159.75
1749.583	1131.08333
1752.499	1112.41667
1755.413	1113.75
1758.325	1074.08333
1761.235	1083.75
1764.142	1081.75
1767.048	1044.08333
1769.951	1045.75
1772.852	1047.41667
1775.752	1037.08333
1778.649	1034.41667
1781.544	1041.75
1784.437	1009.41667
1787.328	1032.41667
1790.217	1004.41667
1793.104	984.75
1795.989	994.08333
1798.872	979.75
1801.753	996.41667
1804.631	995.41667
1807.508	996.75
1810.383	984.75
1813.255	981.75
1816.126	976.41667
1818.994	977.08333
1821.861	963.75
1824.725	962.75
1827.587	961.75
1830.448	954.08333
1833.306	940.75
1836.162	941.75
1839.017	932.75
1841.869	926.75
1844.719	929.08333
1847.567	913.08333
1850.414	897.75
1853.258	905.08333
1856.1	923.41667
1858.94	928.41667
1861.778	912.08333
1864.614	900.75
1867.448	895.75
1870.28	889.41667
1873.111	931.41667
1875.939	909.75
1878.765	921.41667
1881.589	894.41667
1884.411	904.75
1887.231	891.08333
1890.049	889.08333
1892.865	897.08333
1895.68	884.75
1898.492	886.75
1901.302	870.75
1904.11	876.41667
1906.916	859.08333
1909.721	849.08333
1912.523	861.75
1915.323	860.75
1918.122	842.41667
1920.918	845.41667
1923.712	836.08333
1926.505	837.08333
1929.295	838.08333
1932.084	842.75
1934.87	835.75
1937.655	837.75
1940.438	814.75
1943.218	840.75
1945.997	834.41667
1948.774	848.08333
1951.549	845.41667
1954.322	817.08333
1957.093	825.75
1959.862	814.75
1962.629	822.75
1965.394	811.41667
1968.157	801.41667
1970.918	817.75
1973.678	802.08333
1976.435	805.75
1979.19	800.75
1981.944	783.75
1984.696	776.75
1987.445	780.41667
1990.193	793.08333
1992.939	795.75
1995.683	777.75
1998.425	760.41667
2001.165	808.08333
2003.903	774.41667
2006.639	776.41667
2009.374	772.08333
2012.106	774.41667
2014.837	766.08333
2017.566	766.75
2020.292	769.75
2023.017	770.08333
2025.74	771.41667
2028.461	752.41667
2031.18	760.75
2033.898	749.08333
2036.613	754.08333
2039.327	758.08333
2042.038	741.41667
2044.748	734.41667
2047.456	747.08333
2050.162	733.41667
2052.866	740.08333
2055.568	741.08333
2058.268	735.41667
2060.967	742.41667
2063.663	724.75
2066.358	724.08333
2069.051	717.41667
2071.742	731.75
2074.431	735.08333
2077.118	728.41667
2079.804	704.75
2082.487	720.75
2085.169	739.41667
2087.849	734.41667
2090.527	708.75
2093.203	729.08333
2095.877	734.41667
2098.55	742.75
2101.22	747.41667
2103.889	752.08333
2106.556	748.08333
2109.221	770.75
2111.884	772.41667
2114.546	843.75
2117.205	884.41667
2119.863	961.08333
2122.519	996.41667
2125.173	1059.08333
2127.825	1107.75
2130.475	1108.75
2133.124	1070.75
2135.771	1032.41667
2138.416	998.41667
2141.059	943.08333
2143.7	901.08333
2146.339	843.41667
2148.977	816.75
2151.613	796.08333
2154.247	779.75
2156.879	758.08333
2159.51	731.75
2162.138	728.41667
2164.765	720.75
2167.39	702.08333
2170.013	707.08333
2172.634	717.08333
2175.254	682.08333
2177.872	711.41667
2180.488	668.41667
2183.102	688.41667
2185.714	678.41667
2188.325	652.08333
2190.934	662.75
2193.541	663.75
2196.146	665.08333
2198.75	633.41667
2201.351	641.41667
2203.951	623.75
2206.549	647.08333
2209.146	634.41667
2211.74	638.08333
2214.333	640.75
2216.924	609.75
2219.514	618.08333
2222.101	613.41667
2224.687	636.41667
2227.271	614.41667
2229.853	613.08333
2232.433	610.41667
2235.012	616.75
2237.589	616.41667
2240.164	635.08333
2242.738	612.41667
2245.309	598.75
2247.879	605.41667
2250.448	612.08333
2253.014	593.41667
2255.579	575.41667
2258.142	584.41667
2260.703	567.41667
2263.262	576.41667
2265.82	577.41667
2268.376	573.08333
2270.93	562.08333
2273.483	560.75
2276.033	568.75
2278.583	568.75
2281.13	565.75
2283.675	546.41667
2286.219	555.75
2288.761	561.08333
2291.302	561.08333
2293.841	565.08333
2296.377	541.41667
2298.913	543.75
2301.446	558.41667
2303.978	554.75
2306.508	542.41667
2309.037	541.75
2311.563	551.08333
2314.088	552.08333
2316.612	535.41667
2319.133	543.75
2321.653	538.75
2324.171	535.75
2326.688	553.41667
2329.202	526.75
2331.715	527.41667
2334.227	526.41667
2336.736	530.75
2339.244	529.08333
2341.751	521.41667
2344.255	535.75
2346.758	533.08333
2349.259	517.41667
2351.759	522.75
2354.257	514.41667
2356.753	523.08333
2359.247	523.41667
2361.74	522.08333
2364.231	515.41667
2366.721	520.08333
2369.209	518.41667
2371.695	519.41667
2374.179	517.08333
2376.662	503.75
2379.143	528.08333
2381.622	510.41667
2384.1	520.41667
2386.576	515.41667
2389.051	526.08333
2391.524	527.08333
2393.995	522.41667
2396.464	504.08333
2398.932	505.08333
2401.398	513.08333
2403.863	510.41667
2406.325	504.41667
2408.787	503.08333
2411.246	512.08333
2413.704	499.75
2416.16	501.75
2418.615	498.08333
2421.068	510.08333
2423.519	508.75
2425.969	502.41667
2428.417	498.41667
2430.863	521.41667
2433.308	516.08333
2435.751	504.75
2438.193	509.08333
2440.633	498.41667
2443.071	495.75
2445.508	491.75
2447.943	502.08333
2450.376	508.41667
2452.808	496.08333
2455.238	488.08333
2457.667	524.75
2460.093	494.08333
2462.519	482.41667
2464.942	489.41667
2467.365	491.41667
2469.785	509.08333
2472.204	495.75
2474.621	488.08333
2477.037	512.41667
2479.451	480.41667
2481.863	475.41667
2484.274	491.41667
2486.683	487.41667
2489.091	497.08333
2491.497	490.75
2493.901	493.08333
2496.304	489.08333
2498.705	498.41667
2501.105	476.41667
2503.503	518.08333
2505.899	473.08333
2508.294	500.75
2510.687	484.75
2513.079	486.41667
2515.469	482.08333
2517.858	495.75
2520.245	490.75
2522.63	480.41667
2525.014	478.41667
2527.396	476.08333
2529.776	475.08333
2532.156	494.41667
2534.533	477.75
2536.909	468.08333
2539.283	462.41667
2541.656	479.75
2544.027	495.41667
2546.397	487.41667
2548.765	473.08333
2551.131	484.08333
2553.496	486.41667
2555.86	494.75
2558.221	482.41667
2560.582	480.08333
2562.94	465.08333
2565.298	479.75
2567.653	495.08333
2570.007	471.41667
2572.36	490.41667
2574.711	478.75
2577.06	493.75
2579.408	493.08333
2581.754	476.41667
2584.099	489.08333
2586.442	485.08333
2588.784	484.75
2591.124	479.75
2593.463	478.08333
2595.8	493.08333
2598.135	469.08333
2600.469	477.08333
2602.802	487.41667
2605.133	490.08333
2607.462	481.41667
2609.79	465.08333
2612.116	485.08333
2614.441	486.41667
2616.764	491.41667
2619.086	486.41667
2621.406	476.08333
2623.725	497.41667
2626.042	490.41667
2628.358	482.41667
2630.672	481.75
2632.985	491.75
2635.296	491.75
2637.606	488.41667
2639.914	482.41667
2642.22	484.75
2644.525	496.75
2646.829	498.08333
2649.131	500.41667
2651.432	508.41667
2653.731	500.41667
2656.028	504.75
2658.324	518.08333
2660.619	491.75
2662.912	507.41667
2665.204	487.75
2667.494	509.08333
2669.782	493.08333
2672.07	515.75
2674.355	514.75
2676.639	506.75
2678.922	498.08333
2681.203	503.08333
2683.483	492.41667
2685.761	496.08333
2688.038	509.75
2690.313	526.75
2692.587	507.41667
2694.859	508.41667
2697.13	512.75
2699.399	519.75
2701.667	532.08333
2703.933	517.75
2706.198	527.08333
2708.461	527.75
2710.723	540.08333
2712.984	534.75
2715.243	536.75
2717.5	535.41667
2719.757	555.41667
2722.011	537.75
2724.264	550.75
2726.516	556.41667
2728.766	549.75
2731.015	553.75
2733.262	556.41667
2735.508	538.75
2737.753	539.75
2739.996	524.75
2742.237	536.75
2744.477	545.75
2746.716	549.75
2748.953	542.75
2751.189	548.08333
2753.423	539.41667
2755.656	518.41667
2757.887	520.75
2760.117	521.75
2762.346	515.41667
2764.573	516.41667
2766.798	521.75
2769.022	528.75
2771.245	530.75
2773.467	534.75
2775.686	549.41667
2777.905	537.08333
2780.122	546.08333
2782.337	550.75
2784.552	547.41667
2786.764	549.08333
2788.976	553.08333
2791.186	558.75
2793.394	554.75
2795.601	561.08333
2797.807	586.41667
2800.011	585.41667
2802.214	580.41667
2804.415	585.41667
2806.615	578.41667
2808.814	594.75
2811.011	598.08333
2813.206	598.08333
2815.401	615.75
2817.594	619.08333
2819.785	615.08333
2821.975	613.08333
2824.164	627.41667
2826.351	640.75
2828.537	643.41667
2830.722	659.41667
2832.905	658.41667
2835.086	694.75
2837.267	714.08333
2839.445	728.75
2841.623	733.75
2843.799	756.08333
2845.974	790.75
2848.147	808.75
2850.319	832.08333
2852.489	863.08333
2854.659	881.08333
2856.826	878.75
2858.993	909.75
2861.158	883.08333
2863.321	889.41667
2865.483	904.08333
2867.644	906.08333
2869.804	908.08333
2871.962	895.08333
2874.118	894.75
2876.274	887.75
2878.428	897.41667
2880.58	883.75
2882.731	889.41667
2884.881	887.41667
2887.03	894.41667
2889.177	898.41667
2891.322	911.08333
2893.467	887.41667
2895.61	900.08333
2897.751	918.75
2899.892	902.41667
2902.03	921.08333
2904.168	919.75
2906.304	937.41667
2908.439	956.75
2910.572	927.75
2912.704	949.41667
2914.835	949.08333
2916.965	939.75
2919.093	965.08333
2921.219	944.08333
2923.345	942.08333
2925.469	926.41667
2927.591	926.41667
2929.712	902.75
2931.832	914.75
2933.951	878.08333
2936.068	860.41667
2938.184	849.75
2940.299	829.08333
2942.412	826.41667
2944.524	781.41667
2946.634	781.41667
2948.744	741.41667
2950.851	775.08333
2952.958	733.41667
2955.063	728.08333
2957.167	721.08333
2959.269	699.08333
2961.371	710.41667
2963.471	682.41667
2965.569	686.75
2967.666	656.08333
2969.762	658.08333
2971.857	658.75
2973.95	633.41667
2976.042	633.08333
2978.133	619.41667
2980.222	607.75
2982.31	591.75
2984.396	570.41667
2986.482	580.08333
2988.566	567.08333
2990.648	568.41667
2992.73	565.41667
2994.81	553.08333
2996.889	556.75
2998.966	555.75
3001.042	567.41667
3003.117	546.75
3005.191	551.41667
3007.263	549.41667
3009.334	537.08333
3011.403	545.75
3013.472	530.08333
3015.539	531.41667
3017.604	528.41667
3019.669	502.75
3021.732	505.41667
3023.794	506.75
3025.854	505.08333
3027.914	498.41667
3029.971	511.08333
3032.028	503.41667
3034.083	504.08333
3036.137	490.08333
3038.19	463.41667
3040.242	464.08333
3042.292	452.08333
3044.341	459.75
3046.388	469.41667
3048.435	444.75
3050.48	462.75
3052.524	446.41667
3054.566	429.75
3056.607	437.08333
3058.647	422.75
3060.686	416.08333
3062.723	406.41667
3064.759	387.75
3066.794	0.08333
3068.828	2.75
3070.86	3.75
