-0.839	485.83333
3.438	575.5
7.711	173.16667
11.981	61.16667
16.247	49.83333
20.509	51.83333
24.768	44.83333
29.024	54.5
33.276	44.16667
37.524	51.5
41.769	44.5
46.01	30.5
50.247	49.5
54.481	58.16667
58.712	60.16667
62.939	44.5
67.162	60.83333
71.382	54.83333
75.599	45.5
79.812	60.5
84.021	80.5
88.227	61.83333
92.429	56.16667
96.628	50.83333
100.823	66.83333
105.015	74.83333
109.204	67.5
113.388	73.16667
117.57	73.83333
121.748	79.16667
125.922	69.5
130.093	93.83333
134.261	95.5
138.425	89.83333
142.585	138.83333
146.742	119.83333
150.896	153.83333
155.046	190.5
159.193	290.5
163.336	493.5
167.476	895.16667
171.613	1659.83333
175.746	2776.5
179.875	4102.16667
184.002	5324.16667
188.124	6170.16667
192.244	6466.83333
196.36	6400.5
200.472	6195.16667
204.581	5994.16667
208.687	5782.5
212.79	5749.5
216.889	5698.83333
220.984	5660.5
225.077	5673.5
229.165	5641.83333
233.251	5609.5
237.333	5579.5
241.412	5515.16667
245.487	5437.16667
249.559	5389.83333
253.628	5355.83333
257.694	5294.83333
261.756	5256.16667
265.814	5139.83333
269.87	4975.5
273.922	4816.83333
277.97	4740.83333
282.016	4707.5
286.058	4726.5
290.097	4873.16667
294.132	4904.16667
298.164	4841.5
302.193	4583.16667
306.219	4255.16667
310.241	3931.83333
314.26	3612.83333
318.276	3353.5
322.288	3183.16667
326.297	3031.16667
330.303	2944.83333
334.305	2855.5
338.305	2831.16667
342.301	2771.16667
346.294	2765.16667
350.283	2733.83333
354.269	2708.83333
358.252	2680.83333
362.232	2665.83333
366.209	2662.83333
370.182	2620.83333
374.152	2621.16667
378.119	2597.16667
382.083	2610.83333
386.043	2630.16667
390	2580.83333
393.954	2574.83333
397.905	2568.83333
401.852	2564.5
405.797	2536.83333
409.738	2512.16667
413.676	2515.5
417.61	2502.16667
421.542	2479.5
425.47	2457.5
429.396	2450.83333
433.318	2427.5
437.236	2421.5
441.152	2454.83333
445.065	2394.16667
448.974	2381.83333
452.88	2360.83333
456.783	2341.16667
460.683	2331.16667
464.58	2356.83333
468.473	2349.83333
472.364	2349.16667
476.251	2357.5
480.135	2374.83333
484.016	2396.16667
487.894	2419.5
491.769	2421.16667
495.641	2437.5
499.509	2418.16667
503.375	2450.16667
507.237	2446.16667
511.096	2420.83333
514.952	2476.5
518.805	2517.83333
522.655	2544.5
526.502	2458.5
530.346	2423.5
534.187	2429.5
538.024	2434.83333
541.859	2441.83333
545.69	2460.16667
549.519	2448.83333
553.344	2455.16667
557.166	2392.5
560.985	2357.5
564.802	2344.16667
568.615	2295.16667
572.425	2256.5
576.232	2259.5
580.036	2237.5
583.836	2256.16667
587.634	2251.5
591.429	2258.16667
595.221	2324.16667
599.01	2333.16667
602.796	2367.83333
606.578	2391.5
610.358	2359.5
614.135	2355.83333
617.909	2327.83333
621.679	2324.83333
625.447	2297.83333
629.212	2303.16667
632.973	2318.16667
636.732	2304.83333
640.488	2312.5
644.241	2282.5
647.991	2291.5
651.737	2295.5
655.481	2245.16667
659.222	2244.5
662.96	2257.16667
666.695	2259.83333
670.427	2285.16667
674.156	2318.16667
677.882	2282.83333
681.605	2302.5
685.325	2265.5
689.043	2271.5
692.757	2245.83333
696.468	2265.16667
700.177	2248.83333
703.882	2250.16667
707.585	2204.5
711.284	2226.16667
714.981	2227.16667
718.675	2237.5
722.366	2219.16667
726.054	2226.5
729.739	2246.83333
733.421	2246.83333
737.1	2220.5
740.777	2275.16667
744.45	2269.5
748.121	2295.16667
751.789	2324.5
755.453	2294.16667
759.115	2319.16667
762.774	2344.83333
766.431	2365.83333
770.084	2386.5
773.734	2405.83333
777.382	2449.5
781.027	2452.5
784.669	2486.5
788.308	2485.16667
791.944	2504.16667
795.577	2514.16667
799.208	2522.83333
802.835	2544.83333
806.46	2538.16667
810.082	2568.16667
813.701	2583.16667
817.317	2576.83333
820.931	2572.5
824.542	2589.16667
828.149	2564.16667
831.754	2534.83333
835.357	2541.5
838.956	2554.16667
842.553	2551.16667
846.146	2524.5
849.737	2539.16667
853.326	2525.83333
856.911	2537.83333
860.493	2565.83333
864.073	2590.16667
867.65	2625.5
871.225	2660.83333
874.796	2672.5
878.365	2666.5
881.931	2675.83333
885.494	2733.5
889.054	2727.83333
892.612	2753.83333
896.166	2710.16667
899.719	2699.16667
903.268	2646.16667
906.814	2642.5
910.358	2598.5
913.899	2582.5
917.438	2562.83333
920.973	2560.83333
924.506	2585.5
928.036	2619.83333
931.564	2647.83333
935.088	2679.83333
938.61	2698.5
942.129	2740.16667
945.646	2776.5
949.16	2856.16667
952.671	2866.83333
956.179	2878.16667
959.685	2831.16667
963.188	2811.5
966.688	2766.16667
970.185	2700.16667
973.68	2669.83333
977.173	2602.5
980.662	2612.83333
984.149	2591.5
987.633	2590.5
991.114	2621.5
994.593	2669.16667
998.069	2757.16667
1001.542	2826.5
1005.013	2783.5
1008.481	2629.16667
1011.947	2588.83333
1015.409	2569.5
1018.869	2575.83333
1022.327	2603.16667
1025.782	2535.16667
1029.234	2548.83333
1032.683	2497.16667
1036.13	2434.83333
1039.574	2352.83333
1043.016	2281.5
1046.455	2228.16667
1049.891	2213.83333
1053.325	2231.16667
1056.756	2231.5
1060.184	2258.5
1063.61	2252.83333
1067.033	2277.5
1070.454	2277.83333
1073.872	2305.16667
1077.287	2289.16667
1080.7	2283.16667
1084.11	2282.83333
1087.517	2276.83333
1090.922	2241.16667
1094.325	2217.16667
1097.724	2224.16667
1101.122	2205.5
1104.516	2210.83333
1107.908	2202.16667
1111.298	2251.16667
1114.684	2292.83333
1118.069	2311.83333
1121.45	2335.83333
1124.83	2320.5
1128.206	2344.5
1131.58	2381.5
1134.951	2435.5
1138.32	2537.5
1141.687	2604.5
1145.05	2644.83333
1148.412	2660.5
1151.77	2648.5
1155.126	2660.5
1158.48	2628.16667
1161.831	2648.83333
1165.18	2683.5
1168.525	2705.83333
1171.869	2716.5
1175.21	2762.5
1178.548	2787.83333
1181.884	2823.83333
1185.217	2836.16667
1188.548	2900.16667
1191.877	2963.83333
1195.202	3070.16667
1198.526	3123.16667
1201.846	3147.16667
1205.165	3106.83333
1208.48	3085.16667
1211.794	3087.83333
1215.104	3097.5
1218.413	3078.5
1221.719	3090.16667
1225.022	3061.5
1228.323	3018.16667
1231.621	2992.16667
1234.917	2954.5
1238.21	2978.5
1241.501	2952.83333
1244.79	2961.5
1248.076	2933.5
1251.359	2959.16667
1254.64	3054.5
1257.919	3066.16667
1261.195	3139.5
1264.468	3184.83333
1267.74	3202.5
1271.008	3220.83333
1274.275	3205.5
1277.538	3161.83333
1280.8	3175.83333
1284.059	3162.16667
1287.315	3183.5
1290.569	3220.83333
1293.821	3240.5
1297.07	3269.83333
1300.317	3267.5
1303.562	3280.16667
1306.803	3236.16667
1310.043	3217.83333
1313.28	3179.5
1316.515	3176.83333
1319.747	3121.16667
1322.977	3097.16667
1326.204	3090.16667
1329.429	3016.16667
1332.652	3013.16667
1335.872	2993.16667
1339.09	2925.83333
1342.306	2932.16667
1345.519	2865.83333
1348.729	2854.83333
1351.938	2821.16667
1355.144	2806.5
1358.347	2770.83333
1361.548	2769.5
1364.747	2758.16667
1367.944	2737.83333
1371.138	2733.5
1374.329	2750.5
1377.518	2792.16667
1380.705	2782.16667
1383.89	2765.83333
1387.072	2672.16667
1390.252	2599.5
1393.429	2497.16667
1396.605	2442.83333
1399.777	2368.5
1402.948	2340.5
1406.116	2345.83333
1409.282	2333.83333
1412.445	2346.5
1415.606	2360.16667
1418.765	2391.16667
1421.921	2451.83333
1425.075	2520.83333
1428.227	2594.5
1431.376	2685.83333
1434.524	2774.16667
1437.668	2856.5
1440.811	2906.5
1443.951	2923.16667
1447.089	2920.5
1450.224	2925.16667
1453.357	2908.16667
1456.488	2858.5
1459.617	2818.83333
1462.743	2779.16667
1465.867	2714.83333
1468.989	2646.83333
1472.108	2614.5
1475.225	2571.83333
1478.34	2554.16667
1481.453	2556.5
1484.563	2541.5
1487.671	2576.16667
1490.776	2634.5
1493.88	2681.16667
1496.981	2687.5
1500.08	2768.16667
1503.176	2797.5
1506.271	2797.83333
1509.363	2856.83333
1512.452	2879.5
1515.54	2920.16667
1518.625	2952.5
1521.708	3027.5
1524.789	3106.16667
1527.867	3214.16667
1530.944	3377.16667
1534.018	3518.83333
1537.089	3700.5
1540.159	3752.5
1543.226	3768.5
1546.291	3692.16667
1549.354	3595.5
1552.415	3533.16667
1555.473	3436.16667
1558.529	3396.16667
1561.583	3345.83333
1564.634	3308.16667
1567.684	3319.16667
1570.731	3323.5
1573.776	3357.83333
1576.819	3407.16667
1579.859	3447.83333
1582.898	3471.16667
1585.934	3519.83333
1588.968	3533.5
1591.999	3531.16667
1595.029	3550.16667
1598.056	3539.5
1601.081	3590.5
1604.104	3569.16667
1607.125	3531.5
1610.144	3430.5
1613.16	3359.83333
1616.174	3274.83333
1619.186	3187.5
1622.196	3105.16667
1625.203	3001.83333
1628.209	2943.5
1631.212	2901.83333
1634.213	2863.83333
1637.212	2837.5
1640.209	2780.16667
1643.203	2713.83333
1646.196	2637.83333
1649.186	2550.5
1652.174	2472.5
1655.16	2395.16667
1658.144	2319.83333
1661.125	2228.16667
1664.105	2135.83333
1667.082	2068.83333
1670.057	1931.16667
1673.03	1833.5
1676.001	1706.5
1678.97	1625.16667
1681.937	1515.83333
1684.901	1436.16667
1687.863	1374.83333
1690.824	1319.5
1693.782	1293.16667
1696.738	1245.83333
1699.692	1220.5
1702.643	1169.5
1705.593	1179.5
1708.54	1165.83333
1711.486	1142.16667
1714.429	1109.83333
1717.37	1112.5
1720.309	1088.83333
1723.246	1099.83333
1726.181	1068.16667
1729.113	1065.83333
1732.044	1054.16667
1734.972	1046.16667
1737.899	1054.5
1740.823	1031.83333
1743.745	1010.16667
1746.665	985.5
1749.583	977.16667
1752.499	965.5
1755.413	969.5
1758.325	915.5
1761.235	930.16667
1764.142	922.83333
1767.048	906.83333
1769.951	894.5
1772.852	893.16667
1775.752	891.5
1778.649	886.16667
1781.544	886.5
1784.437	869.5
1787.328	890.16667
1790.217	866.83333
1793.104	837.83333
1795.989	851.83333
1798.872	844.5
1801.753	857.5
1804.631	843.16667
1807.508	851.16667
1810.383	851.83333
1813.255	839.5
1816.126	842.83333
1818.994	832.83333
1821.861	821.16667
1824.725	809.16667
1827.587	821.5
1830.448	823.16667
1833.306	790.5
1836.162	794.83333
1839.017	794.83333
1841.869	781.83333
1844.719	797.83333
1847.567	782.5
1850.414	772.5
1853.258	777.5
1856.1	780.83333
1858.94	787.16667
1861.778	780.5
1864.614	765.83333
1867.448	775.5
1870.28	755.5
1873.111	787.5
1875.939	772.16667
1878.765	775.83333
1881.589	762.5
1884.411	764.5
1887.231	764.5
1890.049	758.16667
1892.865	759.83333
1895.68	748.83333
1898.492	765.16667
1901.302	743.83333
1904.11	733.83333
1906.916	738.83333
1909.721	729.16667
1912.523	742.5
1915.323	736.83333
1918.122	727.83333
1920.918	737.83333
1923.712	715.83333
1926.505	724.5
1929.295	714.5
1932.084	732.83333
1934.87	728.16667
1937.655	719.5
1940.438	718.5
1943.218	730.16667
1945.997	715.16667
1948.774	732.16667
1951.549	733.5
1954.322	713.16667
1957.093	711.5
1959.862	702.83333
1962.629	695.83333
1965.394	691.83333
1968.157	688.83333
1970.918	696.5
1973.678	684.5
1976.435	699.83333
1979.19	690.5
1981.944	684.83333
1984.696	686.83333
1987.445	659.83333
1990.193	685.5
1992.939	685.83333
1995.683	674.83333
1998.425	662.5
2001.165	697.16667
2003.903	665.16667
2006.639	675.83333
2009.374	670.83333
2012.106	677.83333
2014.837	651.16667
2017.566	671.5
2020.292	673.16667
2023.017	671.16667
2025.74	666.5
2028.461	653.5
2031.18	652.83333
2033.898	645.83333
2036.613	654.5
2039.327	653.5
2042.038	641.83333
2044.748	645.83333
2047.456	653.16667
2050.162	636.5
2052.866	642.16667
2055.568	651.16667
2058.268	643.83333
2060.967	643.5
2063.663	622.16667
2066.358	634.5
2069.051	639.5
2071.742	648.16667
2074.431	636.83333
2077.118	622.83333
2079.804	625.16667
2082.487	633.16667
2085.169	639.83333
2087.849	654.16667
2090.527	635.5
2093.203	628.5
2095.877	645.5
2098.55	646.5
2101.22	653.16667
2103.889	665.16667
2106.556	670.16667
2109.221	696.83333
2111.884	701.5
2114.546	755.83333
2117.205	808.16667
2119.863	898.5
2122.519	920.16667
2125.173	983.16667
2127.825	1041.5
2130.475	1038.5
2133.124	983.83333
2135.771	957.83333
2138.416	914.16667
2141.059	840.5
2143.7	828.5
2146.339	762.5
2148.977	721.5
2151.613	720.5
2154.247	695.83333
2156.879	677.83333
2159.51	664.83333
2162.138	645.5
2164.765	642.5
2167.39	617.5
2170.013	643.16667
2172.634	629.83333
2175.254	618.5
2177.872	644.83333
2180.488	604.16667
2183.102	615.16667
2185.714	594.83333
2188.325	575.16667
2190.934	579.16667
2193.541	598.83333
2196.146	571.16667
2198.75	580.83333
2201.351	581.16667
2203.951	569.83333
2206.549	578.83333
2209.146	558.83333
2211.74	563.5
2214.333	567.83333
2216.924	546.16667
2219.514	556.5
2222.101	550.16667
2224.687	564.83333
2227.271	555.5
2229.853	537.5
2232.433	529.16667
2235.012	570.83333
2237.589	549.5
2240.164	565.5
2242.738	545.16667
2245.309	533.83333
2247.879	545.83333
2250.448	550.16667
2253.014	534.5
2255.579	510.83333
2258.142	525.5
2260.703	510.5
2263.262	529.83333
2265.82	519.16667
2268.376	523.5
2270.93	506.5
2273.483	490.5
2276.033	513.5
2278.583	514.83333
2281.13	506.16667
2283.675	502.16667
2286.219	507.5
2288.761	515.83333
2291.302	506.5
2293.841	516.16667
2296.377	484.83333
2298.913	494.5
2301.446	514.83333
2303.978	501.83333
2306.508	495.5
2309.037	501.83333
2311.563	496.83333
2314.088	507.83333
2316.612	485.5
2319.133	496.5
2321.653	491.16667
2324.171	493.5
2326.688	499.16667
2329.202	484.83333
2331.715	494.16667
2334.227	481.5
2336.736	493.5
2339.244	481.83333
2341.751	471.16667
2344.255	490.16667
2346.758	483.83333
2349.259	473.5
2351.759	481.5
2354.257	479.83333
2356.753	464.83333
2359.247	480.16667
2361.74	483.16667
2364.231	478.5
2366.721	479.83333
2369.209	461.16667
2371.695	481.83333
2374.179	467.83333
2376.662	471.16667
2379.143	487.83333
2381.622	480.83333
2384.1	487.5
2386.576	470.83333
2389.051	486.16667
2391.524	491.5
2393.995	482.16667
2396.464	476.83333
2398.932	473.5
2401.398	481.16667
2403.863	469.5
2406.325	465.5
2408.787	471.16667
2411.246	477.5
2413.704	477.5
2416.16	467.83333
2418.615	467.83333
2421.068	482.5
2423.519	469.16667
2425.969	475.83333
2428.417	483.5
2430.863	495.83333
2433.308	473.16667
2435.751	481.83333
2438.193	468.16667
2440.633	469.83333
2443.071	478.5
2445.508	463.5
2447.943	464.5
2450.376	453.5
2452.808	467.5
2455.238	465.5
2457.667	497.83333
2460.093	471.83333
2462.519	463.5
2464.942	463.83333
2467.365	460.5
2469.785	476.83333
2472.204	469.83333
2474.621	468.16667
2477.037	487.83333
2479.451	455.5
2481.863	452.16667
2484.274	464.16667
2486.683	459.16667
2489.091	472.16667
2491.497	463.5
2493.901	472.5
2496.304	466.83333
2498.705	469.83333
2501.105	460.5
2503.503	485.83333
2505.899	457.16667
2508.294	479.5
2510.687	465.5
2513.079	467.16667
2515.469	455.16667
2517.858	466.83333
2520.245	484.16667
2522.63	465.16667
2525.014	448.5
2527.396	457.5
2529.776	457.16667
2532.156	471.83333
2534.533	453.16667
2536.909	457.5
2539.283	455.16667
2541.656	457.83333
2544.027	477.5
2546.397	468.16667
2548.765	455.16667
2551.131	460.83333
2553.496	466.5
2555.86	469.5
2558.221	460.83333
2560.582	461.5
2562.94	456.83333
2565.298	465.83333
2567.653	480.5
2570.007	452.83333
2572.36	471.5
2574.711	458.83333
2577.06	482.16667
2579.408	481.16667
2581.754	472.16667
2584.099	465.16667
2586.442	469.5
2588.784	472.83333
2591.124	473.5
2593.463	472.16667
2595.8	479.5
2598.135	467.16667
2600.469	465.16667
2602.802	475.83333
2605.133	483.83333
2607.462	462.16667
2609.79	462.83333
2612.116	477.83333
2614.441	466.83333
2616.764	473.16667
2619.086	477.5
2621.406	461.16667
2623.725	487.16667
2626.042	480.5
2628.358	474.5
2630.672	480.16667
2632.985	489.5
2635.296	483.83333
2637.606	485.16667
2639.914	475.16667
2642.22	475.83333
2644.525	478.16667
2646.829	489.83333
2649.131	497.5
2651.432	506.83333
2653.731	499.83333
2656.028	498.16667
2658.324	517.83333
2660.619	490.83333
2662.912	512.83333
2665.204	485.83333
2667.494	512.5
2669.782	496.83333
2672.07	511.5
2674.355	507.83333
2676.639	492.16667
2678.922	496.16667
2681.203	501.5
2683.483	493.5
2685.761	501.16667
2688.038	501.16667
2690.313	522.5
2692.587	502.83333
2694.859	501.83333
2697.13	516.83333
2699.399	522.83333
2701.667	523.16667
2703.933	520.16667
2706.198	526.83333
2708.461	536.83333
2710.723	539.5
2712.984	534.16667
2715.243	541.16667
2717.5	531.83333
2719.757	558.16667
2722.011	545.16667
2724.264	555.83333
2726.516	564.83333
2728.766	546.16667
2731.015	551.83333
2733.262	557.83333
2735.508	550.16667
2737.753	554.5
2739.996	542.5
2742.237	544.16667
2744.477	557.83333
2746.716	552.5
2748.953	540.83333
2751.189	550.16667
2753.423	540.16667
2755.656	541.5
2757.887	523.5
2760.117	533.16667
2762.346	533.83333
2764.573	523.5
2766.798	533.5
2769.022	539.5
2771.245	549.5
2773.467	548.83333
2775.686	554.83333
2777.905	549.16667
2780.122	547.5
2782.337	556.83333
2784.552	558.16667
2786.764	550.83333
2788.976	572.5
2791.186	572.16667
2793.394	565.16667
2795.601	583.83333
2797.807	588.83333
2800.011	601.16667
2802.214	596.83333
2804.415	605.83333
2806.615	599.16667
2808.814	610.5
2811.011	631.83333
2813.206	606.83333
2815.401	638.16667
2817.594	629.5
2819.785	635.16667
2821.975	643.16667
2824.164	636.16667
2826.351	663.5
2828.537	673.83333
2830.722	686.5
2832.905	682.5
2835.086	719.16667
2837.267	727.83333
2839.445	747.5
2841.623	768.16667
2843.799	783.5
2845.974	813.83333
2848.147	842.83333
2850.319	864.83333
2852.489	889.83333
2854.659	898.16667
2856.826	909.83333
2858.993	933.83333
2861.158	920.16667
2863.321	919.5
2865.483	924.16667
2867.644	933.5
2869.804	925.5
2871.962	926.83333
2874.118	919.16667
2876.274	935.16667
2878.428	922.16667
2880.58	913.83333
2882.731	915.16667
2884.881	902.5
2887.03	918.16667
2889.177	917.5
2891.322	921.5
2893.467	922.83333
2895.61	921.5
2897.751	949.5
2899.892	952.83333
2902.03	954.16667
2904.168	957.16667
2906.304	953.5
2908.439	972.16667
2910.572	957.16667
2912.704	980.5
2914.835	979.5
2916.965	966.5
2919.093	980.5
2921.219	949.16667
2923.345	981.16667
2925.469	934.83333
2927.591	944.83333
2929.712	915.83333
2931.832	915.5
2933.951	897.16667
2936.068	883.5
2938.184	876.16667
2940.299	853.5
2942.412	839.83333
2944.524	801.16667
2946.634	809.83333
2948.744	760.83333
2950.851	791.5
2952.958	751.16667
2955.063	752.5
2957.167	742.16667
2959.269	715.83333
2961.371	752.16667
2963.471	699.83333
2965.569	717.16667
2967.666	684.5
2969.762	679.5
2971.857	672.5
2973.95	640.16667
2976.042	650.83333
2978.133	648.5
2980.222	636.16667
2982.31	612.83333
2984.396	590.5
2986.482	597.16667
2988.566	590.5
2990.648	581.16667
2992.73	594.5
2994.81	572.5
2996.889	580.83333
2998.966	577.5
3001.042	583.83333
3003.117	580.83333
3005.191	579.5
3007.263	572.83333
3009.334	557.5
3011.403	560.83333
3013.472	548.5
3015.539	548.83333
3017.604	555.83333
3019.669	534.16667
3021.732	538.5
3023.794	531.83333
3025.854	519.5
3027.914	530.16667
3029.971	527.83333
3032.028	525.83333
3034.083	524.16667
3036.137	522.5
3038.19	488.16667
3040.242	489.5
3042.292	480.5
3044.341	481.16667
3046.388	486.5
3048.435	468.16667
3050.48	483.83333
3052.524	471.16667
3054.566	462.5
3056.607	466.16667
3058.647	452.83333
3060.686	428.16667
3062.723	425.5
3064.759	409.16667
3066.794	-0.83333
3068.828	0.83333
3070.86	3.83333
