-0.839	530.70833
3.438	632.70833
7.711	185.375
11.981	63.70833
16.247	44.04167
20.509	50.70833
24.768	46.70833
29.024	55.04167
33.276	43.70833
37.524	47.04167
41.769	47.70833
46.01	31.04167
50.247	44.375
54.481	56.70833
58.712	62.70833
62.939	49.375
67.162	61.70833
71.382	53.04167
75.599	44.375
79.812	60.70833
84.021	79.375
88.227	56.70833
92.429	58.375
96.628	52.04167
100.823	70.04167
105.015	74.375
109.204	66.04167
113.388	75.04167
117.57	77.04167
121.748	79.375
125.922	77.70833
130.093	92.70833
134.261	91.04167
138.425	93.375
142.585	129.04167
146.742	120.375
150.896	147.70833
155.046	180.70833
159.193	281.375
163.336	481.04167
167.476	885.04167
171.613	1603.375
175.746	2674.04167
179.875	3980.04167
184.002	5186.04167
188.124	6041.375
192.244	6299.70833
196.36	6181.375
200.472	5976.70833
204.581	5784.375
208.687	5577.70833
212.79	5511.70833
216.889	5438.70833
220.984	5393.04167
225.077	5388.375
229.165	5369.375
233.251	5320.04167
237.333	5264.04167
241.412	5170.70833
245.487	5097.70833
249.559	5026.70833
253.628	4952.375
257.694	4906.04167
261.756	4858.70833
265.814	4743.70833
269.87	4584.375
273.922	4458.70833
277.97	4390.04167
282.016	4359.375
286.058	4369.04167
290.097	4429.04167
294.132	4482.70833
298.164	4417.375
302.193	4246.04167
306.219	3959.04167
310.241	3649.70833
314.26	3402.70833
318.276	3185.70833
322.288	3078.04167
326.297	2925.04167
330.303	2850.04167
334.305	2773.70833
338.305	2728.04167
342.301	2696.70833
346.294	2680.04167
350.283	2649.375
354.269	2642.375
358.252	2632.70833
362.232	2622.04167
366.209	2606.04167
370.182	2561.375
374.152	2567.04167
378.119	2575.375
382.083	2581.04167
386.043	2574.70833
390	2541.04167
393.954	2559.70833
397.905	2562.375
401.852	2540.04167
405.797	2511.375
409.738	2500.04167
413.676	2515.375
417.61	2512.70833
421.542	2493.04167
425.47	2460.375
429.396	2426.70833
433.318	2444.70833
437.236	2404.375
441.152	2448.04167
445.065	2381.375
448.974	2378.70833
452.88	2341.70833
456.783	2336.375
460.683	2335.375
464.58	2340.375
468.473	2338.04167
472.364	2346.04167
476.251	2350.375
480.135	2388.375
484.016	2420.70833
487.894	2420.70833
491.769	2425.70833
495.641	2445.70833
499.509	2456.375
503.375	2454.70833
507.237	2437.70833
511.096	2495.04167
514.952	2615.04167
518.805	2759.04167
522.655	2836.04167
526.502	2619.70833
530.346	2471.375
534.187	2427.70833
538.024	2421.375
541.859	2440.04167
545.69	2443.375
549.519	2454.375
553.344	2419.70833
557.166	2380.70833
560.985	2351.04167
564.802	2311.70833
568.615	2278.375
572.425	2261.70833
576.232	2243.70833
580.036	2272.04167
583.836	2262.375
587.634	2258.04167
591.429	2270.375
595.221	2316.375
599.01	2326.04167
602.796	2362.70833
606.578	2362.70833
610.358	2357.375
614.135	2337.375
617.909	2322.375
621.679	2314.04167
625.447	2296.70833
629.212	2293.375
632.973	2313.70833
636.732	2299.70833
640.488	2313.375
644.241	2286.70833
647.991	2272.04167
651.737	2304.04167
655.481	2240.70833
659.222	2253.70833
662.96	2251.70833
666.695	2285.375
670.427	2283.04167
674.156	2302.70833
677.882	2279.04167
681.605	2279.70833
685.325	2260.375
689.043	2247.04167
692.757	2226.375
696.468	2216.04167
700.177	2222.375
703.882	2210.70833
707.585	2207.70833
711.284	2199.70833
714.981	2213.04167
718.675	2195.375
722.366	2217.375
726.054	2194.04167
729.739	2193.375
733.421	2221.70833
737.1	2187.375
740.777	2229.70833
744.45	2208.04167
748.121	2247.70833
751.789	2274.04167
755.453	2264.04167
759.115	2272.375
762.774	2283.70833
766.431	2306.375
770.084	2329.375
773.734	2342.375
777.382	2392.375
781.027	2385.375
784.669	2383.70833
788.308	2401.375
791.944	2404.70833
795.577	2440.04167
799.208	2456.70833
802.835	2477.70833
806.46	2482.04167
810.082	2471.375
813.701	2474.04167
817.317	2515.70833
820.931	2495.04167
824.542	2507.375
828.149	2464.04167
831.754	2440.04167
835.357	2440.70833
838.956	2450.04167
842.553	2448.04167
846.146	2420.375
849.737	2411.04167
853.326	2419.375
856.911	2412.70833
860.493	2427.70833
864.073	2447.375
867.65	2472.70833
871.225	2523.375
874.796	2508.375
878.365	2497.70833
881.931	2517.04167
885.494	2542.70833
889.054	2547.375
892.612	2576.70833
896.166	2562.70833
899.719	2539.375
903.268	2495.70833
906.814	2489.375
910.358	2441.70833
913.899	2423.375
917.438	2426.375
920.973	2426.375
924.506	2459.04167
928.036	2499.04167
931.564	2515.70833
935.088	2540.04167
938.61	2550.04167
942.129	2578.04167
945.646	2634.375
949.16	2662.375
952.671	2706.375
956.179	2701.375
959.685	2678.375
963.188	2652.04167
966.688	2623.70833
970.185	2550.70833
973.68	2519.70833
977.173	2481.375
980.662	2438.04167
984.149	2450.70833
987.633	2428.375
991.114	2464.375
994.593	2506.70833
998.069	2552.04167
1001.542	2625.70833
1005.013	2558.375
1008.481	2442.70833
1011.947	2417.70833
1015.409	2400.375
1018.869	2395.375
1022.327	2394.04167
1025.782	2366.70833
1029.234	2382.375
1032.683	2356.04167
1036.13	2268.04167
1039.574	2192.375
1043.016	2152.04167
1046.455	2116.375
1049.891	2069.375
1053.325	2096.04167
1056.756	2099.375
1060.184	2090.70833
1063.61	2120.04167
1067.033	2125.04167
1070.454	2142.70833
1073.872	2148.04167
1077.287	2128.70833
1080.7	2150.375
1084.11	2139.70833
1087.517	2115.70833
1090.922	2082.375
1094.325	2078.04167
1097.724	2075.70833
1101.122	2039.375
1104.516	2056.375
1107.908	2046.70833
1111.298	2089.04167
1114.684	2100.70833
1118.069	2142.04167
1121.45	2169.04167
1124.83	2147.04167
1128.206	2166.70833
1131.58	2176.375
1134.951	2240.375
1138.32	2308.375
1141.687	2385.375
1145.05	2431.70833
1148.412	2447.04167
1151.77	2423.70833
1155.126	2416.375
1158.48	2383.04167
1161.831	2420.70833
1165.18	2421.04167
1168.525	2435.04167
1171.869	2485.375
1175.21	2479.70833
1178.548	2524.375
1181.884	2549.375
1185.217	2569.04167
1188.548	2641.375
1191.877	2676.375
1195.202	2761.375
1198.526	2821.04167
1201.846	2830.04167
1205.165	2843.04167
1208.48	2839.70833
1211.794	2826.70833
1215.104	2818.70833
1218.413	2814.70833
1221.719	2824.04167
1225.022	2763.375
1228.323	2741.70833
1231.621	2734.04167
1234.917	2698.70833
1238.21	2695.04167
1241.501	2688.70833
1244.79	2680.375
1248.076	2695.70833
1251.359	2706.375
1254.64	2771.70833
1257.919	2765.375
1261.195	2823.375
1264.468	2859.04167
1267.74	2876.04167
1271.008	2907.04167
1274.275	2894.375
1277.538	2855.70833
1280.8	2865.04167
1284.059	2853.70833
1287.315	2913.70833
1290.569	2916.375
1293.821	2922.375
1297.07	2923.04167
1300.317	2936.375
1303.562	2974.04167
1306.803	2923.375
1310.043	2922.04167
1313.28	2888.375
1316.515	2877.375
1319.747	2854.04167
1322.977	2850.04167
1326.204	2824.04167
1329.429	2768.375
1332.652	2765.70833
1335.872	2736.70833
1339.09	2720.70833
1342.306	2715.04167
1345.519	2645.375
1348.729	2629.375
1351.938	2633.04167
1355.144	2597.04167
1358.347	2566.70833
1361.548	2549.375
1364.747	2533.375
1367.944	2504.375
1371.138	2532.04167
1374.329	2503.70833
1377.518	2539.70833
1380.705	2554.04167
1383.89	2540.70833
1387.072	2466.70833
1390.252	2355.04167
1393.429	2293.04167
1396.605	2217.70833
1399.777	2181.04167
1402.948	2182.04167
1406.116	2161.04167
1409.282	2155.04167
1412.445	2157.70833
1415.606	2191.70833
1418.765	2218.375
1421.921	2241.04167
1425.075	2299.70833
1428.227	2360.375
1431.376	2444.04167
1434.524	2526.375
1437.668	2586.04167
1440.811	2631.04167
1443.951	2655.04167
1447.089	2646.04167
1450.224	2621.375
1453.357	2607.375
1456.488	2603.04167
1459.617	2557.375
1462.743	2516.70833
1465.867	2446.70833
1468.989	2419.70833
1472.108	2386.70833
1475.225	2349.375
1478.34	2310.04167
1481.453	2313.70833
1484.563	2309.375
1487.671	2331.375
1490.776	2352.375
1493.88	2391.375
1496.981	2427.70833
1500.08	2461.375
1503.176	2483.375
1506.271	2503.70833
1509.363	2555.375
1512.452	2555.04167
1515.54	2596.04167
1518.625	2656.70833
1521.708	2685.70833
1524.789	2789.70833
1527.867	2891.04167
1530.944	2999.04167
1534.018	3150.70833
1537.089	3266.70833
1540.159	3325.04167
1543.226	3331.375
1546.291	3239.70833
1549.354	3197.70833
1552.415	3128.04167
1555.473	3053.04167
1558.529	2983.04167
1561.583	2962.04167
1564.634	2929.70833
1567.684	2930.375
1570.731	2959.04167
1573.776	2975.70833
1576.819	3025.70833
1579.859	3051.70833
1582.898	3074.70833
1585.934	3097.375
1588.968	3133.04167
1591.999	3123.375
1595.029	3124.375
1598.056	3153.04167
1601.081	3168.375
1604.104	3150.04167
1607.125	3143.70833
1610.144	3072.04167
1613.16	3011.70833
1616.174	2937.04167
1619.186	2881.04167
1622.196	2798.375
1625.203	2731.375
1628.209	2701.70833
1631.212	2668.375
1634.213	2665.70833
1637.212	2677.04167
1640.209	2631.375
1643.203	2589.375
1646.196	2484.04167
1649.186	2403.70833
1652.174	2316.70833
1655.16	2237.04167
1658.144	2176.04167
1661.125	2054.70833
1664.105	1992.04167
1667.082	1910.04167
1670.057	1821.04167
1673.03	1697.04167
1676.001	1599.04167
1678.97	1513.04167
1681.937	1427.375
1684.901	1361.04167
1687.863	1317.70833
1690.824	1254.04167
1693.782	1235.04167
1696.738	1170.04167
1699.692	1157.70833
1702.643	1129.70833
1705.593	1115.70833
1708.54	1105.375
1711.486	1097.375
1714.429	1069.375
1717.37	1072.04167
1720.309	1042.375
1723.246	1045.70833
1726.181	1022.04167
1729.113	1026.04167
1732.044	1011.70833
1734.972	1005.375
1737.899	1023.375
1740.823	1015.375
1743.745	977.375
1746.665	969.04167
1749.583	945.04167
1752.499	954.70833
1755.413	952.375
1758.325	918.375
1761.235	900.70833
1764.142	897.375
1767.048	884.70833
1769.951	886.375
1772.852	889.70833
1775.752	876.04167
1778.649	870.70833
1781.544	881.04167
1784.437	851.04167
1787.328	861.375
1790.217	847.04167
1793.104	833.04167
1795.989	831.375
1798.872	840.375
1801.753	848.70833
1804.631	833.70833
1807.508	841.70833
1810.383	835.70833
1813.255	834.70833
1816.126	820.04167
1818.994	827.375
1821.861	823.04167
1824.725	823.70833
1827.587	823.70833
1830.448	814.70833
1833.306	795.04167
1836.162	800.04167
1839.017	797.04167
1841.869	791.70833
1844.719	797.375
1847.567	777.04167
1850.414	765.375
1853.258	769.04167
1856.1	797.04167
1858.94	787.04167
1861.778	787.375
1864.614	777.375
1867.448	782.375
1870.28	771.375
1873.111	797.70833
1875.939	784.04167
1878.765	790.70833
1881.589	761.375
1884.411	775.70833
1887.231	779.04167
1890.049	763.04167
1892.865	780.70833
1895.68	760.04167
1898.492	757.70833
1901.302	750.375
1904.11	746.04167
1906.916	751.70833
1909.721	737.04167
1912.523	746.70833
1915.323	737.04167
1918.122	737.04167
1920.918	749.375
1923.712	738.70833
1926.505	719.04167
1929.295	733.375
1932.084	749.375
1934.87	739.04167
1937.655	736.04167
1940.438	735.70833
1943.218	743.375
1945.997	739.375
1948.774	737.70833
1951.549	738.04167
1954.322	738.375
1957.093	717.375
1959.862	732.04167
1962.629	715.70833
1965.394	721.04167
1968.157	721.04167
1970.918	711.04167
1973.678	708.70833
1976.435	719.04167
1979.19	710.375
1981.944	708.70833
1984.696	707.04167
1987.445	691.375
1990.193	701.375
1992.939	720.70833
1995.683	708.70833
1998.425	684.70833
2001.165	707.04167
2003.903	695.04167
2006.639	693.375
2009.374	700.375
2012.106	691.375
2014.837	684.04167
2017.566	699.04167
2020.292	703.70833
2023.017	692.04167
2025.74	692.375
2028.461	685.04167
2031.18	682.70833
2033.898	678.375
2036.613	694.04167
2039.327	684.70833
2042.038	682.04167
2044.748	673.04167
2047.456	699.70833
2050.162	670.70833
2052.866	674.70833
2055.568	691.375
2058.268	667.70833
2060.967	683.70833
2063.663	672.04167
2066.358	672.70833
2069.051	671.375
2071.742	680.70833
2074.431	682.70833
2077.118	661.375
2079.804	669.04167
2082.487	683.70833
2085.169	698.70833
2087.849	695.04167
2090.527	675.70833
2093.203	691.04167
2095.877	689.04167
2098.55	703.70833
2101.22	706.04167
2103.889	709.375
2106.556	715.375
2109.221	740.04167
2111.884	739.375
2114.546	797.70833
2117.205	827.70833
2119.863	894.04167
2122.519	918.04167
2125.173	983.04167
2127.825	1040.375
2130.475	1032.375
2133.124	993.375
2135.771	957.70833
2138.416	934.375
2141.059	872.70833
2143.7	848.70833
2146.339	803.70833
2148.977	769.70833
2151.613	754.375
2154.247	742.375
2156.879	722.04167
2159.51	712.70833
2162.138	696.70833
2164.765	693.04167
2167.39	684.04167
2170.013	702.04167
2172.634	684.70833
2175.254	683.04167
2177.872	709.70833
2180.488	664.70833
2183.102	679.04167
2185.714	666.70833
2188.325	637.04167
2190.934	654.04167
2193.541	671.375
2196.146	647.70833
2198.75	650.375
2201.351	639.375
2203.951	645.375
2206.549	666.375
2209.146	635.375
2211.74	643.375
2214.333	646.70833
2216.924	622.375
2219.514	642.70833
2222.101	626.375
2224.687	660.04167
2227.271	634.04167
2229.853	635.04167
2232.433	611.70833
2235.012	643.70833
2237.589	638.70833
2240.164	650.04167
2242.738	626.375
2245.309	621.375
2247.879	627.375
2250.448	639.70833
2253.014	616.375
2255.579	605.70833
2258.142	616.375
2260.703	618.375
2263.262	605.375
2265.82	617.70833
2268.376	612.04167
2270.93	604.04167
2273.483	608.70833
2276.033	621.04167
2278.583	604.04167
2281.13	612.70833
2283.675	604.375
2286.219	605.375
2288.761	608.04167
2291.302	608.70833
2293.841	621.04167
2296.377	601.375
2298.913	600.375
2301.446	619.70833
2303.978	610.375
2306.508	600.70833
2309.037	605.70833
2311.563	610.375
2314.088	615.375
2316.612	592.70833
2319.133	614.04167
2321.653	612.375
2324.171	602.04167
2326.688	608.04167
2329.202	606.04167
2331.715	596.70833
2334.227	607.04167
2336.736	606.375
2339.244	600.04167
2341.751	595.70833
2344.255	620.04167
2346.758	607.04167
2349.259	598.04167
2351.759	609.70833
2354.257	605.04167
2356.753	591.04167
2359.247	609.375
2361.74	610.04167
2364.231	614.04167
2366.721	619.04167
2369.209	608.04167
2371.695	610.375
2374.179	603.375
2376.662	598.375
2379.143	630.375
2381.622	603.70833
2384.1	636.375
2386.576	616.375
2389.051	628.375
2391.524	637.04167
2393.995	627.375
2396.464	611.375
2398.932	620.04167
2401.398	620.70833
2403.863	619.70833
2406.325	614.04167
2408.787	622.375
2411.246	629.04167
2413.704	626.04167
2416.16	627.70833
2418.615	620.04167
2421.068	631.70833
2423.519	637.375
2425.969	621.375
2428.417	637.375
2430.863	649.70833
2433.308	639.375
2435.751	640.04167
2438.193	635.04167
2440.633	641.375
2443.071	638.04167
2445.508	626.70833
2447.943	639.375
2450.376	639.04167
2452.808	630.375
2455.238	638.70833
2457.667	675.04167
2460.093	637.04167
2462.519	640.375
2464.942	631.375
2467.365	645.70833
2469.785	643.04167
2472.204	654.375
2474.621	647.70833
2477.037	660.375
2479.451	637.375
2481.863	635.375
2484.274	653.04167
2486.683	661.04167
2489.091	658.04167
2491.497	669.04167
2493.901	658.70833
2496.304	664.70833
2498.705	663.70833
2501.105	657.70833
2503.503	699.04167
2505.899	653.70833
2508.294	676.375
2510.687	656.70833
2513.079	661.375
2515.469	659.375
2517.858	672.04167
2520.245	680.04167
2522.63	674.375
2525.014	660.375
2527.396	660.70833
2529.776	667.04167
2532.156	675.70833
2534.533	659.70833
2536.909	669.70833
2539.283	664.04167
2541.656	663.04167
2544.027	701.375
2546.397	677.70833
2548.765	690.375
2551.131	694.375
2553.496	685.04167
2555.86	693.04167
2558.221	692.04167
2560.582	680.70833
2562.94	682.70833
2565.298	687.04167
2567.653	701.375
2570.007	683.70833
2572.36	707.70833
2574.711	691.70833
2577.06	713.04167
2579.408	710.375
2581.754	707.70833
2584.099	713.04167
2586.442	711.70833
2588.784	717.375
2591.124	716.70833
2593.463	726.375
2595.8	720.375
2598.135	712.375
2600.469	727.04167
2602.802	723.375
2605.133	730.04167
2607.462	714.04167
2609.79	716.70833
2612.116	738.04167
2614.441	722.70833
2616.764	732.375
2619.086	724.04167
2621.406	727.04167
2623.725	751.375
2626.042	748.70833
2628.358	742.70833
2630.672	736.04167
2632.985	753.375
2635.296	751.70833
2637.606	758.375
2639.914	747.375
2642.22	757.70833
2644.525	760.70833
2646.829	766.375
2649.131	777.70833
2651.432	783.04167
2653.731	775.70833
2656.028	788.04167
2658.324	792.375
2660.619	775.04167
2662.912	804.70833
2665.204	785.04167
2667.494	800.70833
2669.782	783.70833
2672.07	785.375
2674.355	801.70833
2676.639	799.70833
2678.922	794.375
2681.203	801.70833
2683.483	786.04167
2685.761	786.375
2688.038	813.04167
2690.313	825.70833
2692.587	810.375
2694.859	803.04167
2697.13	819.70833
2699.399	824.70833
2701.667	823.04167
2703.933	830.04167
2706.198	830.375
2708.461	846.04167
2710.723	846.375
2712.984	829.375
2715.243	861.375
2717.5	838.04167
2719.757	863.04167
2722.011	853.70833
2724.264	862.04167
2726.516	882.375
2728.766	855.375
2731.015	872.04167
2733.262	876.70833
2735.508	889.70833
2737.753	885.04167
2739.996	873.04167
2742.237	874.70833
2744.477	891.04167
2746.716	877.70833
2748.953	870.04167
2751.189	883.375
2753.423	878.375
2755.656	847.04167
2757.887	861.70833
2760.117	871.70833
2762.346	850.04167
2764.573	849.375
2766.798	875.70833
2769.022	862.04167
2771.245	878.375
2773.467	880.375
2775.686	896.04167
2777.905	886.375
2780.122	902.04167
2782.337	899.70833
2784.552	908.04167
2786.764	895.70833
2788.976	908.375
2791.186	919.375
2793.394	920.375
2795.601	922.70833
2797.807	960.375
2800.011	967.375
2802.214	967.375
2804.415	961.04167
2806.615	948.375
2808.814	964.04167
2811.011	971.70833
2813.206	972.70833
2815.401	984.04167
2817.594	978.375
2819.785	988.375
2821.975	980.04167
2824.164	1003.375
2826.351	1005.04167
2828.537	1019.70833
2830.722	1027.70833
2832.905	1038.70833
2835.086	1065.375
2837.267	1080.04167
2839.445	1094.04167
2841.623	1091.04167
2843.799	1124.70833
2845.974	1150.375
2848.147	1174.70833
2850.319	1185.04167
2852.489	1211.04167
2854.659	1218.04167
2856.826	1244.04167
2858.993	1276.04167
2861.158	1253.70833
2863.321	1248.70833
2865.483	1267.375
2867.644	1268.375
2869.804	1255.04167
2871.962	1257.04167
2874.118	1270.375
2876.274	1254.04167
2878.428	1255.375
2880.58	1259.70833
2882.731	1231.70833
2884.881	1246.70833
2887.03	1252.375
2889.177	1243.04167
2891.322	1266.70833
2893.467	1261.375
2895.61	1261.70833
2897.751	1273.04167
2899.892	1266.04167
2902.03	1289.04167
2904.168	1300.04167
2906.304	1278.375
2908.439	1321.375
2910.572	1302.375
2912.704	1303.04167
2914.835	1318.70833
2916.965	1306.04167
2919.093	1346.375
2921.219	1317.375
2923.345	1342.70833
2925.469	1313.04167
2927.591	1300.375
2929.712	1278.70833
2931.832	1268.04167
2933.951	1261.04167
2936.068	1253.70833
2938.184	1224.04167
2940.299	1212.04167
2942.412	1208.04167
2944.524	1177.375
2946.634	1187.375
2948.744	1150.375
2950.851	1167.70833
2952.958	1139.70833
2955.063	1138.375
2957.167	1137.375
2959.269	1106.70833
2961.371	1141.04167
2963.471	1097.04167
2965.569	1129.04167
2967.666	1087.375
2969.762	1088.375
2971.857	1084.375
2973.95	1057.375
2976.042	1059.375
2978.133	1037.375
2980.222	1025.375
2982.31	1010.375
2984.396	992.375
2986.482	996.375
2988.566	980.70833
2990.648	995.375
2992.73	984.04167
2994.81	991.04167
2996.889	985.70833
2998.966	985.04167
3001.042	986.04167
3003.117	991.04167
3005.191	989.04167
3007.263	989.04167
3009.334	968.70833
3011.403	958.04167
3013.472	944.375
3015.539	964.375
3017.604	948.375
3019.669	909.04167
3021.732	922.375
3023.794	915.04167
3025.854	912.04167
3027.914	917.04167
3029.971	923.04167
3032.028	914.375
3034.083	914.375
3036.137	902.375
3038.19	874.04167
3040.242	860.375
3042.292	841.70833
3044.341	845.04167
3046.388	845.70833
3048.435	812.04167
3050.48	835.375
3052.524	824.04167
3054.566	809.70833
3056.607	807.375
3058.647	796.375
3060.686	774.375
3062.723	755.375
3064.759	720.04167
3066.794	1.04167
3068.828	4.04167
3070.86	0.375
