-0.839	487.29167
3.438	584.625
7.711	175.29167
11.981	57.95833
16.247	44.29167
20.509	52.29167
24.768	44.29167
29.024	55.95833
33.276	40.29167
37.524	45.625
41.769	47.29167
46.01	35.29167
50.247	38.95833
54.481	55.95833
58.712	60.95833
62.939	47.29167
67.162	62.625
71.382	59.29167
75.599	42.95833
79.812	60.625
84.021	78.29167
88.227	63.29167
92.429	59.95833
96.628	55.29167
100.823	72.625
105.015	71.625
109.204	68.95833
113.388	75.95833
117.57	76.29167
121.748	82.95833
125.922	81.95833
130.093	92.95833
134.261	96.625
138.425	95.29167
142.585	135.95833
146.742	124.95833
150.896	152.625
155.046	192.625
159.193	291.95833
163.336	488.95833
167.476	907.625
171.613	1669.29167
175.746	2806.625
179.875	4133.625
184.002	5429.625
188.124	6237.95833
192.244	6577.625
196.36	6514.95833
200.472	6332.29167
204.581	6115.95833
208.687	5964.625
212.79	5897.95833
216.889	5864.29167
220.984	5895.625
225.077	5917.29167
229.165	5878.95833
233.251	5845.29167
237.333	5823.29167
241.412	5756.625
245.487	5661.625
249.559	5601.29167
253.628	5603.29167
257.694	5515.29167
261.756	5460.29167
265.814	5344.95833
269.87	5165.95833
273.922	5015.625
277.97	4957.95833
282.016	4904.95833
286.058	4959.625
290.097	5045.625
294.132	5128.95833
298.164	5061.29167
302.193	4805.625
306.219	4475.625
310.241	4099.29167
314.26	3803.95833
318.276	3528.29167
322.288	3371.95833
326.297	3226.29167
330.303	3116.29167
334.305	3039.95833
338.305	2991.625
342.301	2956.29167
346.294	2934.29167
350.283	2909.95833
354.269	2889.95833
358.252	2871.95833
362.232	2844.29167
366.209	2841.95833
370.182	2791.29167
374.152	2813.29167
378.119	2799.29167
382.083	2817.625
386.043	2797.625
390	2774.95833
393.954	2785.625
397.905	2753.95833
401.852	2752.95833
405.797	2749.625
409.738	2733.95833
413.676	2699.29167
417.61	2684.95833
421.542	2679.95833
425.47	2662.29167
429.396	2645.29167
433.318	2638.29167
437.236	2618.95833
441.152	2657.625
445.065	2602.29167
448.974	2595.625
452.88	2580.625
456.783	2584.95833
460.683	2569.95833
464.58	2538.29167
468.473	2563.95833
472.364	2581.29167
476.251	2567.625
480.135	2596.625
484.016	2607.95833
487.894	2656.95833
491.769	2666.29167
495.641	2663.95833
499.509	2666.625
503.375	2666.29167
507.237	2665.625
511.096	2633.29167
514.952	2689.625
518.805	2760.95833
522.655	2764.95833
526.502	2692.95833
530.346	2630.29167
534.187	2630.625
538.024	2639.29167
541.859	2660.625
545.69	2694.95833
549.519	2672.95833
553.344	2622.29167
557.166	2590.29167
560.985	2573.95833
564.802	2540.95833
568.615	2482.29167
572.425	2471.29167
576.232	2450.625
580.036	2471.625
583.836	2449.625
587.634	2454.29167
591.429	2474.625
595.221	2523.625
599.01	2553.625
602.796	2568.625
606.578	2583.625
610.358	2577.625
614.135	2562.29167
617.909	2539.29167
621.679	2506.95833
625.447	2513.625
629.212	2500.95833
632.973	2527.29167
636.732	2530.29167
640.488	2505.95833
644.241	2478.625
647.991	2477.29167
651.737	2499.29167
655.481	2466.95833
659.222	2466.95833
662.96	2449.29167
666.695	2474.625
670.427	2505.29167
674.156	2502.95833
677.882	2499.95833
681.605	2486.625
685.325	2454.29167
689.043	2470.625
692.757	2443.29167
696.468	2440.95833
700.177	2457.625
703.882	2432.95833
707.585	2421.625
711.284	2399.625
714.981	2404.29167
718.675	2397.29167
722.366	2442.95833
726.054	2407.625
729.739	2412.625
733.421	2422.625
737.1	2400.29167
740.777	2437.29167
744.45	2462.625
748.121	2466.625
751.789	2521.625
755.453	2510.625
759.115	2523.95833
762.774	2545.29167
766.431	2557.625
770.084	2583.625
773.734	2601.95833
777.382	2612.95833
781.027	2641.95833
784.669	2657.95833
788.308	2671.95833
791.944	2692.95833
795.577	2676.29167
799.208	2727.625
802.835	2724.625
806.46	2738.29167
810.082	2762.625
813.701	2765.95833
817.317	2793.95833
820.931	2778.29167
824.542	2781.95833
828.149	2753.625
831.754	2729.625
835.357	2720.625
838.956	2725.95833
842.553	2727.29167
846.146	2712.29167
849.737	2677.95833
853.326	2681.625
856.911	2694.95833
860.493	2738.95833
864.073	2742.625
867.65	2786.95833
871.225	2823.95833
874.796	2798.95833
878.365	2809.95833
881.931	2839.625
885.494	2850.29167
889.054	2877.29167
892.612	2862.29167
896.166	2859.95833
899.719	2839.95833
903.268	2789.29167
906.814	2753.29167
910.358	2733.625
913.899	2699.625
917.438	2716.625
920.973	2700.625
924.506	2754.95833
928.036	2781.95833
931.564	2812.29167
935.088	2840.29167
938.61	2853.625
942.129	2875.95833
945.646	2971.29167
949.16	3001.29167
952.671	3028.95833
956.179	3033.95833
959.685	3004.29167
963.188	2991.95833
966.688	2975.625
970.185	2867.29167
973.68	2840.29167
977.173	2780.95833
980.662	2744.95833
984.149	2761.29167
987.633	2737.625
991.114	2804.95833
994.593	2851.625
998.069	2926.95833
1001.542	2979.95833
1005.013	2927.29167
1008.481	2762.625
1011.947	2745.29167
1015.409	2702.29167
1018.869	2712.625
1022.327	2724.95833
1025.782	2684.29167
1029.234	2694.29167
1032.683	2659.625
1036.13	2598.29167
1039.574	2470.29167
1043.016	2414.29167
1046.455	2390.95833
1049.891	2350.95833
1053.325	2360.95833
1056.756	2353.625
1060.184	2388.625
1063.61	2390.95833
1067.033	2394.29167
1070.454	2394.95833
1073.872	2421.29167
1077.287	2425.29167
1080.7	2417.95833
1084.11	2404.95833
1087.517	2398.95833
1090.922	2376.95833
1094.325	2335.29167
1097.724	2317.29167
1101.122	2313.95833
1104.516	2306.95833
1107.908	2310.95833
1111.298	2345.95833
1114.684	2374.625
1118.069	2407.95833
1121.45	2436.625
1124.83	2454.29167
1128.206	2442.95833
1131.58	2493.95833
1134.951	2543.95833
1138.32	2621.625
1141.687	2732.95833
1145.05	2785.29167
1148.412	2754.95833
1151.77	2741.625
1155.126	2756.95833
1158.48	2713.625
1161.831	2747.29167
1165.18	2746.625
1168.525	2811.625
1171.869	2843.625
1175.21	2852.95833
1178.548	2872.29167
1181.884	2883.95833
1185.217	2926.95833
1188.548	3010.29167
1191.877	3069.95833
1195.202	3161.625
1198.526	3222.95833
1201.846	3246.29167
1205.165	3224.95833
1208.48	3188.625
1211.794	3211.95833
1215.104	3211.95833
1218.413	3213.625
1221.719	3194.95833
1225.022	3185.95833
1228.323	3137.625
1231.621	3083.29167
1234.917	3077.29167
1238.21	3082.95833
1241.501	3087.625
1244.79	3084.95833
1248.076	3064.625
1251.359	3109.625
1254.64	3174.625
1257.919	3171.625
1261.195	3223.625
1264.468	3257.95833
1267.74	3289.95833
1271.008	3313.95833
1274.275	3319.95833
1277.538	3277.95833
1280.8	3290.29167
1284.059	3293.625
1287.315	3304.29167
1290.569	3351.29167
1293.821	3337.95833
1297.07	3388.625
1300.317	3376.625
1303.562	3372.625
1306.803	3335.29167
1310.043	3322.95833
1313.28	3292.95833
1316.515	3261.625
1319.747	3255.95833
1322.977	3204.29167
1326.204	3190.625
1329.429	3133.29167
1332.652	3149.95833
1335.872	3112.625
1339.09	3080.95833
1342.306	3062.625
1345.519	3029.625
1348.729	2996.29167
1351.938	2995.95833
1355.144	2931.95833
1358.347	2882.625
1361.548	2903.625
1364.747	2867.95833
1367.944	2827.29167
1371.138	2856.29167
1374.329	2880.29167
1377.518	2904.95833
1380.705	2940.29167
1383.89	2889.29167
1387.072	2791.29167
1390.252	2704.95833
1393.429	2592.29167
1396.605	2543.95833
1399.777	2446.625
1402.948	2433.29167
1406.116	2431.625
1409.282	2446.95833
1412.445	2457.625
1415.606	2478.625
1418.765	2492.625
1421.921	2567.29167
1425.075	2584.29167
1428.227	2677.29167
1431.376	2797.625
1434.524	2862.95833
1437.668	2947.625
1440.811	2969.29167
1443.951	3014.95833
1447.089	3013.95833
1450.224	3019.95833
1453.357	2985.95833
1456.488	2969.95833
1459.617	2914.625
1462.743	2865.95833
1465.867	2787.29167
1468.989	2750.29167
1472.108	2698.625
1475.225	2665.29167
1478.34	2646.29167
1481.453	2626.625
1484.563	2633.29167
1487.671	2662.625
1490.776	2703.95833
1493.88	2733.95833
1496.981	2761.29167
1500.08	2819.625
1503.176	2853.625
1506.271	2885.95833
1509.363	2924.625
1512.452	2941.95833
1515.54	2989.29167
1518.625	2999.29167
1521.708	3087.625
1524.789	3187.625
1527.867	3308.625
1530.944	3497.95833
1534.018	3633.625
1537.089	3785.95833
1540.159	3844.625
1543.226	3845.29167
1546.291	3776.625
1549.354	3702.29167
1552.415	3607.625
1555.473	3535.95833
1558.529	3442.625
1561.583	3417.95833
1564.634	3367.95833
1567.684	3391.29167
1570.731	3388.29167
1573.776	3440.625
1576.819	3475.95833
1579.859	3518.29167
1582.898	3563.625
1585.934	3582.625
1588.968	3605.625
1591.999	3579.95833
1595.029	3593.95833
1598.056	3624.625
1601.081	3626.625
1604.104	3620.625
1607.125	3590.95833
1610.144	3496.29167
1613.16	3438.95833
1616.174	3346.95833
1619.186	3260.95833
1622.196	3187.95833
1625.203	3108.625
1628.209	3041.625
1631.212	3031.625
1634.213	3016.625
1637.212	2995.95833
1640.209	2967.625
1643.203	2885.625
1646.196	2805.625
1649.186	2689.29167
1652.174	2602.625
1655.16	2508.95833
1658.144	2442.95833
1661.125	2328.95833
1664.105	2248.29167
1667.082	2158.95833
1670.057	2049.95833
1673.03	1905.625
1676.001	1778.29167
1678.97	1673.625
1681.937	1573.29167
1684.901	1482.95833
1687.863	1456.95833
1690.824	1392.29167
1693.782	1354.625
1696.738	1290.29167
1699.692	1262.625
1702.643	1254.625
1705.593	1221.95833
1708.54	1218.95833
1711.486	1205.625
1714.429	1172.29167
1717.37	1176.29167
1720.309	1145.625
1723.246	1158.95833
1726.181	1111.95833
1729.113	1109.95833
1732.044	1118.29167
1734.972	1106.29167
1737.899	1119.29167
1740.823	1101.625
1743.745	1067.29167
1746.665	1051.625
1749.583	1044.29167
1752.499	1030.29167
1755.413	1027.95833
1758.325	993.625
1761.235	1009.625
1764.142	983.29167
1767.048	951.29167
1769.951	954.95833
1772.852	956.625
1775.752	945.625
1778.649	948.95833
1781.544	948.29167
1784.437	913.29167
1787.328	929.625
1790.217	919.29167
1793.104	897.625
1795.989	895.95833
1798.872	893.29167
1801.753	902.95833
1804.631	910.625
1807.508	896.95833
1810.383	903.625
1813.255	891.95833
1816.126	889.29167
1818.994	891.29167
1821.861	872.625
1824.725	874.95833
1827.587	870.29167
1830.448	873.29167
1833.306	850.625
1836.162	854.625
1839.017	839.95833
1841.869	834.625
1844.719	843.95833
1847.567	813.625
1850.414	819.95833
1853.258	820.625
1856.1	837.29167
1858.94	846.625
1861.778	817.625
1864.614	814.95833
1867.448	827.625
1870.28	808.29167
1873.111	835.29167
1875.939	823.625
1878.765	832.95833
1881.589	823.625
1884.411	824.29167
1887.231	814.625
1890.049	807.625
1892.865	814.29167
1895.68	793.29167
1898.492	805.625
1901.302	798.29167
1904.11	803.95833
1906.916	774.625
1909.721	778.95833
1912.523	776.95833
1915.323	758.29167
1918.122	772.625
1920.918	776.29167
1923.712	775.625
1926.505	765.625
1929.295	752.95833
1932.084	771.29167
1934.87	768.95833
1937.655	764.29167
1940.438	764.29167
1943.218	764.95833
1945.997	767.95833
1948.774	764.95833
1951.549	771.625
1954.322	752.29167
1957.093	754.29167
1959.862	739.95833
1962.629	735.95833
1965.394	754.95833
1968.157	733.29167
1970.918	732.625
1973.678	730.625
1976.435	743.625
1979.19	722.95833
1981.944	720.29167
1984.696	716.95833
1987.445	705.95833
1990.193	713.95833
1992.939	731.95833
1995.683	721.29167
1998.425	705.29167
2001.165	730.95833
2003.903	712.29167
2006.639	708.29167
2009.374	722.625
2012.106	707.625
2014.837	696.29167
2017.566	707.29167
2020.292	702.95833
2023.017	713.95833
2025.74	708.95833
2028.461	689.95833
2031.18	686.95833
2033.898	698.625
2036.613	690.625
2039.327	701.95833
2042.038	677.29167
2044.748	680.29167
2047.456	689.95833
2050.162	668.625
2052.866	667.95833
2055.568	687.29167
2058.268	676.625
2060.967	675.625
2063.663	668.625
2066.358	674.29167
2069.051	662.95833
2071.742	676.29167
2074.431	676.29167
2077.118	666.625
2079.804	661.625
2082.487	665.95833
2085.169	679.95833
2087.849	688.29167
2090.527	652.29167
2093.203	666.95833
2095.877	685.29167
2098.55	688.625
2101.22	692.29167
2103.889	698.29167
2106.556	703.29167
2109.221	717.29167
2111.884	736.95833
2114.546	786.29167
2117.205	839.95833
2119.863	907.625
2122.519	935.95833
2125.173	1010.95833
2127.825	1055.29167
2130.475	1043.29167
2133.124	1021.95833
2135.771	968.29167
2138.416	934.29167
2141.059	878.95833
2143.7	845.29167
2146.339	789.29167
2148.977	746.625
2151.613	739.29167
2154.247	723.29167
2156.879	702.29167
2159.51	686.29167
2162.138	674.29167
2164.765	671.29167
2167.39	652.625
2170.013	665.95833
2172.634	656.95833
2175.254	652.625
2177.872	680.29167
2180.488	632.29167
2183.102	637.95833
2185.714	619.625
2188.325	607.95833
2190.934	612.625
2193.541	623.95833
2196.146	604.29167
2198.75	592.29167
2201.351	586.95833
2203.951	586.29167
2206.549	603.625
2209.146	593.625
2211.74	586.625
2214.333	600.625
2216.924	570.95833
2219.514	587.625
2222.101	572.95833
2224.687	599.95833
2227.271	581.95833
2229.853	567.29167
2232.433	552.95833
2235.012	580.625
2237.589	573.625
2240.164	588.29167
2242.738	575.29167
2245.309	551.95833
2247.879	576.625
2250.448	576.625
2253.014	557.95833
2255.579	538.95833
2258.142	545.29167
2260.703	538.95833
2263.262	541.95833
2265.82	539.29167
2268.376	538.95833
2270.93	528.95833
2273.483	531.95833
2276.033	537.29167
2278.583	536.625
2281.13	524.29167
2283.675	517.625
2286.219	519.625
2288.761	522.95833
2291.302	520.95833
2293.841	530.625
2296.377	511.625
2298.913	528.29167
2301.446	521.95833
2303.978	521.95833
2306.508	503.625
2309.037	520.95833
2311.563	524.625
2314.088	523.625
2316.612	502.29167
2319.133	511.29167
2321.653	509.29167
2324.171	505.95833
2326.688	527.625
2329.202	503.625
2331.715	504.29167
2334.227	505.625
2336.736	512.625
2339.244	498.95833
2341.751	491.29167
2344.255	505.625
2346.758	497.29167
2349.259	482.625
2351.759	485.95833
2354.257	494.95833
2356.753	482.29167
2359.247	498.95833
2361.74	496.29167
2364.231	492.29167
2366.721	494.625
2369.209	489.625
2371.695	491.95833
2374.179	488.95833
2376.662	480.625
2379.143	491.625
2381.622	486.29167
2384.1	492.29167
2386.576	479.95833
2389.051	495.29167
2391.524	506.625
2393.995	494.95833
2396.464	476.625
2398.932	482.29167
2401.398	478.625
2403.863	481.625
2406.325	480.95833
2408.787	489.625
2411.246	477.95833
2413.704	488.29167
2416.16	479.625
2418.615	471.95833
2421.068	488.95833
2423.519	488.29167
2425.969	480.625
2428.417	482.625
2430.863	504.95833
2433.308	496.29167
2435.751	490.625
2438.193	477.29167
2440.633	479.625
2443.071	493.29167
2445.508	471.29167
2447.943	480.95833
2450.376	474.29167
2452.808	479.95833
2455.238	475.625
2457.667	503.29167
2460.093	471.625
2462.519	464.95833
2464.942	476.95833
2467.365	483.29167
2469.785	483.625
2472.204	466.95833
2474.621	459.29167
2477.037	487.29167
2479.451	461.29167
2481.863	463.95833
2484.274	467.29167
2486.683	478.29167
2489.091	479.95833
2491.497	469.95833
2493.901	483.29167
2496.304	465.29167
2498.705	467.625
2501.105	470.95833
2503.503	502.29167
2505.899	458.95833
2508.294	481.625
2510.687	471.95833
2513.079	475.29167
2515.469	464.95833
2517.858	473.95833
2520.245	480.625
2522.63	463.95833
2525.014	454.625
2527.396	470.625
2529.776	454.29167
2532.156	476.29167
2534.533	462.95833
2536.909	462.95833
2539.283	453.625
2541.656	459.95833
2544.027	479.95833
2546.397	463.625
2548.765	461.95833
2551.131	463.95833
2553.496	470.95833
2555.86	468.625
2558.221	472.95833
2560.582	462.625
2562.94	461.95833
2565.298	458.625
2567.653	477.625
2570.007	461.95833
2572.36	474.95833
2574.711	466.625
2577.06	482.95833
2579.408	476.29167
2581.754	469.29167
2584.099	473.29167
2586.442	460.29167
2588.784	467.625
2591.124	474.29167
2593.463	473.29167
2595.8	479.29167
2598.135	467.95833
2600.469	470.29167
2602.802	484.29167
2605.133	485.29167
2607.462	464.625
2609.79	461.625
2612.116	480.95833
2614.441	480.95833
2616.764	466.29167
2619.086	480.29167
2621.406	464.625
2623.725	479.95833
2626.042	480.95833
2628.358	474.95833
2630.672	468.95833
2632.985	488.95833
2635.296	481.625
2637.606	480.625
2639.914	472.95833
2642.22	479.29167
2644.525	487.625
2646.829	489.625
2649.131	505.95833
2651.432	502.29167
2653.731	493.625
2656.028	502.625
2658.324	510.625
2660.619	492.625
2662.912	504.29167
2665.204	486.625
2667.494	497.625
2669.782	490.29167
2672.07	500.625
2674.355	505.29167
2676.639	493.29167
2678.922	489.95833
2681.203	504.95833
2683.483	493.95833
2685.761	495.29167
2688.038	509.625
2690.313	514.29167
2692.587	507.29167
2694.859	497.95833
2697.13	516.625
2699.399	519.29167
2701.667	522.95833
2703.933	518.95833
2706.198	524.29167
2708.461	530.625
2710.723	529.95833
2712.984	528.625
2715.243	533.95833
2717.5	524.29167
2719.757	548.29167
2722.011	533.625
2724.264	543.95833
2726.516	558.95833
2728.766	536.625
2731.015	552.29167
2733.262	554.625
2735.508	550.95833
2737.753	549.95833
2739.996	539.29167
2742.237	532.29167
2744.477	547.95833
2746.716	545.625
2748.953	528.95833
2751.189	538.95833
2753.423	531.29167
2755.656	524.29167
2757.887	523.95833
2760.117	525.95833
2762.346	520.95833
2764.573	523.29167
2766.798	527.95833
2769.022	526.29167
2771.245	530.95833
2773.467	534.95833
2775.686	546.95833
2777.905	541.95833
2780.122	548.95833
2782.337	546.625
2784.552	552.29167
2786.764	544.625
2788.976	567.625
2791.186	565.95833
2793.394	575.625
2795.601	573.625
2797.807	578.95833
2800.011	589.95833
2802.214	590.625
2804.415	590.625
2806.615	599.625
2808.814	591.95833
2811.011	609.29167
2813.206	592.625
2815.401	610.29167
2817.594	623.29167
2819.785	637.29167
2821.975	624.625
2824.164	626.625
2826.351	635.95833
2828.537	657.625
2830.722	671.29167
2832.905	675.95833
2835.086	699.625
2837.267	722.95833
2839.445	731.625
2841.623	745.625
2843.799	775.625
2845.974	807.95833
2848.147	821.625
2850.319	845.29167
2852.489	866.95833
2854.659	878.95833
2856.826	883.625
2858.993	913.29167
2861.158	892.625
2863.321	890.95833
2865.483	903.95833
2867.644	911.95833
2869.804	912.625
2871.962	925.625
2874.118	918.29167
2876.274	906.95833
2878.428	902.625
2880.58	896.625
2882.731	891.95833
2884.881	909.29167
2887.03	900.625
2889.177	897.29167
2891.322	909.29167
2893.467	912.29167
2895.61	910.95833
2897.751	928.95833
2899.892	920.29167
2902.03	925.29167
2904.168	932.95833
2906.304	917.625
2908.439	972.29167
2910.572	940.95833
2912.704	952.625
2914.835	949.95833
2916.965	937.625
2919.093	960.29167
2921.219	938.95833
2923.345	948.625
2925.469	928.95833
2927.591	939.95833
2929.712	897.95833
2931.832	891.95833
2933.951	877.95833
2936.068	861.29167
2938.184	851.29167
2940.299	835.29167
2942.412	819.625
2944.524	783.95833
2946.634	790.625
2948.744	747.95833
2950.851	774.29167
2952.958	732.625
2955.063	732.29167
2957.167	730.625
2959.269	703.625
2961.371	722.29167
2963.471	693.95833
2965.569	697.29167
2967.666	670.625
2969.762	659.95833
2971.857	656.625
2973.95	641.95833
2976.042	641.29167
2978.133	623.95833
2980.222	617.625
2982.31	602.95833
2984.396	586.29167
2986.482	593.95833
2988.566	584.625
2990.648	578.29167
2992.73	571.29167
2994.81	559.95833
2996.889	566.29167
2998.966	568.625
3001.042	571.625
3003.117	559.625
3005.191	559.95833
3007.263	555.29167
3009.334	543.95833
3011.403	554.29167
3013.472	538.625
3015.539	536.95833
3017.604	544.29167
3019.669	511.95833
3021.732	507.29167
3023.794	509.95833
3025.854	518.95833
3027.914	508.95833
3029.971	512.95833
3032.028	505.95833
3034.083	509.625
3036.137	492.625
3038.19	482.29167
3040.242	472.625
3042.292	464.625
3044.341	456.625
3046.388	475.29167
3048.435	454.29167
3050.48	463.95833
3052.524	456.95833
3054.566	445.625
3056.607	448.95833
3058.647	447.625
3060.686	416.625
3062.723	422.625
3064.759	400.625
3066.794	-1.375
3068.828	2.95833
3070.86	2.95833
