-0.839	532.29167
3.438	645.29167
7.711	188.29167
11.981	63.29167
16.247	45.29167
20.509	48.29167
24.768	43.625
29.024	52.95833
33.276	40.95833
37.524	51.29167
41.769	45.95833
46.01	31.29167
50.247	44.29167
54.481	54.29167
58.712	63.625
62.939	42.625
67.162	60.625
71.382	55.29167
75.599	43.625
79.812	61.625
84.021	76.29167
88.227	56.95833
92.429	56.95833
96.628	48.625
100.823	67.29167
105.015	70.625
109.204	66.29167
113.388	71.95833
117.57	69.29167
121.748	80.625
125.922	74.29167
130.093	96.29167
134.261	96.29167
138.425	88.29167
142.585	128.95833
146.742	120.29167
150.896	145.95833
155.046	180.95833
159.193	278.95833
163.336	472.95833
167.476	870.29167
171.613	1602.95833
175.746	2658.95833
179.875	3960.29167
184.002	5193.95833
188.124	6044.29167
192.244	6290.29167
196.36	6207.29167
200.472	5989.625
204.581	5760.95833
208.687	5540.29167
212.79	5460.95833
216.889	5420.625
220.984	5391.29167
225.077	5343.95833
229.165	5311.95833
233.251	5275.625
237.333	5209.95833
241.412	5128.29167
245.487	5070.625
249.559	5007.29167
253.628	4924.95833
257.694	4888.95833
261.756	4842.625
265.814	4708.29167
269.87	4582.95833
273.922	4438.29167
277.97	4374.29167
282.016	4314.625
286.058	4370.29167
290.097	4411.95833
294.132	4456.625
298.164	4409.95833
302.193	4220.29167
306.219	3890.29167
310.241	3648.29167
314.26	3375.625
318.276	3165.95833
322.288	3039.29167
326.297	2933.95833
330.303	2827.29167
334.305	2771.29167
338.305	2735.625
342.301	2682.625
346.294	2668.29167
350.283	2655.625
354.269	2615.625
358.252	2614.95833
362.232	2599.95833
366.209	2575.95833
370.182	2527.29167
374.152	2559.29167
378.119	2555.625
382.083	2542.29167
386.043	2565.625
390	2513.29167
393.954	2537.625
397.905	2529.625
401.852	2501.29167
405.797	2494.29167
409.738	2493.95833
413.676	2503.95833
417.61	2483.95833
421.542	2445.95833
425.47	2442.29167
429.396	2425.95833
433.318	2409.625
437.236	2394.95833
441.152	2417.95833
445.065	2353.625
448.974	2361.95833
452.88	2338.625
456.783	2315.95833
460.683	2313.29167
464.58	2305.95833
468.473	2315.625
472.364	2322.625
476.251	2335.29167
480.135	2349.95833
484.016	2398.625
487.894	2404.95833
491.769	2416.29167
495.641	2416.625
499.509	2405.95833
503.375	2444.625
507.237	2434.29167
511.096	2454.95833
514.952	2587.625
518.805	2729.95833
522.655	2792.95833
526.502	2596.95833
530.346	2440.95833
534.187	2416.625
538.024	2413.29167
541.859	2428.625
545.69	2428.625
549.519	2416.625
553.344	2390.29167
557.166	2364.29167
560.985	2334.95833
564.802	2306.29167
568.615	2267.95833
572.425	2238.625
576.232	2228.625
580.036	2218.625
583.836	2226.95833
587.634	2244.29167
591.429	2240.625
595.221	2292.29167
599.01	2318.29167
602.796	2321.95833
606.578	2363.625
610.358	2354.29167
614.135	2315.29167
617.909	2331.625
621.679	2289.29167
625.447	2276.625
629.212	2300.625
632.973	2283.95833
636.732	2274.95833
640.488	2288.29167
644.241	2244.29167
647.991	2244.95833
651.737	2265.29167
655.481	2241.95833
659.222	2233.625
662.96	2217.29167
666.695	2250.625
670.427	2245.29167
674.156	2277.95833
677.882	2267.95833
681.605	2242.95833
685.325	2221.95833
689.043	2231.29167
692.757	2207.95833
696.468	2230.95833
700.177	2208.625
703.882	2207.95833
707.585	2186.625
711.284	2180.95833
714.981	2171.95833
718.675	2171.625
722.366	2189.95833
726.054	2166.29167
729.739	2179.95833
733.421	2186.625
737.1	2173.625
740.777	2203.625
744.45	2212.95833
748.121	2207.95833
751.789	2259.29167
755.453	2239.29167
759.115	2275.625
762.774	2279.625
766.431	2271.29167
770.084	2308.29167
773.734	2299.95833
777.382	2357.625
781.027	2368.625
784.669	2352.625
788.308	2389.29167
791.944	2389.95833
795.577	2409.29167
799.208	2426.625
802.835	2450.625
806.46	2449.625
810.082	2463.95833
813.701	2461.625
817.317	2493.625
820.931	2471.95833
824.542	2464.95833
828.149	2456.29167
831.754	2411.29167
835.357	2429.29167
838.956	2427.29167
842.553	2427.29167
846.146	2415.29167
849.737	2376.95833
853.326	2399.29167
856.911	2377.625
860.493	2400.625
864.073	2413.29167
867.65	2458.95833
871.225	2492.95833
874.796	2483.29167
878.365	2484.625
881.931	2511.625
885.494	2544.625
889.054	2536.95833
892.612	2550.625
896.166	2542.29167
899.719	2520.95833
903.268	2479.29167
906.814	2459.29167
910.358	2418.95833
913.899	2392.95833
917.438	2427.29167
920.973	2384.95833
924.506	2427.625
928.036	2462.625
931.564	2490.29167
935.088	2548.625
938.61	2537.95833
942.129	2565.29167
945.646	2615.95833
949.16	2652.29167
952.671	2663.625
956.179	2682.625
959.685	2639.625
963.188	2624.625
966.688	2602.95833
970.185	2528.95833
973.68	2507.625
977.173	2442.95833
980.662	2414.95833
984.149	2422.625
987.633	2407.95833
991.114	2437.95833
994.593	2486.29167
998.069	2536.29167
1001.542	2601.625
1005.013	2558.625
1008.481	2429.625
1011.947	2401.29167
1015.409	2391.625
1018.869	2381.95833
1022.327	2389.95833
1025.782	2347.95833
1029.234	2358.29167
1032.683	2335.625
1036.13	2272.29167
1039.574	2166.29167
1043.016	2128.95833
1046.455	2088.95833
1049.891	2055.95833
1053.325	2058.29167
1056.756	2074.29167
1060.184	2110.95833
1063.61	2110.95833
1067.033	2102.95833
1070.454	2099.29167
1073.872	2125.95833
1077.287	2124.625
1080.7	2135.95833
1084.11	2124.95833
1087.517	2109.625
1090.922	2085.29167
1094.325	2055.29167
1097.724	2041.29167
1101.122	2054.29167
1104.516	2026.95833
1107.908	2039.29167
1111.298	2083.625
1114.684	2091.29167
1118.069	2124.95833
1121.45	2150.95833
1124.83	2143.625
1128.206	2168.95833
1131.58	2199.95833
1134.951	2223.95833
1138.32	2303.29167
1141.687	2386.95833
1145.05	2433.625
1148.412	2422.95833
1151.77	2426.625
1155.126	2404.625
1158.48	2391.95833
1161.831	2402.95833
1165.18	2418.625
1168.525	2439.29167
1171.869	2456.29167
1175.21	2467.625
1178.548	2524.625
1181.884	2537.95833
1185.217	2553.625
1188.548	2631.625
1191.877	2659.95833
1195.202	2756.95833
1198.526	2816.625
1201.846	2822.29167
1205.165	2811.625
1208.48	2838.29167
1211.794	2799.95833
1215.104	2809.625
1218.413	2829.95833
1221.719	2800.95833
1225.022	2776.625
1228.323	2734.625
1231.621	2717.95833
1234.917	2679.95833
1238.21	2696.625
1241.501	2689.29167
1244.79	2675.625
1248.076	2665.625
1251.359	2703.95833
1254.64	2770.29167
1257.919	2764.95833
1261.195	2819.625
1264.468	2817.625
1267.74	2872.625
1271.008	2910.29167
1274.275	2880.95833
1277.538	2874.95833
1280.8	2849.95833
1284.059	2829.625
1287.315	2882.95833
1290.569	2886.95833
1293.821	2907.625
1297.07	2933.29167
1300.317	2945.625
1303.562	2942.29167
1306.803	2933.29167
1310.043	2892.29167
1313.28	2847.29167
1316.515	2877.95833
1319.747	2859.95833
1322.977	2815.95833
1326.204	2801.29167
1329.429	2768.95833
1332.652	2778.95833
1335.872	2737.95833
1339.09	2717.625
1342.306	2684.95833
1345.519	2659.29167
1348.729	2611.625
1351.938	2611.29167
1355.144	2584.95833
1358.347	2548.625
1361.548	2534.625
1364.747	2527.625
1367.944	2490.29167
1371.138	2504.625
1374.329	2503.625
1377.518	2541.95833
1380.705	2553.625
1383.89	2511.29167
1387.072	2448.625
1390.252	2376.29167
1393.429	2298.29167
1396.605	2211.29167
1399.777	2167.625
1402.948	2170.29167
1406.116	2141.29167
1409.282	2151.29167
1412.445	2152.29167
1415.606	2171.95833
1418.765	2204.29167
1421.921	2235.29167
1425.075	2262.95833
1428.227	2331.95833
1431.376	2422.625
1434.524	2514.95833
1437.668	2576.625
1440.811	2607.625
1443.951	2640.625
1447.089	2639.95833
1450.224	2628.625
1453.357	2609.29167
1456.488	2575.29167
1459.617	2543.625
1462.743	2510.95833
1465.867	2435.95833
1468.989	2402.625
1472.108	2355.625
1475.225	2312.625
1478.34	2281.95833
1481.453	2311.95833
1484.563	2314.95833
1487.671	2312.625
1490.776	2349.95833
1493.88	2384.29167
1496.981	2423.29167
1500.08	2447.95833
1503.176	2451.29167
1506.271	2506.95833
1509.363	2541.29167
1512.452	2559.29167
1515.54	2595.95833
1518.625	2637.95833
1521.708	2684.625
1524.789	2765.29167
1527.867	2864.95833
1530.944	2997.95833
1534.018	3122.95833
1537.089	3257.95833
1540.159	3298.29167
1543.226	3303.95833
1546.291	3254.29167
1549.354	3180.625
1552.415	3106.29167
1555.473	3035.95833
1558.529	2968.29167
1561.583	2964.625
1564.634	2927.29167
1567.684	2937.95833
1570.731	2925.95833
1573.776	2975.29167
1576.819	3002.625
1579.859	3033.625
1582.898	3055.95833
1585.934	3109.625
1588.968	3120.29167
1591.999	3093.625
1595.029	3138.95833
1598.056	3141.95833
1601.081	3163.625
1604.104	3150.625
1607.125	3122.95833
1610.144	3078.29167
1613.16	3000.29167
1616.174	2941.625
1619.186	2862.95833
1622.196	2788.625
1625.203	2727.625
1628.209	2673.625
1631.212	2642.29167
1634.213	2668.625
1637.212	2639.625
1640.209	2622.95833
1643.203	2533.95833
1646.196	2458.625
1649.186	2358.95833
1652.174	2290.95833
1655.16	2206.625
1658.144	2155.95833
1661.125	2065.95833
1664.105	1974.95833
1667.082	1889.95833
1670.057	1805.625
1673.03	1690.625
1676.001	1602.625
1678.97	1505.95833
1681.937	1419.95833
1684.901	1342.625
1687.863	1303.625
1690.824	1243.625
1693.782	1225.29167
1696.738	1179.625
1699.692	1143.625
1702.643	1111.625
1705.593	1103.29167
1708.54	1111.625
1711.486	1107.29167
1714.429	1063.625
1717.37	1060.95833
1720.309	1043.625
1723.246	1051.95833
1726.181	1014.95833
1729.113	1021.29167
1732.044	1008.625
1734.972	993.625
1737.899	1009.95833
1740.823	992.29167
1743.745	961.95833
1746.665	964.29167
1749.583	951.29167
1752.499	937.95833
1755.413	932.29167
1758.325	907.95833
1761.235	908.95833
1764.142	896.625
1767.048	885.29167
1769.951	879.625
1772.852	869.29167
1775.752	874.95833
1778.649	866.95833
1781.544	878.29167
1784.437	848.625
1787.328	865.29167
1790.217	856.625
1793.104	824.625
1795.989	830.625
1798.872	824.95833
1801.753	838.95833
1804.631	827.95833
1807.508	843.95833
1810.383	819.625
1813.255	815.625
1816.126	814.29167
1818.994	829.95833
1821.861	812.625
1824.725	813.625
1827.587	813.29167
1830.448	800.29167
1833.306	788.625
1836.162	790.29167
1839.017	786.95833
1841.869	782.95833
1844.719	783.29167
1847.567	771.625
1850.414	771.625
1853.258	771.29167
1856.1	776.29167
1858.94	788.29167
1861.778	787.625
1864.614	773.29167
1867.448	768.95833
1870.28	759.625
1873.111	790.95833
1875.939	766.625
1878.765	793.29167
1881.589	768.625
1884.411	766.625
1887.231	768.625
1890.049	760.625
1892.865	766.95833
1895.68	756.625
1898.492	760.625
1901.302	755.95833
1904.11	747.29167
1906.916	742.95833
1909.721	737.625
1912.523	739.95833
1915.323	731.625
1918.122	739.625
1920.918	739.29167
1923.712	717.95833
1926.505	730.625
1929.295	735.29167
1932.084	734.625
1934.87	734.29167
1937.655	723.29167
1940.438	723.29167
1943.218	731.625
1945.997	739.625
1948.774	739.625
1951.549	740.29167
1954.322	708.29167
1957.093	730.95833
1959.862	712.625
1962.629	712.625
1965.394	709.29167
1968.157	701.95833
1970.918	713.29167
1973.678	702.625
1976.435	710.29167
1979.19	692.29167
1981.944	705.625
1984.696	694.29167
1987.445	681.625
1990.193	710.95833
1992.939	707.95833
1995.683	698.29167
1998.425	675.95833
2001.165	716.625
2003.903	692.95833
2006.639	700.29167
2009.374	706.625
2012.106	687.29167
2014.837	667.29167
2017.566	700.625
2020.292	697.29167
2023.017	695.95833
2025.74	696.29167
2028.461	676.29167
2031.18	683.95833
2033.898	672.95833
2036.613	670.29167
2039.327	678.95833
2042.038	670.95833
2044.748	672.95833
2047.456	680.29167
2050.162	668.625
2052.866	682.625
2055.568	679.625
2058.268	658.95833
2060.967	676.29167
2063.663	661.95833
2066.358	666.95833
2069.051	661.29167
2071.742	669.625
2074.431	678.95833
2077.118	671.625
2079.804	655.29167
2082.487	669.29167
2085.169	680.29167
2087.849	688.95833
2090.527	670.625
2093.203	683.625
2095.877	696.29167
2098.55	691.95833
2101.22	694.95833
2103.889	699.29167
2106.556	712.95833
2109.221	730.95833
2111.884	732.29167
2114.546	777.29167
2117.205	819.95833
2119.863	898.29167
2122.519	915.625
2125.173	993.95833
2127.825	1026.29167
2130.475	1030.95833
2133.124	973.95833
2135.771	956.95833
2138.416	927.95833
2141.059	860.95833
2143.7	838.29167
2146.339	803.29167
2148.977	757.95833
2151.613	749.95833
2154.247	730.29167
2156.879	729.625
2159.51	702.95833
2162.138	691.95833
2164.765	699.95833
2167.39	674.95833
2170.013	703.29167
2172.634	691.95833
2175.254	684.625
2177.872	700.95833
2180.488	658.95833
2183.102	679.625
2185.714	667.95833
2188.325	650.625
2190.934	655.625
2193.541	667.625
2196.146	648.29167
2198.75	642.95833
2201.351	646.95833
2203.951	633.29167
2206.549	653.29167
2209.146	638.95833
2211.74	637.95833
2214.333	637.29167
2216.924	617.29167
2219.514	650.95833
2222.101	626.625
2224.687	641.95833
2227.271	629.29167
2229.853	623.625
2232.433	613.95833
2235.012	635.29167
2237.589	636.29167
2240.164	644.625
2242.738	627.95833
2245.309	625.95833
2247.879	621.95833
2250.448	642.95833
2253.014	616.29167
2255.579	605.29167
2258.142	603.625
2260.703	607.625
2263.262	619.625
2265.82	604.625
2268.376	620.625
2270.93	597.625
2273.483	599.95833
2276.033	612.625
2278.583	597.29167
2281.13	604.29167
2283.675	603.29167
2286.219	612.29167
2288.761	605.95833
2291.302	600.625
2293.841	614.95833
2296.377	600.95833
2298.913	610.625
2301.446	620.625
2303.978	606.95833
2306.508	591.625
2309.037	616.625
2311.563	599.29167
2314.088	612.625
2316.612	584.29167
2319.133	599.625
2321.653	602.95833
2324.171	596.625
2326.688	618.29167
2329.202	609.95833
2331.715	608.625
2334.227	596.625
2336.736	615.29167
2339.244	601.625
2341.751	592.29167
2344.255	608.625
2346.758	600.625
2349.259	599.95833
2351.759	606.29167
2354.257	604.625
2356.753	600.95833
2359.247	603.95833
2361.74	609.29167
2364.231	597.95833
2366.721	610.95833
2369.209	606.625
2371.695	609.625
2374.179	607.29167
2376.662	609.625
2379.143	623.95833
2381.622	597.625
2384.1	623.29167
2386.576	612.29167
2389.051	636.29167
2391.524	635.625
2393.995	616.95833
2396.464	619.29167
2398.932	612.95833
2401.398	617.29167
2403.863	619.29167
2406.325	614.29167
2408.787	615.95833
2411.246	614.625
2413.704	623.625
2416.16	624.29167
2418.615	622.29167
2421.068	633.29167
2423.519	646.29167
2425.969	623.625
2428.417	637.29167
2430.863	657.29167
2433.308	641.29167
2435.751	633.29167
2438.193	634.95833
2440.633	637.625
2443.071	637.95833
2445.508	631.625
2447.943	626.625
2450.376	638.29167
2452.808	633.29167
2455.238	644.29167
2457.667	681.625
2460.093	634.95833
2462.519	642.95833
2464.942	639.95833
2467.365	647.625
2469.785	663.95833
2472.204	651.95833
2474.621	648.95833
2477.037	667.95833
2479.451	643.29167
2481.863	635.625
2484.274	645.29167
2486.683	655.29167
2489.091	670.29167
2491.497	658.29167
2493.901	663.29167
2496.304	657.625
2498.705	665.625
2501.105	670.29167
2503.503	687.95833
2505.899	655.29167
2508.294	680.625
2510.687	664.625
2513.079	666.29167
2515.469	663.95833
2517.858	681.95833
2520.245	683.29167
2522.63	666.29167
2525.014	672.95833
2527.396	665.625
2529.776	659.625
2532.156	680.625
2534.533	684.29167
2536.909	675.29167
2539.283	649.29167
2541.656	680.625
2544.027	699.29167
2546.397	685.625
2548.765	668.29167
2551.131	678.29167
2553.496	689.625
2555.86	701.29167
2558.221	687.95833
2560.582	690.95833
2562.94	680.625
2565.298	694.95833
2567.653	701.625
2570.007	689.29167
2572.36	706.625
2574.711	692.29167
2577.06	718.95833
2579.408	723.95833
2581.754	711.29167
2584.099	719.95833
2586.442	700.29167
2588.784	726.95833
2591.124	723.625
2593.463	713.625
2595.8	728.95833
2598.135	711.95833
2600.469	713.625
2602.802	745.625
2605.133	735.625
2607.462	718.625
2609.79	719.95833
2612.116	736.95833
2614.441	744.95833
2616.764	730.625
2619.086	734.29167
2621.406	732.29167
2623.725	765.29167
2626.042	748.625
2628.358	734.95833
2630.672	746.625
2632.985	759.29167
2635.296	755.29167
2637.606	759.625
2639.914	745.95833
2642.22	767.95833
2644.525	760.625
2646.829	764.625
2649.131	782.625
2651.432	796.29167
2653.731	781.29167
2656.028	786.95833
2658.324	798.625
2660.619	783.625
2662.912	796.29167
2665.204	784.29167
2667.494	805.29167
2669.782	776.95833
2672.07	802.625
2674.355	801.95833
2676.639	801.29167
2678.922	793.95833
2681.203	805.29167
2683.483	785.95833
2685.761	786.95833
2688.038	807.625
2690.313	827.95833
2692.587	811.29167
2694.859	808.95833
2697.13	823.29167
2699.399	825.625
2701.667	846.95833
2703.933	834.29167
2706.198	840.29167
2708.461	844.625
2710.723	847.95833
2712.984	842.95833
2715.243	863.625
2717.5	842.29167
2719.757	870.95833
2722.011	858.95833
2724.264	865.625
2726.516	890.29167
2728.766	876.29167
2731.015	884.95833
2733.262	877.625
2735.508	885.29167
2737.753	889.625
2739.996	878.29167
2742.237	878.625
2744.477	879.625
2746.716	883.95833
2748.953	876.95833
2751.189	882.625
2753.423	872.625
2755.656	873.95833
2757.887	864.29167
2760.117	872.95833
2762.346	862.95833
2764.573	869.95833
2766.798	870.95833
2769.022	869.29167
2771.245	879.29167
2773.467	888.29167
2775.686	891.95833
2777.905	896.95833
2780.122	898.29167
2782.337	922.29167
2784.552	898.625
2786.764	900.29167
2788.976	920.625
2791.186	924.625
2793.394	931.29167
2795.601	939.625
2797.807	952.29167
2800.011	951.625
2802.214	956.95833
2804.415	964.625
2806.615	949.95833
2808.814	963.625
2811.011	976.29167
2813.206	966.29167
2815.401	983.95833
2817.594	983.95833
2819.785	990.95833
2821.975	980.625
2824.164	990.625
2826.351	999.95833
2828.537	1015.29167
2830.722	1019.29167
2832.905	1028.29167
2835.086	1056.29167
2837.267	1071.29167
2839.445	1091.29167
2841.623	1106.625
2843.799	1115.95833
2845.974	1157.29167
2848.147	1182.625
2850.319	1211.29167
2852.489	1224.29167
2854.659	1237.95833
2856.826	1243.29167
2858.993	1276.625
2861.158	1254.95833
2863.321	1267.95833
2865.483	1276.95833
2867.644	1263.625
2869.804	1256.95833
2871.962	1257.95833
2874.118	1264.95833
2876.274	1254.29167
2878.428	1244.95833
2880.58	1251.95833
2882.731	1251.625
2884.881	1246.95833
2887.03	1250.29167
2889.177	1270.29167
2891.322	1268.625
2893.467	1279.95833
2895.61	1259.625
2897.751	1279.625
2899.892	1288.29167
2902.03	1303.95833
2904.168	1293.95833
2906.304	1298.625
2908.439	1323.29167
2910.572	1314.95833
2912.704	1321.29167
2914.835	1331.29167
2916.965	1317.29167
2919.093	1344.625
2921.219	1313.625
2923.345	1329.625
2925.469	1317.625
2927.591	1320.95833
2929.712	1276.29167
2931.832	1280.95833
2933.951	1263.625
2936.068	1252.625
2938.184	1226.625
2940.299	1224.625
2942.412	1208.29167
2944.524	1183.29167
2946.634	1186.625
2948.744	1149.29167
2950.851	1180.29167
2952.958	1140.625
2955.063	1149.95833
2957.167	1140.29167
2959.269	1104.95833
2961.371	1142.95833
2963.471	1113.95833
2965.569	1112.625
2967.666	1087.29167
2969.762	1101.29167
2971.857	1090.29167
2973.95	1075.29167
2976.042	1064.29167
2978.133	1047.95833
2980.222	1031.625
2982.31	1015.29167
2984.396	998.625
2986.482	1012.29167
2988.566	990.95833
2990.648	984.625
2992.73	997.625
2994.81	992.29167
2996.889	993.625
2998.966	996.29167
3001.042	1002.95833
3003.117	995.625
3005.191	993.625
3007.263	994.95833
3009.334	970.625
3011.403	977.625
3013.472	959.95833
3015.539	953.95833
3017.604	959.29167
3019.669	916.29167
3021.732	925.29167
3023.794	928.625
3025.854	925.625
3027.914	925.95833
3029.971	934.625
3032.028	928.625
3034.083	924.29167
3036.137	897.29167
3038.19	884.625
3040.242	874.625
3042.292	854.29167
3044.341	852.625
3046.388	852.95833
3048.435	831.29167
3050.48	849.29167
3052.524	834.29167
3054.566	808.29167
3056.607	838.29167
3058.647	810.29167
3060.686	779.625
3062.723	753.95833
3064.759	732.29167
3066.794	-3.375
3068.828	0.29167
3070.86	3.625
