-0.839	479.33333
3.438	584.66667
7.711	179.33333
11.981	59.33333
16.247	45
20.509	51.33333
24.768	45.33333
29.024	51.66667
33.276	45.33333
37.524	49
41.769	44
46.01	33.33333
50.247	47
54.481	56
58.712	62.33333
62.939	50.33333
67.162	62.33333
71.382	54
75.599	45.33333
79.812	60.66667
84.021	77.33333
88.227	62.66667
92.429	63
96.628	49
100.823	72.33333
105.015	73.66667
109.204	67.66667
113.388	72.66667
117.57	76
121.748	82.33333
125.922	77.33333
130.093	98
134.261	92
138.425	90.66667
142.585	135
146.742	124
150.896	149.66667
155.046	184.66667
159.193	292
163.336	487.66667
167.476	903
171.613	1666
175.746	2750
179.875	4116.33333
184.002	5310.66667
188.124	6189.33333
192.244	6462.66667
196.36	6380.66667
200.472	6174.33333
204.581	5980.66667
208.687	5798.66667
212.79	5755.66667
216.889	5681.66667
220.984	5697
225.077	5667.33333
229.165	5658.33333
233.251	5650.66667
237.333	5568
241.412	5488.33333
245.487	5455.66667
249.559	5391.33333
253.628	5355.66667
257.694	5300.33333
261.756	5252
265.814	5112.33333
269.87	4966.33333
273.922	4823.33333
277.97	4768.66667
282.016	4715.66667
286.058	4756
290.097	4836.33333
294.132	4927
298.164	4825.66667
302.193	4590.33333
306.219	4266
310.241	3898
314.26	3604.66667
318.276	3343.66667
322.288	3187.33333
326.297	3052
330.303	2939
334.305	2865.33333
338.305	2830
342.301	2777.33333
346.294	2755.66667
350.283	2745.66667
354.269	2706.66667
358.252	2662.66667
362.232	2684.33333
366.209	2635.66667
370.182	2616.66667
374.152	2591.33333
378.119	2599.66667
382.083	2594.66667
386.043	2621.33333
390	2575.33333
393.954	2597.66667
397.905	2578.66667
401.852	2570.66667
405.797	2516
409.738	2508.33333
413.676	2515.66667
417.61	2494.66667
421.542	2489.33333
425.47	2451
429.396	2437.33333
433.318	2408.66667
437.236	2440.66667
441.152	2454.66667
445.065	2392
448.974	2401
452.88	2347.66667
456.783	2335.66667
460.683	2344.33333
464.58	2330.66667
468.473	2309
472.364	2353
476.251	2347.66667
480.135	2366.66667
484.016	2388
487.894	2404.66667
491.769	2421.66667
495.641	2415
499.509	2423.66667
503.375	2439.33333
507.237	2422.33333
511.096	2421.66667
514.952	2455.33333
518.805	2511.33333
522.655	2534
526.502	2465.66667
530.346	2434
534.187	2413.33333
538.024	2430.33333
541.859	2446.33333
545.69	2482.33333
549.519	2452.66667
553.344	2429.66667
557.166	2409.33333
560.985	2360.66667
564.802	2316.33333
568.615	2279.66667
572.425	2254
576.232	2237.66667
580.036	2261
583.836	2229.66667
587.634	2264.66667
591.429	2259.66667
595.221	2310.33333
599.01	2335.66667
602.796	2368.33333
606.578	2364.66667
610.358	2366
614.135	2352.33333
617.909	2320
621.679	2314.66667
625.447	2304.33333
629.212	2336.66667
632.973	2294
636.732	2322.66667
640.488	2315.66667
644.241	2272
647.991	2273
651.737	2303
655.481	2245.33333
659.222	2251
662.96	2234
666.695	2273.66667
670.427	2291
674.156	2300.66667
677.882	2291.33333
681.605	2277.66667
685.325	2233.33333
689.043	2276.33333
692.757	2234.33333
696.468	2258
700.177	2238
703.882	2214.66667
707.585	2231.33333
711.284	2226
714.981	2241.33333
718.675	2208.66667
722.366	2248
726.054	2218
729.739	2222.66667
733.421	2219.33333
737.1	2201.33333
740.777	2245.33333
744.45	2276.66667
748.121	2271
751.789	2311.33333
755.453	2307
759.115	2328.66667
762.774	2342.33333
766.431	2336.33333
770.084	2386
773.734	2393
777.382	2446
781.027	2463
784.669	2467.66667
788.308	2482.66667
791.944	2506.66667
795.577	2506
799.208	2527.66667
802.835	2528.66667
806.46	2551
810.082	2544.33333
813.701	2567
817.317	2581.33333
820.931	2584
824.542	2558
828.149	2577
831.754	2566.66667
835.357	2544
838.956	2553.33333
842.553	2550.66667
846.146	2564.33333
849.737	2512.33333
853.326	2537.66667
856.911	2546.33333
860.493	2563.33333
864.073	2614
867.65	2622
871.225	2649.33333
874.796	2637.66667
878.365	2664.66667
881.931	2679.66667
885.494	2714
889.054	2713
892.612	2736.33333
896.166	2729.33333
899.719	2698
903.268	2624.33333
906.814	2638.33333
910.358	2591.33333
913.899	2580
917.438	2581
920.973	2544
924.506	2590
928.036	2619.33333
931.564	2643.33333
935.088	2687.66667
938.61	2684.33333
942.129	2722.66667
945.646	2798.33333
949.16	2847
952.671	2884.66667
956.179	2867
959.685	2841.33333
963.188	2810.33333
966.688	2774.66667
970.185	2691.66667
973.68	2657.66667
977.173	2622.33333
980.662	2574
984.149	2595.66667
987.633	2596.33333
991.114	2640.33333
994.593	2675.33333
998.069	2760
1001.542	2852.33333
1005.013	2773.66667
1008.481	2634.66667
1011.947	2599.33333
1015.409	2582
1018.869	2571.66667
1022.327	2581
1025.782	2557.66667
1029.234	2551.66667
1032.683	2510.66667
1036.13	2427.66667
1039.574	2364
1043.016	2276.33333
1046.455	2234
1049.891	2239.66667
1053.325	2223.33333
1056.756	2227.66667
1060.184	2253.66667
1063.61	2245.33333
1067.033	2284.33333
1070.454	2279.66667
1073.872	2302.66667
1077.287	2296.33333
1080.7	2285
1084.11	2290.66667
1087.517	2266.33333
1090.922	2245.33333
1094.325	2239.66667
1097.724	2196.33333
1101.122	2224.66667
1104.516	2238.66667
1107.908	2221
1111.298	2224
1114.684	2280
1118.069	2277
1121.45	2317.66667
1124.83	2329.33333
1128.206	2357.33333
1131.58	2376.66667
1134.951	2449.66667
1138.32	2533.66667
1141.687	2602
1145.05	2648
1148.412	2672.33333
1151.77	2666.33333
1155.126	2658.33333
1158.48	2629.66667
1161.831	2646.66667
1165.18	2673
1168.525	2701.33333
1171.869	2745.66667
1175.21	2743.33333
1178.548	2775
1181.884	2816
1185.217	2840.66667
1188.548	2908.33333
1191.877	2962.66667
1195.202	3046
1198.526	3107.66667
1201.846	3118.66667
1205.165	3110.66667
1208.48	3125.66667
1211.794	3083.33333
1215.104	3101.33333
1218.413	3070
1221.719	3063.66667
1225.022	3036
1228.323	3021.33333
1231.621	2992.33333
1234.917	2953.66667
1238.21	3006
1241.501	2953.66667
1244.79	2960.33333
1248.076	2953.33333
1251.359	2964
1254.64	3037.33333
1257.919	3084
1261.195	3108
1264.468	3166.33333
1267.74	3220.66667
1271.008	3210.33333
1274.275	3185
1277.538	3189.33333
1280.8	3180.66667
1284.059	3151.66667
1287.315	3206
1290.569	3217.66667
1293.821	3240.33333
1297.07	3267.66667
1300.317	3270.33333
1303.562	3266.33333
1306.803	3230.66667
1310.043	3211.33333
1313.28	3206.33333
1316.515	3156.66667
1319.747	3137.66667
1322.977	3136
1326.204	3063.33333
1329.429	3047.33333
1332.652	3014.33333
1335.872	2990.33333
1339.09	2914.66667
1342.306	2900
1345.519	2877.33333
1348.729	2855.66667
1351.938	2833.66667
1355.144	2807.66667
1358.347	2767.66667
1361.548	2749.33333
1364.747	2763
1367.944	2713.33333
1371.138	2733
1374.329	2773.33333
1377.518	2778.33333
1380.705	2792.33333
1383.89	2773
1387.072	2697.66667
1390.252	2573.33333
1393.429	2501.66667
1396.605	2444.33333
1399.777	2372
1402.948	2354.33333
1406.116	2335.66667
1409.282	2341
1412.445	2326.33333
1415.606	2360.33333
1418.765	2410
1421.921	2469.66667
1425.075	2507.66667
1428.227	2584
1431.376	2690.66667
1434.524	2784.33333
1437.668	2863.33333
1440.811	2912.33333
1443.951	2923
1447.089	2935
1450.224	2906.33333
1453.357	2896.33333
1456.488	2875.33333
1459.617	2817.66667
1462.743	2753
1465.867	2704
1468.989	2655
1472.108	2619
1475.225	2567.66667
1478.34	2538.33333
1481.453	2528
1484.563	2541
1487.671	2581.66667
1490.776	2629.66667
1493.88	2662.66667
1496.981	2686.33333
1500.08	2767.33333
1503.176	2790.33333
1506.271	2816
1509.363	2845
1512.452	2869.33333
1515.54	2892.66667
1518.625	2954
1521.708	3025.66667
1524.789	3111.33333
1527.867	3211.66667
1530.944	3371.66667
1534.018	3537.66667
1537.089	3706
1540.159	3746.33333
1543.226	3759.66667
1546.291	3681.66667
1549.354	3627.33333
1552.415	3516
1555.473	3462
1558.529	3387.66667
1561.583	3344.66667
1564.634	3333
1567.684	3322
1570.731	3347.66667
1573.776	3388.33333
1576.819	3421.66667
1579.859	3456.66667
1582.898	3466
1585.934	3515.66667
1588.968	3523.33333
1591.999	3529.66667
1595.029	3550.33333
1598.056	3547
1601.081	3572
1604.104	3573
1607.125	3541
1610.144	3450.66667
1613.16	3375.33333
1616.174	3282.66667
1619.186	3196.33333
1622.196	3077.33333
1625.203	3000.66667
1628.209	2959
1631.212	2918.66667
1634.213	2863.33333
1637.212	2812.33333
1640.209	2789
1643.203	2703.66667
1646.196	2615
1649.186	2547.33333
1652.174	2460
1655.16	2397
1658.144	2305
1661.125	2205.66667
1664.105	2139
1667.082	2049.66667
1670.057	1953.33333
1673.03	1833.33333
1676.001	1716
1678.97	1615.66667
1681.937	1516.33333
1684.901	1432.66667
1687.863	1372.66667
1690.824	1319
1693.782	1305.66667
1696.738	1236.33333
1699.692	1223
1702.643	1193.66667
1705.593	1169
1708.54	1149.33333
1711.486	1147.66667
1714.429	1097
1717.37	1118.33333
1720.309	1088.33333
1723.246	1179.66667
1726.181	1085
1729.113	1082.33333
1732.044	1059.66667
1734.972	1041.66667
1737.899	1055.66667
1740.823	1044
1743.745	1013.33333
1746.665	997
1749.583	981
1752.499	956.33333
1755.413	953
1758.325	928.33333
1761.235	925
1764.142	917.66667
1767.048	898.33333
1769.951	904.33333
1772.852	906
1775.752	899.66667
1778.649	883.66667
1781.544	897.33333
1784.437	859.66667
1787.328	871.66667
1790.217	861.66667
1793.104	842.33333
1795.989	840.66667
1798.872	838.66667
1801.753	846.33333
1804.631	852.66667
1807.508	850.33333
1810.383	842.33333
1813.255	833.66667
1816.126	823.33333
1818.994	826.66667
1821.861	816.33333
1824.725	829.33333
1827.587	821.33333
1830.448	814.66667
1833.306	788.33333
1836.162	800.66667
1839.017	781
1841.869	794.66667
1844.719	798.66667
1847.567	767
1850.414	759.66667
1853.258	776.33333
1856.1	783.33333
1858.94	796.33333
1861.778	778.66667
1864.614	763.66667
1867.448	770
1870.28	768
1873.111	788.66667
1875.939	767
1878.765	785
1881.589	760.33333
1884.411	766
1887.231	770.66667
1890.049	758.66667
1892.865	767
1895.68	756
1898.492	765.33333
1901.302	749
1904.11	756
1906.916	732
1909.721	728.66667
1912.523	743.66667
1915.323	725.33333
1918.122	726
1920.918	733
1923.712	727
1926.505	726
1929.295	713
1932.084	736
1934.87	725
1937.655	714.66667
1940.438	717.66667
1943.218	725
1945.997	722.66667
1948.774	720.33333
1951.549	723.33333
1954.322	713.33333
1957.093	710.66667
1959.862	707.33333
1962.629	697.33333
1965.394	706
1968.157	686.66667
1970.918	690.33333
1973.678	678
1976.435	700.33333
1979.19	688.66667
1981.944	684.33333
1984.696	684.33333
1987.445	668.66667
1990.193	667
1992.939	689.66667
1995.683	680.66667
1998.425	650.33333
2001.165	690
2003.903	676.66667
2006.639	660.66667
2009.374	684
2012.106	672
2014.837	657
2017.566	674
2020.292	658.66667
2023.017	663
2025.74	661
2028.461	660
2031.18	663.66667
2033.898	650.66667
2036.613	657.66667
2039.327	668
2042.038	650
2044.748	646.33333
2047.456	653.33333
2050.162	629
2052.866	646
2055.568	647
2058.268	638.66667
2060.967	641
2063.663	636.33333
2066.358	628
2069.051	632.66667
2071.742	636.66667
2074.431	640.66667
2077.118	627
2079.804	631
2082.487	631
2085.169	646
2087.849	660.66667
2090.527	629.33333
2093.203	633
2095.877	653.33333
2098.55	652
2101.22	671.33333
2103.889	671
2106.556	671
2109.221	693.33333
2111.884	703.66667
2114.546	768.33333
2117.205	812.66667
2119.863	881.33333
2122.519	925
2125.173	973.66667
2127.825	1040
2130.475	1032
2133.124	996.33333
2135.771	948.66667
2138.416	917
2141.059	840.33333
2143.7	818
2146.339	770
2148.977	712.66667
2151.613	715.33333
2154.247	680.33333
2156.879	684
2159.51	652.66667
2162.138	643
2164.765	635
2167.39	622.66667
2170.013	644
2172.634	632.66667
2175.254	623.66667
2177.872	650.66667
2180.488	606.33333
2183.102	611.66667
2185.714	605.66667
2188.325	575.33333
2190.934	602.33333
2193.541	601.66667
2196.146	588.66667
2198.75	574.66667
2201.351	572
2203.951	567.33333
2206.549	599.33333
2209.146	568
2211.74	575.66667
2214.333	578
2216.924	555.33333
2219.514	561.66667
2222.101	559
2224.687	564
2227.271	553.33333
2229.853	554.33333
2232.433	536.33333
2235.012	553.33333
2237.589	559.66667
2240.164	555.33333
2242.738	542
2245.309	532.66667
2247.879	543.33333
2250.448	551.33333
2253.014	533.33333
2255.579	515.66667
2258.142	527
2260.703	524
2263.262	527.66667
2265.82	514.66667
2268.376	523.33333
2270.93	512.66667
2273.483	510.33333
2276.033	513
2278.583	508.66667
2281.13	497
2283.675	492
2286.219	505.33333
2288.761	509.33333
2291.302	510.33333
2293.841	517.66667
2296.377	488.33333
2298.913	498.66667
2301.446	507.33333
2303.978	499
2306.508	498.33333
2309.037	506
2311.563	497.33333
2314.088	502.33333
2316.612	492
2319.133	494.66667
2321.653	503.33333
2324.171	486
2326.688	503.66667
2329.202	481.33333
2331.715	489.33333
2334.227	485.66667
2336.736	497
2339.244	488.66667
2341.751	469.66667
2344.255	480.33333
2346.758	480.33333
2349.259	474.33333
2351.759	481.33333
2354.257	480.33333
2356.753	471.33333
2359.247	476
2361.74	491.66667
2364.231	476
2366.721	485.33333
2369.209	477
2371.695	487.66667
2374.179	471.66667
2376.662	469
2379.143	481.66667
2381.622	476
2384.1	475.33333
2386.576	477.66667
2389.051	487.66667
2391.524	484
2393.995	485.33333
2396.464	473.33333
2398.932	476
2401.398	475
2403.863	475.33333
2406.325	465
2408.787	476.33333
2411.246	470.66667
2413.704	462
2416.16	474
2418.615	472.66667
2421.068	487
2423.519	483.33333
2425.969	473.33333
2428.417	478.33333
2430.863	496.66667
2433.308	481.66667
2435.751	468.33333
2438.193	472.66667
2440.633	475
2443.071	469
2445.508	461.66667
2447.943	467.66667
2450.376	462.66667
2452.808	454.66667
2455.238	461.33333
2457.667	495
2460.093	462.33333
2462.519	466.33333
2464.942	468.66667
2467.365	472.33333
2469.785	475.33333
2472.204	463.66667
2474.621	458.33333
2477.037	480
2479.451	455
2481.863	450.33333
2484.274	469
2486.683	470.66667
2489.091	473.66667
2491.497	463.33333
2493.901	469.66667
2496.304	466
2498.705	469.66667
2501.105	462.33333
2503.503	488.33333
2505.899	461.66667
2508.294	480.66667
2510.687	462.66667
2513.079	466.66667
2515.469	455
2517.858	469.66667
2520.245	467.66667
2522.63	454.33333
2525.014	446.33333
2527.396	464.66667
2529.776	454.66667
2532.156	475.33333
2534.533	460.33333
2536.909	459
2539.283	451
2541.656	460.66667
2544.027	477
2546.397	456.33333
2548.765	458.66667
2551.131	459.66667
2553.496	464.66667
2555.86	468
2558.221	475
2560.582	460
2562.94	456.33333
2565.298	475.33333
2567.653	482.33333
2570.007	471.66667
2572.36	471.66667
2574.711	462.33333
2577.06	482.66667
2579.408	481
2581.754	476.33333
2584.099	468.33333
2586.442	470.66667
2588.784	478.66667
2591.124	468.66667
2593.463	469.33333
2595.8	475.66667
2598.135	461.33333
2600.469	472
2602.802	476.66667
2605.133	481.33333
2607.462	471.66667
2609.79	470.66667
2612.116	476.66667
2614.441	475.33333
2616.764	469.33333
2619.086	470
2621.406	475.66667
2623.725	495.66667
2626.042	487.33333
2628.358	475
2630.672	471.66667
2632.985	496.66667
2635.296	483.33333
2637.606	486.33333
2639.914	476.33333
2642.22	480.66667
2644.525	478
2646.829	492.66667
2649.131	502.66667
2651.432	511.66667
2653.731	495
2656.028	507
2658.324	504.33333
2660.619	497.66667
2662.912	513
2665.204	496.33333
2667.494	512
2669.782	496.66667
2672.07	506
2674.355	510.33333
2676.639	504
2678.922	493.66667
2681.203	506.66667
2683.483	502.33333
2685.761	502
2688.038	513.66667
2690.313	523.66667
2692.587	503.33333
2694.859	505.66667
2697.13	518.33333
2699.399	528.33333
2701.667	530
2703.933	525
2706.198	533.33333
2708.461	534
2710.723	538
2712.984	542.66667
2715.243	536.66667
2717.5	535.66667
2719.757	552.33333
2722.011	549.33333
2724.264	563.66667
2726.516	562.66667
2728.766	549
2731.015	550.33333
2733.262	556
2735.508	555.66667
2737.753	552
2739.996	552
2742.237	537.66667
2744.477	557
2746.716	550.33333
2748.953	547.33333
2751.189	560
2753.423	537
2755.656	531.66667
2757.887	530.66667
2760.117	528
2762.346	531
2764.573	540.66667
2766.798	535.33333
2769.022	539.66667
2771.245	549.66667
2773.467	551.66667
2775.686	551.33333
2777.905	554.33333
2780.122	559
2782.337	567.33333
2784.552	549.33333
2786.764	562
2788.976	568.66667
2791.186	572.66667
2793.394	570.66667
2795.601	593.66667
2797.807	603
2800.011	607
2802.214	588.66667
2804.415	601.66667
2806.615	598.33333
2808.814	618.66667
2811.011	621.33333
2813.206	624
2815.401	634
2817.594	635.66667
2819.785	647.33333
2821.975	631
2824.164	642.66667
2826.351	647
2828.537	677
2830.722	686
2832.905	680.33333
2835.086	716.33333
2837.267	740
2839.445	743
2841.623	765.66667
2843.799	777
2845.974	817.66667
2848.147	823
2850.319	862.66667
2852.489	890
2854.659	910.33333
2856.826	907.33333
2858.993	928.33333
2861.158	920.33333
2863.321	929.33333
2865.483	929
2867.644	938.33333
2869.804	931
2871.962	923
2874.118	933
2876.274	925
2878.428	928.33333
2880.58	918.33333
2882.731	901.66667
2884.881	920.66667
2887.03	922.66667
2889.177	936
2891.322	936.66667
2893.467	936.66667
2895.61	924.33333
2897.751	954.33333
2899.892	938.66667
2902.03	941
2904.168	937.66667
2906.304	958.66667
2908.439	975.66667
2910.572	966
2912.704	975
2914.835	987.66667
2916.965	970
2919.093	985
2921.219	955.33333
2923.345	972.33333
2925.469	957
2927.591	945.66667
2929.712	921.33333
2931.832	926.66667
2933.951	895.66667
2936.068	890.66667
2938.184	869
2940.299	857
2942.412	825
2944.524	813.33333
2946.634	811.33333
2948.744	767
2950.851	797.33333
2952.958	752.66667
2955.063	756.33333
2957.167	743
2959.269	715.66667
2961.371	748.66667
2963.471	708.33333
2965.569	713.66667
2967.666	691.33333
2969.762	690.33333
2971.857	682.33333
2973.95	651.66667
2976.042	665.66667
2978.133	650.66667
2980.222	623
2982.31	615.66667
2984.396	600.33333
2986.482	592.33333
2988.566	594.66667
2990.648	594
2992.73	590.33333
2994.81	575.66667
2996.889	582.33333
2998.966	587.66667
3001.042	586
3003.117	586.66667
3005.191	576.33333
3007.263	576.66667
3009.334	563.66667
3011.403	565
3013.472	539.33333
3015.539	556
3017.604	555
3019.669	516
3021.732	526
3023.794	520.66667
3025.854	525.66667
3027.914	521
3029.971	525.66667
3032.028	525.33333
3034.083	529.66667
3036.137	510
3038.19	497
3040.242	472.66667
3042.292	480
3044.341	476.66667
3046.388	484.66667
3048.435	462.66667
3050.48	476.66667
3052.524	474.33333
3054.566	458
3056.607	463
3058.647	450
3060.686	439.66667
3062.723	419.33333
3064.759	409.33333
3066.794	0.66667
3068.828	3.33333
3070.86	3.33333
