-0.839	371.20833
3.438	408.875
7.711	118.54167
11.981	52.20833
16.247	43.875
20.509	43.875
24.768	45.54167
29.024	45.875
33.276	43.20833
37.524	47.54167
41.769	39.54167
46.01	34.875
50.247	50.875
54.481	63.54167
58.712	68.20833
62.939	48.20833
67.162	60.875
71.382	59.54167
75.599	50.20833
79.812	66.20833
84.021	83.875
88.227	58.54167
92.429	61.54167
96.628	49.875
100.823	67.54167
105.015	76.20833
109.204	74.20833
113.388	75.54167
117.57	71.875
121.748	90.875
125.922	75.54167
130.093	95.54167
134.261	109.54167
138.425	94.875
142.585	136.875
146.742	135.54167
150.896	158.875
155.046	191.875
159.193	301.20833
163.336	510.54167
167.476	923.54167
171.613	1697.54167
175.746	2840.20833
179.875	4235.54167
184.002	5566.54167
188.124	6529.54167
192.244	6915.54167
196.36	6923.54167
200.472	6784.54167
204.581	6657.20833
208.687	6598.20833
212.79	6573.20833
216.889	6659.54167
220.984	6802.54167
225.077	6900.875
229.165	7016.875
233.251	7171.54167
237.333	7226.20833
241.412	7268.20833
245.487	7241.875
249.559	7211.54167
253.628	7181.54167
257.694	7122.20833
261.756	7066.20833
265.814	6937.54167
269.87	6725.875
273.922	6562.875
277.97	6396.875
282.016	6311.875
286.058	6271.54167
290.097	6321.54167
294.132	6340.875
298.164	6232.20833
302.193	5956.875
306.219	5485.54167
310.241	5009.54167
314.26	4575.875
318.276	4243.875
322.288	3941.20833
326.297	3725.20833
330.303	3581.54167
334.305	3478.54167
338.305	3394.54167
342.301	3330.54167
346.294	3299.875
350.283	3278.875
354.269	3253.875
358.252	3220.54167
362.232	3204.54167
366.209	3154.875
370.182	3122.54167
374.152	3122.875
378.119	3125.54167
382.083	3109.875
386.043	3129.54167
390	3107.20833
393.954	3073.20833
397.905	3070.54167
401.852	3013.20833
405.797	3022.875
409.738	2975.875
413.676	2984.875
417.61	2955.54167
421.542	2940.875
425.47	2894.20833
429.396	2895.875
433.318	2863.54167
437.236	2853.20833
441.152	2872.20833
445.065	2826.875
448.974	2820.20833
452.88	2799.20833
456.783	2766.20833
460.683	2759.875
464.58	2757.20833
468.473	2790.54167
472.364	2782.54167
476.251	2791.875
480.135	2810.54167
484.016	2829.20833
487.894	2853.54167
491.769	2866.20833
495.641	2841.875
499.509	2847.875
503.375	2866.875
507.237	2843.54167
511.096	2857.54167
514.952	2917.875
518.805	2958.20833
522.655	2975.875
526.502	2898.20833
530.346	2829.20833
534.187	2833.875
538.024	2851.20833
541.859	2837.875
545.69	2881.875
549.519	2826.875
553.344	2800.54167
557.166	2773.875
560.985	2743.54167
564.802	2706.20833
568.615	2681.875
572.425	2649.875
576.232	2632.54167
580.036	2632.54167
583.836	2639.20833
587.634	2647.54167
591.429	2625.20833
595.221	2674.875
599.01	2706.54167
602.796	2739.54167
606.578	2756.20833
610.358	2772.875
614.135	2750.20833
617.909	2755.875
621.679	2743.54167
625.447	2708.54167
629.212	2711.20833
632.973	2725.20833
636.732	2694.20833
640.488	2720.54167
644.241	2672.54167
647.991	2684.20833
651.737	2725.54167
655.481	2701.54167
659.222	2714.54167
662.96	2750.54167
666.695	2728.875
670.427	2725.875
674.156	2738.20833
677.882	2724.54167
681.605	2726.875
685.325	2676.54167
689.043	2687.875
692.757	2677.20833
696.468	2682.54167
700.177	2673.875
703.882	2668.875
707.585	2650.875
711.284	2646.875
714.981	2673.20833
718.675	2691.20833
722.366	2677.875
726.054	2656.875
729.739	2647.20833
733.421	2652.875
737.1	2650.20833
740.777	2672.54167
744.45	2695.20833
748.121	2694.20833
751.789	2753.20833
755.453	2728.20833
759.115	2784.20833
762.774	2798.54167
766.431	2812.54167
770.084	2833.20833
773.734	2853.20833
777.382	2893.875
781.027	2923.875
784.669	2949.54167
788.308	2983.54167
791.944	2969.20833
795.577	3017.875
799.208	3032.20833
802.835	3048.875
806.46	3086.20833
810.082	3108.20833
813.701	3134.54167
817.317	3172.20833
820.931	3148.54167
824.542	3146.20833
828.149	3087.20833
831.754	3059.54167
835.357	3038.54167
838.956	3017.20833
842.553	3003.20833
846.146	2965.54167
849.737	2952.54167
853.326	2976.875
856.911	2963.54167
860.493	3029.875
864.073	3011.54167
867.65	3079.54167
871.225	3107.20833
874.796	3091.54167
878.365	3132.54167
881.931	3133.20833
885.494	3148.875
889.054	3148.875
892.612	3152.875
896.166	3132.54167
899.719	3091.20833
903.268	3057.20833
906.814	3043.20833
910.358	3041.875
913.899	3027.875
917.438	3031.875
920.973	3041.54167
924.506	3077.875
928.036	3144.54167
931.564	3185.20833
935.088	3210.20833
938.61	3196.20833
942.129	3249.20833
945.646	3329.875
949.16	3406.875
952.671	3458.875
956.179	3500.20833
959.685	3491.20833
963.188	3494.20833
966.688	3467.875
970.185	3365.54167
973.68	3284.54167
977.173	3242.20833
980.662	3193.54167
984.149	3180.20833
987.633	3177.875
991.114	3243.875
994.593	3307.875
998.069	3412.54167
1001.542	3482.875
1005.013	3426.875
1008.481	3243.20833
1011.947	3187.54167
1015.409	3165.20833
1018.869	3163.20833
1022.327	3186.54167
1025.782	3155.20833
1029.234	3154.20833
1032.683	3129.20833
1036.13	3021.54167
1039.574	2899.54167
1043.016	2851.54167
1046.455	2803.54167
1049.891	2758.875
1053.325	2762.20833
1056.756	2763.875
1060.184	2802.875
1063.61	2767.54167
1067.033	2808.875
1070.454	2810.20833
1073.872	2858.54167
1077.287	2858.20833
1080.7	2872.20833
1084.11	2875.54167
1087.517	2825.54167
1090.922	2794.20833
1094.325	2762.54167
1097.724	2756.875
1101.122	2722.20833
1104.516	2723.54167
1107.908	2717.20833
1111.298	2763.20833
1114.684	2780.875
1118.069	2822.54167
1121.45	2849.54167
1124.83	2836.54167
1128.206	2878.54167
1131.58	2872.20833
1134.951	2965.875
1138.32	3041.875
1141.687	3160.54167
1145.05	3244.20833
1148.412	3276.875
1151.77	3242.20833
1155.126	3251.875
1158.48	3254.20833
1161.831	3262.875
1165.18	3277.54167
1168.525	3344.54167
1171.869	3358.875
1175.21	3391.20833
1178.548	3432.875
1181.884	3497.54167
1185.217	3489.875
1188.548	3574.54167
1191.877	3630.54167
1195.202	3703.54167
1198.526	3801.54167
1201.846	3810.875
1205.165	3808.20833
1208.48	3780.875
1211.794	3793.20833
1215.104	3800.875
1218.413	3809.20833
1221.719	3761.54167
1225.022	3737.20833
1228.323	3697.54167
1231.621	3686.875
1234.917	3633.20833
1238.21	3672.20833
1241.501	3639.54167
1244.79	3634.20833
1248.076	3667.54167
1251.359	3690.54167
1254.64	3748.20833
1257.919	3770.54167
1261.195	3841.20833
1264.468	3907.875
1267.74	3949.54167
1271.008	3961.875
1274.275	3947.54167
1277.538	3926.54167
1280.8	3913.875
1284.059	3906.875
1287.315	3935.54167
1290.569	4009.20833
1293.821	3999.54167
1297.07	4013.54167
1300.317	3977.875
1303.562	4010.875
1306.803	3952.20833
1310.043	3922.20833
1313.28	3889.875
1316.515	3848.875
1319.747	3831.875
1322.977	3798.20833
1326.204	3755.875
1329.429	3701.20833
1332.652	3692.20833
1335.872	3686.20833
1339.09	3653.54167
1342.306	3652.20833
1345.519	3627.20833
1348.729	3609.875
1351.938	3603.20833
1355.144	3547.20833
1358.347	3503.20833
1361.548	3485.20833
1364.747	3496.54167
1367.944	3500.875
1371.138	3529.20833
1374.329	3519.20833
1377.518	3551.875
1380.705	3589.20833
1383.89	3568.54167
1387.072	3447.875
1390.252	3315.20833
1393.429	3199.54167
1396.605	3110.875
1399.777	3014.875
1402.948	2976.54167
1406.116	2975.875
1409.282	2980.20833
1412.445	2983.20833
1415.606	3024.875
1418.765	3051.54167
1421.921	3102.54167
1425.075	3187.54167
1428.227	3299.54167
1431.376	3426.54167
1434.524	3550.875
1437.668	3618.875
1440.811	3662.54167
1443.951	3694.875
1447.089	3716.54167
1450.224	3698.20833
1453.357	3672.54167
1456.488	3648.54167
1459.617	3599.875
1462.743	3553.875
1465.867	3466.54167
1468.989	3435.875
1472.108	3387.54167
1475.225	3339.20833
1478.34	3310.54167
1481.453	3307.875
1484.563	3305.875
1487.671	3354.20833
1490.776	3390.875
1493.88	3425.20833
1496.981	3517.875
1500.08	3565.875
1503.176	3616.20833
1506.271	3684.20833
1509.363	3721.20833
1512.452	3801.54167
1515.54	3847.54167
1518.625	3888.54167
1521.708	4091.54167
1524.789	4235.875
1527.867	4449.875
1530.944	4732.875
1534.018	4967.54167
1537.089	5106.875
1540.159	5076.20833
1543.226	4972.20833
1546.291	4821.875
1549.354	4689.54167
1552.415	4550.54167
1555.473	4418.20833
1558.529	4344.54167
1561.583	4284.20833
1564.634	4251.875
1567.684	4228.20833
1570.731	4272.54167
1573.776	4301.20833
1576.819	4338.54167
1579.859	4376.54167
1582.898	4436.54167
1585.934	4452.20833
1588.968	4477.20833
1591.999	4463.20833
1595.029	4477.875
1598.056	4465.20833
1601.081	4477.54167
1604.104	4464.875
1607.125	4430.20833
1610.144	4317.54167
1613.16	4231.54167
1616.174	4136.20833
1619.186	4035.20833
1622.196	3923.20833
1625.203	3855.54167
1628.209	3850.20833
1631.212	3839.875
1634.213	3842.54167
1637.212	3861.20833
1640.209	3831.20833
1643.203	3727.20833
1646.196	3600.54167
1649.186	3457.875
1652.174	3347.875
1655.16	3258.875
1658.144	3157.875
1661.125	3007.875
1664.105	2873.20833
1667.082	2702.875
1670.057	2548.875
1673.03	2391.875
1676.001	2254.20833
1678.97	2107.20833
1681.937	1948.54167
1684.901	1885.54167
1687.863	1802.20833
1690.824	1744.54167
1693.782	1704.20833
1696.738	1651.20833
1699.692	1613.875
1702.643	1585.875
1705.593	1554.875
1708.54	1526.54167
1711.486	1528.54167
1714.429	1489.875
1717.37	1482.875
1720.309	1455.875
1723.246	1468.54167
1726.181	1423.875
1729.113	1447.54167
1732.044	1412.20833
1734.972	1395.20833
1737.899	1405.54167
1740.823	1399.875
1743.745	1392.20833
1746.665	1330.54167
1749.583	1333.875
1752.499	1305.54167
1755.413	1297.54167
1758.325	1255.875
1761.235	1274.20833
1764.142	1230.54167
1767.048	1221.54167
1769.951	1218.54167
1772.852	1231.875
1775.752	1202.20833
1778.649	1205.20833
1781.544	1205.54167
1784.437	1174.20833
1787.328	1188.54167
1790.217	1167.54167
1793.104	1164.875
1795.989	1143.875
1798.872	1147.875
1801.753	1160.875
1804.631	1151.54167
1807.508	1157.20833
1810.383	1146.20833
1813.255	1140.54167
1816.126	1135.54167
1818.994	1124.875
1821.861	1120.54167
1824.725	1117.54167
1827.587	1118.20833
1830.448	1105.20833
1833.306	1082.20833
1836.162	1096.875
1839.017	1091.20833
1841.869	1085.54167
1844.719	1082.20833
1847.567	1064.54167
1850.414	1067.20833
1853.258	1055.20833
1856.1	1078.54167
1858.94	1086.875
1861.778	1064.875
1864.614	1058.20833
1867.448	1056.875
1870.28	1049.875
1873.111	1077.875
1875.939	1062.20833
1878.765	1075.54167
1881.589	1053.20833
1884.411	1056.54167
1887.231	1061.54167
1890.049	1065.20833
1892.865	1061.875
1895.68	1029.875
1898.492	1044.54167
1901.302	1023.875
1904.11	1030.20833
1906.916	1016.875
1909.721	1013.20833
1912.523	1020.875
1915.323	1011.875
1918.122	1002.20833
1920.918	1007.875
1923.712	1000.54167
1926.505	996.54167
1929.295	975.875
1932.084	1003.20833
1934.87	1013.20833
1937.655	993.20833
1940.438	990.875
1943.218	982.20833
1945.997	991.54167
1948.774	997.20833
1951.549	977.20833
1954.322	985.20833
1957.093	986.54167
1959.862	998.54167
1962.629	971.54167
1965.394	959.875
1968.157	959.54167
1970.918	966.875
1973.678	959.54167
1976.435	945.20833
1979.19	955.54167
1981.944	950.875
1984.696	948.54167
1987.445	922.875
1990.193	931.54167
1992.939	956.20833
1995.683	948.20833
1998.425	922.875
2001.165	952.20833
2003.903	931.875
2006.639	923.875
2009.374	928.875
2012.106	934.875
2014.837	908.875
2017.566	927.54167
2020.292	927.54167
2023.017	929.20833
2025.74	905.875
2028.461	904.875
2031.18	917.875
2033.898	900.875
2036.613	912.54167
2039.327	906.54167
2042.038	877.20833
2044.748	900.54167
2047.456	911.54167
2050.162	873.20833
2052.866	888.20833
2055.568	890.875
2058.268	883.54167
2060.967	886.54167
2063.663	878.54167
2066.358	882.20833
2069.051	872.875
2071.742	891.875
2074.431	872.54167
2077.118	872.875
2079.804	877.875
2082.487	878.20833
2085.169	893.875
2087.849	894.875
2090.527	883.20833
2093.203	883.875
2095.877	893.875
2098.55	898.54167
2101.22	919.20833
2103.889	919.54167
2106.556	915.20833
2109.221	942.875
2111.884	969.54167
2114.546	1027.20833
2117.205	1066.20833
2119.863	1143.20833
2122.519	1223.875
2125.173	1309.20833
2127.825	1366.54167
2130.475	1395.54167
2133.124	1363.54167
2135.771	1315.875
2138.416	1282.20833
2141.059	1204.20833
2143.7	1172.20833
2146.339	1098.875
2148.977	1052.20833
2151.613	1032.875
2154.247	998.875
2156.879	985.54167
2159.51	972.20833
2162.138	937.54167
2164.765	940.20833
2167.39	923.875
2170.013	941.875
2172.634	934.875
2175.254	913.20833
2177.872	946.20833
2180.488	888.875
2183.102	897.875
2185.714	882.20833
2188.325	861.54167
2190.934	872.54167
2193.541	859.54167
2196.146	843.20833
2198.75	827.875
2201.351	842.875
2203.951	814.54167
2206.549	814.54167
2209.146	806.20833
2211.74	795.20833
2214.333	810.875
2216.924	779.875
2219.514	788.54167
2222.101	782.54167
2224.687	782.875
2227.271	771.54167
2229.853	756.875
2232.433	750.54167
2235.012	766.20833
2237.589	775.20833
2240.164	774.20833
2242.738	777.20833
2245.309	767.20833
2247.879	763.20833
2250.448	752.875
2253.014	737.54167
2255.579	724.875
2258.142	734.54167
2260.703	722.54167
2263.262	718.54167
2265.82	712.54167
2268.376	710.54167
2270.93	702.875
2273.483	694.54167
2276.033	706.875
2278.583	706.54167
2281.13	705.20833
2283.675	688.54167
2286.219	699.54167
2288.761	693.54167
2291.302	697.54167
2293.841	687.875
2296.377	664.20833
2298.913	677.20833
2301.446	693.875
2303.978	677.875
2306.508	679.875
2309.037	672.20833
2311.563	678.54167
2314.088	675.875
2316.612	645.875
2319.133	672.20833
2321.653	662.875
2324.171	658.54167
2326.688	652.875
2329.202	656.875
2331.715	653.875
2334.227	663.54167
2336.736	640.20833
2339.244	645.54167
2341.751	643.20833
2344.255	651.875
2346.758	642.875
2349.259	629.54167
2351.759	637.20833
2354.257	625.875
2356.753	624.54167
2359.247	630.54167
2361.74	643.54167
2364.231	637.20833
2366.721	647.875
2369.209	621.20833
2371.695	623.20833
2374.179	619.54167
2376.662	618.875
2379.143	653.20833
2381.622	612.875
2384.1	633.875
2386.576	622.875
2389.051	634.54167
2391.524	633.20833
2393.995	635.875
2396.464	622.20833
2398.932	618.54167
2401.398	621.20833
2403.863	616.20833
2406.325	606.875
2408.787	614.875
2411.246	618.54167
2413.704	615.875
2416.16	607.20833
2418.615	611.875
2421.068	622.20833
2423.519	613.20833
2425.969	605.20833
2428.417	622.20833
2430.863	633.20833
2433.308	621.20833
2435.751	604.20833
2438.193	602.54167
2440.633	603.54167
2443.071	605.875
2445.508	599.20833
2447.943	599.54167
2450.376	588.875
2452.808	596.875
2455.238	599.875
2457.667	619.54167
2460.093	590.875
2462.519	585.875
2464.942	587.875
2467.365	606.875
2469.785	590.54167
2472.204	586.54167
2474.621	574.54167
2477.037	601.20833
2479.451	569.875
2481.863	575.54167
2484.274	583.875
2486.683	572.54167
2489.091	583.54167
2491.497	584.54167
2493.901	588.54167
2496.304	576.875
2498.705	587.20833
2501.105	578.875
2503.503	597.20833
2505.899	575.54167
2508.294	584.54167
2510.687	569.54167
2513.079	565.54167
2515.469	568.20833
2517.858	572.875
2520.245	588.875
2522.63	564.54167
2525.014	569.54167
2527.396	567.875
2529.776	567.875
2532.156	558.20833
2534.533	554.875
2536.909	565.20833
2539.283	544.54167
2541.656	564.54167
2544.027	582.20833
2546.397	568.54167
2548.765	558.875
2551.131	553.875
2553.496	558.54167
2555.86	561.54167
2558.221	560.54167
2560.582	556.54167
2562.94	552.54167
2565.298	556.875
2567.653	566.875
2570.007	548.54167
2572.36	561.20833
2574.711	558.20833
2577.06	581.20833
2579.408	559.875
2581.754	557.875
2584.099	547.54167
2586.442	549.20833
2588.784	562.875
2591.124	562.875
2593.463	555.20833
2595.8	564.54167
2598.135	545.54167
2600.469	546.54167
2602.802	558.20833
2605.133	552.20833
2607.462	548.875
2609.79	542.875
2612.116	556.20833
2614.441	551.54167
2616.764	558.875
2619.086	552.875
2621.406	545.20833
2623.725	561.54167
2626.042	555.54167
2628.358	557.54167
2630.672	550.20833
2632.985	575.20833
2635.296	555.20833
2637.606	562.20833
2639.914	553.875
2642.22	561.20833
2644.525	590.20833
2646.829	599.54167
2649.131	575.875
2651.432	576.20833
2653.731	553.54167
2656.028	576.875
2658.324	571.54167
2660.619	561.20833
2662.912	574.20833
2665.204	557.54167
2667.494	577.20833
2669.782	572.54167
2672.07	571.54167
2674.355	576.20833
2676.639	557.875
2678.922	559.875
2681.203	579.875
2683.483	558.20833
2685.761	558.875
2688.038	582.20833
2690.313	590.54167
2692.587	574.875
2694.859	570.54167
2697.13	575.875
2699.399	583.875
2701.667	595.875
2703.933	591.875
2706.198	600.54167
2708.461	608.54167
2710.723	615.875
2712.984	600.54167
2715.243	606.54167
2717.5	602.54167
2719.757	620.875
2722.011	611.875
2724.264	629.54167
2726.516	637.875
2728.766	615.20833
2731.015	624.20833
2733.262	620.875
2735.508	618.20833
2737.753	619.54167
2739.996	594.20833
2742.237	600.54167
2744.477	613.875
2746.716	609.20833
2748.953	598.54167
2751.189	612.54167
2753.423	590.54167
2755.656	589.875
2757.887	579.875
2760.117	594.20833
2762.346	580.875
2764.573	587.20833
2766.798	587.54167
2769.022	595.20833
2771.245	600.875
2773.467	589.875
2775.686	596.20833
2777.905	608.875
2780.122	608.875
2782.337	612.875
2784.552	614.875
2786.764	619.54167
2788.976	618.54167
2791.186	630.875
2793.394	638.875
2795.601	644.875
2797.807	646.54167
2800.011	668.875
2802.214	676.54167
2804.415	678.875
2806.615	672.875
2808.814	692.20833
2811.011	691.875
2813.206	684.875
2815.401	715.20833
2817.594	721.54167
2819.785	733.875
2821.975	726.875
2824.164	735.20833
2826.351	757.20833
2828.537	772.54167
2830.722	796.54167
2832.905	786.54167
2835.086	828.20833
2837.267	851.54167
2839.445	884.20833
2841.623	890.54167
2843.799	939.875
2845.974	973.54167
2848.147	1018.20833
2850.319	1033.54167
2852.489	1058.54167
2854.659	1067.54167
2856.826	1097.54167
2858.993	1112.20833
2861.158	1109.54167
2863.321	1102.20833
2865.483	1130.54167
2867.644	1112.875
2869.804	1123.875
2871.962	1115.54167
2874.118	1128.20833
2876.274	1109.54167
2878.428	1102.54167
2880.58	1103.20833
2882.731	1090.20833
2884.881	1101.875
2887.03	1107.875
2889.177	1100.54167
2891.322	1123.54167
2893.467	1109.54167
2895.61	1103.20833
2897.751	1140.875
2899.892	1130.54167
2902.03	1143.875
2904.168	1155.20833
2906.304	1147.875
2908.439	1169.20833
2910.572	1152.875
2912.704	1172.20833
2914.835	1157.54167
2916.965	1161.20833
2919.093	1174.875
2921.219	1126.20833
2923.345	1151.875
2925.469	1125.20833
2927.591	1121.20833
2929.712	1074.875
2931.832	1071.875
2933.951	1059.54167
2936.068	1034.54167
2938.184	991.875
2940.299	966.20833
2942.412	950.875
2944.524	898.54167
2946.634	903.20833
2948.744	842.20833
2950.851	876.20833
2952.958	811.875
2955.063	811.875
2957.167	789.20833
2959.269	766.20833
2961.371	789.20833
2963.471	725.20833
2965.569	739.20833
2967.666	710.20833
2969.762	686.20833
2971.857	676.875
2973.95	662.54167
2976.042	655.20833
2978.133	635.54167
2980.222	626.20833
2982.31	600.54167
2984.396	592.54167
2986.482	583.54167
2988.566	580.875
2990.648	573.875
2992.73	568.20833
2994.81	555.20833
2996.889	565.54167
2998.966	551.875
3001.042	549.875
3003.117	547.20833
3005.191	548.20833
3007.263	533.20833
3009.334	534.875
3011.403	528.20833
3013.472	507.875
3015.539	515.875
3017.604	519.875
3019.669	482.20833
3021.732	482.20833
3023.794	496.54167
3025.854	472.54167
3027.914	469.875
3029.971	478.20833
3032.028	470.875
3034.083	470.20833
3036.137	465.54167
3038.19	447.54167
3040.242	448.54167
3042.292	424.875
3044.341	422.875
3046.388	442.54167
3048.435	414.875
3050.48	426.54167
3052.524	423.54167
3054.566	403.20833
3056.607	417.54167
3058.647	406.54167
3060.686	377.875
3062.723	375.20833
3064.759	358.875
3066.794	-0.125
3068.828	-0.125
3070.86	-1.79167
