-0.839	431.29167
3.438	472.95833
7.711	139.625
11.981	58.625
16.247	45.95833
20.509	48.625
24.768	46.625
29.024	50.625
33.276	45.29167
37.524	48.95833
41.769	44.29167
46.01	37.625
50.247	54.29167
54.481	60.625
58.712	68.29167
62.939	52.95833
67.162	64.29167
71.382	62.95833
75.599	47.625
79.812	68.95833
84.021	89.625
88.227	62.29167
92.429	69.95833
96.628	59.95833
100.823	72.625
105.015	83.625
109.204	84.95833
113.388	85.95833
117.57	78.95833
121.748	95.625
125.922	87.95833
130.093	108.95833
134.261	113.29167
138.425	110.625
142.585	151.95833
146.742	153.625
150.896	177.95833
155.046	226.29167
159.193	354.95833
163.336	606.625
167.476	1104.625
171.613	2025.625
175.746	3401.95833
179.875	5087.95833
184.002	6637.95833
188.124	7787.95833
192.244	8193.95833
196.36	8175.29167
200.472	8051.625
204.581	7879.95833
208.687	7742.29167
212.79	7755.29167
216.889	7786.625
220.984	7969.625
225.077	8116.625
229.165	8297.29167
233.251	8427.29167
237.333	8456.29167
241.412	8498.625
245.487	8480.95833
249.559	8377.625
253.628	8313.625
257.694	8193.95833
261.756	8128.625
265.814	7919.29167
269.87	7650.625
273.922	7423.625
277.97	7272.29167
282.016	7170.29167
286.058	7091.29167
290.097	7112.29167
294.132	7098.29167
298.164	6912.29167
302.193	6561.29167
306.219	6091.95833
310.241	5557.625
314.26	5032.29167
318.276	4670.625
322.288	4341.95833
326.297	4079.95833
330.303	3937.625
334.305	3765.625
338.305	3721.29167
342.301	3669.29167
346.294	3606.29167
350.283	3555.625
354.269	3505.29167
358.252	3497.29167
362.232	3481.29167
366.209	3454.29167
370.182	3406.625
374.152	3400.29167
378.119	3392.29167
382.083	3412.95833
386.043	3421.95833
390	3345.29167
393.954	3346.95833
397.905	3314.625
401.852	3276.29167
405.797	3256.29167
409.738	3216.95833
413.676	3252.29167
417.61	3264.29167
421.542	3144.625
425.47	3084.625
429.396	3060.29167
433.318	3041.29167
437.236	3035.625
441.152	3033.95833
445.065	2985.29167
448.974	2991.95833
452.88	2957.95833
456.783	2945.625
460.683	2906.95833
464.58	2914.625
468.473	2909.95833
472.364	2929.29167
476.251	2946.29167
480.135	2973.95833
484.016	3000.29167
487.894	3029.95833
491.769	3041.625
495.641	3048.625
499.509	3025.95833
503.375	3039.95833
507.237	3021.95833
511.096	2997.29167
514.952	3064.625
518.805	3093.95833
522.655	3108.625
526.502	3024.29167
530.346	2975.95833
534.187	2968.29167
538.024	2968.29167
541.859	2977.95833
545.69	3003.625
549.519	2985.29167
553.344	2964.95833
557.166	2929.625
560.985	2892.625
564.802	2864.29167
568.615	2830.95833
572.425	2777.625
576.232	2748.29167
580.036	2768.95833
583.836	2775.95833
587.634	2766.625
591.429	2753.625
595.221	2818.29167
599.01	2850.95833
602.796	2883.95833
606.578	2913.95833
610.358	2910.29167
614.135	2883.95833
617.909	2878.29167
621.679	2859.29167
625.447	2839.95833
629.212	2863.29167
632.973	2861.625
636.732	2870.625
640.488	2879.95833
644.241	2823.95833
647.991	2829.625
651.737	2812.625
655.481	2795.29167
659.222	2816.95833
662.96	2792.29167
666.695	2827.29167
670.427	2835.625
674.156	2850.95833
677.882	2853.29167
681.605	2856.29167
685.325	2833.95833
689.043	2823.625
692.757	2811.95833
696.468	2829.95833
700.177	2830.625
703.882	2832.95833
707.585	2828.95833
711.284	2829.29167
714.981	2837.29167
718.675	2865.95833
722.366	2860.625
726.054	2845.95833
729.739	2833.29167
733.421	2862.95833
737.1	2830.29167
740.777	2873.29167
744.45	2888.29167
748.121	2893.625
751.789	2966.29167
755.453	2969.29167
759.115	2981.29167
762.774	3021.625
766.431	3039.625
770.084	3067.95833
773.734	3098.95833
777.382	3174.29167
781.027	3179.95833
784.669	3222.95833
788.308	3234.29167
791.944	3272.625
795.577	3277.625
799.208	3307.95833
802.835	3323.29167
806.46	3367.29167
810.082	3384.625
813.701	3390.95833
817.317	3434.625
820.931	3432.625
824.542	3412.29167
828.149	3397.29167
831.754	3379.29167
835.357	3363.29167
838.956	3346.95833
842.553	3355.625
846.146	3338.29167
849.737	3344.95833
853.326	3311.29167
856.911	3333.95833
860.493	3413.625
864.073	3438.625
867.65	3501.625
871.225	3547.625
874.796	3502.95833
878.365	3512.625
881.931	3557.625
885.494	3574.625
889.054	3569.95833
892.612	3557.95833
896.166	3546.29167
899.719	3488.625
903.268	3459.95833
906.814	3454.29167
910.358	3439.95833
913.899	3455.95833
917.438	3440.29167
920.973	3403.95833
924.506	3446.29167
928.036	3502.29167
931.564	3541.625
935.088	3551.625
938.61	3550.625
942.129	3603.29167
945.646	3701.95833
949.16	3800.95833
952.671	3873.29167
956.179	3924.625
959.685	3885.625
963.188	3857.29167
966.688	3805.625
970.185	3707.29167
973.68	3640.625
977.173	3634.625
980.662	3610.29167
984.149	3619.29167
987.633	3651.625
991.114	3681.95833
994.593	3819.95833
998.069	3935.95833
1001.542	4029.625
1005.013	3921.625
1008.481	3724.625
1011.947	3666.625
1015.409	3647.29167
1018.869	3652.29167
1022.327	3647.95833
1025.782	3628.29167
1029.234	3655.625
1032.683	3577.29167
1036.13	3488.95833
1039.574	3319.625
1043.016	3255.29167
1046.455	3170.95833
1049.891	3142.95833
1053.325	3138.625
1056.756	3156.95833
1060.184	3171.625
1063.61	3159.625
1067.033	3187.625
1070.454	3206.95833
1073.872	3261.29167
1077.287	3247.625
1080.7	3241.95833
1084.11	3267.625
1087.517	3229.625
1090.922	3210.95833
1094.325	3152.95833
1097.724	3129.625
1101.122	3128.29167
1104.516	3117.29167
1107.908	3118.95833
1111.298	3157.95833
1114.684	3198.29167
1118.069	3247.625
1121.45	3246.625
1124.83	3253.29167
1128.206	3284.29167
1131.58	3317.625
1134.951	3420.625
1138.32	3550.95833
1141.687	3646.95833
1145.05	3784.95833
1148.412	3807.29167
1151.77	3776.95833
1155.126	3768.95833
1158.48	3774.95833
1161.831	3807.29167
1165.18	3836.625
1168.525	3881.625
1171.869	3948.29167
1175.21	4022.95833
1178.548	4081.29167
1181.884	4078.95833
1185.217	4115.29167
1188.548	4194.625
1191.877	4248.29167
1195.202	4337.625
1198.526	4411.625
1201.846	4391.625
1205.165	4407.29167
1208.48	4386.625
1211.794	4382.95833
1215.104	4398.625
1218.413	4389.29167
1221.719	4374.29167
1225.022	4345.625
1228.323	4322.95833
1231.621	4290.625
1234.917	4246.29167
1238.21	4335.29167
1241.501	4311.625
1244.79	4321.29167
1248.076	4321.625
1251.359	4389.625
1254.64	4428.95833
1257.919	4462.95833
1261.195	4536.95833
1264.468	4624.29167
1267.74	4679.625
1271.008	4713.625
1274.275	4636.29167
1277.538	4637.625
1280.8	4579.29167
1284.059	4581.95833
1287.315	4636.29167
1290.569	4666.625
1293.821	4688.29167
1297.07	4711.29167
1300.317	4713.625
1303.562	4687.625
1306.803	4665.29167
1310.043	4633.29167
1313.28	4556.29167
1316.515	4497.95833
1319.747	4467.29167
1322.977	4380.625
1326.204	4323.29167
1329.429	4247.95833
1332.652	4238.95833
1335.872	4243.625
1339.09	4220.625
1342.306	4175.29167
1345.519	4193.29167
1348.729	4146.29167
1351.938	4149.95833
1355.144	4078.625
1358.347	4029.29167
1361.548	4015.95833
1364.747	4044.29167
1367.944	3994.29167
1371.138	4065.95833
1374.329	4081.625
1377.518	4151.95833
1380.705	4162.29167
1383.89	4151.29167
1387.072	4014.95833
1390.252	3881.625
1393.429	3743.29167
1396.605	3620.625
1399.777	3543.29167
1402.948	3525.95833
1406.116	3495.95833
1409.282	3491.95833
1412.445	3493.95833
1415.606	3531.29167
1418.765	3587.625
1421.921	3680.29167
1425.075	3773.625
1428.227	3892.29167
1431.376	4052.29167
1434.524	4195.95833
1437.668	4296.95833
1440.811	4340.29167
1443.951	4339.95833
1447.089	4380.95833
1450.224	4366.29167
1453.357	4324.625
1456.488	4296.625
1459.617	4242.29167
1462.743	4145.625
1465.867	4081.95833
1468.989	4023.95833
1472.108	3969.29167
1475.225	3921.29167
1478.34	3847.625
1481.453	3852.95833
1484.563	3848.625
1487.671	3899.95833
1490.776	3966.29167
1493.88	4050.625
1496.981	4161.95833
1500.08	4227.625
1503.176	4316.29167
1506.271	4360.29167
1509.363	4439.625
1512.452	4485.625
1515.54	4585.95833
1518.625	4681.95833
1521.708	4872.95833
1524.789	5122.29167
1527.867	5448.625
1530.944	5779.625
1534.018	6080.95833
1537.089	6253.29167
1540.159	6237.29167
1543.226	6138.625
1546.291	5859.625
1549.354	5715.95833
1552.415	5485.625
1555.473	5338.625
1558.529	5221.625
1561.583	5158.29167
1564.634	5110.95833
1567.684	5095.95833
1570.731	5093.29167
1573.776	5105.29167
1576.819	5150.625
1579.859	5224.625
1582.898	5274.625
1585.934	5298.95833
1588.968	5319.95833
1591.999	5314.29167
1595.029	5289.625
1598.056	5320.95833
1601.081	5347.625
1604.104	5327.625
1607.125	5283.95833
1610.144	5121.29167
1613.16	5013.625
1616.174	4891.95833
1619.186	4798.29167
1622.196	4663.625
1625.203	4542.625
1628.209	4491.625
1631.212	4441.95833
1634.213	4404.625
1637.212	4399.95833
1640.209	4339.29167
1643.203	4206.625
1646.196	4109.95833
1649.186	3959.95833
1652.174	3868.625
1655.16	3717.29167
1658.144	3597.29167
1661.125	3454.29167
1664.105	3275.29167
1667.082	3131.95833
1670.057	2946.29167
1673.03	2783.95833
1676.001	2611.29167
1678.97	2408.29167
1681.937	2274.29167
1684.901	2178.29167
1687.863	2078.29167
1690.824	1991.29167
1693.782	1968.625
1696.738	1895.625
1699.692	1855.95833
1702.643	1812.625
1705.593	1777.95833
1708.54	1769.95833
1711.486	1741.29167
1714.429	1719.29167
1717.37	1706.625
1720.309	1681.29167
1723.246	1664.625
1726.181	1637.29167
1729.113	1634.625
1732.044	1619.29167
1734.972	1590.625
1737.899	1594.29167
1740.823	1580.625
1743.745	1571.95833
1746.665	1531.95833
1749.583	1515.625
1752.499	1499.29167
1755.413	1459.625
1758.325	1425.29167
1761.235	1447.625
1764.142	1397.29167
1767.048	1408.29167
1769.951	1383.95833
1772.852	1369.29167
1775.752	1382.95833
1778.649	1388.625
1781.544	1356.29167
1784.437	1333.625
1787.328	1337.29167
1790.217	1331.625
1793.104	1291.95833
1795.989	1290.625
1798.872	1294.29167
1801.753	1317.95833
1804.631	1302.625
1807.508	1304.29167
1810.383	1280.95833
1813.255	1282.29167
1816.126	1283.625
1818.994	1276.29167
1821.861	1270.625
1824.725	1262.95833
1827.587	1250.29167
1830.448	1254.625
1833.306	1223.625
1836.162	1220.29167
1839.017	1215.95833
1841.869	1221.29167
1844.719	1220.29167
1847.567	1200.29167
1850.414	1192.625
1853.258	1214.625
1856.1	1216.625
1858.94	1216.29167
1861.778	1201.95833
1864.614	1193.29167
1867.448	1205.625
1870.28	1189.625
1873.111	1215.29167
1875.939	1214.29167
1878.765	1213.95833
1881.589	1193.625
1884.411	1192.29167
1887.231	1197.625
1890.049	1174.95833
1892.865	1184.95833
1895.68	1170.625
1898.492	1171.95833
1901.302	1162.625
1904.11	1179.625
1906.916	1161.29167
1909.721	1133.95833
1912.523	1153.625
1915.323	1117.95833
1918.122	1146.29167
1920.918	1153.29167
1923.712	1117.29167
1926.505	1129.625
1929.295	1118.29167
1932.084	1129.625
1934.87	1147.29167
1937.655	1128.625
1940.438	1121.625
1943.218	1120.29167
1945.997	1121.625
1948.774	1137.29167
1951.549	1126.29167
1954.322	1110.95833
1957.093	1120.95833
1959.862	1092.95833
1962.629	1104.29167
1965.394	1096.29167
1968.157	1082.29167
1970.918	1108.95833
1973.678	1083.29167
1976.435	1088.95833
1979.19	1075.625
1981.944	1078.29167
1984.696	1069.95833
1987.445	1055.625
1990.193	1068.625
1992.939	1073.29167
1995.683	1068.625
1998.425	1039.625
2001.165	1070.625
2003.903	1064.95833
2006.639	1045.29167
2009.374	1052.625
2012.106	1060.95833
2014.837	1029.625
2017.566	1042.625
2020.292	1055.29167
2023.017	1052.95833
2025.74	1036.95833
2028.461	1033.29167
2031.18	1040.95833
2033.898	1020.95833
2036.613	1034.29167
2039.327	1035.29167
2042.038	1027.625
2044.748	1010.625
2047.456	1022.29167
2050.162	1008.29167
2052.866	1018.625
2055.568	1021.95833
2058.268	996.625
2060.967	1024.95833
2063.663	983.625
2066.358	1019.625
2069.051	998.29167
2071.742	1002.29167
2074.431	1014.625
2077.118	1013.625
2079.804	1009.29167
2082.487	1015.95833
2085.169	1033.625
2087.849	1039.29167
2090.527	1022.625
2093.203	1041.95833
2095.877	1036.95833
2098.55	1050.95833
2101.22	1061.29167
2103.889	1081.29167
2106.556	1086.625
2109.221	1137.625
2111.884	1161.29167
2114.546	1256.625
2117.205	1350.625
2119.863	1474.95833
2122.519	1585.29167
2125.173	1716.29167
2127.825	1831.625
2130.475	1834.95833
2133.124	1802.29167
2135.771	1733.29167
2138.416	1637.625
2141.059	1537.29167
2143.7	1471.29167
2146.339	1372.95833
2148.977	1305.29167
2151.613	1282.625
2154.247	1215.29167
2156.879	1203.29167
2159.51	1162.95833
2162.138	1147.29167
2164.765	1153.625
2167.39	1136.95833
2170.013	1136.95833
2172.634	1123.95833
2175.254	1113.625
2177.872	1147.95833
2180.488	1093.625
2183.102	1089.625
2185.714	1077.625
2188.325	1037.625
2190.934	1045.625
2193.541	1030.29167
2196.146	1020.625
2198.75	1002.29167
2201.351	988.625
2203.951	967.625
2206.549	971.95833
2209.146	961.29167
2211.74	945.95833
2214.333	955.625
2216.924	918.29167
2219.514	925.625
2222.101	911.95833
2224.687	923.625
2227.271	915.625
2229.853	896.625
2232.433	879.95833
2235.012	907.29167
2237.589	912.625
2240.164	896.95833
2242.738	892.625
2245.309	874.625
2247.879	870.95833
2250.448	886.29167
2253.014	853.29167
2255.579	839.625
2258.142	852.625
2260.703	830.95833
2263.262	825.29167
2265.82	827.29167
2268.376	832.95833
2270.93	813.625
2273.483	801.625
2276.033	812.95833
2278.583	798.29167
2281.13	801.29167
2283.675	784.95833
2286.219	803.625
2288.761	787.95833
2291.302	793.95833
2293.841	789.29167
2296.377	774.29167
2298.913	767.95833
2301.446	788.625
2303.978	774.625
2306.508	780.625
2309.037	778.95833
2311.563	774.95833
2314.088	773.625
2316.612	750.95833
2319.133	764.625
2321.653	759.95833
2324.171	756.95833
2326.688	761.29167
2329.202	748.95833
2331.715	751.95833
2334.227	743.95833
2336.736	741.625
2339.244	744.625
2341.751	722.29167
2344.255	745.95833
2346.758	743.95833
2349.259	730.95833
2351.759	735.29167
2354.257	723.95833
2356.753	725.29167
2359.247	732.625
2361.74	722.29167
2364.231	718.625
2366.721	725.29167
2369.209	720.625
2371.695	715.29167
2374.179	715.625
2376.662	711.29167
2379.143	739.625
2381.622	717.95833
2384.1	723.29167
2386.576	710.95833
2389.051	729.95833
2391.524	730.95833
2393.995	719.29167
2396.464	696.29167
2398.932	691.625
2401.398	697.95833
2403.863	700.29167
2406.325	692.29167
2408.787	706.625
2411.246	687.625
2413.704	692.95833
2416.16	696.29167
2418.615	695.29167
2421.068	704.625
2423.519	693.95833
2425.969	699.95833
2428.417	697.95833
2430.863	711.625
2433.308	689.95833
2435.751	689.29167
2438.193	680.95833
2440.633	698.29167
2443.071	687.625
2445.508	679.625
2447.943	670.625
2450.376	674.95833
2452.808	686.95833
2455.238	674.625
2457.667	690.625
2460.093	680.95833
2462.519	656.29167
2464.942	664.625
2467.365	680.625
2469.785	674.625
2472.204	661.29167
2474.621	661.95833
2477.037	680.625
2479.451	658.95833
2481.863	645.29167
2484.274	649.29167
2486.683	658.29167
2489.091	667.95833
2491.497	662.29167
2493.901	656.95833
2496.304	649.95833
2498.705	666.95833
2501.105	650.95833
2503.503	673.625
2505.899	634.95833
2508.294	675.625
2510.687	642.625
2513.079	650.29167
2515.469	638.29167
2517.858	641.29167
2520.245	662.29167
2522.63	640.95833
2525.014	637.95833
2527.396	638.29167
2529.776	642.29167
2532.156	640.625
2534.533	633.625
2536.909	637.625
2539.283	625.625
2541.656	632.29167
2544.027	658.625
2546.397	635.95833
2548.765	629.29167
2551.131	634.29167
2553.496	627.625
2555.86	642.95833
2558.221	631.29167
2560.582	634.29167
2562.94	614.29167
2565.298	626.29167
2567.653	638.95833
2570.007	621.29167
2572.36	628.95833
2574.711	626.625
2577.06	648.625
2579.408	622.29167
2581.754	623.29167
2584.099	627.95833
2586.442	632.625
2588.784	630.95833
2591.124	628.29167
2593.463	626.29167
2595.8	635.29167
2598.135	616.625
2600.469	618.95833
2602.802	645.29167
2605.133	626.625
2607.462	615.29167
2609.79	605.29167
2612.116	629.29167
2614.441	626.625
2616.764	619.625
2619.086	622.625
2621.406	621.95833
2623.725	630.29167
2626.042	631.625
2628.358	615.95833
2630.672	616.29167
2632.985	634.29167
2635.296	631.29167
2637.606	632.29167
2639.914	615.29167
2642.22	624.29167
2644.525	628.95833
2646.829	628.29167
2649.131	639.29167
2651.432	644.95833
2653.731	634.29167
2656.028	645.95833
2658.324	649.95833
2660.619	628.95833
2662.912	649.95833
2665.204	626.625
2667.494	644.29167
2669.782	624.625
2672.07	638.95833
2674.355	662.29167
2676.639	628.625
2678.922	632.95833
2681.203	644.29167
2683.483	636.29167
2685.761	632.625
2688.038	641.625
2690.313	653.95833
2692.587	645.29167
2694.859	638.29167
2697.13	642.95833
2699.399	657.95833
2701.667	671.29167
2703.933	671.625
2706.198	666.625
2708.461	680.29167
2710.723	677.625
2712.984	681.625
2715.243	680.625
2717.5	690.95833
2719.757	703.29167
2722.011	689.29167
2724.264	708.95833
2726.516	720.625
2728.766	689.95833
2731.015	712.625
2733.262	695.95833
2735.508	684.95833
2737.753	696.29167
2739.996	674.95833
2742.237	675.625
2744.477	692.625
2746.716	683.625
2748.953	664.625
2751.189	680.95833
2753.423	660.29167
2755.656	675.625
2757.887	656.29167
2760.117	657.95833
2762.346	655.625
2764.573	650.95833
2766.798	653.95833
2769.022	659.625
2771.245	666.625
2773.467	667.29167
2775.686	666.95833
2777.905	678.29167
2780.122	693.625
2782.337	687.29167
2784.552	676.625
2786.764	713.95833
2788.976	694.29167
2791.186	719.29167
2793.394	713.29167
2795.601	728.29167
2797.807	743.95833
2800.011	735.95833
2802.214	761.95833
2804.415	768.625
2806.615	761.95833
2808.814	774.29167
2811.011	800.625
2813.206	796.29167
2815.401	816.625
2817.594	827.29167
2819.785	847.95833
2821.975	831.29167
2824.164	848.625
2826.351	873.625
2828.537	883.95833
2830.722	915.625
2832.905	921.625
2835.086	952.625
2837.267	1000.29167
2839.445	1035.29167
2841.623	1053.29167
2843.799	1104.95833
2845.974	1145.29167
2848.147	1202.95833
2850.319	1227.95833
2852.489	1264.29167
2854.659	1273.625
2856.826	1305.95833
2858.993	1334.95833
2861.158	1316.29167
2863.321	1333.29167
2865.483	1348.95833
2867.644	1350.625
2869.804	1330.29167
2871.962	1328.29167
2874.118	1346.95833
2876.274	1365.29167
2878.428	1351.625
2880.58	1327.95833
2882.731	1316.95833
2884.881	1314.625
2887.03	1308.95833
2889.177	1302.95833
2891.322	1327.95833
2893.467	1307.95833
2895.61	1321.625
2897.751	1349.29167
2899.892	1346.95833
2902.03	1350.95833
2904.168	1371.95833
2906.304	1370.29167
2908.439	1388.29167
2910.572	1379.29167
2912.704	1374.625
2914.835	1382.625
2916.965	1378.29167
2919.093	1403.95833
2921.219	1358.625
2923.345	1362.625
2925.469	1338.29167
2927.591	1313.625
2929.712	1280.29167
2931.832	1271.95833
2933.951	1242.625
2936.068	1206.29167
2938.184	1184.625
2940.299	1130.625
2942.412	1108.95833
2944.524	1060.29167
2946.634	1033.95833
2948.744	987.29167
2950.851	986.95833
2952.958	935.95833
2955.063	924.29167
2957.167	900.29167
2959.269	871.95833
2961.371	884.29167
2963.471	835.625
2965.569	829.95833
2967.666	797.625
2969.762	786.29167
2971.857	769.625
2973.95	743.95833
2976.042	726.95833
2978.133	715.29167
2980.222	699.625
2982.31	669.625
2984.396	646.29167
2986.482	643.95833
2988.566	639.95833
2990.648	632.29167
2992.73	623.625
2994.81	601.95833
2996.889	606.625
2998.966	608.625
3001.042	603.95833
3003.117	588.625
3005.191	590.29167
3007.263	589.95833
3009.334	580.29167
3011.403	557.95833
3013.472	537.625
3015.539	546.29167
3017.604	555.95833
3019.669	508.625
3021.732	517.29167
3023.794	515.95833
3025.854	506.29167
3027.914	507.95833
3029.971	503.29167
3032.028	507.95833
3034.083	484.625
3036.137	493.29167
3038.19	474.29167
3040.242	462.95833
3042.292	459.29167
3044.341	451.95833
3046.388	463.29167
3048.435	433.29167
3050.48	452.29167
3052.524	449.29167
3054.566	424.95833
3056.607	444.95833
3058.647	424.625
3060.686	406.625
3062.723	385.29167
3064.759	382.625
3066.794	-0.04167
3068.828	-0.375
3070.86	-0.375
