-0.839	472.91667
3.438	540.25
7.711	156.58333
11.981	56.25
16.247	46.25
20.509	47.91667
24.768	45.91667
29.024	45.91667
33.276	42.91667
37.524	50.25
41.769	39.25
46.01	38.91667
50.247	50.58333
54.481	59.91667
58.712	65.25
62.939	49.58333
67.162	61.58333
71.382	55.25
75.599	48.25
79.812	63.58333
84.021	80.25
88.227	54.91667
92.429	61.91667
96.628	46.58333
100.823	63.91667
105.015	75.58333
109.204	73.25
113.388	78.25
117.57	69.58333
121.748	85.58333
125.922	79.91667
130.093	99.91667
134.261	101.58333
138.425	101.25
142.585	138.58333
146.742	139.25
150.896	158.25
155.046	192.58333
159.193	321.25
163.336	538.91667
167.476	989.58333
171.613	1810.25
175.746	3000.91667
179.875	4420.91667
184.002	5731.25
188.124	6702.91667
192.244	7020.58333
196.36	6969.25
200.472	6769.91667
204.581	6617.58333
208.687	6455.25
212.79	6412.58333
216.889	6434.91667
220.984	6502.25
225.077	6547.25
229.165	6659.25
233.251	6731.25
237.333	6808.58333
241.412	6805.58333
245.487	6779.58333
249.559	6692.25
253.628	6678.91667
257.694	6614.58333
261.756	6546.25
265.814	6426.91667
269.87	6233.91667
273.922	6026.91667
277.97	5899.58333
282.016	5839.25
286.058	5767.58333
290.097	5758.58333
294.132	5787.25
298.164	5719.25
302.193	5470.58333
306.219	5040.25
310.241	4568.58333
314.26	4145.25
318.276	3785.91667
322.288	3536.91667
326.297	3303.91667
330.303	3178.25
334.305	3049.58333
338.305	2984.91667
342.301	2936.91667
346.294	2882.58333
350.283	2862.58333
354.269	2831.25
358.252	2816.58333
362.232	2759.91667
366.209	2739.25
370.182	2731.25
374.152	2715.91667
378.119	2705.58333
382.083	2701.25
386.043	2724.58333
390	2642.91667
393.954	2642.91667
397.905	2651.91667
401.852	2632.25
405.797	2593.58333
409.738	2565.58333
413.676	2556.91667
417.61	2546.58333
421.542	2512.25
425.47	2497.91667
429.396	2465.91667
433.318	2443.91667
437.236	2436.58333
441.152	2439.25
445.065	2399.91667
448.974	2404.25
452.88	2371.91667
456.783	2370.58333
460.683	2331.58333
464.58	2348.91667
468.473	2348.58333
472.364	2337.58333
476.251	2352.58333
480.135	2374.91667
484.016	2408.25
487.894	2380.58333
491.769	2428.58333
495.641	2415.58333
499.509	2418.91667
503.375	2405.25
507.237	2404.91667
511.096	2393.91667
514.952	2435.58333
518.805	2444.91667
522.655	2461.58333
526.502	2392.58333
530.346	2397.25
534.187	2400.58333
538.024	2399.58333
541.859	2399.91667
545.69	2428.58333
549.519	2427.58333
553.344	2387.25
557.166	2353.91667
560.985	2358.25
564.802	2312.91667
568.615	2274.58333
572.425	2253.25
576.232	2222.58333
580.036	2223.25
583.836	2236.25
587.634	2224.91667
591.429	2233.25
595.221	2287.25
599.01	2314.91667
602.796	2326.91667
606.578	2343.91667
610.358	2366.91667
614.135	2331.58333
617.909	2312.25
621.679	2318.58333
625.447	2308.25
629.212	2308.25
632.973	2315.58333
636.732	2299.25
640.488	2319.25
644.241	2270.25
647.991	2291.25
651.737	2289.58333
655.481	2271.91667
659.222	2278.58333
662.96	2287.25
666.695	2296.25
670.427	2300.91667
674.156	2307.25
677.882	2299.58333
681.605	2313.58333
685.325	2261.91667
689.043	2281.91667
692.757	2273.25
696.468	2279.58333
700.177	2282.25
703.882	2266.25
707.585	2272.58333
711.284	2255.25
714.981	2269.91667
718.675	2281.58333
722.366	2295.58333
726.054	2276.91667
729.739	2282.58333
733.421	2277.58333
737.1	2266.58333
740.777	2315.58333
744.45	2307.58333
748.121	2338.91667
751.789	2392.58333
755.453	2373.91667
759.115	2376.25
762.774	2399.25
766.431	2420.25
770.084	2446.58333
773.734	2493.58333
777.382	2541.58333
781.027	2549.25
784.669	2574.91667
788.308	2568.58333
791.944	2594.91667
795.577	2634.25
799.208	2646.25
802.835	2667.58333
806.46	2682.25
810.082	2712.91667
813.701	2741.58333
817.317	2739.25
820.931	2751.58333
824.542	2752.25
828.149	2718.91667
831.754	2691.58333
835.357	2666.91667
838.956	2677.91667
842.553	2640.58333
846.146	2646.91667
849.737	2631.58333
853.326	2635.91667
856.911	2648.91667
860.493	2698.58333
864.073	2712.91667
867.65	2742.58333
871.225	2779.91667
874.796	2762.91667
878.365	2798.91667
881.931	2792.58333
885.494	2808.91667
889.054	2821.25
892.612	2814.91667
896.166	2809.91667
899.719	2775.58333
903.268	2758.58333
906.814	2730.58333
910.358	2736.25
913.899	2705.58333
917.438	2730.25
920.973	2713.25
924.506	2758.25
928.036	2806.58333
931.564	2808.58333
935.088	2847.25
938.61	2833.25
942.129	2864.25
945.646	2983.25
949.16	3050.58333
952.671	3093.25
956.179	3126.91667
959.685	3123.91667
963.188	3104.25
966.688	3059.25
970.185	2970.91667
973.68	2902.91667
977.173	2883.25
980.662	2866.91667
984.149	2899.25
987.633	2856.91667
991.114	2924.91667
994.593	2990.58333
998.069	3102.58333
1001.542	3206.58333
1005.013	3139.91667
1008.481	2983.58333
1011.947	2887.25
1015.409	2868.25
1018.869	2869.91667
1022.327	2874.58333
1025.782	2862.91667
1029.234	2871.91667
1032.683	2826.25
1036.13	2743.91667
1039.574	2615.25
1043.016	2555.91667
1046.455	2506.58333
1049.891	2469.25
1053.325	2496.58333
1056.756	2504.91667
1060.184	2515.25
1063.61	2523.91667
1067.033	2531.25
1070.454	2519.58333
1073.872	2567.58333
1077.287	2555.91667
1080.7	2552.91667
1084.11	2567.58333
1087.517	2530.91667
1090.922	2510.91667
1094.325	2477.91667
1097.724	2463.91667
1101.122	2461.91667
1104.516	2464.91667
1107.908	2473.58333
1111.298	2501.25
1114.684	2536.25
1118.069	2562.58333
1121.45	2593.91667
1124.83	2558.91667
1128.206	2628.58333
1131.58	2661.25
1134.951	2708.91667
1138.32	2810.58333
1141.687	2925.91667
1145.05	3014.25
1148.412	3049.91667
1151.77	3021.91667
1155.126	3019.58333
1158.48	3017.91667
1161.831	3025.25
1165.18	3059.25
1168.525	3129.25
1171.869	3148.91667
1175.21	3210.58333
1178.548	3250.58333
1181.884	3250.58333
1185.217	3274.58333
1188.548	3312.58333
1191.877	3374.58333
1195.202	3429.25
1198.526	3493.58333
1201.846	3490.25
1205.165	3497.91667
1208.48	3477.91667
1211.794	3468.25
1215.104	3466.91667
1218.413	3486.91667
1221.719	3468.58333
1225.022	3433.58333
1228.323	3362.91667
1231.621	3376.25
1234.917	3349.91667
1238.21	3390.58333
1241.501	3379.58333
1244.79	3364.25
1248.076	3355.25
1251.359	3402.58333
1254.64	3473.25
1257.919	3479.58333
1261.195	3562.91667
1264.468	3624.58333
1267.74	3665.91667
1271.008	3678.58333
1274.275	3647.58333
1277.538	3651.58333
1280.8	3605.91667
1284.059	3635.91667
1287.315	3647.25
1290.569	3695.58333
1293.821	3706.58333
1297.07	3720.25
1300.317	3766.25
1303.562	3756.58333
1306.803	3695.91667
1310.043	3687.58333
1313.28	3635.25
1316.515	3594.91667
1319.747	3551.25
1322.977	3496.58333
1326.204	3461.91667
1329.429	3401.25
1332.652	3381.25
1335.872	3365.25
1339.09	3358.91667
1342.306	3347.91667
1345.519	3309.25
1348.729	3288.25
1351.938	3264.91667
1355.144	3222.25
1358.347	3181.25
1361.548	3173.58333
1364.747	3187.91667
1367.944	3156.91667
1371.138	3182.91667
1374.329	3196.25
1377.518	3238.25
1380.705	3289.58333
1383.89	3254.25
1387.072	3189.91667
1390.252	3052.91667
1393.429	2946.58333
1396.605	2851.91667
1399.777	2789.91667
1402.948	2741.91667
1406.116	2709.58333
1409.282	2709.58333
1412.445	2733.58333
1415.606	2740.25
1418.765	2774.58333
1421.921	2882.58333
1425.075	2920.91667
1428.227	3018.25
1431.376	3165.25
1434.524	3275.25
1437.668	3393.25
1440.811	3420.25
1443.951	3451.25
1447.089	3430.58333
1450.224	3442.25
1453.357	3425.91667
1456.488	3384.91667
1459.617	3339.25
1462.743	3338.91667
1465.867	3222.25
1468.989	3192.91667
1472.108	3144.58333
1475.225	3107.91667
1478.34	3056.58333
1481.453	3061.91667
1484.563	3069.91667
1487.671	3118.25
1490.776	3154.25
1493.88	3217.58333
1496.981	3264.91667
1500.08	3351.25
1503.176	3404.25
1506.271	3465.58333
1509.363	3497.91667
1512.452	3542.58333
1515.54	3581.58333
1518.625	3682.25
1521.708	3814.91667
1524.789	4046.91667
1527.867	4249.91667
1530.944	4489.91667
1534.018	4717.91667
1537.089	4845.25
1540.159	4847.58333
1543.226	4748.91667
1546.291	4570.25
1549.354	4417.91667
1552.415	4292.25
1555.473	4187.25
1558.529	4097.91667
1561.583	4055.25
1564.634	4033.91667
1567.684	4018.91667
1570.731	4036.91667
1573.776	4084.91667
1576.819	4091.58333
1579.859	4180.58333
1582.898	4212.91667
1585.934	4266.58333
1588.968	4274.25
1591.999	4232.58333
1595.029	4247.58333
1598.056	4268.91667
1601.081	4291.58333
1604.104	4268.91667
1607.125	4216.58333
1610.144	4143.25
1613.16	4035.25
1616.174	3953.58333
1619.186	3840.91667
1622.196	3759.25
1625.203	3667.58333
1628.209	3619.58333
1631.212	3591.25
1634.213	3562.25
1637.212	3525.91667
1640.209	3477.25
1643.203	3379.58333
1646.196	3286.25
1649.186	3152.25
1652.174	3034.25
1655.16	2949.58333
1658.144	2849.91667
1661.125	2727.58333
1664.105	2602.58333
1667.082	2480.25
1670.057	2361.25
1673.03	2203.25
1676.001	2048.58333
1678.97	1910.58333
1681.937	1804.58333
1684.901	1705.91667
1687.863	1642.25
1690.824	1551.25
1693.782	1541.58333
1696.738	1479.91667
1699.692	1437.91667
1702.643	1405.91667
1705.593	1406.91667
1708.54	1366.25
1711.486	1380.25
1714.429	1310.58333
1717.37	1320.25
1720.309	1294.91667
1723.246	1311.58333
1726.181	1265.91667
1729.113	1287.91667
1732.044	1247.25
1734.972	1234.91667
1737.899	1249.25
1740.823	1228.25
1743.745	1234.91667
1746.665	1185.25
1749.583	1178.25
1752.499	1153.91667
1755.413	1127.91667
1758.325	1099.58333
1761.235	1109.25
1764.142	1081.58333
1767.048	1081.25
1769.951	1084.58333
1772.852	1065.58333
1775.752	1059.58333
1778.649	1051.25
1781.544	1053.58333
1784.437	1020.58333
1787.328	1028.91667
1790.217	1018.91667
1793.104	999.25
1795.989	1003.25
1798.872	995.91667
1801.753	1002.58333
1804.631	997.91667
1807.508	1016.91667
1810.383	990.91667
1813.255	986.91667
1816.126	987.58333
1818.994	983.25
1821.861	974.58333
1824.725	981.58333
1827.587	976.58333
1830.448	959.91667
1833.306	937.58333
1836.162	959.91667
1839.017	940.58333
1841.869	935.25
1844.719	932.91667
1847.567	914.58333
1850.414	917.91667
1853.258	925.58333
1856.1	936.91667
1858.94	936.91667
1861.778	939.58333
1864.614	922.25
1867.448	917.91667
1870.28	912.25
1873.111	923.25
1875.939	923.58333
1878.765	936.91667
1881.589	912.25
1884.411	891.25
1887.231	906.91667
1890.049	913.91667
1892.865	914.58333
1895.68	899.25
1898.492	901.58333
1901.302	879.58333
1904.11	896.25
1906.916	884.58333
1909.721	865.25
1912.523	893.91667
1915.323	854.25
1918.122	863.25
1920.918	870.58333
1923.712	870.25
1926.505	870.91667
1929.295	839.91667
1932.084	864.25
1934.87	871.25
1937.655	851.58333
1940.438	858.91667
1943.218	859.58333
1945.997	862.58333
1948.774	868.58333
1951.549	860.58333
1954.322	842.91667
1957.093	850.25
1959.862	843.58333
1962.629	837.58333
1965.394	841.25
1968.157	810.91667
1970.918	831.91667
1973.678	822.58333
1976.435	824.58333
1979.19	823.25
1981.944	813.91667
1984.696	811.91667
1987.445	797.25
1990.193	815.91667
1992.939	828.25
1995.683	802.58333
1998.425	797.58333
2001.165	820.58333
2003.903	806.25
2006.639	801.25
2009.374	802.58333
2012.106	810.58333
2014.837	772.25
2017.566	796.91667
2020.292	800.58333
2023.017	806.25
2025.74	791.25
2028.461	788.25
2031.18	790.58333
2033.898	777.91667
2036.613	797.58333
2039.327	783.25
2042.038	774.58333
2044.748	780.58333
2047.456	777.91667
2050.162	757.25
2052.866	756.58333
2055.568	765.58333
2058.268	765.91667
2060.967	767.58333
2063.663	753.91667
2066.358	766.91667
2069.051	763.58333
2071.742	767.91667
2074.431	771.25
2077.118	763.25
2079.804	747.58333
2082.487	754.58333
2085.169	770.58333
2087.849	777.58333
2090.527	756.25
2093.203	768.91667
2095.877	774.58333
2098.55	772.25
2101.22	790.91667
2103.889	784.91667
2106.556	788.58333
2109.221	816.58333
2111.884	820.25
2114.546	880.91667
2117.205	914.25
2119.863	1003.91667
2122.519	1058.25
2125.173	1139.25
2127.825	1224.25
2130.475	1251.91667
2133.124	1242.25
2135.771	1187.58333
2138.416	1130.58333
2141.059	1068.58333
2143.7	1037.25
2146.339	968.91667
2148.977	920.91667
2151.613	916.25
2154.247	864.25
2156.879	857.58333
2159.51	853.58333
2162.138	825.25
2164.765	812.25
2167.39	810.25
2170.013	826.25
2172.634	806.91667
2175.254	787.58333
2177.872	816.91667
2180.488	773.25
2183.102	792.91667
2185.714	764.25
2188.325	743.91667
2190.934	742.25
2193.541	734.91667
2196.146	725.25
2198.75	716.58333
2201.351	721.58333
2203.951	690.91667
2206.549	709.58333
2209.146	702.25
2211.74	688.25
2214.333	706.25
2216.924	669.25
2219.514	688.25
2222.101	663.91667
2224.687	682.58333
2227.271	662.58333
2229.853	664.91667
2232.433	664.58333
2235.012	673.58333
2237.589	667.91667
2240.164	663.25
2242.738	655.91667
2245.309	645.91667
2247.879	648.58333
2250.448	648.91667
2253.014	629.91667
2255.579	608.58333
2258.142	644.91667
2260.703	603.58333
2263.262	615.58333
2265.82	608.25
2268.376	606.91667
2270.93	594.91667
2273.483	585.91667
2276.033	604.58333
2278.583	594.25
2281.13	580.58333
2283.675	575.58333
2286.219	591.58333
2288.761	587.25
2291.302	586.58333
2293.841	594.25
2296.377	574.58333
2298.913	567.91667
2301.446	587.25
2303.978	575.58333
2306.508	560.91667
2309.037	574.25
2311.563	573.58333
2314.088	580.25
2316.612	559.58333
2319.133	561.25
2321.653	551.58333
2324.171	560.25
2326.688	565.58333
2329.202	546.91667
2331.715	555.58333
2334.227	554.58333
2336.736	549.25
2339.244	546.91667
2341.751	547.25
2344.255	551.58333
2346.758	537.58333
2349.259	533.58333
2351.759	541.58333
2354.257	526.25
2356.753	525.25
2359.247	537.25
2361.74	544.58333
2364.231	539.25
2366.721	545.25
2369.209	526.58333
2371.695	530.91667
2374.179	528.91667
2376.662	527.25
2379.143	539.25
2381.622	522.58333
2384.1	529.91667
2386.576	514.91667
2389.051	529.58333
2391.524	538.58333
2393.995	528.58333
2396.464	506.91667
2398.932	525.25
2401.398	526.91667
2403.863	512.25
2406.325	500.91667
2408.787	511.25
2411.246	514.58333
2413.704	506.25
2416.16	505.58333
2418.615	503.91667
2421.068	519.58333
2423.519	508.58333
2425.969	499.25
2428.417	508.58333
2430.863	527.25
2433.308	513.58333
2435.751	512.91667
2438.193	494.91667
2440.633	506.58333
2443.071	504.58333
2445.508	495.25
2447.943	498.91667
2450.376	476.25
2452.808	498.25
2455.238	486.25
2457.667	512.25
2460.093	490.25
2462.519	483.25
2464.942	485.25
2467.365	492.91667
2469.785	494.25
2472.204	494.91667
2474.621	475.91667
2477.037	492.58333
2479.451	470.58333
2481.863	471.25
2484.274	474.58333
2486.683	481.25
2489.091	484.25
2491.497	482.58333
2493.901	475.58333
2496.304	472.25
2498.705	475.25
2501.105	469.25
2503.503	498.91667
2505.899	469.91667
2508.294	491.25
2510.687	466.58333
2513.079	466.25
2515.469	458.91667
2517.858	470.58333
2520.245	490.25
2522.63	467.25
2525.014	470.91667
2527.396	458.58333
2529.776	457.25
2532.156	471.91667
2534.533	459.91667
2536.909	458.58333
2539.283	446.91667
2541.656	451.91667
2544.027	477.58333
2546.397	458.25
2548.765	454.25
2551.131	460.58333
2553.496	462.91667
2555.86	472.58333
2558.221	452.25
2560.582	458.58333
2562.94	444.91667
2565.298	444.58333
2567.653	469.25
2570.007	443.91667
2572.36	468.25
2574.711	457.58333
2577.06	467.25
2579.408	456.91667
2581.754	451.91667
2584.099	454.25
2586.442	455.25
2588.784	449.58333
2591.124	449.58333
2593.463	446.58333
2595.8	458.25
2598.135	435.25
2600.469	452.58333
2602.802	459.58333
2605.133	451.91667
2607.462	442.91667
2609.79	445.25
2612.116	451.25
2614.441	446.25
2616.764	452.25
2619.086	447.91667
2621.406	436.25
2623.725	453.25
2626.042	455.91667
2628.358	445.58333
2630.672	447.91667
2632.985	458.25
2635.296	460.58333
2637.606	454.25
2639.914	440.58333
2642.22	451.25
2644.525	443.91667
2646.829	459.58333
2649.131	461.25
2651.432	457.58333
2653.731	450.91667
2656.028	456.58333
2658.324	453.58333
2660.619	437.91667
2662.912	465.91667
2665.204	448.25
2667.494	465.91667
2669.782	450.58333
2672.07	464.91667
2674.355	473.58333
2676.639	454.91667
2678.922	449.25
2681.203	468.25
2683.483	443.58333
2685.761	443.25
2688.038	459.91667
2690.313	481.25
2692.587	470.58333
2694.859	454.25
2697.13	467.58333
2699.399	465.91667
2701.667	478.58333
2703.933	482.25
2706.198	479.91667
2708.461	487.58333
2710.723	482.91667
2712.984	490.58333
2715.243	499.58333
2717.5	496.58333
2719.757	501.58333
2722.011	483.91667
2724.264	506.58333
2726.516	514.25
2728.766	496.58333
2731.015	487.58333
2733.262	498.91667
2735.508	494.58333
2737.753	501.25
2739.996	477.25
2742.237	479.91667
2744.477	495.58333
2746.716	492.58333
2748.953	484.58333
2751.189	479.91667
2753.423	478.25
2755.656	461.25
2757.887	466.25
2760.117	469.91667
2762.346	467.91667
2764.573	458.25
2766.798	455.25
2769.022	459.25
2771.245	464.91667
2773.467	468.25
2775.686	466.58333
2777.905	479.91667
2780.122	483.91667
2782.337	483.25
2784.552	480.58333
2786.764	482.58333
2788.976	495.91667
2791.186	498.25
2793.394	506.58333
2795.601	512.58333
2797.807	518.58333
2800.011	526.25
2802.214	522.25
2804.415	525.25
2806.615	538.91667
2808.814	548.25
2811.011	555.58333
2813.206	538.91667
2815.401	567.25
2817.594	576.58333
2819.785	589.58333
2821.975	585.91667
2824.164	594.25
2826.351	601.58333
2828.537	629.58333
2830.722	643.25
2832.905	654.25
2835.086	683.91667
2837.267	726.58333
2839.445	749.58333
2841.623	764.91667
2843.799	807.58333
2845.974	844.91667
2848.147	881.91667
2850.319	899.25
2852.489	931.25
2854.659	949.25
2856.826	970.58333
2858.993	998.58333
2861.158	983.58333
2863.321	982.58333
2865.483	1004.91667
2867.644	1000.91667
2869.804	1005.25
2871.962	1002.25
2874.118	1004.58333
2876.274	996.91667
2878.428	987.91667
2880.58	980.25
2882.731	975.58333
2884.881	983.91667
2887.03	982.25
2889.177	991.91667
2891.322	992.58333
2893.467	994.25
2895.61	996.58333
2897.751	1026.25
2899.892	1014.25
2902.03	1024.91667
2904.168	1045.58333
2906.304	1035.58333
2908.439	1071.58333
2910.572	1026.91667
2912.704	1047.25
2914.835	1080.91667
2916.965	1058.25
2919.093	1066.58333
2921.219	1014.25
2923.345	1051.91667
2925.469	1021.91667
2927.591	1001.25
2929.712	986.91667
2931.832	985.91667
2933.951	941.58333
2936.068	932.58333
2938.184	900.25
2940.299	874.25
2942.412	845.91667
2944.524	809.91667
2946.634	790.58333
2948.744	737.58333
2950.851	752.91667
2952.958	710.58333
2955.063	699.25
2957.167	691.91667
2959.269	654.58333
2961.371	668.25
2963.471	631.58333
2965.569	643.25
2967.666	597.25
2969.762	594.58333
2971.857	572.25
2973.95	553.91667
2976.042	544.25
2978.133	531.91667
2980.222	524.91667
2982.31	505.58333
2984.396	476.25
2986.482	487.25
2988.566	477.91667
2990.648	457.25
2992.73	467.91667
2994.81	453.25
2996.889	456.58333
2998.966	445.25
3001.042	453.58333
3003.117	443.25
3005.191	443.91667
3007.263	429.58333
3009.334	418.91667
3011.403	421.91667
3013.472	400.58333
3015.539	403.58333
3017.604	416.91667
3019.669	377.25
3021.732	385.58333
3023.794	393.25
3025.854	372.58333
3027.914	364.58333
3029.971	381.58333
3032.028	372.25
3034.083	368.58333
3036.137	370.58333
3038.19	347.91667
3040.242	350.58333
3042.292	339.58333
3044.341	339.25
3046.388	349.58333
3048.435	319.91667
3050.48	344.58333
3052.524	338.91667
3054.566	316.91667
3056.607	327.91667
3058.647	323.91667
3060.686	301.25
3062.723	297.58333
3064.759	286.91667
3066.794	0.91667
3068.828	-2.08333
3070.86	-2.41667
