-0.839	476.91667
3.438	542.91667
7.711	151.91667
11.981	58.91667
16.247	45.58333
20.509	45.25
24.768	46.91667
29.024	40.91667
33.276	44.58333
37.524	49.25
41.769	41.58333
46.01	36.58333
50.247	47.25
54.481	61.25
58.712	66.25
62.939	50.25
67.162	57.91667
71.382	55.58333
75.599	45.58333
79.812	64.91667
84.021	76.58333
88.227	54.91667
92.429	63.91667
96.628	53.25
100.823	66.91667
105.015	74.58333
109.204	80.58333
113.388	70.91667
117.57	72.58333
121.748	87.58333
125.922	78.58333
130.093	99.58333
134.261	105.58333
138.425	95.25
142.585	139.25
146.742	137.91667
150.896	160.91667
155.046	199.25
159.193	314.91667
163.336	528.91667
167.476	989.25
171.613	1782.91667
175.746	2974.91667
179.875	4425.25
184.002	5788.58333
188.124	6720.25
192.244	7033.58333
196.36	6998.91667
200.472	6839.91667
204.581	6644.25
208.687	6452.58333
212.79	6406.25
216.889	6415.91667
220.984	6487.58333
225.077	6612.58333
229.165	6715.25
233.251	6722.91667
237.333	6809.25
241.412	6830.25
245.487	6793.25
249.559	6741.25
253.628	6680.25
257.694	6637.25
261.756	6578.58333
265.814	6423.25
269.87	6276.91667
273.922	6062.91667
277.97	5953.91667
282.016	5831.91667
286.058	5752.25
290.097	5807.58333
294.132	5793.91667
298.164	5754.58333
302.193	5507.58333
306.219	5064.91667
310.241	4608.25
314.26	4169.58333
318.276	3795.25
322.288	3532.91667
326.297	3346.25
330.303	3197.58333
334.305	3080.58333
338.305	2995.91667
342.301	2956.25
346.294	2904.91667
350.283	2893.58333
354.269	2846.58333
358.252	2820.91667
362.232	2796.25
366.209	2786.25
370.182	2735.91667
374.152	2732.91667
378.119	2723.58333
382.083	2720.25
386.043	2720.91667
390	2702.58333
393.954	2677.58333
397.905	2659.58333
401.852	2634.25
405.797	2613.91667
409.738	2582.58333
413.676	2588.91667
417.61	2560.58333
421.542	2549.25
425.47	2505.25
429.396	2478.91667
433.318	2459.25
437.236	2465.25
441.152	2485.25
445.065	2416.91667
448.974	2427.25
452.88	2383.58333
456.783	2384.25
460.683	2369.91667
464.58	2388.25
468.473	2360.25
472.364	2370.58333
476.251	2369.91667
480.135	2405.25
484.016	2396.91667
487.894	2435.25
491.769	2450.58333
495.641	2460.25
499.509	2417.58333
503.375	2444.25
507.237	2436.58333
511.096	2436.25
514.952	2457.58333
518.805	2484.91667
522.655	2504.91667
526.502	2433.58333
530.346	2425.25
534.187	2424.25
538.024	2432.58333
541.859	2419.25
545.69	2475.25
549.519	2443.25
553.344	2404.91667
557.166	2376.91667
560.985	2372.58333
564.802	2325.58333
568.615	2291.58333
572.425	2257.91667
576.232	2269.58333
580.036	2241.91667
583.836	2260.91667
587.634	2248.91667
591.429	2260.91667
595.221	2310.58333
599.01	2318.25
602.796	2347.58333
606.578	2374.25
610.358	2379.91667
614.135	2370.25
617.909	2366.25
621.679	2333.91667
625.447	2320.58333
629.212	2331.58333
632.973	2332.25
636.732	2322.91667
640.488	2351.58333
644.241	2306.58333
647.991	2299.91667
651.737	2325.25
655.481	2289.25
659.222	2332.58333
662.96	2318.58333
666.695	2316.91667
670.427	2328.91667
674.156	2344.91667
677.882	2318.58333
681.605	2330.91667
685.325	2296.58333
689.043	2331.91667
692.757	2272.91667
696.468	2306.25
700.177	2316.91667
703.882	2280.58333
707.585	2297.25
711.284	2293.58333
714.981	2295.91667
718.675	2307.91667
722.366	2341.25
726.054	2298.58333
729.739	2302.25
733.421	2295.58333
737.1	2298.91667
740.777	2324.91667
744.45	2329.58333
748.121	2357.25
751.789	2392.58333
755.453	2385.58333
759.115	2400.25
762.774	2426.25
766.431	2450.25
770.084	2452.58333
773.734	2507.25
777.382	2562.25
781.027	2605.25
784.669	2590.25
788.308	2599.25
791.944	2615.25
795.577	2640.58333
799.208	2665.91667
802.835	2695.91667
806.46	2722.25
810.082	2751.58333
813.701	2746.25
817.317	2775.25
820.931	2761.58333
824.542	2774.91667
828.149	2736.58333
831.754	2711.25
835.357	2692.91667
838.956	2688.25
842.553	2652.91667
846.146	2651.91667
849.737	2637.91667
853.326	2663.58333
856.911	2655.25
860.493	2715.58333
864.073	2714.25
867.65	2757.91667
871.225	2785.58333
874.796	2783.58333
878.365	2804.25
881.931	2845.58333
885.494	2861.58333
889.054	2863.25
892.612	2842.58333
896.166	2822.58333
899.719	2802.58333
903.268	2758.25
906.814	2775.91667
910.358	2736.25
913.899	2717.91667
917.438	2723.91667
920.973	2711.91667
924.506	2769.25
928.036	2790.58333
931.564	2825.25
935.088	2857.58333
938.61	2878.91667
942.129	2893.25
945.646	2970.25
949.16	3031.58333
952.671	3118.91667
956.179	3157.91667
959.685	3122.25
963.188	3115.58333
966.688	3063.58333
970.185	3000.58333
973.68	2941.91667
977.173	2899.58333
980.662	2881.58333
984.149	2900.58333
987.633	2910.91667
991.114	2927.25
994.593	3022.25
998.069	3129.25
1001.542	3214.91667
1005.013	3175.58333
1008.481	2976.91667
1011.947	2927.25
1015.409	2905.25
1018.869	2900.58333
1022.327	2889.58333
1025.782	2892.58333
1029.234	2881.58333
1032.683	2851.58333
1036.13	2769.25
1039.574	2641.25
1043.016	2585.91667
1046.455	2533.91667
1049.891	2489.91667
1053.325	2515.58333
1056.756	2490.91667
1060.184	2528.58333
1063.61	2530.25
1067.033	2540.91667
1070.454	2525.25
1073.872	2585.58333
1077.287	2580.58333
1080.7	2601.58333
1084.11	2580.91667
1087.517	2575.58333
1090.922	2526.91667
1094.325	2491.58333
1097.724	2490.58333
1101.122	2479.58333
1104.516	2469.58333
1107.908	2482.58333
1111.298	2514.58333
1114.684	2558.25
1118.069	2580.25
1121.45	2612.91667
1124.83	2600.58333
1128.206	2594.58333
1131.58	2667.25
1134.951	2730.58333
1138.32	2807.58333
1141.687	2941.91667
1145.05	3020.91667
1148.412	3049.91667
1151.77	3022.25
1155.126	3028.58333
1158.48	3027.25
1161.831	3054.25
1165.18	3056.25
1168.525	3131.25
1171.869	3168.58333
1175.21	3194.25
1178.548	3218.25
1181.884	3257.25
1185.217	3260.91667
1188.548	3344.91667
1191.877	3401.58333
1195.202	3471.25
1198.526	3491.58333
1201.846	3524.25
1205.165	3494.25
1208.48	3513.25
1211.794	3492.25
1215.104	3499.58333
1218.413	3512.58333
1221.719	3494.25
1225.022	3460.25
1228.323	3377.91667
1231.621	3403.25
1234.917	3362.25
1238.21	3391.58333
1241.501	3385.58333
1244.79	3375.25
1248.076	3397.58333
1251.359	3427.25
1254.64	3491.91667
1257.919	3501.58333
1261.195	3594.91667
1264.468	3637.58333
1267.74	3712.25
1271.008	3710.25
1274.275	3701.58333
1277.538	3674.25
1280.8	3639.91667
1284.059	3640.58333
1287.315	3646.91667
1290.569	3695.25
1293.821	3726.58333
1297.07	3746.25
1300.317	3751.25
1303.562	3776.25
1306.803	3689.58333
1310.043	3693.91667
1313.28	3621.91667
1316.515	3585.58333
1319.747	3566.25
1322.977	3535.58333
1326.204	3452.25
1329.429	3413.25
1332.652	3404.91667
1335.872	3388.91667
1339.09	3372.91667
1342.306	3342.25
1345.519	3341.91667
1348.729	3285.25
1351.938	3311.91667
1355.144	3226.91667
1358.347	3191.25
1361.548	3176.91667
1364.747	3208.58333
1367.944	3192.91667
1371.138	3233.25
1374.329	3241.91667
1377.518	3250.91667
1380.705	3312.25
1383.89	3294.58333
1387.072	3165.58333
1390.252	3058.25
1393.429	2964.58333
1396.605	2864.58333
1399.777	2788.91667
1402.948	2773.58333
1406.116	2736.25
1409.282	2729.25
1412.445	2725.25
1415.606	2758.91667
1418.765	2790.25
1421.921	2856.58333
1425.075	2934.25
1428.227	3042.91667
1431.376	3202.25
1434.524	3303.58333
1437.668	3395.91667
1440.811	3430.25
1443.951	3457.91667
1447.089	3459.25
1450.224	3453.91667
1453.357	3437.25
1456.488	3413.58333
1459.617	3366.91667
1462.743	3307.25
1465.867	3234.91667
1468.989	3217.91667
1472.108	3185.25
1475.225	3077.58333
1478.34	3094.58333
1481.453	3058.25
1484.563	3055.58333
1487.671	3119.25
1490.776	3165.58333
1493.88	3231.58333
1496.981	3294.58333
1500.08	3358.91667
1503.176	3390.91667
1506.271	3471.25
1509.363	3499.25
1512.452	3566.58333
1515.54	3600.58333
1518.625	3679.58333
1521.708	3808.58333
1524.789	4001.58333
1527.867	4259.25
1530.944	4513.58333
1534.018	4717.91667
1537.089	4844.25
1540.159	4814.25
1543.226	4736.25
1546.291	4571.91667
1549.354	4421.91667
1552.415	4307.25
1555.473	4206.91667
1558.529	4108.25
1561.583	4030.25
1564.634	4021.58333
1567.684	4014.91667
1570.731	4051.58333
1573.776	4058.25
1576.819	4133.25
1579.859	4174.25
1582.898	4209.58333
1585.934	4234.58333
1588.968	4270.58333
1591.999	4229.25
1595.029	4264.25
1598.056	4259.25
1601.081	4289.91667
1604.104	4249.91667
1607.125	4235.25
1610.144	4140.91667
1613.16	4033.58333
1616.174	3954.91667
1619.186	3865.25
1622.196	3773.91667
1625.203	3694.91667
1628.209	3615.91667
1631.212	3593.58333
1634.213	3585.25
1637.212	3562.58333
1640.209	3506.91667
1643.203	3415.58333
1646.196	3316.58333
1649.186	3158.91667
1652.174	3101.25
1655.16	2973.25
1658.144	2889.58333
1661.125	2756.58333
1664.105	2611.25
1667.082	2489.91667
1670.057	2353.58333
1673.03	2231.91667
1676.001	2054.25
1678.97	1933.91667
1681.937	1818.25
1684.901	1698.25
1687.863	1645.58333
1690.824	1579.25
1693.782	1556.25
1696.738	1486.58333
1699.692	1458.58333
1702.643	1418.58333
1705.593	1402.25
1708.54	1379.91667
1711.486	1370.58333
1714.429	1338.25
1717.37	1329.91667
1720.309	1312.58333
1723.246	1317.25
1726.181	1276.25
1729.113	1284.58333
1732.044	1263.25
1734.972	1257.58333
1737.899	1252.58333
1740.823	1263.91667
1743.745	1247.25
1746.665	1188.58333
1749.583	1172.58333
1752.499	1167.25
1755.413	1155.25
1758.325	1122.91667
1761.235	1122.25
1764.142	1097.91667
1767.048	1084.58333
1769.951	1075.25
1772.852	1070.91667
1775.752	1071.91667
1778.649	1054.25
1781.544	1077.25
1784.437	1027.91667
1787.328	1039.91667
1790.217	1038.91667
1793.104	1014.58333
1795.989	1011.91667
1798.872	1001.91667
1801.753	1021.91667
1804.631	1012.58333
1807.508	1024.58333
1810.383	997.25
1813.255	1011.25
1816.126	1005.25
1818.994	997.91667
1821.861	983.91667
1824.725	980.25
1827.587	982.58333
1830.448	980.25
1833.306	940.91667
1836.162	956.91667
1839.017	951.91667
1841.869	946.25
1844.719	957.25
1847.567	935.25
1850.414	929.25
1853.258	932.91667
1856.1	947.25
1858.94	946.91667
1861.778	930.91667
1864.614	921.25
1867.448	935.25
1870.28	933.91667
1873.111	936.58333
1875.939	925.58333
1878.765	942.91667
1881.589	925.58333
1884.411	924.25
1887.231	931.58333
1890.049	916.58333
1892.865	912.91667
1895.68	892.91667
1898.492	908.58333
1901.302	892.91667
1904.11	896.58333
1906.916	883.58333
1909.721	885.58333
1912.523	892.58333
1915.323	865.25
1918.122	879.25
1920.918	880.25
1923.712	872.25
1926.505	876.58333
1929.295	851.58333
1932.084	864.25
1934.87	877.58333
1937.655	861.91667
1940.438	859.25
1943.218	858.58333
1945.997	874.91667
1948.774	872.25
1951.549	862.91667
1954.322	870.58333
1957.093	860.25
1959.862	844.58333
1962.629	847.58333
1965.394	832.25
1968.157	835.25
1970.918	843.58333
1973.678	836.25
1976.435	827.25
1979.19	823.91667
1981.944	825.91667
1984.696	841.58333
1987.445	820.25
1990.193	820.25
1992.939	835.25
1995.683	816.91667
1998.425	807.58333
2001.165	834.91667
2003.903	813.58333
2006.639	805.91667
2009.374	813.91667
2012.106	798.91667
2014.837	794.91667
2017.566	804.91667
2020.292	796.58333
2023.017	800.58333
2025.74	793.58333
2028.461	795.91667
2031.18	790.25
2033.898	781.58333
2036.613	806.58333
2039.327	795.91667
2042.038	768.25
2044.748	781.91667
2047.456	785.25
2050.162	758.91667
2052.866	784.25
2055.568	784.91667
2058.268	773.91667
2060.967	789.58333
2063.663	758.91667
2066.358	776.91667
2069.051	768.58333
2071.742	763.25
2074.431	771.91667
2077.118	766.58333
2079.804	750.58333
2082.487	762.58333
2085.169	767.25
2087.849	790.91667
2090.527	754.91667
2093.203	763.25
2095.877	770.91667
2098.55	785.25
2101.22	794.25
2103.889	803.58333
2106.556	792.91667
2109.221	824.25
2111.884	831.25
2114.546	881.25
2117.205	926.91667
2119.863	1000.91667
2122.519	1053.91667
2125.173	1156.91667
2127.825	1221.58333
2130.475	1267.91667
2133.124	1225.91667
2135.771	1205.58333
2138.416	1142.25
2141.059	1081.58333
2143.7	1043.58333
2146.339	964.91667
2148.977	917.25
2151.613	912.91667
2154.247	877.58333
2156.879	855.25
2159.51	836.58333
2162.138	819.25
2164.765	826.91667
2167.39	810.58333
2170.013	824.58333
2172.634	832.91667
2175.254	796.91667
2177.872	827.25
2180.488	780.58333
2183.102	793.25
2185.714	768.58333
2188.325	746.91667
2190.934	751.58333
2193.541	755.25
2196.146	739.58333
2198.75	724.58333
2201.351	720.58333
2203.951	708.91667
2206.549	724.25
2209.146	702.91667
2211.74	700.58333
2214.333	702.58333
2216.924	685.25
2219.514	687.25
2222.101	667.58333
2224.687	687.25
2227.271	674.25
2229.853	677.25
2232.433	655.58333
2235.012	683.58333
2237.589	673.25
2240.164	670.25
2242.738	664.25
2245.309	643.25
2247.879	655.91667
2250.448	652.58333
2253.014	631.25
2255.579	616.91667
2258.142	621.91667
2260.703	615.58333
2263.262	624.25
2265.82	609.25
2268.376	626.25
2270.93	595.25
2273.483	600.25
2276.033	612.58333
2278.583	600.91667
2281.13	592.91667
2283.675	585.91667
2286.219	588.58333
2288.761	586.58333
2291.302	591.58333
2293.841	602.58333
2296.377	574.25
2298.913	580.58333
2301.446	591.91667
2303.978	574.91667
2306.508	565.58333
2309.037	581.58333
2311.563	572.91667
2314.088	572.91667
2316.612	551.91667
2319.133	570.25
2321.653	554.58333
2324.171	562.58333
2326.688	563.25
2329.202	559.91667
2331.715	556.25
2334.227	557.91667
2336.736	554.58333
2339.244	548.25
2341.751	539.91667
2344.255	557.58333
2346.758	546.25
2349.259	550.91667
2351.759	537.91667
2354.257	543.58333
2356.753	535.25
2359.247	537.91667
2361.74	538.25
2364.231	537.58333
2366.721	534.25
2369.209	532.91667
2371.695	533.91667
2374.179	530.25
2376.662	526.58333
2379.143	546.25
2381.622	532.25
2384.1	525.25
2386.576	522.91667
2389.051	532.91667
2391.524	538.25
2393.995	539.58333
2396.464	522.25
2398.932	503.91667
2401.398	521.58333
2403.863	517.58333
2406.325	515.91667
2408.787	518.58333
2411.246	526.25
2413.704	506.91667
2416.16	509.91667
2418.615	512.58333
2421.068	520.25
2423.519	516.25
2425.969	496.58333
2428.417	511.58333
2430.863	533.25
2433.308	518.58333
2435.751	506.58333
2438.193	501.25
2440.633	508.91667
2443.071	506.58333
2445.508	500.91667
2447.943	498.91667
2450.376	492.91667
2452.808	497.25
2455.238	490.58333
2457.667	521.25
2460.093	496.91667
2462.519	477.58333
2464.942	496.91667
2467.365	493.91667
2469.785	498.91667
2472.204	486.58333
2474.621	490.58333
2477.037	501.91667
2479.451	474.25
2481.863	479.58333
2484.274	476.25
2486.683	485.58333
2489.091	491.91667
2491.497	490.91667
2493.901	479.58333
2496.304	480.58333
2498.705	488.58333
2501.105	466.58333
2503.503	496.25
2505.899	454.58333
2508.294	490.91667
2510.687	471.91667
2513.079	472.58333
2515.469	467.58333
2517.858	464.58333
2520.245	477.25
2522.63	474.25
2525.014	474.25
2527.396	458.58333
2529.776	455.91667
2532.156	472.58333
2534.533	451.91667
2536.909	463.58333
2539.283	448.25
2541.656	461.58333
2544.027	483.25
2546.397	464.58333
2548.765	467.25
2551.131	460.91667
2553.496	462.91667
2555.86	472.58333
2558.221	461.25
2560.582	455.25
2562.94	458.91667
2565.298	450.58333
2567.653	472.58333
2570.007	451.25
2572.36	458.58333
2574.711	445.58333
2577.06	469.25
2579.408	459.58333
2581.754	440.25
2584.099	450.25
2586.442	442.25
2588.784	452.91667
2591.124	454.25
2593.463	455.91667
2595.8	449.25
2598.135	437.58333
2600.469	455.91667
2602.802	459.91667
2605.133	461.25
2607.462	436.91667
2609.79	444.58333
2612.116	457.25
2614.441	442.91667
2616.764	449.91667
2619.086	450.91667
2621.406	442.25
2623.725	451.91667
2626.042	453.25
2628.358	440.58333
2630.672	444.58333
2632.985	459.58333
2635.296	456.58333
2637.606	454.91667
2639.914	444.58333
2642.22	455.58333
2644.525	445.25
2646.829	452.91667
2649.131	460.25
2651.432	464.58333
2653.731	454.25
2656.028	466.91667
2658.324	462.91667
2660.619	450.58333
2662.912	467.58333
2665.204	449.58333
2667.494	463.25
2669.782	447.25
2672.07	468.58333
2674.355	472.58333
2676.639	459.25
2678.922	449.25
2681.203	477.91667
2683.483	449.91667
2685.761	446.58333
2688.038	450.58333
2690.313	471.25
2692.587	455.58333
2694.859	457.91667
2697.13	459.58333
2699.399	466.25
2701.667	479.91667
2703.933	474.91667
2706.198	470.58333
2708.461	493.91667
2710.723	490.91667
2712.984	489.25
2715.243	493.25
2717.5	488.91667
2719.757	502.91667
2722.011	491.25
2724.264	495.58333
2726.516	515.91667
2728.766	499.58333
2731.015	502.25
2733.262	492.91667
2735.508	492.25
2737.753	496.25
2739.996	486.25
2742.237	490.58333
2744.477	497.25
2746.716	497.25
2748.953	481.25
2751.189	484.58333
2753.423	480.91667
2755.656	473.58333
2757.887	478.25
2760.117	468.91667
2762.346	465.91667
2764.573	466.58333
2766.798	469.58333
2769.022	470.25
2771.245	459.58333
2773.467	463.91667
2775.686	477.25
2777.905	481.58333
2780.122	488.58333
2782.337	485.58333
2784.552	483.91667
2786.764	495.91667
2788.976	494.58333
2791.186	507.58333
2793.394	503.58333
2795.601	509.25
2797.807	516.25
2800.011	520.91667
2802.214	544.25
2804.415	535.58333
2806.615	534.91667
2808.814	548.25
2811.011	557.25
2813.206	547.25
2815.401	566.25
2817.594	581.58333
2819.785	593.58333
2821.975	583.25
2824.164	594.58333
2826.351	611.58333
2828.537	629.91667
2830.722	635.25
2832.905	647.91667
2835.086	674.58333
2837.267	734.58333
2839.445	744.25
2841.623	761.25
2843.799	800.58333
2845.974	832.91667
2848.147	891.58333
2850.319	914.58333
2852.489	950.58333
2854.659	953.25
2856.826	987.58333
2858.993	977.58333
2861.158	982.25
2863.321	970.91667
2865.483	1010.58333
2867.644	1000.91667
2869.804	1012.58333
2871.962	999.25
2874.118	1006.58333
2876.274	1007.91667
2878.428	988.58333
2880.58	976.25
2882.731	983.91667
2884.881	977.91667
2887.03	980.58333
2889.177	980.91667
2891.322	995.58333
2893.467	995.58333
2895.61	1002.25
2897.751	1024.25
2899.892	1011.91667
2902.03	1026.25
2904.168	1041.91667
2906.304	1044.58333
2908.439	1070.25
2910.572	1039.25
2912.704	1060.58333
2914.835	1073.58333
2916.965	1044.91667
2919.093	1073.58333
2921.219	1034.25
2923.345	1048.25
2925.469	1022.58333
2927.591	1018.58333
2929.712	988.91667
2931.832	971.25
2933.951	962.91667
2936.068	935.58333
2938.184	900.58333
2940.299	877.91667
2942.412	851.25
2944.524	813.25
2946.634	799.25
2948.744	736.58333
2950.851	766.58333
2952.958	712.25
2955.063	696.91667
2957.167	690.25
2959.269	665.58333
2961.371	673.91667
2963.471	636.25
2965.569	629.25
2967.666	600.58333
2969.762	589.25
2971.857	567.58333
2973.95	555.25
2976.042	548.91667
2978.133	526.91667
2980.222	519.25
2982.31	502.58333
2984.396	482.25
2986.482	483.58333
2988.566	471.25
2990.648	468.25
2992.73	469.58333
2994.81	452.91667
2996.889	452.25
2998.966	451.25
3001.042	456.91667
3003.117	444.91667
3005.191	436.91667
3007.263	434.25
3009.334	428.91667
3011.403	428.25
3013.472	401.58333
3015.539	410.58333
3017.604	422.58333
3019.669	380.25
3021.732	389.58333
3023.794	393.25
3025.854	374.58333
3027.914	376.25
3029.971	381.58333
3032.028	368.91667
3034.083	369.91667
3036.137	374.25
3038.19	350.91667
3040.242	342.58333
3042.292	342.25
3044.341	337.58333
3046.388	347.25
3048.435	319.25
3050.48	339.58333
3052.524	335.25
3054.566	314.25
3056.607	334.25
3058.647	322.91667
3060.686	308.25
3062.723	291.58333
3064.759	281.91667
3066.794	0.25
3068.828	-2.75
3070.86	-1.75
