-0.839	482.45833
3.438	543.125
7.711	150.79167
11.981	56.79167
16.247	44.79167
20.509	44.79167
24.768	42.79167
29.024	45.45833
33.276	41.125
37.524	50.125
41.769	41.125
46.01	33.45833
50.247	46.125
54.481	57.79167
58.712	71.45833
62.939	50.125
67.162	60.125
71.382	58.79167
75.599	44.79167
79.812	64.125
84.021	78.125
88.227	61.125
92.429	64.45833
96.628	47.79167
100.823	63.79167
105.015	72.79167
109.204	76.45833
113.388	75.79167
117.57	68.79167
121.748	89.79167
125.922	78.79167
130.093	97.45833
134.261	104.125
138.425	92.79167
142.585	138.45833
146.742	137.79167
150.896	165.79167
155.046	191.79167
159.193	314.45833
163.336	540.45833
167.476	970.125
171.613	1785.79167
175.746	2991.125
179.875	4426.79167
184.002	5798.45833
188.124	6702.125
192.244	7042.45833
196.36	6965.45833
200.472	6778.79167
204.581	6601.79167
208.687	6484.79167
212.79	6413.125
216.889	6411.79167
220.984	6476.125
225.077	6560.45833
229.165	6662.45833
233.251	6746.125
237.333	6789.79167
241.412	6805.79167
245.487	6769.79167
249.559	6736.79167
253.628	6688.79167
257.694	6639.45833
261.756	6563.79167
265.814	6425.45833
269.87	6276.79167
273.922	6076.45833
277.97	5914.79167
282.016	5830.79167
286.058	5752.79167
290.097	5780.125
294.132	5794.125
298.164	5714.79167
302.193	5484.45833
306.219	5065.125
310.241	4586.125
314.26	4159.125
318.276	3788.45833
322.288	3567.45833
326.297	3329.45833
330.303	3165.45833
334.305	3075.125
338.305	2998.45833
342.301	2938.79167
346.294	2892.79167
350.283	2860.79167
354.269	2801.45833
358.252	2797.79167
362.232	2772.125
366.209	2749.125
370.182	2714.79167
374.152	2712.45833
378.119	2710.45833
382.083	2693.79167
386.043	2735.79167
390	2664.125
393.954	2699.45833
397.905	2662.45833
401.852	2657.45833
405.797	2597.125
409.738	2570.125
413.676	2563.125
417.61	2538.79167
421.542	2497.125
425.47	2500.45833
429.396	2473.45833
433.318	2460.45833
437.236	2453.125
441.152	2437.125
445.065	2397.125
448.974	2403.79167
452.88	2369.79167
456.783	2361.79167
460.683	2350.79167
464.58	2354.125
468.473	2358.125
472.364	2366.45833
476.251	2355.79167
480.135	2388.125
484.016	2411.79167
487.894	2432.79167
491.769	2423.79167
495.641	2427.79167
499.509	2415.125
503.375	2438.45833
507.237	2429.45833
511.096	2427.45833
514.952	2433.45833
518.805	2474.79167
522.655	2473.45833
526.502	2421.45833
530.346	2405.125
534.187	2394.125
538.024	2401.125
541.859	2407.125
545.69	2454.125
549.519	2406.125
553.344	2398.45833
557.166	2379.125
560.985	2349.79167
564.802	2322.45833
568.615	2283.125
572.425	2247.79167
576.232	2246.125
580.036	2235.125
583.836	2241.79167
587.634	2234.125
591.429	2239.79167
595.221	2291.45833
599.01	2305.79167
602.796	2346.125
606.578	2355.79167
610.358	2339.125
614.135	2342.125
617.909	2336.45833
621.679	2317.79167
625.447	2305.45833
629.212	2324.45833
632.973	2319.45833
636.732	2286.45833
640.488	2315.79167
644.241	2290.79167
647.991	2279.125
651.737	2315.79167
655.481	2298.79167
659.222	2288.45833
662.96	2299.45833
666.695	2325.79167
670.427	2309.45833
674.156	2329.125
677.882	2328.45833
681.605	2301.125
685.325	2284.125
689.043	2289.45833
692.757	2285.45833
696.468	2281.45833
700.177	2288.79167
703.882	2259.79167
707.585	2289.45833
711.284	2315.79167
714.981	2286.125
718.675	2295.79167
722.366	2305.79167
726.054	2279.79167
729.739	2277.125
733.421	2301.79167
737.1	2288.125
740.777	2308.79167
744.45	2316.79167
748.121	2337.79167
751.789	2390.125
755.453	2388.79167
759.115	2389.125
762.774	2424.125
766.431	2429.45833
770.084	2484.125
773.734	2500.45833
777.382	2523.79167
781.027	2559.79167
784.669	2574.45833
788.308	2588.79167
791.944	2593.79167
795.577	2634.45833
799.208	2661.125
802.835	2685.79167
806.46	2710.79167
810.082	2735.79167
813.701	2725.79167
817.317	2759.79167
820.931	2745.79167
824.542	2767.125
828.149	2736.45833
831.754	2707.125
835.357	2676.125
838.956	2673.45833
842.553	2675.45833
846.146	2644.125
849.737	2625.79167
853.326	2647.45833
856.911	2656.125
860.493	2704.79167
864.073	2711.125
867.65	2749.45833
871.225	2776.79167
874.796	2777.79167
878.365	2787.45833
881.931	2834.79167
885.494	2832.125
889.054	2824.79167
892.612	2843.45833
896.166	2810.79167
899.719	2790.45833
903.268	2776.79167
906.814	2730.45833
910.358	2718.125
913.899	2716.79167
917.438	2733.79167
920.973	2729.45833
924.506	2753.79167
928.036	2770.45833
931.564	2815.79167
935.088	2852.79167
938.61	2854.79167
942.129	2897.125
945.646	2958.125
949.16	3024.79167
952.671	3103.45833
956.179	3150.79167
959.685	3121.45833
963.188	3111.45833
966.688	3066.125
970.185	2984.45833
973.68	2900.79167
977.173	2903.79167
980.662	2839.45833
984.149	2870.125
987.633	2877.125
991.114	2930.45833
994.593	2998.79167
998.069	3108.45833
1001.542	3211.125
1005.013	3133.79167
1008.481	2958.79167
1011.947	2911.125
1015.409	2878.79167
1018.869	2900.45833
1022.327	2894.125
1025.782	2827.45833
1029.234	2854.79167
1032.683	2828.79167
1036.13	2756.125
1039.574	2635.125
1043.016	2556.79167
1046.455	2530.125
1049.891	2477.125
1053.325	2491.79167
1056.756	2476.79167
1060.184	2535.125
1063.61	2506.79167
1067.033	2539.79167
1070.454	2522.45833
1073.872	2574.125
1077.287	2572.79167
1080.7	2586.79167
1084.11	2588.79167
1087.517	2557.125
1090.922	2521.125
1094.325	2482.79167
1097.724	2466.45833
1101.122	2472.45833
1104.516	2469.125
1107.908	2456.45833
1111.298	2516.79167
1114.684	2548.125
1118.069	2582.45833
1121.45	2583.45833
1124.83	2592.125
1128.206	2599.125
1131.58	2663.125
1134.951	2740.79167
1138.32	2813.125
1141.687	2932.125
1145.05	3027.45833
1148.412	3038.125
1151.77	3031.45833
1155.126	3017.125
1158.48	3016.45833
1161.831	3042.125
1165.18	3081.79167
1168.525	3126.79167
1171.869	3151.125
1175.21	3175.45833
1178.548	3211.45833
1181.884	3269.79167
1185.217	3289.45833
1188.548	3314.45833
1191.877	3385.45833
1195.202	3444.45833
1198.526	3501.45833
1201.846	3511.45833
1205.165	3541.79167
1208.48	3485.125
1211.794	3479.125
1215.104	3462.125
1218.413	3466.125
1221.719	3465.45833
1225.022	3440.79167
1228.323	3393.79167
1231.621	3382.79167
1234.917	3362.125
1238.21	3410.125
1241.501	3374.79167
1244.79	3384.79167
1248.076	3379.45833
1251.359	3417.45833
1254.64	3492.125
1257.919	3494.79167
1261.195	3552.125
1264.468	3605.79167
1267.74	3710.125
1271.008	3696.125
1274.275	3686.79167
1277.538	3667.79167
1280.8	3660.79167
1284.059	3637.125
1287.315	3650.125
1290.569	3682.125
1293.821	3733.125
1297.07	3724.45833
1300.317	3762.125
1303.562	3749.45833
1306.803	3683.125
1310.043	3701.125
1313.28	3633.45833
1316.515	3599.45833
1319.747	3541.125
1322.977	3519.79167
1326.204	3444.45833
1329.429	3421.125
1332.652	3394.79167
1335.872	3371.45833
1339.09	3382.79167
1342.306	3316.79167
1345.519	3341.45833
1348.729	3291.79167
1351.938	3285.45833
1355.144	3243.79167
1358.347	3184.125
1361.548	3191.79167
1364.747	3185.45833
1367.944	3180.45833
1371.138	3197.45833
1374.329	3227.125
1377.518	3245.125
1380.705	3290.79167
1383.89	3282.79167
1387.072	3183.45833
1390.252	3056.45833
1393.429	2946.79167
1396.605	2870.79167
1399.777	2773.125
1402.948	2740.125
1406.116	2708.79167
1409.282	2712.79167
1412.445	2712.125
1415.606	2783.79167
1418.765	2775.125
1421.921	2861.79167
1425.075	2938.45833
1428.227	3031.45833
1431.376	3162.45833
1434.524	3313.45833
1437.668	3377.45833
1440.811	3400.125
1443.951	3457.125
1447.089	3479.45833
1450.224	3454.79167
1453.357	3412.79167
1456.488	3392.45833
1459.617	3341.79167
1462.743	3316.79167
1465.867	3241.125
1468.989	3213.125
1472.108	3152.45833
1475.225	3111.45833
1478.34	3055.45833
1481.453	3063.125
1484.563	3070.125
1487.671	3098.79167
1490.776	3152.79167
1493.88	3232.79167
1496.981	3286.45833
1500.08	3356.125
1503.176	3385.45833
1506.271	3465.45833
1509.363	3507.125
1512.452	3557.45833
1515.54	3604.45833
1518.625	3663.125
1521.708	3826.79167
1524.789	4013.79167
1527.867	4255.79167
1530.944	4520.125
1534.018	4701.45833
1537.089	4861.125
1540.159	4843.45833
1543.226	4747.79167
1546.291	4589.79167
1549.354	4411.125
1552.415	4316.45833
1555.473	4194.125
1558.529	4096.125
1561.583	4036.79167
1564.634	4038.125
1567.684	4014.45833
1570.731	4031.125
1573.776	4079.79167
1576.819	4148.79167
1579.859	4168.125
1582.898	4220.125
1585.934	4245.125
1588.968	4253.125
1591.999	4251.79167
1595.029	4258.79167
1598.056	4265.79167
1601.081	4268.79167
1604.104	4281.45833
1607.125	4261.79167
1610.144	4144.45833
1613.16	4047.125
1616.174	3955.45833
1619.186	3845.79167
1622.196	3745.45833
1625.203	3692.125
1628.209	3636.45833
1631.212	3593.45833
1634.213	3577.125
1637.212	3552.79167
1640.209	3488.45833
1643.203	3407.79167
1646.196	3271.45833
1649.186	3197.79167
1652.174	3062.125
1655.16	2947.79167
1658.144	2870.79167
1661.125	2741.45833
1664.105	2613.79167
1667.082	2479.45833
1670.057	2345.45833
1673.03	2217.125
1676.001	2049.125
1678.97	1924.125
1681.937	1790.45833
1684.901	1689.125
1687.863	1644.45833
1690.824	1578.125
1693.782	1549.125
1696.738	1471.45833
1699.692	1452.125
1702.643	1415.125
1705.593	1393.45833
1708.54	1375.45833
1711.486	1369.125
1714.429	1327.45833
1717.37	1342.45833
1720.309	1293.45833
1723.246	1308.79167
1726.181	1271.79167
1729.113	1284.79167
1732.044	1248.79167
1734.972	1253.45833
1737.899	1244.79167
1740.823	1242.45833
1743.745	1235.45833
1746.665	1194.45833
1749.583	1171.79167
1752.499	1154.79167
1755.413	1137.45833
1758.325	1129.45833
1761.235	1126.79167
1764.142	1082.79167
1767.048	1079.79167
1769.951	1079.79167
1772.852	1057.79167
1775.752	1055.79167
1778.649	1054.125
1781.544	1062.79167
1784.437	1021.125
1787.328	1036.79167
1790.217	1036.45833
1793.104	996.45833
1795.989	1008.45833
1798.872	988.79167
1801.753	1016.79167
1804.631	1007.79167
1807.508	1004.125
1810.383	986.79167
1813.255	994.125
1816.126	999.79167
1818.994	980.79167
1821.861	969.45833
1824.725	979.125
1827.587	973.45833
1830.448	962.45833
1833.306	943.125
1836.162	963.45833
1839.017	933.79167
1841.869	954.79167
1844.719	945.79167
1847.567	927.79167
1850.414	917.45833
1853.258	933.45833
1856.1	934.45833
1858.94	931.79167
1861.778	931.45833
1864.614	934.45833
1867.448	926.125
1870.28	915.125
1873.111	927.125
1875.939	927.45833
1878.765	951.125
1881.589	921.79167
1884.411	909.79167
1887.231	911.125
1890.049	914.125
1892.865	912.45833
1895.68	896.79167
1898.492	898.79167
1901.302	882.79167
1904.11	890.125
1906.916	888.79167
1909.721	875.79167
1912.523	890.45833
1915.323	870.79167
1918.122	874.125
1920.918	878.79167
1923.712	866.45833
1926.505	865.79167
1929.295	846.45833
1932.084	859.79167
1934.87	878.125
1937.655	846.79167
1940.438	845.125
1943.218	868.125
1945.997	858.125
1948.774	870.79167
1951.549	865.45833
1954.322	863.79167
1957.093	862.125
1959.862	841.45833
1962.629	850.125
1965.394	837.125
1968.157	828.125
1970.918	852.79167
1973.678	830.79167
1976.435	846.45833
1979.19	827.79167
1981.944	817.79167
1984.696	812.125
1987.445	817.125
1990.193	817.79167
1992.939	830.79167
1995.683	817.79167
1998.425	793.79167
2001.165	830.79167
2003.903	807.125
2006.639	807.125
2009.374	809.125
2012.106	813.45833
2014.837	784.45833
2017.566	796.79167
2020.292	797.79167
2023.017	805.79167
2025.74	801.79167
2028.461	785.45833
2031.18	788.125
2033.898	782.125
2036.613	796.79167
2039.327	796.45833
2042.038	773.79167
2044.748	780.79167
2047.456	764.79167
2050.162	762.79167
2052.866	767.45833
2055.568	784.45833
2058.268	764.125
2060.967	767.45833
2063.663	754.45833
2066.358	755.45833
2069.051	761.45833
2071.742	770.45833
2074.431	762.45833
2077.118	760.45833
2079.804	757.125
2082.487	758.79167
2085.169	762.45833
2087.849	771.45833
2090.527	751.79167
2093.203	774.45833
2095.877	774.45833
2098.55	769.45833
2101.22	779.125
2103.889	784.45833
2106.556	791.125
2109.221	811.125
2111.884	827.45833
2114.546	879.79167
2117.205	928.45833
2119.863	996.45833
2122.519	1060.45833
2125.173	1138.79167
2127.825	1228.125
2130.475	1253.45833
2133.124	1221.45833
2135.771	1194.125
2138.416	1154.79167
2141.059	1080.125
2143.7	1036.125
2146.339	964.45833
2148.977	901.79167
2151.613	912.125
2154.247	871.45833
2156.879	852.45833
2159.51	839.79167
2162.138	818.125
2164.765	818.125
2167.39	800.125
2170.013	820.45833
2172.634	810.125
2175.254	816.45833
2177.872	825.79167
2180.488	776.45833
2183.102	791.45833
2185.714	770.45833
2188.325	751.45833
2190.934	764.45833
2193.541	745.125
2196.146	734.125
2198.75	713.79167
2201.351	719.45833
2203.951	699.45833
2206.549	712.45833
2209.146	700.45833
2211.74	693.79167
2214.333	691.125
2216.924	678.45833
2219.514	685.45833
2222.101	672.79167
2224.687	692.45833
2227.271	681.125
2229.853	665.125
2232.433	644.45833
2235.012	682.125
2237.589	668.125
2240.164	672.79167
2242.738	664.125
2245.309	652.45833
2247.879	652.45833
2250.448	652.79167
2253.014	637.79167
2255.579	613.79167
2258.142	621.125
2260.703	608.45833
2263.262	602.45833
2265.82	609.79167
2268.376	619.79167
2270.93	594.125
2273.483	602.45833
2276.033	603.125
2278.583	587.79167
2281.13	585.79167
2283.675	587.79167
2286.219	588.125
2288.761	588.45833
2291.302	599.45833
2293.841	595.125
2296.377	562.79167
2298.913	571.45833
2301.446	599.79167
2303.978	585.45833
2306.508	558.125
2309.037	567.79167
2311.563	579.79167
2314.088	575.45833
2316.612	552.125
2319.133	575.125
2321.653	568.79167
2324.171	547.125
2326.688	567.79167
2329.202	569.79167
2331.715	554.125
2334.227	549.45833
2336.736	537.79167
2339.244	548.125
2341.751	539.45833
2344.255	540.79167
2346.758	540.79167
2349.259	542.125
2351.759	540.45833
2354.257	531.79167
2356.753	532.79167
2359.247	535.125
2361.74	550.125
2364.231	525.125
2366.721	536.125
2369.209	530.45833
2371.695	529.45833
2374.179	521.125
2376.662	531.79167
2379.143	540.79167
2381.622	527.45833
2384.1	528.79167
2386.576	521.125
2389.051	538.45833
2391.524	539.45833
2393.995	534.45833
2396.464	515.79167
2398.932	516.45833
2401.398	520.125
2403.863	507.125
2406.325	515.125
2408.787	508.125
2411.246	511.79167
2413.704	507.79167
2416.16	513.45833
2418.615	511.45833
2421.068	518.45833
2423.519	513.79167
2425.969	501.125
2428.417	517.45833
2430.863	521.125
2433.308	516.125
2435.751	509.79167
2438.193	499.79167
2440.633	507.45833
2443.071	505.125
2445.508	494.79167
2447.943	490.45833
2450.376	494.45833
2452.808	499.79167
2455.238	493.125
2457.667	511.125
2460.093	495.45833
2462.519	489.79167
2464.942	488.45833
2467.365	496.125
2469.785	490.125
2472.204	492.79167
2474.621	485.45833
2477.037	504.79167
2479.451	470.79167
2481.863	476.79167
2484.274	471.79167
2486.683	481.125
2489.091	486.79167
2491.497	490.45833
2493.901	474.79167
2496.304	473.79167
2498.705	484.45833
2501.105	479.79167
2503.503	500.79167
2505.899	470.125
2508.294	494.125
2510.687	465.125
2513.079	462.79167
2515.469	463.125
2517.858	465.45833
2520.245	483.125
2522.63	468.125
2525.014	467.79167
2527.396	465.79167
2529.776	465.125
2532.156	476.45833
2534.533	446.125
2536.909	464.79167
2539.283	449.45833
2541.656	447.45833
2544.027	480.45833
2546.397	469.79167
2548.765	454.79167
2551.131	458.79167
2553.496	462.45833
2555.86	458.125
2558.221	460.79167
2560.582	456.45833
2562.94	442.125
2565.298	455.45833
2567.653	464.125
2570.007	441.125
2572.36	453.125
2574.711	445.79167
2577.06	470.79167
2579.408	460.79167
2581.754	450.79167
2584.099	449.79167
2586.442	443.45833
2588.784	458.45833
2591.124	444.79167
2593.463	449.45833
2595.8	464.45833
2598.135	439.79167
2600.469	453.125
2602.802	464.125
2605.133	458.79167
2607.462	436.45833
2609.79	441.45833
2612.116	449.45833
2614.441	443.45833
2616.764	455.45833
2619.086	448.45833
2621.406	445.79167
2623.725	450.45833
2626.042	448.45833
2628.358	437.45833
2630.672	445.125
2632.985	456.45833
2635.296	450.79167
2637.606	452.125
2639.914	443.79167
2642.22	454.45833
2644.525	451.79167
2646.829	452.79167
2649.131	461.45833
2651.432	466.79167
2653.731	450.125
2656.028	464.79167
2658.324	455.79167
2660.619	449.45833
2662.912	467.79167
2665.204	445.79167
2667.494	460.125
2669.782	441.45833
2672.07	458.45833
2674.355	476.45833
2676.639	455.125
2678.922	440.79167
2681.203	468.79167
2683.483	453.79167
2685.761	449.45833
2688.038	456.125
2690.313	467.45833
2692.587	466.45833
2694.859	452.79167
2697.13	456.45833
2699.399	467.125
2701.667	479.45833
2703.933	478.79167
2706.198	470.45833
2708.461	475.125
2710.723	488.125
2712.984	485.45833
2715.243	492.125
2717.5	480.79167
2719.757	498.79167
2722.011	489.125
2724.264	502.79167
2726.516	511.125
2728.766	495.79167
2731.015	501.125
2733.262	499.45833
2735.508	493.79167
2737.753	495.45833
2739.996	475.79167
2742.237	476.79167
2744.477	494.45833
2746.716	489.45833
2748.953	484.79167
2751.189	482.45833
2753.423	476.79167
2755.656	463.79167
2757.887	453.125
2760.117	468.45833
2762.346	463.79167
2764.573	464.125
2766.798	464.125
2769.022	469.125
2771.245	479.125
2773.467	470.79167
2775.686	474.125
2777.905	468.79167
2780.122	476.79167
2782.337	485.79167
2784.552	484.125
2786.764	499.125
2788.976	495.125
2791.186	501.125
2793.394	494.79167
2795.601	514.79167
2797.807	530.45833
2800.011	518.79167
2802.214	530.45833
2804.415	534.125
2806.615	536.45833
2808.814	540.79167
2811.011	566.79167
2813.206	542.45833
2815.401	567.79167
2817.594	578.125
2819.785	596.125
2821.975	573.125
2824.164	587.79167
2826.351	606.79167
2828.537	635.79167
2830.722	639.125
2832.905	653.79167
2835.086	685.79167
2837.267	713.79167
2839.445	748.45833
2841.623	762.79167
2843.799	812.125
2845.974	841.79167
2848.147	881.79167
2850.319	907.79167
2852.489	942.125
2854.659	953.125
2856.826	970.45833
2858.993	997.45833
2861.158	980.45833
2863.321	979.45833
2865.483	1012.79167
2867.644	999.125
2869.804	1009.125
2871.962	972.79167
2874.118	1005.45833
2876.274	986.45833
2878.428	988.45833
2880.58	990.125
2882.731	966.79167
2884.881	973.45833
2887.03	988.45833
2889.177	974.125
2891.322	1000.79167
2893.467	986.125
2895.61	1003.45833
2897.751	1018.45833
2899.892	1015.125
2902.03	1028.45833
2904.168	1029.45833
2906.304	1033.125
2908.439	1067.125
2910.572	1035.45833
2912.704	1052.125
2914.835	1039.45833
2916.965	1038.45833
2919.093	1066.125
2921.219	1031.125
2923.345	1049.79167
2925.469	1018.45833
2927.591	1017.125
2929.712	988.45833
2931.832	980.45833
2933.951	954.79167
2936.068	933.79167
2938.184	909.125
2940.299	874.45833
2942.412	844.79167
2944.524	809.45833
2946.634	791.45833
2948.744	735.79167
2950.851	763.45833
2952.958	710.45833
2955.063	705.45833
2957.167	681.125
2959.269	653.79167
2961.371	662.79167
2963.471	625.79167
2965.569	634.125
2967.666	592.45833
2969.762	589.79167
2971.857	570.79167
2973.95	561.125
2976.042	549.45833
2978.133	535.125
2980.222	510.45833
2982.31	491.79167
2984.396	490.79167
2986.482	470.45833
2988.566	486.45833
2990.648	458.79167
2992.73	466.45833
2994.81	451.45833
2996.889	460.79167
2998.966	457.79167
3001.042	440.125
3003.117	440.79167
3005.191	439.45833
3007.263	433.125
3009.334	428.125
3011.403	423.79167
3013.472	407.125
3015.539	399.79167
3017.604	417.45833
3019.669	384.125
3021.732	388.79167
3023.794	387.79167
3025.854	366.125
3027.914	364.79167
3029.971	375.45833
3032.028	373.79167
3034.083	374.125
3036.137	367.79167
3038.19	356.79167
3040.242	348.125
3042.292	332.79167
3044.341	339.125
3046.388	347.45833
3048.435	320.45833
3050.48	346.45833
3052.524	337.45833
3054.566	308.45833
3056.607	319.79167
3058.647	322.45833
3060.686	297.45833
3062.723	300.45833
3064.759	285.125
3066.794	-0.54167
3068.828	-0.20833
3070.86	-3.875
