-0.839	439.83333
3.438	484.16667
7.711	141.83333
11.981	54.5
16.247	49.16667
20.509	44.16667
24.768	45.16667
29.024	49.16667
33.276	41.83333
37.524	49.5
41.769	44.83333
46.01	32.83333
50.247	52.16667
54.481	60.5
58.712	70.16667
62.939	49.16667
67.162	62.5
71.382	58.5
75.599	49.16667
79.812	64.83333
84.021	83.16667
88.227	59.83333
92.429	67.16667
96.628	49.16667
100.823	68.83333
105.015	75.16667
109.204	76.16667
113.388	77.83333
117.57	78.5
121.748	90.16667
125.922	81.16667
130.093	100.5
134.261	110.16667
138.425	102.5
142.585	151.83333
146.742	149.5
150.896	172.16667
155.046	204.83333
159.193	329.16667
163.336	560.83333
167.476	1018.83333
171.613	1869.83333
175.746	3164.5
179.875	4705.16667
184.002	6178.83333
188.124	7220.16667
192.244	7659.5
196.36	7653.83333
200.472	7521.5
204.581	7396.16667
208.687	7257.83333
212.79	7287.5
216.889	7324.83333
220.984	7477.16667
225.077	7655.83333
229.165	7813.16667
233.251	7943.16667
237.333	8022.5
241.412	8041.83333
245.487	8043.16667
249.559	7964.16667
253.628	7958.5
257.694	7878.5
261.756	7777.83333
265.814	7600.83333
269.87	7398.5
273.922	7155.5
277.97	6932.16667
282.016	6820.5
286.058	6716.16667
290.097	6743.16667
294.132	6713.16667
298.164	6603.83333
302.193	6267.5
306.219	5782.5
310.241	5260.5
314.26	4790.83333
318.276	4389.5
322.288	4109.16667
326.297	3876.16667
330.303	3712.5
334.305	3613.5
338.305	3517.5
342.301	3447.5
346.294	3380.5
350.283	3385.83333
354.269	3338.5
358.252	3308.5
362.232	3299.83333
366.209	3264.16667
370.182	3255.16667
374.152	3224.83333
378.119	3227.83333
382.083	3208.16667
386.043	3226.16667
390	3196.5
393.954	3191.16667
397.905	3161.16667
401.852	3158.16667
405.797	3099.5
409.738	3086.16667
413.676	3079.5
417.61	3032.16667
421.542	3024.16667
425.47	2990.83333
429.396	2953.5
433.318	2932.83333
437.236	2894.5
441.152	2923.5
445.065	2881.83333
448.974	2857.83333
452.88	2847.83333
456.783	2819.16667
460.683	2824.16667
464.58	2829.5
468.473	2804.5
472.364	2820.5
476.251	2863.16667
480.135	2867.16667
484.016	2896.83333
487.894	2902.83333
491.769	2908.83333
495.641	2919.16667
499.509	2932.83333
503.375	2905.5
507.237	2880.5
511.096	2897.5
514.952	2894.83333
518.805	2887.83333
522.655	2877.5
526.502	2869.5
530.346	2868.5
534.187	2873.83333
538.024	2881.5
541.859	2884.16667
545.69	2917.83333
549.519	2909.83333
553.344	2864.83333
557.166	2818.83333
560.985	2816.16667
564.802	2763.5
568.615	2725.16667
572.425	2694.16667
576.232	2685.16667
580.036	2658.83333
583.836	2680.5
587.634	2692.5
591.429	2671.5
595.221	2759.5
599.01	2746.16667
602.796	2764.5
606.578	2792.5
610.358	2799.16667
614.135	2792.83333
617.909	2790.5
621.679	2764.83333
625.447	2740.5
629.212	2763.5
632.973	2768.83333
636.732	2770.5
640.488	2762.5
644.241	2737.5
647.991	2729.5
651.737	2745.83333
655.481	2711.83333
659.222	2730.83333
662.96	2714.83333
666.695	2740.5
670.427	2748.5
674.156	2764.5
677.882	2730.83333
681.605	2765.83333
685.325	2742.16667
689.043	2735.5
692.757	2744.5
696.468	2718.5
700.177	2736.16667
703.882	2722.83333
707.585	2715.16667
711.284	2714.5
714.981	2732.5
718.675	2716.5
722.366	2749.16667
726.054	2723.16667
729.739	2746.16667
733.421	2747.16667
737.1	2735.5
740.777	2754.5
744.45	2783.83333
748.121	2790.16667
751.789	2843.16667
755.453	2821.5
759.115	2871.16667
762.774	2901.5
766.431	2919.83333
770.084	2939.83333
773.734	2973.5
777.382	3035.16667
781.027	3057.16667
784.669	3068.16667
788.308	3057.5
791.944	3085.83333
795.577	3156.83333
799.208	3149.16667
802.835	3193.16667
806.46	3215.83333
810.082	3231.16667
813.701	3280.16667
817.317	3275.5
820.931	3255.83333
824.542	3278.16667
828.149	3243.5
831.754	3209.16667
835.357	3199.16667
838.956	3199.5
842.553	3173.83333
846.146	3184.83333
849.737	3116.16667
853.326	3138.5
856.911	3177.16667
860.493	3198.5
864.073	3223.5
867.65	3249.16667
871.225	3316.83333
874.796	3285.16667
878.365	3319.16667
881.931	3368.5
885.494	3342.83333
889.054	3376.83333
892.612	3344.83333
896.166	3317.5
899.719	3266.16667
903.268	3248.16667
906.814	3217.83333
910.358	3217.16667
913.899	3203.5
917.438	3190.5
920.973	3207.16667
924.506	3225.16667
928.036	3264.83333
931.564	3331.16667
935.088	3346.83333
938.61	3340.5
942.129	3371.83333
945.646	3437.5
949.16	3524.83333
952.671	3638.5
956.179	3656.83333
959.685	3629.83333
963.188	3641.5
966.688	3576.16667
970.185	3482.83333
973.68	3413.83333
977.173	3378.83333
980.662	3365.83333
984.149	3358.83333
987.633	3373.83333
991.114	3419.5
994.593	3533.83333
998.069	3636.83333
1001.542	3762.5
1005.013	3687.16667
1008.481	3486.16667
1011.947	3412.16667
1015.409	3435.5
1018.869	3394.83333
1022.327	3405.16667
1025.782	3365.5
1029.234	3360.83333
1032.683	3356.16667
1036.13	3231.16667
1039.574	3137.83333
1043.016	3060.16667
1046.455	3032.5
1049.891	2945.5
1053.325	2976.5
1056.756	2985.5
1060.184	3023.5
1063.61	3009.16667
1067.033	3033.83333
1070.454	3026.16667
1073.872	3084.5
1077.287	3069.16667
1080.7	3083.5
1084.11	3092.16667
1087.517	3051.83333
1090.922	2989.83333
1094.325	2970.5
1097.724	2950.16667
1101.122	2943.83333
1104.516	2929.16667
1107.908	2933.16667
1111.298	3002.16667
1114.684	3028.5
1118.069	3033.83333
1121.45	3079.5
1124.83	3064.5
1128.206	3104.16667
1131.58	3139.5
1134.951	3214.5
1138.32	3323.83333
1141.687	3420.83333
1145.05	3524.83333
1148.412	3553.5
1151.77	3530.83333
1155.126	3527.5
1158.48	3537.83333
1161.831	3587.16667
1165.18	3598.83333
1168.525	3616.16667
1171.869	3678.83333
1175.21	3715.83333
1178.548	3751.5
1181.884	3805.83333
1185.217	3795.5
1188.548	3888.83333
1191.877	3914.16667
1195.202	3971.16667
1198.526	4074.83333
1201.846	4108.5
1205.165	4094.16667
1208.48	4056.16667
1211.794	4056.5
1215.104	4055.16667
1218.413	4054.5
1221.719	4055.83333
1225.022	4033.16667
1228.323	4021.16667
1231.621	4008.16667
1234.917	3973.5
1238.21	4000.5
1241.501	3986.83333
1244.79	4004.83333
1248.076	3983.5
1251.359	4064.5
1254.64	4105.16667
1257.919	4127.83333
1261.195	4190.5
1264.468	4246.83333
1267.74	4291.5
1271.008	4322.16667
1274.275	4310.5
1277.538	4246.16667
1280.8	4232.5
1284.059	4235.83333
1287.315	4266.16667
1290.569	4316.5
1293.821	4293.5
1297.07	4329.5
1300.317	4345.16667
1303.562	4353.5
1306.803	4319.83333
1310.043	4253.5
1313.28	4200.83333
1316.515	4170.83333
1319.747	4136.5
1322.977	4089.5
1326.204	3989.16667
1329.429	3973.83333
1332.652	3953.16667
1335.872	3938.83333
1339.09	3896.16667
1342.306	3903.83333
1345.519	3893.5
1348.729	3829.5
1351.938	3824.5
1355.144	3755.5
1358.347	3746.5
1361.548	3715.83333
1364.747	3749.83333
1367.944	3715.16667
1371.138	3757.5
1374.329	3803.83333
1377.518	3801.5
1380.705	3877.16667
1383.89	3814.5
1387.072	3726.83333
1390.252	3627.16667
1393.429	3478.83333
1396.605	3379.5
1399.777	3291.83333
1402.948	3252.5
1406.116	3240.16667
1409.282	3233.5
1412.445	3246.16667
1415.606	3287.83333
1418.765	3316.5
1421.921	3376.16667
1425.075	3463.83333
1428.227	3569.83333
1431.376	3736.16667
1434.524	3907.5
1437.668	3973.16667
1440.811	4016.83333
1443.951	4058.5
1447.089	4080.16667
1450.224	4051.5
1453.357	3985.5
1456.488	3972.16667
1459.617	3907.83333
1462.743	3861.83333
1465.867	3792.5
1468.989	3723.5
1472.108	3646.5
1475.225	3583.83333
1478.34	3557.83333
1481.453	3543.16667
1484.563	3543.5
1487.671	3584.83333
1490.776	3613.16667
1493.88	3702.16667
1496.981	3781.16667
1500.08	3839.16667
1503.176	3892.83333
1506.271	3973.5
1509.363	4042.5
1512.452	4090.16667
1515.54	4179.5
1518.625	4272.5
1521.708	4442.5
1524.789	4695.16667
1527.867	4970.5
1530.944	5301.83333
1534.018	5585.83333
1537.089	5717.16667
1540.159	5662.16667
1543.226	5527.83333
1546.291	5336.5
1549.354	5160.83333
1552.415	4974.83333
1555.473	4830.83333
1558.529	4737.83333
1561.583	4711.83333
1564.634	4634.5
1567.684	4613.83333
1570.731	4635.83333
1573.776	4683.5
1576.819	4696.83333
1579.859	4735.16667
1582.898	4823.83333
1585.934	4820.5
1588.968	4835.83333
1591.999	4809.16667
1595.029	4812.16667
1598.056	4852.16667
1601.081	4837.16667
1604.104	4824.16667
1607.125	4818.16667
1610.144	4683.83333
1613.16	4583.16667
1616.174	4456.83333
1619.186	4372.83333
1622.196	4278.83333
1625.203	4176.16667
1628.209	4090.16667
1631.212	4083.83333
1634.213	4076.16667
1637.212	4032.5
1640.209	3988.83333
1643.203	3877.16667
1646.196	3747.83333
1649.186	3607.83333
1652.174	3491.5
1655.16	3403.83333
1658.144	3306.16667
1661.125	3124.5
1664.105	2979.5
1667.082	2890.16667
1670.057	2702.83333
1673.03	2531.16667
1676.001	2375.16667
1678.97	2231.83333
1681.937	2107.16667
1684.901	1980.5
1687.863	1924.16667
1690.824	1844.5
1693.782	1812.83333
1696.738	1750.5
1699.692	1702.5
1702.643	1663.16667
1705.593	1651.83333
1708.54	1627.83333
1711.486	1621.83333
1714.429	1588.16667
1717.37	1567.5
1720.309	1549.83333
1723.246	1540.5
1726.181	1500.5
1729.113	1507.16667
1732.044	1481.83333
1734.972	1470.16667
1737.899	1478.16667
1740.823	1460.5
1743.745	1462.5
1746.665	1402.5
1749.583	1377.83333
1752.499	1378.16667
1755.413	1360.5
1758.325	1321.83333
1761.235	1304.5
1764.142	1291.5
1767.048	1296.5
1769.951	1270.83333
1772.852	1268.83333
1775.752	1253.5
1778.649	1263.16667
1781.544	1254.16667
1784.437	1222.16667
1787.328	1233.5
1790.217	1222.83333
1793.104	1191.5
1795.989	1182.16667
1798.872	1176.16667
1801.753	1200.5
1804.631	1188.5
1807.508	1190.83333
1810.383	1190.83333
1813.255	1178.16667
1816.126	1168.5
1818.994	1165.16667
1821.861	1171.83333
1824.725	1171.83333
1827.587	1167.83333
1830.448	1137.5
1833.306	1121.83333
1836.162	1141.5
1839.017	1120.5
1841.869	1115.5
1844.719	1124.5
1847.567	1098.16667
1850.414	1099.5
1853.258	1095.83333
1856.1	1101.5
1858.94	1122.16667
1861.778	1112.83333
1864.614	1100.16667
1867.448	1106.5
1870.28	1079.16667
1873.111	1118.5
1875.939	1084.5
1878.765	1104.5
1881.589	1082.16667
1884.411	1084.83333
1887.231	1097.83333
1890.049	1078.83333
1892.865	1086.5
1895.68	1071.5
1898.492	1072.5
1901.302	1057.16667
1904.11	1068.83333
1906.916	1047.5
1909.721	1036.83333
1912.523	1055.83333
1915.323	1030.5
1918.122	1040.5
1920.918	1024.5
1923.712	1030.16667
1926.505	1036.5
1929.295	1003.5
1932.084	1032.83333
1934.87	1036.5
1937.655	1014.16667
1940.438	998.16667
1943.218	1017.5
1945.997	1010.83333
1948.774	1035.5
1951.549	1017.5
1954.322	1001.5
1957.093	1009.5
1959.862	999.5
1962.629	996.16667
1965.394	987.16667
1968.157	982.16667
1970.918	986.83333
1973.678	980.16667
1976.435	992.5
1979.19	980.16667
1981.944	963.16667
1984.696	974.83333
1987.445	967.16667
1990.193	957.16667
1992.939	981.16667
1995.683	966.83333
1998.425	949.83333
2001.165	972.83333
2003.903	965.83333
2006.639	956.5
2009.374	954.5
2012.106	957.16667
2014.837	940.5
2017.566	956.83333
2020.292	946.16667
2023.017	962.16667
2025.74	942.16667
2028.461	930.83333
2031.18	941.5
2033.898	929.16667
2036.613	936.5
2039.327	935.83333
2042.038	912.16667
2044.748	919.16667
2047.456	923.83333
2050.162	898.83333
2052.866	904.5
2055.568	908.83333
2058.268	898.83333
2060.967	920.83333
2063.663	903.5
2066.358	899.16667
2069.051	899.83333
2071.742	902.16667
2074.431	913.83333
2077.118	893.16667
2079.804	875.5
2082.487	896.16667
2085.169	911.83333
2087.849	909.16667
2090.527	906.83333
2093.203	909.5
2095.877	924.5
2098.55	907.83333
2101.22	923.5
2103.889	930.83333
2106.556	934.83333
2109.221	952.16667
2111.884	980.16667
2114.546	1041.5
2117.205	1088.83333
2119.863	1168.16667
2122.519	1252.5
2125.173	1327.83333
2127.825	1423.5
2130.475	1447.5
2133.124	1406.16667
2135.771	1370.83333
2138.416	1325.83333
2141.059	1239.16667
2143.7	1192.16667
2146.339	1122.16667
2148.977	1050.83333
2151.613	1037.5
2154.247	1000.5
2156.879	979.83333
2159.51	950.5
2162.138	927.16667
2164.765	934.5
2167.39	923.5
2170.013	947.5
2172.634	934.16667
2175.254	912.83333
2177.872	944.5
2180.488	908.83333
2183.102	908.83333
2185.714	882.5
2188.325	877.83333
2190.934	870.83333
2193.541	879.83333
2196.146	843.16667
2198.75	840.5
2201.351	838.83333
2203.951	808.16667
2206.549	826.16667
2209.146	811.16667
2211.74	812.5
2214.333	805.5
2216.924	795.16667
2219.514	799.16667
2222.101	775.83333
2224.687	793.83333
2227.271	779.83333
2229.853	778.5
2232.433	752.16667
2235.012	774.16667
2237.589	779.83333
2240.164	779.16667
2242.738	759.16667
2245.309	756.16667
2247.879	751.5
2250.448	768.83333
2253.014	724.5
2255.579	721.83333
2258.142	722.5
2260.703	710.83333
2263.262	715.83333
2265.82	706.83333
2268.376	710.16667
2270.93	688.83333
2273.483	684.16667
2276.033	697.16667
2278.583	686.5
2281.13	688.5
2283.675	674.5
2286.219	687.5
2288.761	679.5
2291.302	683.83333
2293.841	676.16667
2296.377	657.16667
2298.913	656.83333
2301.446	666.5
2303.978	653.5
2306.508	656.83333
2309.037	666.5
2311.563	661.5
2314.088	656.16667
2316.612	640.83333
2319.133	653.5
2321.653	648.5
2324.171	631.16667
2326.688	642.16667
2329.202	634.5
2331.715	639.83333
2334.227	634.5
2336.736	631.16667
2339.244	632.16667
2341.751	615.16667
2344.255	632.83333
2346.758	626.16667
2349.259	609.83333
2351.759	615.5
2354.257	615.5
2356.753	608.16667
2359.247	612.16667
2361.74	621.16667
2364.231	607.16667
2366.721	609.83333
2369.209	605.83333
2371.695	598.16667
2374.179	585.16667
2376.662	590.16667
2379.143	608.16667
2381.622	591.83333
2384.1	608.83333
2386.576	595.83333
2389.051	607.16667
2391.524	613.16667
2393.995	600.5
2396.464	581.5
2398.932	574.83333
2401.398	579.16667
2403.863	576.16667
2406.325	583.83333
2408.787	577.83333
2411.246	566.83333
2413.704	567.16667
2416.16	573.5
2418.615	563.83333
2421.068	575.5
2423.519	573.5
2425.969	563.83333
2428.417	579.83333
2430.863	576.5
2433.308	581.16667
2435.751	558.83333
2438.193	558.5
2440.633	574.5
2443.071	564.83333
2445.508	543.5
2447.943	551.16667
2450.376	546.5
2452.808	558.83333
2455.238	547.5
2457.667	573.16667
2460.093	542.83333
2462.519	527.5
2464.942	540.5
2467.365	540.83333
2469.785	546.16667
2472.204	538.16667
2474.621	528.5
2477.037	564.16667
2479.451	522.83333
2481.863	528.83333
2484.274	525.83333
2486.683	537.83333
2489.091	531.16667
2491.497	531.5
2493.901	534.16667
2496.304	521.5
2498.705	535.16667
2501.105	514.5
2503.503	546.16667
2505.899	514.5
2508.294	538.16667
2510.687	505.5
2513.079	511.16667
2515.469	502.5
2517.858	508.83333
2520.245	526.83333
2522.63	510.16667
2525.014	511.83333
2527.396	505.5
2529.776	507.16667
2532.156	515.16667
2534.533	495.83333
2536.909	502.5
2539.283	478.16667
2541.656	496.5
2544.027	521.5
2546.397	498.5
2548.765	497.5
2551.131	490.83333
2553.496	501.16667
2555.86	507.5
2558.221	490.16667
2560.582	483.83333
2562.94	481.5
2565.298	490.5
2567.653	502.83333
2570.007	476.16667
2572.36	481.83333
2574.711	475.83333
2577.06	500.5
2579.408	486.83333
2581.754	476.16667
2584.099	482.16667
2586.442	480.5
2588.784	489.5
2591.124	480.5
2593.463	473.16667
2595.8	481.5
2598.135	466.16667
2600.469	477.5
2602.802	488.5
2605.133	485.5
2607.462	468.5
2609.79	468.16667
2612.116	477.16667
2614.441	472.16667
2616.764	473.16667
2619.086	472.5
2621.406	460.16667
2623.725	476.16667
2626.042	476.5
2628.358	458.16667
2630.672	468.5
2632.985	477.5
2635.296	465.5
2637.606	472.83333
2639.914	461.5
2642.22	473.5
2644.525	473.83333
2646.829	469.5
2649.131	482.83333
2651.432	473.83333
2653.731	470.5
2656.028	484.5
2658.324	469.16667
2660.619	454.16667
2662.912	480.5
2665.204	463.83333
2667.494	478.16667
2669.782	468.5
2672.07	479.83333
2674.355	482.83333
2676.639	474.16667
2678.922	474.83333
2681.203	481.5
2683.483	464.16667
2685.761	455.5
2688.038	476.83333
2690.313	493.83333
2692.587	472.5
2694.859	473.5
2697.13	477.16667
2699.399	475.16667
2701.667	491.83333
2703.933	495.5
2706.198	489.16667
2708.461	499.5
2710.723	505.5
2712.984	508.5
2715.243	510.16667
2717.5	499.83333
2719.757	517.83333
2722.011	510.16667
2724.264	523.83333
2726.516	533.5
2728.766	501.83333
2731.015	521.16667
2733.262	514.5
2735.508	502.83333
2737.753	498.83333
2739.996	489.16667
2742.237	491.5
2744.477	510.5
2746.716	499.83333
2748.953	485.5
2751.189	495.83333
2753.423	483.5
2755.656	469.16667
2757.887	481.16667
2760.117	474.5
2762.346	471.83333
2764.573	467.83333
2766.798	468.5
2769.022	477.83333
2771.245	469.5
2773.467	478.16667
2775.686	471.16667
2777.905	485.16667
2780.122	490.83333
2782.337	495.5
2784.552	488.16667
2786.764	494.16667
2788.976	498.16667
2791.186	506.83333
2793.394	505.16667
2795.601	524.16667
2797.807	536.83333
2800.011	535.16667
2802.214	555.16667
2804.415	547.83333
2806.615	558.83333
2808.814	557.83333
2811.011	564.16667
2813.206	574.16667
2815.401	587.83333
2817.594	609.83333
2819.785	622.5
2821.975	603.5
2824.164	624.5
2826.351	648.83333
2828.537	680.83333
2830.722	691.83333
2832.905	711.16667
2835.086	730.83333
2837.267	766.16667
2839.445	797.5
2841.623	828.16667
2843.799	874.16667
2845.974	929.83333
2848.147	967.83333
2850.319	990.83333
2852.489	1037.83333
2854.659	1043.83333
2856.826	1078.5
2858.993	1091.83333
2861.158	1079.83333
2863.321	1079.83333
2865.483	1112.5
2867.644	1096.5
2869.804	1096.83333
2871.962	1090.16667
2874.118	1093.16667
2876.274	1091.16667
2878.428	1090.16667
2880.58	1062.83333
2882.731	1070.83333
2884.881	1080.5
2887.03	1069.16667
2889.177	1081.5
2891.322	1090.83333
2893.467	1072.5
2895.61	1085.5
2897.751	1112.83333
2899.892	1094.83333
2902.03	1103.83333
2904.168	1118.83333
2906.304	1126.16667
2908.439	1145.83333
2910.572	1120.83333
2912.704	1135.5
2914.835	1142.83333
2916.965	1129.16667
2919.093	1157.16667
2921.219	1090.83333
2923.345	1125.83333
2925.469	1111.83333
2927.591	1089.83333
2929.712	1049.5
2931.832	1048.83333
2933.951	1004.16667
2936.068	967.16667
2938.184	960.83333
2940.299	916.5
2942.412	879.5
2944.524	827.83333
2946.634	807.16667
2948.744	771.83333
2950.851	775.16667
2952.958	714.5
2955.063	715.83333
2957.167	704.5
2959.269	639.16667
2961.371	665.5
2963.471	617.83333
2965.569	612.16667
2967.666	587.16667
2969.762	563.16667
2971.857	550.5
2973.95	525.16667
2976.042	528.5
2978.133	503.5
2980.222	484.5
2982.31	461.16667
2984.396	445.83333
2986.482	439.5
2988.566	443.16667
2990.648	421.16667
2992.73	420.83333
2994.81	399.16667
2996.889	418.5
2998.966	394.16667
3001.042	398.83333
3003.117	392.83333
3005.191	387.5
3007.263	387.5
3009.334	370.5
3011.403	365.5
3013.472	349.16667
3015.539	352.5
3017.604	354.5
3019.669	322.83333
3021.732	334.5
3023.794	334.5
3025.854	310.16667
3027.914	300.83333
3029.971	318.16667
3032.028	309.83333
3034.083	318.16667
3036.137	309.83333
3038.19	297.5
3040.242	287.83333
3042.292	285.5
3044.341	274.16667
3046.388	294.16667
3048.435	266.83333
3050.48	282.83333
3052.524	282.5
3054.566	260.16667
3056.607	268.16667
3058.647	266.83333
3060.686	249.16667
3062.723	233.83333
3064.759	232.83333
3066.794	-0.16667
3068.828	0.16667
3070.86	-1.83333
