-0.839	430.625
3.438	481.29167
7.711	143.29167
11.981	53.625
16.247	48.95833
20.509	43.29167
24.768	47.29167
29.024	47.29167
33.276	44.29167
37.524	55.29167
41.769	41.29167
46.01	35.625
50.247	54.625
54.481	60.625
58.712	69.29167
62.939	53.29167
67.162	59.95833
71.382	58.29167
75.599	49.95833
79.812	63.625
84.021	89.29167
88.227	60.95833
92.429	67.625
96.628	52.29167
100.823	75.29167
105.015	78.625
109.204	77.29167
113.388	79.95833
117.57	75.29167
121.748	88.95833
125.922	86.625
130.093	108.29167
134.261	111.29167
138.425	104.95833
142.585	146.29167
146.742	146.95833
150.896	177.29167
155.046	208.29167
159.193	338.29167
163.336	566.625
167.476	1047.95833
171.613	1913.625
175.746	3214.29167
179.875	4793.625
184.002	6280.29167
188.124	7362.95833
192.244	7779.625
196.36	7797.95833
200.472	7659.29167
204.581	7457.625
208.687	7389.29167
212.79	7366.95833
216.889	7441.95833
220.984	7574.29167
225.077	7748.29167
229.165	7900.625
233.251	8045.29167
237.333	8154.625
241.412	8142.95833
245.487	8157.95833
249.559	8085.95833
253.628	8027.95833
257.694	7953.29167
261.756	7862.29167
265.814	7730.95833
269.87	7467.625
273.922	7197.29167
277.97	7072.95833
282.016	6900.29167
286.058	6786.29167
290.097	6814.625
294.132	6815.625
298.164	6693.625
302.193	6329.625
306.219	5885.95833
310.241	5333.29167
314.26	4854.95833
318.276	4467.95833
322.288	4166.625
326.297	3948.29167
330.303	3760.95833
334.305	3650.95833
338.305	3552.95833
342.301	3549.625
346.294	3477.95833
350.283	3457.29167
354.269	3398.95833
358.252	3365.29167
362.232	3345.625
366.209	3335.625
370.182	3300.625
374.152	3293.625
378.119	3304.95833
382.083	3313.625
386.043	3296.625
390	3266.29167
393.954	3256.625
397.905	3233.625
401.852	3205.29167
405.797	3169.95833
409.738	3129.625
413.676	3132.95833
417.61	3119.625
421.542	3075.95833
425.47	3028.29167
429.396	3017.625
433.318	2997.29167
437.236	2984.625
441.152	3006.625
445.065	2928.625
448.974	2915.625
452.88	2902.29167
456.783	2873.625
460.683	2874.29167
464.58	2899.625
468.473	2879.95833
472.364	2891.29167
476.251	2894.29167
480.135	2911.29167
484.016	2951.95833
487.894	2990.95833
491.769	2984.95833
495.641	2980.95833
499.509	2979.95833
503.375	2970.95833
507.237	2971.29167
511.096	2944.95833
514.952	2953.29167
518.805	2951.625
522.655	2948.29167
526.502	2917.95833
530.346	2916.95833
534.187	2925.95833
538.024	2925.29167
541.859	2940.29167
545.69	2970.29167
549.519	2956.29167
553.344	2914.625
557.166	2899.625
560.985	2868.29167
564.802	2838.95833
568.615	2773.29167
572.425	2750.29167
576.232	2721.95833
580.036	2720.29167
583.836	2722.625
587.634	2748.95833
591.429	2743.29167
595.221	2809.95833
599.01	2795.95833
602.796	2833.95833
606.578	2839.625
610.358	2874.625
614.135	2861.29167
617.909	2847.625
621.679	2826.625
625.447	2805.29167
629.212	2816.625
632.973	2807.95833
636.732	2818.625
640.488	2819.625
644.241	2808.29167
647.991	2802.625
651.737	2808.625
655.481	2783.95833
659.222	2822.625
662.96	2785.29167
666.695	2813.625
670.427	2796.29167
674.156	2829.29167
677.882	2814.625
681.605	2811.95833
685.325	2782.95833
689.043	2781.625
692.757	2784.29167
696.468	2788.625
700.177	2809.29167
703.882	2775.95833
707.585	2775.625
711.284	2790.95833
714.981	2807.625
718.675	2816.29167
722.366	2804.625
726.054	2782.625
729.739	2796.625
733.421	2784.95833
737.1	2789.625
740.777	2832.95833
744.45	2802.29167
748.121	2826.29167
751.789	2893.625
755.453	2918.95833
759.115	2901.95833
762.774	2956.625
766.431	2952.625
770.084	2992.625
773.734	3031.625
777.382	3062.95833
781.027	3096.29167
784.669	3110.95833
788.308	3129.625
791.944	3184.95833
795.577	3189.95833
799.208	3225.29167
802.835	3239.625
806.46	3269.625
810.082	3312.625
813.701	3290.29167
817.317	3336.29167
820.931	3353.29167
824.542	3344.95833
828.149	3327.95833
831.754	3272.625
835.357	3236.29167
838.956	3252.95833
842.553	3218.625
846.146	3216.29167
849.737	3204.625
853.326	3195.95833
856.911	3214.625
860.493	3253.95833
864.073	3256.95833
867.65	3304.625
871.225	3354.625
874.796	3337.29167
878.365	3362.95833
881.931	3379.625
885.494	3409.29167
889.054	3403.29167
892.612	3406.95833
896.166	3350.95833
899.719	3316.29167
903.268	3296.625
906.814	3284.95833
910.358	3270.95833
913.899	3239.29167
917.438	3255.625
920.973	3247.95833
924.506	3295.95833
928.036	3324.95833
931.564	3359.29167
935.088	3376.29167
938.61	3389.95833
942.129	3416.625
945.646	3519.95833
949.16	3583.29167
952.671	3678.625
956.179	3700.95833
959.685	3700.29167
963.188	3682.29167
966.688	3662.95833
970.185	3533.29167
973.68	3465.95833
977.173	3420.29167
980.662	3420.625
984.149	3420.29167
987.633	3431.29167
991.114	3517.29167
994.593	3601.625
998.069	3711.625
1001.542	3808.29167
1005.013	3736.625
1008.481	3543.29167
1011.947	3483.625
1015.409	3461.29167
1018.869	3468.625
1022.327	3462.95833
1025.782	3431.625
1029.234	3454.95833
1032.683	3411.625
1036.13	3295.95833
1039.574	3188.95833
1043.016	3102.625
1046.455	3066.625
1049.891	3017.29167
1053.325	3041.625
1056.756	3017.625
1060.184	3056.95833
1063.61	3075.625
1067.033	3109.95833
1070.454	3097.625
1073.872	3155.625
1077.287	3121.29167
1080.7	3146.29167
1084.11	3127.95833
1087.517	3106.95833
1090.922	3052.29167
1094.325	3032.29167
1097.724	2968.625
1101.122	2974.95833
1104.516	2987.625
1107.908	2977.625
1111.298	3040.95833
1114.684	3066.625
1118.069	3109.95833
1121.45	3139.95833
1124.83	3138.625
1128.206	3164.95833
1131.58	3178.29167
1134.951	3277.29167
1138.32	3341.29167
1141.687	3473.625
1145.05	3558.95833
1148.412	3596.95833
1151.77	3557.29167
1155.126	3572.625
1158.48	3590.29167
1161.831	3606.625
1165.18	3633.95833
1168.525	3692.29167
1171.869	3718.625
1175.21	3757.29167
1178.548	3816.29167
1181.884	3832.29167
1185.217	3858.95833
1188.548	3925.625
1191.877	3997.95833
1195.202	4029.29167
1198.526	4134.625
1201.846	4117.625
1205.165	4137.95833
1208.48	4109.625
1211.794	4099.625
1215.104	4101.625
1218.413	4125.29167
1221.719	4110.29167
1225.022	4082.29167
1228.323	4037.95833
1231.621	4035.625
1234.917	3997.625
1238.21	4059.625
1241.501	4011.95833
1244.79	4057.29167
1248.076	4049.95833
1251.359	4080.95833
1254.64	4149.625
1257.919	4149.625
1261.195	4229.29167
1264.468	4310.29167
1267.74	4343.29167
1271.008	4334.29167
1274.275	4349.95833
1277.538	4275.29167
1280.8	4287.625
1284.059	4295.625
1287.315	4327.29167
1290.569	4317.95833
1293.821	4371.625
1297.07	4409.95833
1300.317	4393.29167
1303.562	4391.29167
1306.803	4380.95833
1310.043	4303.95833
1313.28	4261.29167
1316.515	4229.29167
1319.747	4216.29167
1322.977	4151.625
1326.204	4086.29167
1329.429	4024.29167
1332.652	4013.29167
1335.872	4004.29167
1339.09	3958.29167
1342.306	3971.625
1345.519	3947.29167
1348.729	3908.29167
1351.938	3886.29167
1355.144	3841.95833
1358.347	3804.95833
1361.548	3782.625
1364.747	3805.29167
1367.944	3772.29167
1371.138	3811.625
1374.329	3827.625
1377.518	3868.95833
1380.705	3905.95833
1383.89	3884.625
1387.072	3802.29167
1390.252	3674.95833
1393.429	3561.29167
1396.605	3425.29167
1399.777	3337.29167
1402.948	3305.29167
1406.116	3274.95833
1409.282	3294.625
1412.445	3298.95833
1415.606	3327.625
1418.765	3357.625
1421.921	3431.625
1425.075	3519.625
1428.227	3635.625
1431.376	3817.29167
1434.524	3941.29167
1437.668	4061.29167
1440.811	4079.29167
1443.951	4112.29167
1447.089	4098.95833
1450.224	4085.95833
1453.357	4066.29167
1456.488	4035.625
1459.617	3954.625
1462.743	3904.29167
1465.867	3810.29167
1468.989	3775.625
1472.108	3690.625
1475.225	3641.625
1478.34	3588.29167
1481.453	3580.29167
1484.563	3580.29167
1487.671	3627.625
1490.776	3689.625
1493.88	3718.95833
1496.981	3800.625
1500.08	3872.625
1503.176	3955.625
1506.271	4005.625
1509.363	4103.29167
1512.452	4127.95833
1515.54	4197.29167
1518.625	4285.95833
1521.708	4481.29167
1524.789	4718.625
1527.867	5025.95833
1530.944	5360.29167
1534.018	5606.29167
1537.089	5771.95833
1540.159	5734.29167
1543.226	5587.95833
1546.291	5354.29167
1549.354	5155.29167
1552.415	5012.95833
1555.473	4831.29167
1558.529	4792.625
1561.583	4707.29167
1564.634	4667.625
1567.684	4673.625
1570.731	4670.625
1573.776	4711.95833
1576.819	4733.29167
1579.859	4783.625
1582.898	4834.95833
1585.934	4848.29167
1588.968	4890.95833
1591.999	4866.625
1595.029	4856.95833
1598.056	4879.29167
1601.081	4896.95833
1604.104	4876.95833
1607.125	4816.29167
1610.144	4731.29167
1613.16	4618.625
1616.174	4533.29167
1619.186	4407.95833
1622.196	4310.625
1625.203	4242.29167
1628.209	4178.625
1631.212	4163.625
1634.213	4135.95833
1637.212	4117.29167
1640.209	4055.29167
1643.203	3953.29167
1646.196	3814.95833
1649.186	3686.625
1652.174	3563.29167
1655.16	3457.625
1658.144	3333.95833
1661.125	3191.95833
1664.105	3062.625
1667.082	2904.29167
1670.057	2753.95833
1673.03	2586.625
1676.001	2413.625
1678.97	2253.29167
1681.937	2132.29167
1684.901	2007.625
1687.863	1961.625
1690.824	1878.625
1693.782	1841.625
1696.738	1776.625
1699.692	1749.29167
1702.643	1689.625
1705.593	1688.29167
1708.54	1639.29167
1711.486	1645.29167
1714.429	1607.29167
1717.37	1596.29167
1720.309	1564.625
1723.246	1576.29167
1726.181	1518.625
1729.113	1536.625
1732.044	1502.29167
1734.972	1502.95833
1737.899	1499.95833
1740.823	1488.29167
1743.745	1484.95833
1746.665	1426.95833
1749.583	1425.29167
1752.499	1390.625
1755.413	1380.95833
1758.325	1330.29167
1761.235	1341.625
1764.142	1309.29167
1767.048	1295.29167
1769.951	1299.625
1772.852	1281.29167
1775.752	1281.29167
1778.649	1291.625
1781.544	1264.95833
1784.437	1247.29167
1787.328	1257.29167
1790.217	1249.29167
1793.104	1219.29167
1795.989	1200.625
1798.872	1209.29167
1801.753	1226.29167
1804.631	1228.625
1807.508	1215.95833
1810.383	1209.95833
1813.255	1194.625
1816.126	1196.29167
1818.994	1196.29167
1821.861	1178.625
1824.725	1183.29167
1827.587	1183.95833
1830.448	1166.625
1833.306	1129.625
1836.162	1153.625
1839.017	1141.95833
1841.869	1148.95833
1844.719	1136.95833
1847.567	1125.29167
1850.414	1114.95833
1853.258	1124.95833
1856.1	1140.29167
1858.94	1145.625
1861.778	1137.95833
1864.614	1108.625
1867.448	1129.625
1870.28	1113.95833
1873.111	1135.625
1875.939	1105.29167
1878.765	1139.95833
1881.589	1103.95833
1884.411	1088.625
1887.231	1108.625
1890.049	1085.625
1892.865	1095.29167
1895.68	1103.625
1898.492	1085.95833
1901.302	1072.95833
1904.11	1073.29167
1906.916	1067.625
1909.721	1062.625
1912.523	1072.625
1915.323	1047.625
1918.122	1067.29167
1920.918	1046.95833
1923.712	1059.95833
1926.505	1041.95833
1929.295	1026.95833
1932.084	1051.29167
1934.87	1056.29167
1937.655	1031.29167
1940.438	1045.625
1943.218	1036.625
1945.997	1050.29167
1948.774	1036.625
1951.549	1052.29167
1954.322	1030.95833
1957.093	1030.95833
1959.862	1018.95833
1962.629	1040.29167
1965.394	1023.95833
1968.157	1002.95833
1970.918	1024.95833
1973.678	1002.95833
1976.435	1008.95833
1979.19	992.29167
1981.944	972.625
1984.696	981.29167
1987.445	980.625
1990.193	983.29167
1992.939	992.625
1995.683	984.625
1998.425	969.625
2001.165	992.29167
2003.903	964.29167
2006.639	976.625
2009.374	972.29167
2012.106	974.95833
2014.837	940.625
2017.566	991.625
2020.292	1088.95833
2023.017	975.29167
2025.74	959.29167
2028.461	947.29167
2031.18	954.625
2033.898	930.625
2036.613	937.95833
2039.327	952.625
2042.038	926.95833
2044.748	939.95833
2047.456	939.95833
2050.162	919.95833
2052.866	927.95833
2055.568	919.95833
2058.268	927.625
2060.967	927.95833
2063.663	904.95833
2066.358	919.625
2069.051	909.29167
2071.742	912.625
2074.431	925.625
2077.118	909.29167
2079.804	911.95833
2082.487	912.29167
2085.169	925.95833
2087.849	933.29167
2090.527	918.625
2093.203	933.625
2095.877	929.95833
2098.55	923.625
2101.22	938.29167
2103.889	942.625
2106.556	932.625
2109.221	981.95833
2111.884	989.625
2114.546	1047.625
2117.205	1101.29167
2119.863	1171.29167
2122.519	1277.95833
2125.173	1345.95833
2127.825	1438.29167
2130.475	1451.95833
2133.124	1427.625
2135.771	1388.29167
2138.416	1338.95833
2141.059	1257.29167
2143.7	1209.625
2146.339	1143.95833
2148.977	1082.95833
2151.613	1061.625
2154.247	1021.625
2156.879	1004.29167
2159.51	980.625
2162.138	962.95833
2164.765	970.29167
2167.39	940.95833
2170.013	953.29167
2172.634	957.29167
2175.254	928.625
2177.872	968.625
2180.488	897.625
2183.102	920.625
2185.714	894.95833
2188.325	884.625
2190.934	874.29167
2193.541	886.625
2196.146	859.29167
2198.75	859.29167
2201.351	837.29167
2203.951	831.29167
2206.549	847.625
2209.146	828.29167
2211.74	807.95833
2214.333	834.29167
2216.924	809.29167
2219.514	802.625
2222.101	798.625
2224.687	818.29167
2227.271	786.95833
2229.853	789.29167
2232.433	775.95833
2235.012	798.29167
2237.589	787.95833
2240.164	788.29167
2242.738	784.29167
2245.309	766.95833
2247.879	770.625
2250.448	773.29167
2253.014	749.625
2255.579	735.95833
2258.142	730.95833
2260.703	719.625
2263.262	719.95833
2265.82	723.29167
2268.376	721.95833
2270.93	703.95833
2273.483	695.625
2276.033	698.29167
2278.583	706.625
2281.13	697.29167
2283.675	706.95833
2286.219	702.625
2288.761	685.95833
2291.302	691.95833
2293.841	700.29167
2296.377	671.29167
2298.913	681.95833
2301.446	679.95833
2303.978	673.95833
2306.508	664.29167
2309.037	671.29167
2311.563	675.29167
2314.088	681.29167
2316.612	643.29167
2319.133	670.625
2321.653	660.29167
2324.171	639.625
2326.688	658.625
2329.202	648.95833
2331.715	661.95833
2334.227	648.95833
2336.736	641.95833
2339.244	627.625
2341.751	634.625
2344.255	631.95833
2346.758	629.29167
2349.259	621.625
2351.759	621.625
2354.257	619.29167
2356.753	624.625
2359.247	620.625
2361.74	631.95833
2364.231	618.95833
2366.721	620.625
2369.209	617.625
2371.695	611.29167
2374.179	613.95833
2376.662	604.29167
2379.143	615.625
2381.622	608.95833
2384.1	612.29167
2386.576	601.95833
2389.051	614.29167
2391.524	614.625
2393.995	616.95833
2396.464	596.95833
2398.932	583.95833
2401.398	589.29167
2403.863	579.95833
2406.325	587.95833
2408.787	593.625
2411.246	588.625
2413.704	572.625
2416.16	578.29167
2418.615	586.95833
2421.068	592.625
2423.519	578.625
2425.969	573.95833
2428.417	585.625
2430.863	600.29167
2433.308	589.625
2435.751	580.95833
2438.193	570.29167
2440.633	573.625
2443.071	568.29167
2445.508	551.29167
2447.943	566.29167
2450.376	546.29167
2452.808	566.95833
2455.238	558.29167
2457.667	584.95833
2460.093	556.29167
2462.519	543.29167
2464.942	545.95833
2467.365	565.625
2469.785	549.625
2472.204	544.29167
2474.621	544.625
2477.037	556.29167
2479.451	527.29167
2481.863	532.95833
2484.274	535.625
2486.683	543.29167
2489.091	541.625
2491.497	546.625
2493.901	541.625
2496.304	531.95833
2498.705	545.29167
2501.105	528.625
2503.503	562.29167
2505.899	521.95833
2508.294	544.95833
2510.687	513.625
2513.079	523.95833
2515.469	513.29167
2517.858	522.95833
2520.245	540.625
2522.63	515.95833
2525.014	513.95833
2527.396	511.625
2529.776	504.29167
2532.156	507.95833
2534.533	506.29167
2536.909	511.29167
2539.283	498.95833
2541.656	504.29167
2544.027	522.29167
2546.397	504.625
2548.765	501.95833
2551.131	506.625
2553.496	505.625
2555.86	507.625
2558.221	507.29167
2560.582	502.29167
2562.94	485.29167
2565.298	495.625
2567.653	516.29167
2570.007	486.95833
2572.36	496.95833
2574.711	491.625
2577.06	520.95833
2579.408	487.625
2581.754	492.95833
2584.099	490.625
2586.442	486.625
2588.784	495.625
2591.124	484.29167
2593.463	491.625
2595.8	485.95833
2598.135	482.625
2600.469	482.625
2602.802	502.29167
2605.133	494.625
2607.462	484.95833
2609.79	466.625
2612.116	480.95833
2614.441	477.95833
2616.764	479.625
2619.086	476.625
2621.406	469.625
2623.725	488.29167
2626.042	482.95833
2628.358	479.625
2630.672	482.95833
2632.985	482.29167
2635.296	480.95833
2637.606	480.29167
2639.914	472.29167
2642.22	478.625
2644.525	473.29167
2646.829	481.95833
2649.131	482.625
2651.432	489.29167
2653.731	472.95833
2656.028	486.95833
2658.324	484.29167
2660.619	478.95833
2662.912	486.625
2665.204	472.95833
2667.494	490.625
2669.782	471.29167
2672.07	479.29167
2674.355	489.625
2676.639	485.95833
2678.922	474.95833
2681.203	496.625
2683.483	470.625
2685.761	462.95833
2688.038	488.29167
2690.313	499.625
2692.587	485.625
2694.859	473.29167
2697.13	489.29167
2699.399	481.29167
2701.667	495.29167
2703.933	498.625
2706.198	493.625
2708.461	512.625
2710.723	512.625
2712.984	499.625
2715.243	512.29167
2717.5	514.625
2719.757	522.625
2722.011	517.625
2724.264	526.95833
2726.516	546.95833
2728.766	525.95833
2731.015	519.29167
2733.262	521.29167
2735.508	510.95833
2737.753	513.625
2739.996	498.95833
2742.237	496.625
2744.477	512.95833
2746.716	506.625
2748.953	503.95833
2751.189	499.29167
2753.423	487.625
2755.656	486.95833
2757.887	474.95833
2760.117	481.29167
2762.346	475.95833
2764.573	470.95833
2766.798	467.95833
2769.022	478.625
2771.245	480.625
2773.467	484.29167
2775.686	482.95833
2777.905	498.95833
2780.122	492.95833
2782.337	498.29167
2784.552	488.625
2786.764	498.95833
2788.976	506.625
2791.186	510.95833
2793.394	514.625
2795.601	524.95833
2797.807	534.625
2800.011	538.625
2802.214	549.95833
2804.415	547.625
2806.615	561.625
2808.814	566.29167
2811.011	579.95833
2813.206	570.625
2815.401	594.625
2817.594	622.29167
2819.785	625.95833
2821.975	621.95833
2824.164	626.95833
2826.351	645.625
2828.537	672.29167
2830.722	691.95833
2832.905	706.625
2835.086	740.29167
2837.267	781.625
2839.445	812.625
2841.623	838.625
2843.799	877.95833
2845.974	926.29167
2848.147	982.625
2850.319	1002.29167
2852.489	1046.95833
2854.659	1049.625
2856.826	1082.29167
2858.993	1103.95833
2861.158	1101.625
2863.321	1088.95833
2865.483	1112.95833
2867.644	1111.95833
2869.804	1097.29167
2871.962	1103.29167
2874.118	1102.29167
2876.274	1105.29167
2878.428	1105.29167
2880.58	1082.29167
2882.731	1078.95833
2884.881	1079.95833
2887.03	1088.625
2889.177	1085.95833
2891.322	1104.95833
2893.467	1090.625
2895.61	1094.29167
2897.751	1111.29167
2899.892	1118.625
2902.03	1118.95833
2904.168	1132.29167
2906.304	1132.29167
2908.439	1159.625
2910.572	1142.29167
2912.704	1157.625
2914.835	1149.29167
2916.965	1141.625
2919.093	1169.95833
2921.219	1120.29167
2923.345	1148.625
2925.469	1101.29167
2927.591	1097.29167
2929.712	1055.29167
2931.832	1048.29167
2933.951	1025.625
2936.068	993.95833
2938.184	966.29167
2940.299	924.95833
2942.412	912.29167
2944.524	850.95833
2946.634	824.95833
2948.744	786.95833
2950.851	782.625
2952.958	724.29167
2955.063	711.95833
2957.167	691.95833
2959.269	662.625
2961.371	675.95833
2963.471	634.29167
2965.569	628.625
2967.666	590.29167
2969.762	574.625
2971.857	552.625
2973.95	536.29167
2976.042	532.29167
2978.133	505.29167
2980.222	491.95833
2982.31	468.625
2984.396	449.95833
2986.482	454.29167
2988.566	447.29167
2990.648	427.95833
2992.73	428.625
2994.81	413.625
2996.889	412.29167
2998.966	404.625
3001.042	411.95833
3003.117	394.95833
3005.191	393.95833
3007.263	378.95833
3009.334	375.625
3011.403	373.29167
3013.472	358.29167
3015.539	363.95833
3017.604	362.29167
3019.669	328.95833
3021.732	333.95833
3023.794	327.625
3025.854	326.95833
3027.914	320.625
3029.971	329.95833
3032.028	318.625
3034.083	324.95833
3036.137	313.29167
3038.19	296.95833
3040.242	288.95833
3042.292	285.625
3044.341	275.95833
3046.388	302.95833
3048.435	271.29167
3050.48	297.29167
3052.524	277.625
3054.566	255.29167
3056.607	274.625
3058.647	271.95833
3060.686	247.625
3062.723	245.95833
3064.759	236.95833
3066.794	0.625
3068.828	-1.04167
3070.86	0.29167
