-0.839	419.125
3.438	464.125
7.711	137.45833
11.981	58.125
16.247	46.79167
20.509	45.79167
24.768	45.45833
29.024	47.79167
33.276	41.79167
37.524	48.45833
41.769	43.45833
46.01	42.79167
50.247	53.79167
54.481	62.79167
58.712	68.79167
62.939	51.45833
67.162	63.79167
71.382	59.45833
75.599	50.79167
79.812	64.45833
84.021	83.79167
88.227	64.125
92.429	65.45833
96.628	51.125
100.823	69.125
105.015	82.125
109.204	79.45833
113.388	81.45833
117.57	77.125
121.748	94.45833
125.922	88.125
130.093	109.79167
134.261	116.125
138.425	108.125
142.585	148.45833
146.742	153.79167
150.896	177.45833
155.046	222.45833
159.193	347.125
163.336	601.125
167.476	1110.45833
171.613	2031.45833
175.746	3412.125
179.875	5068.79167
184.002	6647.79167
188.124	7786.125
192.244	8192.125
196.36	8158.125
200.472	8058.45833
204.581	7890.79167
208.687	7744.45833
212.79	7735.125
216.889	7811.45833
220.984	7966.45833
225.077	8087.45833
229.165	8264.79167
233.251	8369.79167
237.333	8452.45833
241.412	8469.125
245.487	8439.45833
249.559	8336.125
253.628	8288.79167
257.694	8189.45833
261.756	8106.45833
265.814	7888.125
269.87	7655.79167
273.922	7386.79167
277.97	7254.79167
282.016	7177.45833
286.058	7090.125
290.097	7132.125
294.132	7105.45833
298.164	6951.79167
302.193	6599.125
306.219	6093.79167
310.241	5538.45833
314.26	5032.125
318.276	4625.125
322.288	4330.45833
326.297	4056.125
330.303	3908.45833
334.305	3752.79167
338.305	3685.125
342.301	3645.45833
346.294	3561.79167
350.283	3521.45833
354.269	3523.125
358.252	3493.79167
362.232	3426.79167
366.209	3445.45833
370.182	3406.125
374.152	3372.125
378.119	3357.125
382.083	3357.45833
386.043	3364.79167
390	3314.125
393.954	3309.79167
397.905	3283.125
401.852	3289.125
405.797	3221.125
409.738	3195.125
413.676	3235.125
417.61	3229.79167
421.542	3130.125
425.47	3058.45833
429.396	3035.79167
433.318	3011.125
437.236	2963.45833
441.152	3016.125
445.065	2942.125
448.974	2935.125
452.88	2925.45833
456.783	2889.45833
460.683	2878.45833
464.58	2894.79167
468.473	2898.79167
472.364	2904.45833
476.251	2919.125
480.135	2960.79167
484.016	2970.125
487.894	2994.125
491.769	3016.45833
495.641	3029.79167
499.509	2998.125
503.375	2994.125
507.237	2984.45833
511.096	2964.79167
514.952	3030.125
518.805	3078.45833
522.655	3088.45833
526.502	3022.125
530.346	2967.125
534.187	2959.125
538.024	2958.125
541.859	2943.79167
545.69	2973.79167
549.519	2953.45833
553.344	2943.125
557.166	2901.125
560.985	2861.79167
564.802	2823.45833
568.615	2801.45833
572.425	2745.45833
576.232	2737.45833
580.036	2726.125
583.836	2720.45833
587.634	2755.45833
591.429	2740.45833
595.221	2798.125
599.01	2816.45833
602.796	2876.45833
606.578	2883.125
610.358	2879.45833
614.135	2875.79167
617.909	2862.125
621.679	2842.79167
625.447	2831.125
629.212	2845.79167
632.973	2853.79167
636.732	2841.125
640.488	2845.125
644.241	2782.79167
647.991	2778.79167
651.737	2808.125
655.481	2775.125
659.222	2778.125
662.96	2759.79167
666.695	2808.125
670.427	2809.79167
674.156	2806.79167
677.882	2830.79167
681.605	2798.45833
685.325	2798.125
689.043	2805.79167
692.757	2767.45833
696.468	2803.125
700.177	2799.125
703.882	2800.125
707.585	2803.45833
711.284	2814.125
714.981	2804.125
718.675	2844.79167
722.366	2844.45833
726.054	2799.125
729.739	2805.125
733.421	2814.79167
737.1	2813.79167
740.777	2840.125
744.45	2861.45833
748.121	2881.79167
751.789	2949.79167
755.453	2943.79167
759.115	2960.125
762.774	2989.79167
766.431	3003.79167
770.084	3065.79167
773.734	3077.125
777.382	3146.45833
781.027	3186.45833
784.669	3180.125
788.308	3210.79167
791.944	3222.45833
795.577	3264.125
799.208	3295.79167
802.835	3300.45833
806.46	3352.79167
810.082	3351.45833
813.701	3364.125
817.317	3401.125
820.931	3374.45833
824.542	3415.45833
828.149	3399.125
831.754	3355.45833
835.357	3354.125
838.956	3356.45833
842.553	3332.79167
846.146	3331.125
849.737	3318.79167
853.326	3307.79167
856.911	3331.125
860.493	3387.125
864.073	3422.79167
867.65	3519.125
871.225	3502.79167
874.796	3497.125
878.365	3499.45833
881.931	3554.125
885.494	3586.45833
889.054	3584.125
892.612	3575.125
896.166	3539.125
899.719	3496.79167
903.268	3464.45833
906.814	3423.125
910.358	3419.79167
913.899	3401.45833
917.438	3409.45833
920.973	3410.45833
924.506	3458.125
928.036	3508.125
931.564	3537.45833
935.088	3574.79167
938.61	3557.45833
942.129	3608.79167
945.646	3699.79167
949.16	3781.125
952.671	3860.125
956.179	3894.125
959.685	3873.79167
963.188	3844.125
966.688	3776.125
970.185	3657.125
973.68	3606.79167
977.173	3600.45833
980.662	3603.125
984.149	3580.79167
987.633	3610.79167
991.114	3705.125
994.593	3791.79167
998.069	3886.45833
1001.542	4008.45833
1005.013	3926.45833
1008.481	3730.125
1011.947	3649.79167
1015.409	3634.45833
1018.869	3632.125
1022.327	3614.45833
1025.782	3596.125
1029.234	3606.125
1032.683	3557.125
1036.13	3448.45833
1039.574	3306.79167
1043.016	3216.45833
1046.455	3150.125
1049.891	3107.45833
1053.325	3111.45833
1056.756	3120.45833
1060.184	3153.79167
1063.61	3158.45833
1067.033	3177.125
1070.454	3180.125
1073.872	3227.45833
1077.287	3207.79167
1080.7	3237.79167
1084.11	3238.79167
1087.517	3185.79167
1090.922	3176.125
1094.325	3139.45833
1097.724	3112.45833
1101.122	3119.45833
1104.516	3097.45833
1107.908	3116.45833
1111.298	3171.45833
1114.684	3216.45833
1118.069	3236.79167
1121.45	3256.45833
1124.83	3246.45833
1128.206	3280.45833
1131.58	3337.125
1134.951	3437.79167
1138.32	3543.79167
1141.687	3672.125
1145.05	3751.79167
1148.412	3803.79167
1151.77	3799.45833
1155.126	3753.125
1158.48	3768.45833
1161.831	3828.125
1165.18	3892.125
1168.525	3948.79167
1171.869	3964.79167
1175.21	4022.45833
1178.548	4057.125
1181.884	4093.45833
1185.217	4150.45833
1188.548	4198.125
1191.877	4239.79167
1195.202	4356.79167
1198.526	4423.45833
1201.846	4417.125
1205.165	4407.79167
1208.48	4370.45833
1211.794	4380.45833
1215.104	4384.79167
1218.413	4393.79167
1221.719	4393.45833
1225.022	4345.125
1228.323	4304.125
1231.621	4310.125
1234.917	4286.79167
1238.21	4335.79167
1241.501	4308.79167
1244.79	4310.79167
1248.076	4335.79167
1251.359	4400.79167
1254.64	4420.45833
1257.919	4450.125
1261.195	4534.45833
1264.468	4628.79167
1267.74	4667.125
1271.008	4683.79167
1274.275	4648.125
1277.538	4619.45833
1280.8	4618.45833
1284.059	4576.125
1287.315	4640.45833
1290.569	4627.45833
1293.821	4668.45833
1297.07	4670.45833
1300.317	4709.125
1303.562	4671.79167
1306.803	4661.45833
1310.043	4603.125
1313.28	4521.79167
1316.515	4506.45833
1319.747	4453.79167
1322.977	4401.79167
1326.204	4324.125
1329.429	4222.79167
1332.652	4226.45833
1335.872	4200.45833
1339.09	4196.45833
1342.306	4178.45833
1345.519	4158.125
1348.729	4151.125
1351.938	4105.125
1355.144	4065.79167
1358.347	3995.125
1361.548	4011.125
1364.747	4006.125
1367.944	4007.125
1371.138	4020.79167
1374.329	4051.79167
1377.518	4121.125
1380.705	4141.45833
1383.89	4133.79167
1387.072	3984.45833
1390.252	3864.125
1393.429	3746.79167
1396.605	3636.45833
1399.777	3520.45833
1402.948	3482.79167
1406.116	3506.45833
1409.282	3474.125
1412.445	3477.45833
1415.606	3541.125
1418.765	3600.125
1421.921	3660.125
1425.075	3772.45833
1428.227	3886.125
1431.376	4036.79167
1434.524	4193.125
1437.668	4267.79167
1440.811	4315.125
1443.951	4326.45833
1447.089	4353.79167
1450.224	4364.79167
1453.357	4334.79167
1456.488	4296.45833
1459.617	4237.125
1462.743	4184.79167
1465.867	4093.79167
1468.989	4062.125
1472.108	3962.125
1475.225	3908.79167
1478.34	3850.125
1481.453	3860.45833
1484.563	3889.45833
1487.671	3928.45833
1490.776	3999.79167
1493.88	4080.79167
1496.981	4192.125
1500.08	4234.79167
1503.176	4331.125
1506.271	4384.125
1509.363	4455.125
1512.452	4508.45833
1515.54	4605.79167
1518.625	4741.79167
1521.708	4877.79167
1524.789	5143.125
1527.867	5481.125
1530.944	5795.125
1534.018	6078.125
1537.089	6296.45833
1540.159	6273.45833
1543.226	6147.79167
1546.291	5936.45833
1549.354	5715.125
1552.415	5545.45833
1555.473	5385.79167
1558.529	5246.45833
1561.583	5193.125
1564.634	5184.79167
1567.684	5135.125
1570.731	5134.125
1573.776	5155.125
1576.819	5220.79167
1579.859	5255.79167
1582.898	5308.79167
1585.934	5311.79167
1588.968	5330.45833
1591.999	5341.45833
1595.029	5346.79167
1598.056	5346.125
1601.081	5351.125
1604.104	5333.45833
1607.125	5300.125
1610.144	5176.45833
1613.16	5025.125
1616.174	4907.45833
1619.186	4775.45833
1622.196	4649.79167
1625.203	4592.79167
1628.209	4463.125
1631.212	4408.45833
1634.213	4363.79167
1637.212	4313.79167
1640.209	4242.125
1643.203	4140.45833
1646.196	4048.45833
1649.186	3891.79167
1652.174	3791.45833
1655.16	3664.45833
1658.144	3518.79167
1661.125	3373.79167
1664.105	3236.45833
1667.082	3113.79167
1670.057	2927.125
1673.03	2758.45833
1676.001	2570.125
1678.97	2415.125
1681.937	2266.125
1684.901	2124.45833
1687.863	2075.79167
1690.824	1970.125
1693.782	1950.79167
1696.738	1891.45833
1699.692	1840.45833
1702.643	1793.125
1705.593	1769.45833
1708.54	1757.125
1711.486	1731.79167
1714.429	1698.125
1717.37	1662.125
1720.309	1659.79167
1723.246	1676.125
1726.181	1607.79167
1729.113	1614.79167
1732.044	1600.125
1734.972	1566.79167
1737.899	1573.125
1740.823	1577.125
1743.745	1576.45833
1746.665	1512.45833
1749.583	1484.79167
1752.499	1460.79167
1755.413	1442.45833
1758.325	1418.79167
1761.235	1410.45833
1764.142	1379.125
1767.048	1385.125
1769.951	1368.45833
1772.852	1368.125
1775.752	1368.45833
1778.649	1376.125
1781.544	1346.125
1784.437	1322.125
1787.328	1306.45833
1790.217	1297.45833
1793.104	1279.79167
1795.989	1290.125
1798.872	1259.45833
1801.753	1292.79167
1804.631	1294.79167
1807.508	1287.125
1810.383	1278.45833
1813.255	1269.45833
1816.126	1266.79167
1818.994	1266.125
1821.861	1248.45833
1824.725	1257.45833
1827.587	1236.79167
1830.448	1245.79167
1833.306	1207.79167
1836.162	1223.125
1839.017	1215.125
1841.869	1212.79167
1844.719	1216.45833
1847.567	1194.45833
1850.414	1176.45833
1853.258	1181.79167
1856.1	1196.79167
1858.94	1214.79167
1861.778	1191.125
1864.614	1168.79167
1867.448	1183.125
1870.28	1167.79167
1873.111	1210.45833
1875.939	1180.79167
1878.765	1202.45833
1881.589	1176.45833
1884.411	1178.125
1887.231	1192.79167
1890.049	1182.125
1892.865	1172.79167
1895.68	1161.45833
1898.492	1169.79167
1901.302	1153.125
1904.11	1149.45833
1906.916	1152.45833
1909.721	1144.45833
1912.523	1147.125
1915.323	1109.125
1918.122	1125.79167
1920.918	1126.125
1923.712	1113.125
1926.505	1123.45833
1929.295	1104.125
1932.084	1126.79167
1934.87	1120.45833
1937.655	1107.125
1940.438	1119.125
1943.218	1114.45833
1945.997	1109.79167
1948.774	1125.45833
1951.549	1113.125
1954.322	1106.79167
1957.093	1102.79167
1959.862	1101.125
1962.629	1090.45833
1965.394	1093.45833
1968.157	1078.45833
1970.918	1073.45833
1973.678	1090.79167
1976.435	1064.45833
1979.19	1070.45833
1981.944	1067.45833
1984.696	1056.125
1987.445	1066.125
1990.193	1056.45833
1992.939	1079.45833
1995.683	1054.79167
1998.425	1040.79167
2001.165	1065.79167
2003.903	1034.45833
2006.639	1056.79167
2009.374	1046.79167
2012.106	1038.79167
2014.837	1028.125
2017.566	1041.79167
2020.292	1035.45833
2023.017	1057.125
2025.74	1034.45833
2028.461	1025.125
2031.18	1040.79167
2033.898	1016.79167
2036.613	1021.45833
2039.327	1035.125
2042.038	1027.45833
2044.748	1011.79167
2047.456	1013.79167
2050.162	1000.79167
2052.866	1014.45833
2055.568	1012.45833
2058.268	1005.125
2060.967	1028.79167
2063.663	991.125
2066.358	1007.79167
2069.051	999.79167
2071.742	1015.45833
2074.431	1008.45833
2077.118	1003.125
2079.804	1001.79167
2082.487	1010.79167
2085.169	1022.125
2087.849	1029.125
2090.527	1026.125
2093.203	1038.79167
2095.877	1041.125
2098.55	1043.45833
2101.22	1054.125
2103.889	1082.79167
2106.556	1083.125
2109.221	1144.79167
2111.884	1176.125
2114.546	1269.125
2117.205	1347.79167
2119.863	1477.125
2122.519	1620.79167
2125.173	1739.125
2127.825	1847.79167
2130.475	1872.79167
2133.124	1814.125
2135.771	1751.79167
2138.416	1658.45833
2141.059	1554.125
2143.7	1480.125
2146.339	1392.125
2148.977	1296.125
2151.613	1293.79167
2154.247	1213.79167
2156.879	1193.45833
2159.51	1175.45833
2162.138	1149.79167
2164.765	1145.79167
2167.39	1119.79167
2170.013	1137.45833
2172.634	1128.45833
2175.254	1120.45833
2177.872	1122.125
2180.488	1084.45833
2183.102	1088.79167
2185.714	1059.125
2188.325	1035.79167
2190.934	1049.79167
2193.541	1024.125
2196.146	1023.125
2198.75	990.45833
2201.351	992.79167
2203.951	960.79167
2206.549	987.125
2209.146	954.125
2211.74	948.79167
2214.333	945.45833
2216.924	936.79167
2219.514	919.79167
2222.101	910.79167
2224.687	928.79167
2227.271	899.125
2229.853	893.125
2232.433	885.125
2235.012	901.45833
2237.589	897.79167
2240.164	898.45833
2242.738	890.79167
2245.309	882.125
2247.879	876.45833
2250.448	883.79167
2253.014	844.125
2255.579	854.79167
2258.142	847.125
2260.703	826.45833
2263.262	830.45833
2265.82	817.45833
2268.376	832.79167
2270.93	817.45833
2273.483	815.125
2276.033	812.125
2278.583	793.45833
2281.13	808.45833
2283.675	792.125
2286.219	798.125
2288.761	785.125
2291.302	794.45833
2293.841	803.125
2296.377	771.45833
2298.913	774.45833
2301.446	793.125
2303.978	787.79167
2306.508	777.79167
2309.037	776.45833
2311.563	774.45833
2314.088	784.79167
2316.612	749.125
2319.133	767.125
2321.653	761.125
2324.171	748.45833
2326.688	749.45833
2329.202	740.125
2331.715	752.125
2334.227	751.45833
2336.736	752.79167
2339.244	744.125
2341.751	741.79167
2344.255	752.79167
2346.758	742.45833
2349.259	735.79167
2351.759	733.125
2354.257	727.125
2356.753	732.79167
2359.247	733.125
2361.74	729.45833
2364.231	724.125
2366.721	741.79167
2369.209	711.45833
2371.695	724.79167
2374.179	728.79167
2376.662	717.79167
2379.143	729.45833
2381.622	710.45833
2384.1	727.79167
2386.576	717.125
2389.051	736.79167
2391.524	726.45833
2393.995	722.125
2396.464	713.45833
2398.932	700.79167
2401.398	707.79167
2403.863	703.125
2406.325	705.125
2408.787	698.125
2411.246	704.45833
2413.704	692.79167
2416.16	700.125
2418.615	700.45833
2421.068	713.45833
2423.519	699.125
2425.969	690.125
2428.417	707.45833
2430.863	715.125
2433.308	704.79167
2435.751	701.125
2438.193	688.125
2440.633	705.79167
2443.071	697.125
2445.508	671.79167
2447.943	681.125
2450.376	683.79167
2452.808	684.125
2455.238	672.125
2457.667	705.125
2460.093	673.45833
2462.519	675.45833
2464.942	676.79167
2467.365	686.125
2469.785	674.79167
2472.204	676.125
2474.621	670.125
2477.037	684.79167
2479.451	657.45833
2481.863	666.45833
2484.274	656.125
2486.683	673.125
2489.091	674.45833
2491.497	661.125
2493.901	657.79167
2496.304	666.125
2498.705	669.125
2501.105	644.125
2503.503	689.79167
2505.899	652.45833
2508.294	674.45833
2510.687	653.79167
2513.079	659.125
2515.469	645.79167
2517.858	653.45833
2520.245	665.79167
2522.63	636.79167
2525.014	644.125
2527.396	645.45833
2529.776	643.125
2532.156	652.79167
2534.533	647.79167
2536.909	652.125
2539.283	636.79167
2541.656	634.79167
2544.027	660.45833
2546.397	637.125
2548.765	634.79167
2551.131	632.45833
2553.496	644.79167
2555.86	645.125
2558.221	646.79167
2560.582	640.79167
2562.94	626.79167
2565.298	641.125
2567.653	652.79167
2570.007	630.79167
2572.36	645.125
2574.711	631.125
2577.06	649.45833
2579.408	634.79167
2581.754	638.125
2584.099	636.45833
2586.442	630.45833
2588.784	642.79167
2591.124	637.45833
2593.463	644.125
2595.8	638.125
2598.135	612.79167
2600.469	623.125
2602.802	656.125
2605.133	635.79167
2607.462	624.45833
2609.79	621.45833
2612.116	635.125
2614.441	634.79167
2616.764	631.125
2619.086	630.45833
2621.406	629.45833
2623.725	648.45833
2626.042	637.79167
2628.358	628.45833
2630.672	620.125
2632.985	645.79167
2635.296	639.45833
2637.606	633.45833
2639.914	629.125
2642.22	637.79167
2644.525	630.79167
2646.829	643.125
2649.131	648.45833
2651.432	663.125
2653.731	636.125
2656.028	655.79167
2658.324	648.125
2660.619	636.125
2662.912	656.125
2665.204	630.45833
2667.494	661.45833
2669.782	637.45833
2672.07	657.125
2674.355	671.45833
2676.639	640.79167
2678.922	646.125
2681.203	663.125
2683.483	639.125
2685.761	639.45833
2688.038	660.45833
2690.313	665.79167
2692.587	664.45833
2694.859	655.79167
2697.13	672.79167
2699.399	664.79167
2701.667	684.125
2703.933	680.45833
2706.198	674.45833
2708.461	693.125
2710.723	688.79167
2712.984	683.45833
2715.243	702.125
2717.5	702.125
2719.757	716.125
2722.011	704.79167
2724.264	714.125
2726.516	726.79167
2728.766	707.125
2731.015	714.125
2733.262	709.79167
2735.508	704.45833
2737.753	708.125
2739.996	695.79167
2742.237	699.79167
2744.477	690.45833
2746.716	706.79167
2748.953	687.125
2751.189	703.45833
2753.423	681.79167
2755.656	688.79167
2757.887	672.79167
2760.117	669.125
2762.346	666.125
2764.573	670.45833
2766.798	676.45833
2769.022	675.45833
2771.245	685.79167
2773.467	685.125
2775.686	683.45833
2777.905	698.45833
2780.122	709.45833
2782.337	709.79167
2784.552	703.45833
2786.764	723.125
2788.976	723.45833
2791.186	732.125
2793.394	731.79167
2795.601	742.79167
2797.807	763.125
2800.011	765.79167
2802.214	792.125
2804.415	785.125
2806.615	795.79167
2808.814	805.125
2811.011	817.79167
2813.206	819.125
2815.401	839.45833
2817.594	854.79167
2819.785	862.125
2821.975	856.125
2824.164	882.45833
2826.351	898.79167
2828.537	919.79167
2830.722	930.79167
2832.905	948.125
2835.086	975.79167
2837.267	1037.125
2839.445	1061.79167
2841.623	1079.45833
2843.799	1128.125
2845.974	1168.79167
2848.147	1203.45833
2850.319	1239.125
2852.489	1286.45833
2854.659	1308.125
2856.826	1344.45833
2858.993	1352.45833
2861.158	1335.45833
2863.321	1335.45833
2865.483	1363.125
2867.644	1378.45833
2869.804	1366.45833
2871.962	1367.125
2874.118	1374.79167
2876.274	1393.125
2878.428	1383.45833
2880.58	1344.125
2882.731	1323.45833
2884.881	1333.79167
2887.03	1338.45833
2889.177	1345.125
2891.322	1347.79167
2893.467	1344.79167
2895.61	1331.45833
2897.751	1364.125
2899.892	1361.125
2902.03	1379.79167
2904.168	1376.79167
2906.304	1391.45833
2908.439	1409.79167
2910.572	1379.79167
2912.704	1405.79167
2914.835	1409.45833
2916.965	1378.45833
2919.093	1399.45833
2921.219	1351.79167
2923.345	1390.79167
2925.469	1345.79167
2927.591	1333.45833
2929.712	1306.45833
2931.832	1284.79167
2933.951	1247.125
2936.068	1215.45833
2938.184	1192.125
2940.299	1150.79167
2942.412	1131.45833
2944.524	1070.45833
2946.634	1051.79167
2948.744	999.79167
2950.851	1016.79167
2952.958	957.125
2955.063	943.45833
2957.167	920.125
2959.269	881.45833
2961.371	895.125
2963.471	855.45833
2965.569	859.125
2967.666	822.79167
2969.762	799.125
2971.857	772.125
2973.95	751.79167
2976.042	743.125
2978.133	721.125
2980.222	716.125
2982.31	678.125
2984.396	671.125
2986.482	657.79167
2988.566	663.45833
2990.648	635.79167
2992.73	633.45833
2994.81	612.125
2996.889	617.79167
2998.966	620.79167
3001.042	612.79167
3003.117	606.79167
3005.191	600.45833
3007.263	593.45833
3009.334	590.45833
3011.403	587.79167
3013.472	560.45833
3015.539	563.45833
3017.604	573.79167
3019.669	528.79167
3021.732	533.45833
3023.794	545.125
3025.854	519.45833
3027.914	528.79167
3029.971	520.45833
3032.028	515.79167
3034.083	522.125
3036.137	508.79167
3038.19	492.45833
3040.242	480.45833
3042.292	469.79167
3044.341	457.45833
3046.388	478.45833
3048.435	450.79167
3050.48	472.45833
3052.524	460.45833
3054.566	440.45833
3056.607	459.45833
3058.647	448.45833
3060.686	411.45833
3062.723	401.125
3064.759	391.45833
3066.794	0.125
3068.828	-1.875
3070.86	-2.20833
