-0.839	470.70833
3.438	540.70833
7.711	150.04167
11.981	54.04167
16.247	50.04167
20.509	47.375
24.768	45.04167
29.024	46.70833
33.276	43.70833
37.524	51.04167
41.769	40.70833
46.01	37.375
50.247	54.375
54.481	61.04167
58.712	69.375
62.939	50.04167
67.162	59.375
71.382	56.70833
75.599	46.70833
79.812	62.70833
84.021	80.04167
88.227	60.04167
92.429	59.375
96.628	46.375
100.823	63.375
105.015	74.70833
109.204	75.375
113.388	75.375
117.57	71.70833
121.748	85.70833
125.922	76.04167
130.093	98.375
134.261	99.70833
138.425	101.375
142.585	139.70833
146.742	137.04167
150.896	161.375
155.046	202.375
159.193	315.70833
163.336	539.04167
167.476	979.70833
171.613	1788.375
175.746	2985.04167
179.875	4439.04167
184.002	5804.70833
188.124	6711.70833
192.244	7062.04167
196.36	7021.70833
200.472	6829.04167
204.581	6653.375
208.687	6503.70833
212.79	6439.375
216.889	6484.04167
220.984	6538.70833
225.077	6615.04167
229.165	6689.04167
233.251	6804.04167
237.333	6846.04167
241.412	6839.375
245.487	6829.70833
249.559	6794.04167
253.628	6716.70833
257.694	6642.375
261.756	6570.70833
265.814	6472.04167
269.87	6294.04167
273.922	6122.04167
277.97	5958.04167
282.016	5843.70833
286.058	5778.375
290.097	5825.04167
294.132	5804.04167
298.164	5750.70833
302.193	5507.04167
306.219	5085.375
310.241	4610.04167
314.26	4160.70833
318.276	3831.70833
322.288	3551.04167
326.297	3360.375
330.303	3227.04167
334.305	3112.375
338.305	3045.375
342.301	2969.04167
346.294	2945.04167
350.283	2909.04167
354.269	2871.70833
358.252	2831.70833
362.232	2842.04167
366.209	2798.04167
370.182	2765.04167
374.152	2759.70833
378.119	2746.04167
382.083	2735.70833
386.043	2770.70833
390	2712.04167
393.954	2719.375
397.905	2678.70833
401.852	2652.375
405.797	2643.04167
409.738	2613.04167
413.676	2593.375
417.61	2562.70833
421.542	2565.375
425.47	2542.04167
429.396	2506.70833
433.318	2494.04167
437.236	2485.04167
441.152	2492.04167
445.065	2452.04167
448.974	2432.04167
452.88	2417.70833
456.783	2403.375
460.683	2373.70833
464.58	2398.04167
468.473	2409.70833
472.364	2396.70833
476.251	2407.70833
480.135	2421.375
484.016	2450.375
487.894	2457.04167
491.769	2455.375
495.641	2459.375
499.509	2450.70833
503.375	2469.375
507.237	2471.70833
511.096	2467.70833
514.952	2478.70833
518.805	2495.375
522.655	2510.04167
526.502	2442.04167
530.346	2435.70833
534.187	2456.375
538.024	2439.70833
541.859	2461.70833
545.69	2478.70833
549.519	2463.04167
553.344	2440.70833
557.166	2394.70833
560.985	2384.04167
564.802	2360.04167
568.615	2307.04167
572.425	2278.70833
576.232	2255.375
580.036	2253.375
583.836	2262.04167
587.634	2288.375
591.429	2247.375
595.221	2293.04167
599.01	2337.70833
602.796	2378.70833
606.578	2379.375
610.358	2382.375
614.135	2371.04167
617.909	2377.04167
621.679	2372.70833
625.447	2344.375
629.212	2359.375
632.973	2349.04167
636.732	2347.70833
640.488	2369.70833
644.241	2335.04167
647.991	2335.04167
651.737	2332.04167
655.481	2334.70833
659.222	2339.375
662.96	2334.04167
666.695	2353.375
670.427	2361.04167
674.156	2357.375
677.882	2365.375
681.605	2361.375
685.325	2328.70833
689.043	2342.04167
692.757	2292.70833
696.468	2327.375
700.177	2324.375
703.882	2297.70833
707.585	2320.375
711.284	2332.04167
714.981	2315.70833
718.675	2327.375
722.366	2321.04167
726.054	2322.375
729.739	2308.375
733.421	2338.04167
737.1	2303.04167
740.777	2329.70833
744.45	2378.70833
748.121	2369.375
751.789	2417.04167
755.453	2417.04167
759.115	2430.375
762.774	2452.04167
766.431	2462.375
770.084	2503.04167
773.734	2536.70833
777.382	2580.70833
781.027	2589.375
784.669	2610.70833
788.308	2602.70833
791.944	2629.70833
795.577	2652.04167
799.208	2688.04167
802.835	2720.375
806.46	2729.70833
810.082	2776.375
813.701	2765.375
817.317	2808.04167
820.931	2785.375
824.542	2786.375
828.149	2768.04167
831.754	2708.04167
835.357	2701.375
838.956	2690.04167
842.553	2694.70833
846.146	2685.04167
849.737	2671.04167
853.326	2687.04167
856.911	2673.04167
860.493	2723.375
864.073	2755.70833
867.65	2773.70833
871.225	2811.04167
874.796	2807.375
878.365	2807.04167
881.931	2818.04167
885.494	2843.375
889.054	2861.04167
892.612	2862.375
896.166	2825.375
899.719	2815.70833
903.268	2781.70833
906.814	2750.70833
910.358	2751.375
913.899	2728.375
917.438	2752.375
920.973	2730.04167
924.506	2778.375
928.036	2837.04167
931.564	2862.70833
935.088	2861.04167
938.61	2887.375
942.129	2887.04167
945.646	2960.70833
949.16	3068.375
952.671	3130.04167
956.179	3150.70833
959.685	3139.375
963.188	3131.375
966.688	3097.375
970.185	3044.04167
973.68	2942.04167
977.173	2916.70833
980.662	2897.70833
984.149	2906.70833
987.633	2922.04167
991.114	2968.04167
994.593	3038.375
998.069	3148.04167
1001.542	3238.70833
1005.013	3158.375
1008.481	2982.375
1011.947	2932.375
1015.409	2898.375
1018.869	2933.70833
1022.327	2892.375
1025.782	2874.70833
1029.234	2919.04167
1032.683	2871.70833
1036.13	2747.375
1039.574	2681.04167
1043.016	2601.375
1046.455	2545.04167
1049.891	2501.04167
1053.325	2505.70833
1056.756	2513.70833
1060.184	2541.04167
1063.61	2537.04167
1067.033	2565.375
1070.454	2571.04167
1073.872	2602.70833
1077.287	2578.375
1080.7	2618.375
1084.11	2618.70833
1087.517	2570.375
1090.922	2554.04167
1094.325	2534.70833
1097.724	2488.375
1101.122	2490.375
1104.516	2497.70833
1107.908	2495.375
1111.298	2550.04167
1114.684	2544.04167
1118.069	2596.70833
1121.45	2633.375
1124.83	2604.375
1128.206	2619.70833
1131.58	2667.375
1134.951	2748.375
1138.32	2848.04167
1141.687	2951.04167
1145.05	3043.04167
1148.412	3058.04167
1151.77	3050.70833
1155.126	3027.04167
1158.48	3046.375
1161.831	3071.04167
1165.18	3081.375
1168.525	3107.70833
1171.869	3164.375
1175.21	3182.375
1178.548	3201.375
1181.884	3263.375
1185.217	3273.375
1188.548	3336.04167
1191.877	3404.70833
1195.202	3467.04167
1198.526	3506.375
1201.846	3523.70833
1205.165	3519.375
1208.48	3501.375
1211.794	3496.70833
1215.104	3488.70833
1218.413	3493.70833
1221.719	3473.375
1225.022	3468.375
1228.323	3400.70833
1231.621	3433.375
1234.917	3398.04167
1238.21	3397.375
1241.501	3395.70833
1244.79	3403.70833
1248.076	3380.04167
1251.359	3443.04167
1254.64	3510.70833
1257.919	3512.70833
1261.195	3607.04167
1264.468	3644.04167
1267.74	3688.375
1271.008	3734.375
1274.275	3686.04167
1277.538	3677.04167
1280.8	3654.375
1284.059	3667.04167
1287.315	3669.04167
1290.569	3703.375
1293.821	3740.04167
1297.07	3728.70833
1300.317	3761.70833
1303.562	3760.70833
1306.803	3709.04167
1310.043	3683.04167
1313.28	3649.375
1316.515	3607.04167
1319.747	3584.70833
1322.977	3528.70833
1326.204	3468.375
1329.429	3444.375
1332.652	3422.70833
1335.872	3409.375
1339.09	3394.375
1342.306	3370.375
1345.519	3363.375
1348.729	3331.04167
1351.938	3316.04167
1355.144	3253.375
1358.347	3222.375
1361.548	3234.04167
1364.747	3220.70833
1367.944	3217.375
1371.138	3214.70833
1374.329	3237.375
1377.518	3288.70833
1380.705	3314.04167
1383.89	3304.04167
1387.072	3188.375
1390.252	3104.04167
1393.429	2982.70833
1396.605	2876.375
1399.777	2803.375
1402.948	2761.70833
1406.116	2737.375
1409.282	2753.375
1412.445	2753.70833
1415.606	2782.70833
1418.765	2819.375
1421.921	2888.04167
1425.075	2938.70833
1428.227	3041.04167
1431.376	3189.04167
1434.524	3323.70833
1437.668	3407.375
1440.811	3444.04167
1443.951	3475.375
1447.089	3478.70833
1450.224	3458.375
1453.357	3457.04167
1456.488	3421.04167
1459.617	3356.70833
1462.743	3326.70833
1465.867	3257.04167
1468.989	3229.70833
1472.108	3171.375
1475.225	3119.04167
1478.34	3082.04167
1481.453	3077.04167
1484.563	3080.70833
1487.671	3127.375
1490.776	3164.04167
1493.88	3220.70833
1496.981	3290.375
1500.08	3366.70833
1503.176	3414.70833
1506.271	3469.04167
1509.363	3520.70833
1512.452	3548.375
1515.54	3632.70833
1518.625	3709.04167
1521.708	3823.375
1524.789	4029.04167
1527.867	4274.04167
1530.944	4539.70833
1534.018	4747.04167
1537.089	4863.04167
1540.159	4849.04167
1543.226	4757.70833
1546.291	4596.375
1549.354	4438.04167
1552.415	4294.04167
1555.473	4208.375
1558.529	4093.70833
1561.583	4047.375
1564.634	4010.04167
1567.684	4025.70833
1570.731	4019.70833
1573.776	4054.04167
1576.819	4112.70833
1579.859	4161.70833
1582.898	4227.375
1585.934	4263.70833
1588.968	4280.04167
1591.999	4235.70833
1595.029	4261.375
1598.056	4277.04167
1601.081	4266.375
1604.104	4278.70833
1607.125	4239.375
1610.144	4119.04167
1613.16	4051.375
1616.174	3976.70833
1619.186	3870.375
1622.196	3772.70833
1625.203	3684.04167
1628.209	3653.70833
1631.212	3630.04167
1634.213	3589.70833
1637.212	3580.04167
1640.209	3530.70833
1643.203	3434.70833
1646.196	3336.375
1649.186	3194.04167
1652.174	3095.70833
1655.16	3015.375
1658.144	2886.04167
1661.125	2778.375
1664.105	2620.04167
1667.082	2505.04167
1670.057	2375.70833
1673.03	2234.04167
1676.001	2086.04167
1678.97	1954.375
1681.937	1828.375
1684.901	1726.04167
1687.863	1676.04167
1690.824	1603.375
1693.782	1554.375
1696.738	1478.70833
1699.692	1472.04167
1702.643	1422.375
1705.593	1404.04167
1708.54	1399.375
1711.486	1383.375
1714.429	1351.375
1717.37	1339.375
1720.309	1323.375
1723.246	1332.70833
1726.181	1281.04167
1729.113	1287.70833
1732.044	1269.04167
1734.972	1269.70833
1737.899	1273.04167
1740.823	1247.375
1743.745	1257.04167
1746.665	1203.70833
1749.583	1190.04167
1752.499	1179.70833
1755.413	1158.70833
1758.325	1131.70833
1761.235	1123.375
1764.142	1094.70833
1767.048	1093.70833
1769.951	1090.70833
1772.852	1072.04167
1775.752	1087.375
1778.649	1065.70833
1781.544	1072.70833
1784.437	1056.04167
1787.328	1064.04167
1790.217	1042.70833
1793.104	1027.70833
1795.989	1003.375
1798.872	999.375
1801.753	1042.375
1804.631	1024.70833
1807.508	1025.04167
1810.383	1014.70833
1813.255	1002.375
1816.126	998.375
1818.994	1016.70833
1821.861	998.04167
1824.725	995.04167
1827.587	994.375
1830.448	999.375
1833.306	943.375
1836.162	977.375
1839.017	975.04167
1841.869	959.70833
1844.719	970.375
1847.567	940.70833
1850.414	942.04167
1853.258	945.375
1856.1	952.04167
1858.94	956.375
1861.778	951.04167
1864.614	937.04167
1867.448	948.70833
1870.28	939.70833
1873.111	950.375
1875.939	938.04167
1878.765	954.70833
1881.589	932.375
1884.411	923.70833
1887.231	938.70833
1890.049	921.70833
1892.865	923.70833
1895.68	919.04167
1898.492	917.70833
1901.302	899.70833
1904.11	900.70833
1906.916	885.70833
1909.721	885.375
1912.523	902.70833
1915.323	876.375
1918.122	883.375
1920.918	897.375
1923.712	884.04167
1926.505	887.375
1929.295	864.04167
1932.084	884.70833
1934.87	873.375
1937.655	869.375
1940.438	872.70833
1943.218	866.375
1945.997	868.04167
1948.774	890.375
1951.549	885.04167
1954.322	869.70833
1957.093	862.70833
1959.862	855.375
1962.629	859.70833
1965.394	857.375
1968.157	829.375
1970.918	852.04167
1973.678	844.70833
1976.435	846.70833
1979.19	845.375
1981.944	838.70833
1984.696	822.70833
1987.445	824.04167
1990.193	827.04167
1992.939	835.04167
1995.683	830.70833
1998.425	811.375
2001.165	842.70833
2003.903	815.70833
2006.639	806.70833
2009.374	804.375
2012.106	814.70833
2014.837	790.375
2017.566	818.70833
2020.292	812.375
2023.017	809.04167
2025.74	800.375
2028.461	803.375
2031.18	799.375
2033.898	789.04167
2036.613	808.04167
2039.327	795.375
2042.038	782.375
2044.748	796.70833
2047.456	787.04167
2050.162	772.04167
2052.866	778.04167
2055.568	785.04167
2058.268	787.70833
2060.967	793.04167
2063.663	763.375
2066.358	776.04167
2069.051	773.70833
2071.742	769.04167
2074.431	769.375
2077.118	766.70833
2079.804	762.70833
2082.487	771.70833
2085.169	784.04167
2087.849	780.04167
2090.527	770.70833
2093.203	783.70833
2095.877	783.70833
2098.55	791.70833
2101.22	798.375
2103.889	807.04167
2106.556	793.04167
2109.221	813.04167
2111.884	847.04167
2114.546	884.375
2117.205	930.375
2119.863	999.70833
2122.519	1074.04167
2125.173	1149.375
2127.825	1223.70833
2130.475	1263.70833
2133.124	1237.04167
2135.771	1189.04167
2138.416	1156.04167
2141.059	1078.70833
2143.7	1025.70833
2146.339	979.04167
2148.977	916.70833
2151.613	904.04167
2154.247	881.375
2156.879	862.70833
2159.51	850.04167
2162.138	830.375
2164.765	824.04167
2167.39	820.375
2170.013	838.70833
2172.634	813.70833
2175.254	813.375
2177.872	821.70833
2180.488	791.04167
2183.102	793.04167
2185.714	778.375
2188.325	741.70833
2190.934	761.04167
2193.541	756.70833
2196.146	740.70833
2198.75	740.70833
2201.351	730.375
2203.951	706.375
2206.549	734.375
2209.146	701.375
2211.74	696.70833
2214.333	710.375
2216.924	691.04167
2219.514	695.375
2222.101	677.375
2224.687	693.375
2227.271	685.70833
2229.853	680.70833
2232.433	650.70833
2235.012	684.04167
2237.589	682.375
2240.164	690.70833
2242.738	669.375
2245.309	654.04167
2247.879	661.70833
2250.448	660.375
2253.014	640.375
2255.579	620.70833
2258.142	634.375
2260.703	624.04167
2263.262	617.04167
2265.82	615.70833
2268.376	619.375
2270.93	599.70833
2273.483	601.375
2276.033	620.70833
2278.583	602.70833
2281.13	597.04167
2283.675	589.375
2286.219	605.70833
2288.761	605.70833
2291.302	601.70833
2293.841	603.70833
2296.377	574.04167
2298.913	582.375
2301.446	597.375
2303.978	581.375
2306.508	578.375
2309.037	579.04167
2311.563	573.04167
2314.088	583.70833
2316.612	566.04167
2319.133	577.04167
2321.653	563.70833
2324.171	558.375
2326.688	573.375
2329.202	561.375
2331.715	559.70833
2334.227	550.70833
2336.736	550.70833
2339.244	552.04167
2341.751	546.04167
2344.255	552.04167
2346.758	553.375
2349.259	541.04167
2351.759	549.70833
2354.257	540.375
2356.753	532.70833
2359.247	535.04167
2361.74	550.70833
2364.231	538.70833
2366.721	537.375
2369.209	534.04167
2371.695	540.375
2374.179	526.375
2376.662	533.70833
2379.143	544.04167
2381.622	535.70833
2384.1	539.04167
2386.576	526.375
2389.051	543.375
2391.524	540.70833
2393.995	541.375
2396.464	526.70833
2398.932	511.70833
2401.398	520.70833
2403.863	524.70833
2406.325	511.04167
2408.787	517.04167
2411.246	513.70833
2413.704	507.70833
2416.16	513.04167
2418.615	520.375
2421.068	520.04167
2423.519	504.04167
2425.969	503.375
2428.417	524.70833
2430.863	529.04167
2433.308	516.04167
2435.751	519.04167
2438.193	511.375
2440.633	513.70833
2443.071	510.04167
2445.508	494.70833
2447.943	504.70833
2450.376	498.70833
2452.808	503.70833
2455.238	497.04167
2457.667	522.375
2460.093	500.375
2462.519	484.04167
2464.942	485.70833
2467.365	500.375
2469.785	498.375
2472.204	484.70833
2474.621	482.70833
2477.037	504.375
2479.451	470.70833
2481.863	490.70833
2484.274	486.375
2486.683	489.04167
2489.091	492.375
2491.497	493.04167
2493.901	478.375
2496.304	492.375
2498.705	488.04167
2501.105	483.04167
2503.503	508.04167
2505.899	469.04167
2508.294	490.375
2510.687	479.70833
2513.079	470.70833
2515.469	468.04167
2517.858	463.04167
2520.245	493.70833
2522.63	462.70833
2525.014	473.375
2527.396	464.70833
2529.776	465.375
2532.156	469.70833
2534.533	458.375
2536.909	467.375
2539.283	458.375
2541.656	461.04167
2544.027	479.04167
2546.397	479.375
2548.765	466.04167
2551.131	468.375
2553.496	460.375
2555.86	474.04167
2558.221	464.70833
2560.582	480.70833
2562.94	456.375
2565.298	455.04167
2567.653	483.70833
2570.007	440.375
2572.36	462.04167
2574.711	450.04167
2577.06	472.04167
2579.408	463.375
2581.754	449.375
2584.099	453.04167
2586.442	444.70833
2588.784	462.375
2591.124	458.70833
2593.463	458.375
2595.8	452.375
2598.135	443.375
2600.469	452.70833
2602.802	462.04167
2605.133	457.70833
2607.462	442.70833
2609.79	461.04167
2612.116	454.04167
2614.441	460.70833
2616.764	457.375
2619.086	453.70833
2621.406	444.375
2623.725	454.70833
2626.042	457.70833
2628.358	445.375
2630.672	446.70833
2632.985	460.70833
2635.296	454.70833
2637.606	455.04167
2639.914	449.375
2642.22	454.375
2644.525	445.375
2646.829	459.04167
2649.131	462.375
2651.432	461.04167
2653.731	457.70833
2656.028	470.70833
2658.324	469.70833
2660.619	448.04167
2662.912	466.70833
2665.204	448.375
2667.494	474.70833
2669.782	452.70833
2672.07	462.375
2674.355	470.04167
2676.639	454.04167
2678.922	459.375
2681.203	465.375
2683.483	457.04167
2685.761	453.04167
2688.038	465.375
2690.313	476.70833
2692.587	466.375
2694.859	453.04167
2697.13	466.04167
2699.399	468.375
2701.667	474.70833
2703.933	475.70833
2706.198	487.04167
2708.461	482.375
2710.723	488.70833
2712.984	486.70833
2715.243	502.70833
2717.5	501.70833
2719.757	510.375
2722.011	497.375
2724.264	504.04167
2726.516	519.375
2728.766	493.375
2731.015	508.375
2733.262	503.70833
2735.508	499.70833
2737.753	497.70833
2739.996	486.70833
2742.237	491.375
2744.477	502.375
2746.716	496.04167
2748.953	482.375
2751.189	487.70833
2753.423	467.70833
2755.656	472.70833
2757.887	472.70833
2760.117	470.375
2762.346	467.375
2764.573	470.04167
2766.798	463.375
2769.022	466.375
2771.245	478.04167
2773.467	476.04167
2775.686	478.70833
2777.905	466.04167
2780.122	488.375
2782.337	492.375
2784.552	483.04167
2786.764	489.04167
2788.976	499.04167
2791.186	509.70833
2793.394	501.375
2795.601	515.375
2797.807	519.70833
2800.011	521.70833
2802.214	540.375
2804.415	543.375
2806.615	536.375
2808.814	543.70833
2811.011	559.04167
2813.206	553.375
2815.401	568.04167
2817.594	576.04167
2819.785	585.70833
2821.975	575.70833
2824.164	585.04167
2826.351	614.70833
2828.537	637.70833
2830.722	649.04167
2832.905	648.375
2835.086	687.70833
2837.267	730.375
2839.445	748.375
2841.623	765.70833
2843.799	809.70833
2845.974	847.04167
2848.147	886.375
2850.319	916.04167
2852.489	945.375
2854.659	961.70833
2856.826	983.04167
2858.993	995.04167
2861.158	972.70833
2863.321	993.70833
2865.483	1009.70833
2867.644	1006.70833
2869.804	999.70833
2871.962	997.04167
2874.118	1000.70833
2876.274	999.70833
2878.428	991.04167
2880.58	1002.70833
2882.731	973.04167
2884.881	980.375
2887.03	987.375
2889.177	992.04167
2891.322	1009.04167
2893.467	995.375
2895.61	1001.70833
2897.751	1023.375
2899.892	1011.04167
2902.03	1018.04167
2904.168	1038.70833
2906.304	1034.70833
2908.439	1063.04167
2910.572	1044.375
2912.704	1059.70833
2914.835	1073.04167
2916.965	1064.375
2919.093	1075.04167
2921.219	1041.70833
2923.345	1049.04167
2925.469	1020.375
2927.591	1016.04167
2929.712	983.375
2931.832	970.375
2933.951	946.375
2936.068	937.70833
2938.184	905.70833
2940.299	868.70833
2942.412	857.04167
2944.524	808.70833
2946.634	806.70833
2948.744	746.70833
2950.851	774.70833
2952.958	714.375
2955.063	711.04167
2957.167	682.70833
2959.269	663.70833
2961.371	672.04167
2963.471	622.04167
2965.569	640.70833
2967.666	596.70833
2969.762	585.04167
2971.857	563.04167
2973.95	554.70833
2976.042	550.04167
2978.133	538.70833
2980.222	519.375
2982.31	498.375
2984.396	487.70833
2986.482	480.375
2988.566	483.70833
2990.648	465.70833
2992.73	475.70833
2994.81	442.70833
2996.889	460.70833
2998.966	441.70833
3001.042	452.70833
3003.117	449.70833
3005.191	439.04167
3007.263	435.375
3009.334	424.70833
3011.403	426.375
3013.472	418.04167
3015.539	412.04167
3017.604	416.04167
3019.669	387.04167
3021.732	383.04167
3023.794	382.04167
3025.854	369.375
3027.914	372.04167
3029.971	376.375
3032.028	373.70833
3034.083	378.70833
3036.137	364.70833
3038.19	354.04167
3040.242	344.70833
3042.292	339.70833
3044.341	333.04167
3046.388	352.04167
3048.435	330.70833
3050.48	348.375
3052.524	334.04167
3054.566	311.375
3056.607	329.375
3058.647	323.70833
3060.686	303.375
3062.723	291.04167
3064.759	284.375
3066.794	-1.625
3068.828	-2.29167
3070.86	-1.29167
