-0.839	430.54167
3.438	465.54167
7.711	133.875
11.981	58.875
16.247	48.875
20.509	44.20833
24.768	44.54167
29.024	46.20833
33.276	45.20833
37.524	52.20833
41.769	43.875
46.01	40.54167
50.247	52.20833
54.481	64.875
58.712	68.20833
62.939	51.875
67.162	64.54167
71.382	61.875
75.599	52.54167
79.812	63.20833
84.021	84.54167
88.227	60.875
92.429	65.54167
96.628	50.875
100.823	70.875
105.015	79.54167
109.204	75.875
113.388	84.54167
117.57	82.20833
121.748	93.54167
125.922	90.20833
130.093	108.54167
134.261	112.875
138.425	108.20833
142.585	154.875
146.742	158.20833
150.896	174.20833
155.046	224.20833
159.193	355.20833
163.336	612.54167
167.476	1090.54167
171.613	2037.54167
175.746	3407.875
179.875	5063.875
184.002	6674.54167
188.124	7795.20833
192.244	8214.875
196.36	8215.54167
200.472	8056.20833
204.581	7903.54167
208.687	7752.20833
212.79	7772.875
216.889	7841.875
220.984	7988.875
225.077	8146.54167
229.165	8299.20833
233.251	8415.875
237.333	8526.20833
241.412	8548.54167
245.487	8544.20833
249.559	8458.54167
253.628	8347.54167
257.694	8258.20833
261.756	8166.54167
265.814	7962.54167
269.87	7699.20833
273.922	7478.54167
277.97	7287.54167
282.016	7152.875
286.058	7124.54167
290.097	7147.54167
294.132	7102.20833
298.164	6912.875
302.193	6625.875
306.219	6121.54167
310.241	5577.875
314.26	5073.54167
318.276	4650.20833
322.288	4365.20833
326.297	4101.875
330.303	3942.54167
334.305	3813.54167
338.305	3721.20833
342.301	3654.54167
346.294	3634.875
350.283	3590.875
354.269	3566.20833
358.252	3555.54167
362.232	3505.875
366.209	3487.875
370.182	3453.54167
374.152	3405.54167
378.119	3439.20833
382.083	3444.20833
386.043	3464.875
390	3396.54167
393.954	3386.20833
397.905	3363.20833
401.852	3356.20833
405.797	3273.875
409.738	3266.875
413.676	3293.875
417.61	3280.54167
421.542	3195.875
425.47	3132.20833
429.396	3105.20833
433.318	3085.54167
437.236	3064.875
441.152	3073.875
445.065	3027.875
448.974	2995.875
452.88	2972.20833
456.783	2964.20833
460.683	2948.875
464.58	2959.20833
468.473	2961.875
472.364	2959.875
476.251	2995.875
480.135	3004.875
484.016	3054.875
487.894	3073.54167
491.769	3055.20833
495.641	3086.54167
499.509	3067.875
503.375	3055.54167
507.237	3036.54167
511.096	3063.54167
514.952	3085.20833
518.805	3144.875
522.655	3127.54167
526.502	3047.20833
530.346	3024.54167
534.187	3034.54167
538.024	3005.875
541.859	3003.20833
545.69	3043.54167
549.519	2993.54167
553.344	3002.20833
557.166	2957.875
560.985	2924.875
564.802	2914.20833
568.615	2857.875
572.425	2802.54167
576.232	2793.54167
580.036	2779.20833
583.836	2801.20833
587.634	2800.54167
591.429	2789.54167
595.221	2857.875
599.01	2878.54167
602.796	2895.20833
606.578	2933.20833
610.358	2951.875
614.135	2901.54167
617.909	2926.54167
621.679	2899.875
625.447	2873.875
629.212	2901.20833
632.973	2902.54167
636.732	2886.875
640.488	2896.54167
644.241	2865.54167
647.991	2855.54167
651.737	2861.20833
655.481	2842.20833
659.222	2856.875
662.96	2854.875
666.695	2858.875
670.427	2877.20833
674.156	2890.54167
677.882	2879.54167
681.605	2873.875
685.325	2824.20833
689.043	2838.20833
692.757	2839.54167
696.468	2855.20833
700.177	2847.875
703.882	2856.20833
707.585	2839.875
711.284	2874.875
714.981	2869.54167
718.675	2890.20833
722.366	2892.54167
726.054	2888.54167
729.739	2878.875
733.421	2882.875
737.1	2856.54167
740.777	2901.54167
744.45	2923.20833
748.121	2942.20833
751.789	2987.20833
755.453	2981.54167
759.115	3021.875
762.774	3038.20833
766.431	3056.54167
770.084	3120.54167
773.734	3134.875
777.382	3208.54167
781.027	3225.20833
784.669	3241.875
788.308	3268.875
791.944	3300.875
795.577	3330.54167
799.208	3337.875
802.835	3352.875
806.46	3379.875
810.082	3428.54167
813.701	3447.875
817.317	3460.54167
820.931	3433.20833
824.542	3465.20833
828.149	3426.54167
831.754	3385.20833
835.357	3368.20833
838.956	3376.20833
842.553	3380.875
846.146	3368.54167
849.737	3337.54167
853.326	3326.54167
856.911	3352.54167
860.493	3423.875
864.073	3423.20833
867.65	3514.54167
871.225	3540.54167
874.796	3497.20833
878.365	3539.54167
881.931	3583.54167
885.494	3595.20833
889.054	3562.875
892.612	3575.54167
896.166	3554.875
899.719	3537.875
903.268	3480.54167
906.814	3472.875
910.358	3444.54167
913.899	3440.54167
917.438	3453.20833
920.973	3435.20833
924.506	3474.54167
928.036	3508.54167
931.564	3564.20833
935.088	3599.20833
938.61	3608.875
942.129	3601.54167
945.646	3729.875
949.16	3806.875
952.671	3901.54167
956.179	3927.54167
959.685	3900.54167
963.188	3917.54167
966.688	3832.54167
970.185	3737.875
973.68	3656.54167
977.173	3643.875
980.662	3620.54167
984.149	3666.875
987.633	3664.875
991.114	3729.54167
994.593	3831.54167
998.069	3950.875
1001.542	4066.20833
1005.013	3942.875
1008.481	3760.54167
1011.947	3706.20833
1015.409	3678.20833
1018.869	3682.54167
1022.327	3638.20833
1025.782	3659.20833
1029.234	3629.875
1032.683	3589.875
1036.13	3512.54167
1039.574	3355.20833
1043.016	3260.20833
1046.455	3200.875
1049.891	3145.875
1053.325	3160.20833
1056.756	3145.54167
1060.184	3182.875
1063.61	3189.875
1067.033	3209.20833
1070.454	3206.875
1073.872	3258.54167
1077.287	3254.875
1080.7	3284.875
1084.11	3259.875
1087.517	3285.54167
1090.922	3220.875
1094.325	3175.875
1097.724	3143.20833
1101.122	3146.20833
1104.516	3131.20833
1107.908	3131.20833
1111.298	3165.54167
1114.684	3228.54167
1118.069	3254.875
1121.45	3279.54167
1124.83	3263.54167
1128.206	3275.875
1131.58	3358.54167
1134.951	3450.54167
1138.32	3527.20833
1141.687	3679.20833
1145.05	3788.20833
1148.412	3791.54167
1151.77	3775.875
1155.126	3810.20833
1158.48	3792.54167
1161.831	3819.875
1165.18	3836.54167
1168.525	3903.875
1171.869	3952.54167
1175.21	3989.20833
1178.548	4076.875
1181.884	4109.20833
1185.217	4117.20833
1188.548	4162.875
1191.877	4255.875
1195.202	4351.20833
1198.526	4406.875
1201.846	4441.875
1205.165	4432.54167
1208.48	4410.875
1211.794	4385.875
1215.104	4410.875
1218.413	4418.875
1221.719	4425.54167
1225.022	4344.20833
1228.323	4323.875
1231.621	4342.875
1234.917	4277.875
1238.21	4335.875
1241.501	4330.54167
1244.79	4322.875
1248.076	4349.20833
1251.359	4386.54167
1254.64	4451.54167
1257.919	4470.20833
1261.195	4529.875
1264.468	4621.20833
1267.74	4678.20833
1271.008	4711.54167
1274.275	4656.54167
1277.538	4627.20833
1280.8	4586.875
1284.059	4599.875
1287.315	4620.875
1290.569	4684.875
1293.821	4687.20833
1297.07	4720.20833
1300.317	4728.875
1303.562	4730.20833
1306.803	4676.20833
1310.043	4614.875
1313.28	4563.20833
1316.515	4517.20833
1319.747	4485.20833
1322.977	4405.54167
1326.204	4342.54167
1329.429	4258.20833
1332.652	4260.54167
1335.872	4264.875
1339.09	4236.54167
1342.306	4224.20833
1345.519	4216.54167
1348.729	4203.20833
1351.938	4197.20833
1355.144	4113.20833
1358.347	4080.54167
1361.548	4076.875
1364.747	4097.875
1367.944	4048.54167
1371.138	4060.20833
1374.329	4100.54167
1377.518	4180.875
1380.705	4203.20833
1383.89	4167.20833
1387.072	4037.20833
1390.252	3897.20833
1393.429	3794.54167
1396.605	3671.20833
1399.777	3572.54167
1402.948	3524.54167
1406.116	3493.875
1409.282	3512.875
1412.445	3499.20833
1415.606	3567.875
1418.765	3630.54167
1421.921	3673.875
1425.075	3764.20833
1428.227	3920.54167
1431.376	4073.20833
1434.524	4209.875
1437.668	4299.54167
1440.811	4338.54167
1443.951	4383.20833
1447.089	4391.54167
1450.224	4380.54167
1453.357	4343.54167
1456.488	4323.20833
1459.617	4261.54167
1462.743	4200.54167
1465.867	4110.875
1468.989	4053.20833
1472.108	3972.875
1475.225	3910.54167
1478.34	3870.20833
1481.453	3869.20833
1484.563	3866.54167
1487.671	3942.54167
1490.776	3969.20833
1493.88	4051.54167
1496.981	4127.54167
1500.08	4225.20833
1503.176	4292.20833
1506.271	4324.20833
1509.363	4448.20833
1512.452	4480.20833
1515.54	4585.54167
1518.625	4696.54167
1521.708	4847.54167
1524.789	5106.20833
1527.867	5424.54167
1530.944	5766.54167
1534.018	6094.875
1537.089	6255.20833
1540.159	6245.20833
1543.226	6051.20833
1546.291	5815.20833
1549.354	5672.875
1552.415	5486.875
1555.473	5320.875
1558.529	5199.20833
1561.583	5136.20833
1564.634	5109.54167
1567.684	5033.54167
1570.731	5075.875
1573.776	5114.54167
1576.819	5136.54167
1579.859	5200.54167
1582.898	5229.20833
1585.934	5278.875
1588.968	5293.54167
1591.999	5275.20833
1595.029	5292.20833
1598.056	5316.20833
1601.081	5339.20833
1604.104	5302.875
1607.125	5228.875
1610.144	5121.875
1613.16	5036.20833
1616.174	4899.875
1619.186	4788.875
1622.196	4676.20833
1625.203	4580.54167
1628.209	4534.875
1631.212	4491.54167
1634.213	4485.875
1637.212	4464.875
1640.209	4402.20833
1643.203	4321.875
1646.196	4146.20833
1649.186	4012.20833
1652.174	3879.20833
1655.16	3769.54167
1658.144	3674.875
1661.125	3502.54167
1664.105	3353.20833
1667.082	3166.875
1670.057	3005.20833
1673.03	2817.54167
1676.001	2639.875
1678.97	2457.54167
1681.937	2305.54167
1684.901	2185.875
1687.863	2121.875
1690.824	2011.54167
1693.782	1980.54167
1696.738	1904.875
1699.692	1854.875
1702.643	1828.20833
1705.593	1812.875
1708.54	1769.875
1711.486	1765.54167
1714.429	1715.20833
1717.37	1700.20833
1720.309	1689.20833
1723.246	1686.875
1726.181	1640.875
1729.113	1646.54167
1732.044	1615.54167
1734.972	1619.54167
1737.899	1602.20833
1740.823	1608.20833
1743.745	1582.54167
1746.665	1535.54167
1749.583	1522.875
1752.499	1502.54167
1755.413	1477.54167
1758.325	1452.54167
1761.235	1440.54167
1764.142	1417.20833
1767.048	1405.54167
1769.951	1382.20833
1772.852	1390.20833
1775.752	1395.20833
1778.649	1398.875
1781.544	1383.54167
1784.437	1340.875
1787.328	1349.20833
1790.217	1336.20833
1793.104	1318.54167
1795.989	1313.875
1798.872	1300.54167
1801.753	1332.20833
1804.631	1295.875
1807.508	1328.54167
1810.383	1308.54167
1813.255	1299.20833
1816.126	1292.875
1818.994	1277.20833
1821.861	1291.20833
1824.725	1273.54167
1827.587	1266.875
1830.448	1259.875
1833.306	1242.20833
1836.162	1252.20833
1839.017	1241.54167
1841.869	1241.20833
1844.719	1239.20833
1847.567	1234.54167
1850.414	1205.875
1853.258	1205.875
1856.1	1227.20833
1858.94	1219.20833
1861.778	1203.875
1864.614	1220.20833
1867.448	1230.54167
1870.28	1199.20833
1873.111	1216.54167
1875.939	1210.875
1878.765	1232.54167
1881.589	1206.20833
1884.411	1197.54167
1887.231	1213.20833
1890.049	1192.54167
1892.865	1204.20833
1895.68	1194.20833
1898.492	1186.875
1901.302	1161.875
1904.11	1153.54167
1906.916	1165.875
1909.721	1149.875
1912.523	1177.54167
1915.323	1133.20833
1918.122	1149.875
1920.918	1142.875
1923.712	1141.20833
1926.505	1125.20833
1929.295	1119.20833
1932.084	1142.875
1934.87	1154.54167
1937.655	1123.875
1940.438	1125.875
1943.218	1127.20833
1945.997	1129.20833
1948.774	1146.54167
1951.549	1136.875
1954.322	1119.875
1957.093	1119.54167
1959.862	1113.875
1962.629	1118.54167
1965.394	1113.875
1968.157	1102.20833
1970.918	1114.875
1973.678	1103.20833
1976.435	1109.875
1979.19	1099.875
1981.944	1073.54167
1984.696	1081.54167
1987.445	1073.54167
1990.193	1084.875
1992.939	1091.875
1995.683	1068.20833
1998.425	1053.875
2001.165	1087.20833
2003.903	1057.54167
2006.639	1062.20833
2009.374	1059.54167
2012.106	1071.875
2014.837	1043.20833
2017.566	1066.875
2020.292	1068.20833
2023.017	1042.54167
2025.74	1053.20833
2028.461	1037.875
2031.18	1056.20833
2033.898	1041.20833
2036.613	1040.54167
2039.327	1053.875
2042.038	1026.54167
2044.748	1052.20833
2047.456	1032.54167
2050.162	1007.54167
2052.866	1018.875
2055.568	1025.875
2058.268	1016.54167
2060.967	1024.54167
2063.663	1003.875
2066.358	1004.875
2069.051	1006.20833
2071.742	1009.54167
2074.431	1031.875
2077.118	1019.20833
2079.804	1011.54167
2082.487	1010.54167
2085.169	1030.20833
2087.849	1031.875
2090.527	1035.54167
2093.203	1035.54167
2095.877	1055.54167
2098.55	1030.875
2101.22	1066.875
2103.889	1088.875
2106.556	1100.20833
2109.221	1131.54167
2111.884	1186.875
2114.546	1278.20833
2117.205	1347.20833
2119.863	1477.875
2122.519	1590.875
2125.173	1702.54167
2127.825	1798.875
2130.475	1806.875
2133.124	1778.20833
2135.771	1731.875
2138.416	1645.20833
2141.059	1534.20833
2143.7	1464.20833
2146.339	1373.54167
2148.977	1297.54167
2151.613	1257.20833
2154.247	1223.875
2156.879	1197.54167
2159.51	1169.20833
2162.138	1148.875
2164.765	1155.875
2167.39	1143.54167
2170.013	1140.54167
2172.634	1139.875
2175.254	1113.54167
2177.872	1133.20833
2180.488	1097.875
2183.102	1109.54167
2185.714	1076.54167
2188.325	1058.54167
2190.934	1052.54167
2193.541	1043.54167
2196.146	1012.20833
2198.75	1004.20833
2201.351	985.875
2203.951	958.875
2206.549	988.54167
2209.146	960.20833
2211.74	951.20833
2214.333	949.54167
2216.924	921.875
2219.514	913.54167
2222.101	902.875
2224.687	927.20833
2227.271	908.54167
2229.853	891.54167
2232.433	891.875
2235.012	897.54167
2237.589	890.20833
2240.164	915.875
2242.738	892.20833
2245.309	882.54167
2247.879	882.20833
2250.448	877.54167
2253.014	846.875
2255.579	844.20833
2258.142	833.875
2260.703	821.875
2263.262	838.20833
2265.82	825.875
2268.376	841.875
2270.93	816.54167
2273.483	809.20833
2276.033	813.875
2278.583	806.54167
2281.13	799.875
2283.675	792.20833
2286.219	803.20833
2288.761	784.20833
2291.302	797.875
2293.841	789.875
2296.377	777.54167
2298.913	785.54167
2301.446	794.875
2303.978	788.875
2306.508	763.875
2309.037	767.54167
2311.563	783.54167
2314.088	785.875
2316.612	750.54167
2319.133	772.54167
2321.653	753.54167
2324.171	750.20833
2326.688	753.875
2329.202	754.20833
2331.715	757.875
2334.227	754.54167
2336.736	737.20833
2339.244	722.20833
2341.751	717.875
2344.255	739.54167
2346.758	739.20833
2349.259	732.54167
2351.759	731.54167
2354.257	727.20833
2356.753	727.54167
2359.247	731.20833
2361.74	740.875
2364.231	719.20833
2366.721	733.54167
2369.209	725.875
2371.695	716.20833
2374.179	718.54167
2376.662	714.20833
2379.143	731.54167
2381.622	711.20833
2384.1	724.20833
2386.576	706.875
2389.051	721.875
2391.524	730.875
2393.995	715.20833
2396.464	705.20833
2398.932	696.875
2401.398	710.875
2403.863	703.875
2406.325	695.875
2408.787	693.54167
2411.246	696.20833
2413.704	694.20833
2416.16	688.875
2418.615	692.875
2421.068	696.20833
2423.519	686.875
2425.969	688.875
2428.417	701.54167
2430.863	702.20833
2433.308	699.875
2435.751	687.875
2438.193	680.875
2440.633	683.875
2443.071	692.875
2445.508	678.54167
2447.943	738.54167
2450.376	904.20833
2452.808	715.20833
2455.238	667.20833
2457.667	700.54167
2460.093	669.54167
2462.519	654.875
2464.942	659.20833
2467.365	678.54167
2469.785	674.20833
2472.204	659.54167
2474.621	648.875
2477.037	683.54167
2479.451	652.54167
2481.863	651.875
2484.274	648.54167
2486.683	653.54167
2489.091	660.20833
2491.497	668.20833
2493.901	654.20833
2496.304	648.20833
2498.705	663.54167
2501.105	635.54167
2503.503	680.20833
2505.899	641.875
2508.294	673.20833
2510.687	637.20833
2513.079	646.54167
2515.469	637.54167
2517.858	640.54167
2520.245	656.20833
2522.63	632.20833
2525.014	635.875
2527.396	629.20833
2529.776	624.20833
2532.156	641.20833
2534.533	615.54167
2536.909	635.54167
2539.283	615.875
2541.656	627.875
2544.027	650.875
2546.397	637.54167
2548.765	628.54167
2551.131	626.875
2553.496	624.875
2555.86	638.875
2558.221	631.20833
2560.582	629.875
2562.94	623.20833
2565.298	626.54167
2567.653	640.875
2570.007	615.20833
2572.36	624.54167
2574.711	619.875
2577.06	634.20833
2579.408	623.20833
2581.754	622.20833
2584.099	622.20833
2586.442	627.54167
2588.784	626.875
2591.124	628.54167
2593.463	628.54167
2595.8	624.54167
2598.135	599.20833
2600.469	613.54167
2602.802	633.875
2605.133	627.20833
2607.462	617.54167
2609.79	606.875
2612.116	623.20833
2614.441	615.54167
2616.764	622.20833
2619.086	615.875
2621.406	608.875
2623.725	621.875
2626.042	617.20833
2628.358	616.54167
2630.672	611.875
2632.985	628.54167
2635.296	618.875
2637.606	614.54167
2639.914	618.875
2642.22	619.875
2644.525	616.20833
2646.829	625.875
2649.131	637.20833
2651.432	628.54167
2653.731	619.20833
2656.028	633.20833
2658.324	631.54167
2660.619	624.875
2662.912	637.875
2665.204	618.20833
2667.494	653.20833
2669.782	622.20833
2672.07	632.875
2674.355	645.20833
2676.639	621.54167
2678.922	626.875
2681.203	638.20833
2683.483	627.875
2685.761	620.20833
2688.038	635.20833
2690.313	654.54167
2692.587	636.54167
2694.859	641.20833
2697.13	646.54167
2699.399	640.20833
2701.667	661.875
2703.933	657.54167
2706.198	653.875
2708.461	666.54167
2710.723	670.20833
2712.984	679.20833
2715.243	674.54167
2717.5	666.20833
2719.757	682.20833
2722.011	678.20833
2724.264	688.20833
2726.516	705.54167
2728.766	691.54167
2731.015	689.875
2733.262	677.20833
2735.508	677.20833
2737.753	682.875
2739.996	671.20833
2742.237	665.54167
2744.477	683.20833
2746.716	677.20833
2748.953	664.20833
2751.189	669.20833
2753.423	651.54167
2755.656	658.875
2757.887	647.20833
2760.117	652.54167
2762.346	641.875
2764.573	650.875
2766.798	652.54167
2769.022	662.20833
2771.245	657.875
2773.467	654.20833
2775.686	659.54167
2777.905	662.20833
2780.122	663.20833
2782.337	683.54167
2784.552	686.54167
2786.764	677.875
2788.976	696.20833
2791.186	706.54167
2793.394	697.54167
2795.601	721.875
2797.807	727.20833
2800.011	741.875
2802.214	760.20833
2804.415	752.20833
2806.615	758.875
2808.814	770.875
2811.011	780.20833
2813.206	766.875
2815.401	798.54167
2817.594	819.20833
2819.785	829.54167
2821.975	814.875
2824.164	837.20833
2826.351	851.54167
2828.537	888.20833
2830.722	892.20833
2832.905	896.875
2835.086	949.20833
2837.267	995.875
2839.445	1021.875
2841.623	1045.20833
2843.799	1100.20833
2845.974	1136.875
2848.147	1189.54167
2850.319	1216.20833
2852.489	1248.875
2854.659	1259.20833
2856.826	1285.20833
2858.993	1321.54167
2861.158	1302.54167
2863.321	1309.20833
2865.483	1343.54167
2867.644	1340.54167
2869.804	1315.875
2871.962	1335.20833
2874.118	1331.875
2876.274	1365.54167
2878.428	1335.875
2880.58	1318.54167
2882.731	1311.20833
2884.881	1314.20833
2887.03	1305.20833
2889.177	1297.875
2891.322	1303.875
2893.467	1318.875
2895.61	1317.875
2897.751	1338.54167
2899.892	1346.875
2902.03	1341.20833
2904.168	1344.54167
2906.304	1345.20833
2908.439	1381.875
2910.572	1358.875
2912.704	1381.875
2914.835	1362.875
2916.965	1370.20833
2919.093	1376.20833
2921.219	1333.54167
2923.345	1358.875
2925.469	1331.20833
2927.591	1310.20833
2929.712	1270.54167
2931.832	1258.875
2933.951	1241.20833
2936.068	1207.875
2938.184	1167.54167
2940.299	1132.875
2942.412	1095.20833
2944.524	1059.54167
2946.634	1030.54167
2948.744	969.20833
2950.851	993.20833
2952.958	919.875
2955.063	913.875
2957.167	901.20833
2959.269	852.20833
2961.371	863.875
2963.471	836.875
2965.569	833.20833
2967.666	792.54167
2969.762	772.875
2971.857	744.20833
2973.95	730.54167
2976.042	716.54167
2978.133	698.54167
2980.222	683.875
2982.31	653.875
2984.396	638.875
2986.482	640.875
2988.566	626.20833
2990.648	618.20833
2992.73	608.875
2994.81	598.875
2996.889	597.20833
2998.966	592.20833
3001.042	591.20833
3003.117	579.20833
3005.191	584.875
3007.263	571.20833
3009.334	560.875
3011.403	560.875
3013.472	531.54167
3015.539	526.875
3017.604	541.875
3019.669	508.875
3021.732	503.875
3023.794	508.875
3025.854	488.54167
3027.914	492.54167
3029.971	508.875
3032.028	490.875
3034.083	481.54167
3036.137	482.54167
3038.19	467.875
3040.242	460.20833
3042.292	444.20833
3044.341	433.875
3046.388	448.20833
3048.435	427.20833
3050.48	453.54167
3052.524	429.875
3054.566	413.875
3056.607	436.54167
3058.647	412.54167
3060.686	399.20833
3062.723	385.20833
3064.759	370.20833
3066.794	-0.125
3068.828	-1.45833
3070.86	0.54167
