-0.839	428.95833
3.438	485.29167
7.711	141.625
11.981	61.29167
16.247	48.29167
20.509	46.95833
24.768	46.95833
29.024	48.625
33.276	40.29167
37.524	50.625
41.769	44.625
46.01	41.29167
50.247	55.29167
54.481	64.95833
58.712	71.29167
62.939	51.29167
67.162	65.95833
71.382	62.625
75.599	47.29167
79.812	65.625
84.021	82.95833
88.227	63.29167
92.429	69.95833
96.628	52.95833
100.823	67.625
105.015	77.95833
109.204	77.625
113.388	85.95833
117.57	79.29167
121.748	93.29167
125.922	89.95833
130.093	108.625
134.261	113.29167
138.425	110.95833
142.585	151.625
146.742	149.95833
150.896	184.29167
155.046	217.95833
159.193	353.625
163.336	593.95833
167.476	1110.29167
171.613	2034.95833
175.746	3390.29167
179.875	5087.95833
184.002	6639.625
188.124	7753.29167
192.244	8165.95833
196.36	8166.95833
200.472	7980.95833
204.581	7842.625
208.687	7723.29167
212.79	7722.95833
216.889	7788.625
220.984	7939.625
225.077	8068.29167
229.165	8213.95833
233.251	8335.95833
237.333	8414.95833
241.412	8411.625
245.487	8409.625
249.559	8306.625
253.628	8250.29167
257.694	8165.29167
261.756	8112.29167
265.814	7868.29167
269.87	7598.625
273.922	7395.95833
277.97	7282.625
282.016	7104.29167
286.058	7074.95833
290.097	7143.625
294.132	7063.625
298.164	6953.95833
302.193	6590.29167
306.219	6076.95833
310.241	5513.625
314.26	5025.29167
318.276	4640.625
322.288	4335.29167
326.297	4078.29167
330.303	3875.95833
334.305	3748.29167
338.305	3681.95833
342.301	3616.29167
346.294	3570.95833
350.283	3522.95833
354.269	3479.95833
358.252	3465.29167
362.232	3420.29167
366.209	3397.625
370.182	3367.625
374.152	3360.29167
378.119	3360.95833
382.083	3329.29167
386.043	3351.29167
390	3313.29167
393.954	3303.29167
397.905	3250.625
401.852	3255.625
405.797	3183.29167
409.738	3168.29167
413.676	3205.95833
417.61	3187.29167
421.542	3108.95833
425.47	3042.625
429.396	2993.29167
433.318	2999.625
437.236	2994.95833
441.152	2973.29167
445.065	2947.625
448.974	2929.29167
452.88	2899.625
456.783	2895.29167
460.683	2858.625
464.58	2869.625
468.473	2898.95833
472.364	2893.625
476.251	2912.95833
480.135	2895.95833
484.016	2954.95833
487.894	2972.625
491.769	2967.29167
495.641	2988.625
499.509	2964.29167
503.375	2967.29167
507.237	2965.625
511.096	2962.95833
514.952	3024.95833
518.805	3061.95833
522.655	3083.625
526.502	2971.29167
530.346	2955.95833
534.187	2932.95833
538.024	2926.625
541.859	2938.29167
545.69	2978.625
549.519	2935.625
553.344	2921.29167
557.166	2874.29167
560.985	2847.29167
564.802	2805.625
568.615	2787.625
572.425	2739.29167
576.232	2719.95833
580.036	2700.625
583.836	2716.29167
587.634	2721.625
591.429	2691.95833
595.221	2778.29167
599.01	2787.29167
602.796	2844.625
606.578	2847.95833
610.358	2882.29167
614.135	2863.95833
617.909	2858.29167
621.679	2819.29167
625.447	2803.625
629.212	2839.29167
632.973	2820.625
636.732	2811.29167
640.488	2828.625
644.241	2789.29167
647.991	2772.625
651.737	2771.625
655.481	2742.95833
659.222	2732.95833
662.96	2735.29167
666.695	2765.29167
670.427	2775.29167
674.156	2807.625
677.882	2791.29167
681.605	2808.29167
685.325	2766.95833
689.043	2770.95833
692.757	2745.625
696.468	2777.625
700.177	2776.625
703.882	2788.625
707.585	2788.625
711.284	2780.625
714.981	2812.29167
718.675	2807.29167
722.366	2779.625
726.054	2806.95833
729.739	2806.95833
733.421	2785.95833
737.1	2799.95833
740.777	2844.95833
744.45	2842.29167
748.121	2846.625
751.789	2918.95833
755.453	2921.29167
759.115	2908.29167
762.774	2975.625
766.431	3001.95833
770.084	3032.625
773.734	3064.95833
777.382	3139.95833
781.027	3136.29167
784.669	3177.625
788.308	3179.625
791.944	3223.29167
795.577	3255.95833
799.208	3296.95833
802.835	3289.95833
806.46	3295.625
810.082	3340.29167
813.701	3346.625
817.317	3380.95833
820.931	3367.625
824.542	3383.95833
828.149	3342.625
831.754	3337.625
835.357	3326.95833
838.956	3354.625
842.553	3328.95833
846.146	3315.29167
849.737	3291.625
853.326	3310.95833
856.911	3339.29167
860.493	3392.29167
864.073	3395.625
867.65	3485.95833
871.225	3529.29167
874.796	3487.29167
878.365	3507.95833
881.931	3538.625
885.494	3570.29167
889.054	3568.29167
892.612	3566.95833
896.166	3549.29167
899.719	3486.625
903.268	3449.95833
906.814	3440.29167
910.358	3425.95833
913.899	3397.29167
917.438	3419.95833
920.973	3412.625
924.506	3450.625
928.036	3492.95833
931.564	3510.29167
935.088	3535.625
938.61	3573.95833
942.129	3606.95833
945.646	3691.625
949.16	3745.625
952.671	3840.95833
956.179	3899.29167
959.685	3841.625
963.188	3818.29167
966.688	3758.29167
970.185	3653.95833
973.68	3616.29167
977.173	3552.625
980.662	3547.625
984.149	3566.29167
987.633	3611.95833
991.114	3667.625
994.593	3754.95833
998.069	3877.95833
1001.542	3999.95833
1005.013	3883.29167
1008.481	3690.95833
1011.947	3627.29167
1015.409	3611.625
1018.869	3633.95833
1022.327	3597.95833
1025.782	3569.29167
1029.234	3561.625
1032.683	3520.29167
1036.13	3416.29167
1039.574	3277.95833
1043.016	3202.625
1046.455	3137.625
1049.891	3088.95833
1053.325	3095.625
1056.756	3096.95833
1060.184	3123.95833
1063.61	3147.625
1067.033	3156.625
1070.454	3173.95833
1073.872	3192.625
1077.287	3218.625
1080.7	3206.29167
1084.11	3194.95833
1087.517	3185.625
1090.922	3136.29167
1094.325	3119.29167
1097.724	3093.29167
1101.122	3093.625
1104.516	3114.625
1107.908	3091.625
1111.298	3130.95833
1114.684	3189.95833
1118.069	3241.625
1121.45	3255.95833
1124.83	3236.95833
1128.206	3280.625
1131.58	3330.95833
1134.951	3424.29167
1138.32	3528.95833
1141.687	3649.625
1145.05	3760.29167
1148.412	3785.625
1151.77	3783.29167
1155.126	3790.29167
1158.48	3789.95833
1161.831	3832.29167
1165.18	3854.29167
1168.525	3912.29167
1171.869	3973.95833
1175.21	4027.95833
1178.548	4066.95833
1181.884	4114.625
1185.217	4096.29167
1188.548	4201.95833
1191.877	4258.29167
1195.202	4365.95833
1198.526	4400.29167
1201.846	4432.625
1205.165	4403.29167
1208.48	4390.625
1211.794	4364.29167
1215.104	4401.95833
1218.413	4363.29167
1221.719	4373.625
1225.022	4345.625
1228.323	4317.29167
1231.621	4280.29167
1234.917	4268.95833
1238.21	4298.29167
1241.501	4264.29167
1244.79	4294.29167
1248.076	4288.95833
1251.359	4343.625
1254.64	4409.625
1257.919	4445.625
1261.195	4523.95833
1264.468	4598.29167
1267.74	4674.95833
1271.008	4687.625
1274.275	4666.29167
1277.538	4575.95833
1280.8	4550.29167
1284.059	4589.29167
1287.315	4648.95833
1290.569	4647.625
1293.821	4662.95833
1297.07	4680.95833
1300.317	4715.29167
1303.562	4663.625
1306.803	4641.95833
1310.043	4582.29167
1313.28	4549.625
1316.515	4471.95833
1319.747	4425.95833
1322.977	4367.29167
1326.204	4271.625
1329.429	4232.95833
1332.652	4189.625
1335.872	4174.625
1339.09	4148.625
1342.306	4152.625
1345.519	4137.95833
1348.729	4100.29167
1351.938	4117.29167
1355.144	4012.29167
1358.347	3998.29167
1361.548	3979.95833
1364.747	4016.29167
1367.944	3977.95833
1371.138	4013.29167
1374.329	4050.625
1377.518	4104.625
1380.705	4144.95833
1383.89	4106.29167
1387.072	3972.95833
1390.252	3828.29167
1393.429	3739.29167
1396.605	3607.95833
1399.777	3528.625
1402.948	3483.625
1406.116	3458.625
1409.282	3464.95833
1412.445	3450.29167
1415.606	3507.29167
1418.765	3580.95833
1421.921	3642.625
1425.075	3747.29167
1428.227	3857.29167
1431.376	4028.95833
1434.524	4175.625
1437.668	4251.625
1440.811	4293.625
1443.951	4325.95833
1447.089	4347.625
1450.224	4346.625
1453.357	4304.625
1456.488	4287.29167
1459.617	4265.29167
1462.743	4168.625
1465.867	4108.625
1468.989	4062.625
1472.108	3973.29167
1475.225	3924.29167
1478.34	3855.625
1481.453	3863.29167
1484.563	3862.95833
1487.671	3939.95833
1490.776	3960.95833
1493.88	4077.29167
1496.981	4183.95833
1500.08	4261.625
1503.176	4310.625
1506.271	4391.625
1509.363	4474.95833
1512.452	4532.95833
1515.54	4603.29167
1518.625	4716.95833
1521.708	4918.29167
1524.789	5120.625
1527.867	5430.625
1530.944	5801.625
1534.018	6095.625
1537.089	6305.625
1540.159	6251.29167
1543.226	6145.29167
1546.291	5918.95833
1549.354	5758.95833
1552.415	5570.29167
1555.473	5382.29167
1558.529	5241.625
1561.583	5192.29167
1564.634	5141.95833
1567.684	5128.625
1570.731	5204.95833
1573.776	5183.625
1576.819	5196.625
1579.859	5234.95833
1582.898	5296.29167
1585.934	5328.29167
1588.968	5365.29167
1591.999	5341.95833
1595.029	5344.29167
1598.056	5347.95833
1601.081	5339.29167
1604.104	5348.95833
1607.125	5254.95833
1610.144	5171.29167
1613.16	5026.95833
1616.174	4906.95833
1619.186	4765.95833
1622.196	4646.95833
1625.203	4499.625
1628.209	4432.625
1631.212	4399.95833
1634.213	4355.625
1637.212	4275.95833
1640.209	4212.95833
1643.203	4113.625
1646.196	4030.29167
1649.186	3855.29167
1652.174	3748.29167
1655.16	3606.29167
1658.144	3512.95833
1661.125	3389.95833
1664.105	3193.625
1667.082	3054.29167
1670.057	2912.625
1673.03	2738.625
1676.001	2571.625
1678.97	2375.625
1681.937	2264.625
1684.901	2137.625
1687.863	2078.625
1690.824	1969.29167
1693.782	1947.29167
1696.738	1864.625
1699.692	1841.29167
1702.643	1781.625
1705.593	1759.625
1708.54	1739.95833
1711.486	1742.29167
1714.429	1685.625
1717.37	1687.95833
1720.309	1638.95833
1723.246	1662.625
1726.181	1618.95833
1729.113	1612.29167
1732.044	1602.29167
1734.972	1569.95833
1737.899	1574.29167
1740.823	1572.625
1743.745	1572.95833
1746.665	1505.95833
1749.583	1490.29167
1752.499	1474.95833
1755.413	1437.625
1758.325	1416.95833
1761.235	1400.95833
1764.142	1371.625
1767.048	1358.625
1769.951	1350.29167
1772.852	1353.29167
1775.752	1353.625
1778.649	1380.625
1781.544	1356.29167
1784.437	1317.29167
1787.328	1320.95833
1790.217	1295.29167
1793.104	1273.29167
1795.989	1282.29167
1798.872	1253.625
1801.753	1291.625
1804.631	1289.29167
1807.508	1286.95833
1810.383	1280.625
1813.255	1268.625
1816.126	1258.95833
1818.994	1244.625
1821.861	1237.95833
1824.725	1241.95833
1827.587	1236.95833
1830.448	1230.95833
1833.306	1204.625
1836.162	1223.29167
1839.017	1212.95833
1841.869	1214.29167
1844.719	1202.625
1847.567	1199.625
1850.414	1183.625
1853.258	1189.95833
1856.1	1198.95833
1858.94	1205.95833
1861.778	1191.29167
1864.614	1191.625
1867.448	1189.95833
1870.28	1156.625
1873.111	1192.29167
1875.939	1182.95833
1878.765	1189.95833
1881.589	1180.29167
1884.411	1182.625
1887.231	1202.95833
1890.049	1173.29167
1892.865	1165.95833
1895.68	1154.29167
1898.492	1161.625
1901.302	1152.95833
1904.11	1149.29167
1906.916	1140.29167
1909.721	1125.625
1912.523	1130.29167
1915.323	1121.95833
1918.122	1117.29167
1920.918	1118.29167
1923.712	1109.95833
1926.505	1124.29167
1929.295	1101.29167
1932.084	1126.95833
1934.87	1108.95833
1937.655	1096.625
1940.438	1104.29167
1943.218	1118.29167
1945.997	1107.95833
1948.774	1109.625
1951.549	1125.29167
1954.322	1103.625
1957.093	1098.625
1959.862	1086.95833
1962.629	1111.625
1965.394	1071.29167
1968.157	1070.29167
1970.918	1084.625
1973.678	1081.625
1976.435	1080.625
1979.19	1071.625
1981.944	1061.625
1984.696	1062.29167
1987.445	1056.625
1990.193	1050.625
1992.939	1077.625
1995.683	1067.29167
1998.425	1030.29167
2001.165	1070.95833
2003.903	1049.29167
2006.639	1043.625
2009.374	1047.29167
2012.106	1048.95833
2014.837	1026.29167
2017.566	1034.29167
2020.292	1036.625
2023.017	1033.625
2025.74	1025.95833
2028.461	1022.29167
2031.18	1028.625
2033.898	1020.625
2036.613	1032.625
2039.327	1038.29167
2042.038	1012.95833
2044.748	1037.95833
2047.456	1019.29167
2050.162	1001.95833
2052.866	996.95833
2055.568	1009.95833
2058.268	1006.625
2060.967	1022.29167
2063.663	998.625
2066.358	1001.29167
2069.051	1003.29167
2071.742	1000.625
2074.431	1010.625
2077.118	1004.29167
2079.804	991.29167
2082.487	1005.95833
2085.169	1009.625
2087.849	1029.29167
2090.527	1011.625
2093.203	1035.29167
2095.877	1045.625
2098.55	1042.29167
2101.22	1047.29167
2103.889	1062.95833
2106.556	1087.625
2109.221	1127.29167
2111.884	1179.29167
2114.546	1278.625
2117.205	1366.625
2119.863	1480.625
2122.519	1621.95833
2125.173	1732.29167
2127.825	1850.29167
2130.475	1864.29167
2133.124	1817.95833
2135.771	1749.29167
2138.416	1689.95833
2141.059	1565.625
2143.7	1480.95833
2146.339	1385.625
2148.977	1302.625
2151.613	1299.625
2154.247	1226.29167
2156.879	1210.625
2159.51	1178.95833
2162.138	1150.29167
2164.765	1141.95833
2167.39	1120.95833
2170.013	1128.625
2172.634	1133.29167
2175.254	1103.95833
2177.872	1134.625
2180.488	1071.625
2183.102	1092.625
2185.714	1060.95833
2188.325	1040.625
2190.934	1051.625
2193.541	1035.625
2196.146	1003.29167
2198.75	995.625
2201.351	995.625
2203.951	971.29167
2206.549	974.29167
2209.146	969.29167
2211.74	934.625
2214.333	958.95833
2216.924	912.29167
2219.514	929.625
2222.101	904.29167
2224.687	922.29167
2227.271	897.29167
2229.853	903.29167
2232.433	883.95833
2235.012	908.95833
2237.589	898.29167
2240.164	906.95833
2242.738	893.29167
2245.309	881.95833
2247.879	876.95833
2250.448	873.625
2253.014	854.95833
2255.579	838.29167
2258.142	841.625
2260.703	824.95833
2263.262	837.29167
2265.82	824.625
2268.376	833.95833
2270.93	801.29167
2273.483	802.95833
2276.033	812.625
2278.583	798.29167
2281.13	804.625
2283.675	788.29167
2286.219	801.95833
2288.761	795.625
2291.302	796.29167
2293.841	801.95833
2296.377	769.29167
2298.913	786.625
2301.446	789.625
2303.978	777.95833
2306.508	771.29167
2309.037	772.625
2311.563	782.29167
2314.088	783.29167
2316.612	756.95833
2319.133	762.625
2321.653	759.625
2324.171	757.625
2326.688	765.625
2329.202	749.625
2331.715	753.625
2334.227	751.95833
2336.736	740.29167
2339.244	739.29167
2341.751	744.95833
2344.255	751.625
2346.758	732.95833
2349.259	726.95833
2351.759	738.625
2354.257	730.95833
2356.753	731.625
2359.247	730.625
2361.74	740.29167
2364.231	727.95833
2366.721	742.29167
2369.209	714.95833
2371.695	719.625
2374.179	725.29167
2376.662	717.625
2379.143	731.29167
2381.622	716.29167
2384.1	735.625
2386.576	723.95833
2389.051	725.95833
2391.524	733.95833
2393.995	722.29167
2396.464	708.95833
2398.932	700.625
2401.398	718.625
2403.863	704.29167
2406.325	701.95833
2408.787	715.95833
2411.246	701.29167
2413.704	709.625
2416.16	702.95833
2418.615	708.95833
2421.068	714.625
2423.519	705.625
2425.969	700.29167
2428.417	705.95833
2430.863	716.95833
2433.308	713.625
2435.751	698.29167
2438.193	706.29167
2440.633	701.95833
2443.071	688.95833
2445.508	686.29167
2447.943	692.625
2450.376	685.625
2452.808	687.95833
2455.238	682.625
2457.667	703.29167
2460.093	681.625
2462.519	674.29167
2464.942	677.29167
2467.365	686.29167
2469.785	687.95833
2472.204	670.625
2474.621	673.625
2477.037	695.625
2479.451	660.625
2481.863	672.625
2484.274	665.29167
2486.683	673.625
2489.091	674.95833
2491.497	668.95833
2493.901	668.625
2496.304	675.625
2498.705	680.29167
2501.105	667.29167
2503.503	697.625
2505.899	660.29167
2508.294	681.625
2510.687	651.95833
2513.079	658.29167
2515.469	653.625
2517.858	645.95833
2520.245	669.95833
2522.63	653.625
2525.014	648.625
2527.396	647.625
2529.776	645.95833
2532.156	657.29167
2534.533	638.625
2536.909	648.29167
2539.283	634.29167
2541.656	632.625
2544.027	671.29167
2546.397	656.625
2548.765	643.625
2551.131	649.95833
2553.496	646.95833
2555.86	651.29167
2558.221	647.95833
2560.582	642.625
2562.94	630.29167
2565.298	634.625
2567.653	653.29167
2570.007	629.95833
2572.36	650.29167
2574.711	640.29167
2577.06	662.95833
2579.408	652.29167
2581.754	645.625
2584.099	657.95833
2586.442	640.29167
2588.784	650.625
2591.124	648.29167
2593.463	645.95833
2595.8	639.625
2598.135	645.625
2600.469	643.625
2602.802	658.95833
2605.133	647.29167
2607.462	629.625
2609.79	631.29167
2612.116	644.29167
2614.441	636.95833
2616.764	641.29167
2619.086	646.29167
2621.406	636.95833
2623.725	645.95833
2626.042	641.625
2628.358	641.625
2630.672	633.29167
2632.985	660.95833
2635.296	655.625
2637.606	647.95833
2639.914	643.625
2642.22	647.95833
2644.525	634.29167
2646.829	647.95833
2649.131	660.95833
2651.432	670.95833
2653.731	651.29167
2656.028	676.625
2658.324	661.625
2660.619	654.95833
2662.912	670.29167
2665.204	642.625
2667.494	669.625
2669.782	657.625
2672.07	663.29167
2674.355	680.625
2676.639	656.95833
2678.922	650.625
2681.203	667.95833
2683.483	642.95833
2685.761	657.95833
2688.038	670.29167
2690.313	677.625
2692.587	679.29167
2694.859	665.625
2697.13	667.625
2699.399	678.625
2701.667	692.625
2703.933	683.625
2706.198	694.625
2708.461	703.95833
2710.723	706.29167
2712.984	694.625
2715.243	710.29167
2717.5	701.625
2719.757	717.625
2722.011	714.95833
2724.264	728.95833
2726.516	746.29167
2728.766	726.625
2731.015	733.29167
2733.262	728.625
2735.508	709.29167
2737.753	718.95833
2739.996	704.29167
2742.237	705.625
2744.477	719.625
2746.716	709.625
2748.953	701.95833
2751.189	695.625
2753.423	690.625
2755.656	688.29167
2757.887	679.29167
2760.117	686.95833
2762.346	680.95833
2764.573	685.29167
2766.798	676.95833
2769.022	699.95833
2771.245	688.625
2773.467	698.29167
2775.686	705.29167
2777.905	703.29167
2780.122	707.95833
2782.337	721.95833
2784.552	714.95833
2786.764	741.95833
2788.976	727.95833
2791.186	752.29167
2793.394	744.95833
2795.601	769.95833
2797.807	772.29167
2800.011	793.29167
2802.214	809.95833
2804.415	792.95833
2806.615	798.29167
2808.814	827.95833
2811.011	832.29167
2813.206	837.625
2815.401	847.625
2817.594	856.29167
2819.785	896.95833
2821.975	874.29167
2824.164	879.625
2826.351	893.625
2828.537	926.625
2830.722	958.95833
2832.905	958.29167
2835.086	994.29167
2837.267	1046.29167
2839.445	1079.29167
2841.623	1097.625
2843.799	1129.95833
2845.974	1188.95833
2848.147	1231.95833
2850.319	1248.95833
2852.489	1288.29167
2854.659	1324.29167
2856.826	1339.625
2858.993	1352.29167
2861.158	1349.95833
2863.321	1351.29167
2865.483	1374.29167
2867.644	1376.625
2869.804	1364.29167
2871.962	1355.625
2874.118	1395.95833
2876.274	1385.29167
2878.428	1386.95833
2880.58	1373.625
2882.731	1332.29167
2884.881	1338.29167
2887.03	1344.29167
2889.177	1337.625
2891.322	1344.95833
2893.467	1365.29167
2895.61	1342.625
2897.751	1377.29167
2899.892	1358.29167
2902.03	1385.29167
2904.168	1390.625
2906.304	1400.95833
2908.439	1407.625
2910.572	1396.95833
2912.704	1410.625
2914.835	1420.95833
2916.965	1400.625
2919.093	1432.29167
2921.219	1381.625
2923.345	1373.95833
2925.469	1357.95833
2927.591	1354.95833
2929.712	1303.29167
2931.832	1296.95833
2933.951	1265.95833
2936.068	1223.625
2938.184	1189.29167
2940.299	1175.625
2942.412	1133.29167
2944.524	1094.95833
2946.634	1062.95833
2948.744	1002.625
2950.851	1021.29167
2952.958	967.29167
2955.063	947.625
2957.167	926.625
2959.269	882.625
2961.371	903.625
2963.471	865.95833
2965.569	864.29167
2967.666	816.95833
2969.762	816.625
2971.857	784.95833
2973.95	766.95833
2976.042	760.29167
2978.133	744.95833
2980.222	718.29167
2982.31	690.29167
2984.396	679.625
2986.482	674.95833
2988.566	660.29167
2990.648	651.95833
2992.73	645.29167
2994.81	632.625
2996.889	638.625
2998.966	629.95833
3001.042	630.625
3003.117	626.95833
3005.191	614.95833
3007.263	611.29167
3009.334	608.625
3011.403	593.95833
3013.472	569.29167
3015.539	571.95833
3017.604	576.29167
3019.669	534.29167
3021.732	545.625
3023.794	546.29167
3025.854	529.29167
3027.914	529.95833
3029.971	546.95833
3032.028	536.29167
3034.083	530.625
3036.137	516.95833
3038.19	503.625
3040.242	496.95833
3042.292	472.29167
3044.341	482.625
3046.388	486.625
3048.435	456.625
3050.48	474.29167
3052.524	467.625
3054.566	445.625
3056.607	466.625
3058.647	453.29167
3060.686	432.95833
3062.723	415.95833
3064.759	406.29167
3066.794	1.625
3068.828	-2.70833
3070.86	-2.375
