-0.839	425.70833
3.438	470.375
7.711	136.375
11.981	57.04167
16.247	46.70833
20.509	47.375
24.768	42.04167
29.024	46.375
33.276	44.04167
37.524	51.375
41.769	40.04167
46.01	37.375
50.247	52.70833
54.481	63.04167
58.712	70.70833
62.939	53.04167
67.162	62.375
71.382	59.04167
75.599	49.70833
79.812	66.04167
84.021	84.04167
88.227	62.04167
92.429	61.70833
96.628	51.04167
100.823	67.04167
105.015	78.70833
109.204	82.375
113.388	81.04167
117.57	81.70833
121.748	93.70833
125.922	84.04167
130.093	107.70833
134.261	109.70833
138.425	106.70833
142.585	151.70833
146.742	146.04167
150.896	179.04167
155.046	221.04167
159.193	350.70833
163.336	602.04167
167.476	1092.375
171.613	2016.04167
175.746	3375.70833
179.875	5073.375
184.002	6626.375
188.124	7736.04167
192.244	8184.70833
196.36	8191.70833
200.472	8035.375
204.581	7900.70833
208.687	7786.70833
212.79	7783.375
216.889	7824.70833
220.984	7995.375
225.077	8128.375
229.165	8278.375
233.251	8396.375
237.333	8466.04167
241.412	8510.70833
245.487	8491.70833
249.559	8403.375
253.628	8346.375
257.694	8222.70833
261.756	8137.70833
265.814	7936.375
269.87	7690.375
273.922	7431.375
277.97	7317.70833
282.016	7200.04167
286.058	7103.375
290.097	7105.04167
294.132	7074.375
298.164	6916.04167
302.193	6581.375
306.219	6076.04167
310.241	5534.70833
314.26	5046.70833
318.276	4624.70833
322.288	4337.375
326.297	4072.04167
330.303	3939.375
334.305	3806.04167
338.305	3716.70833
342.301	3655.04167
346.294	3615.375
350.283	3587.375
354.269	3539.375
358.252	3503.375
362.232	3503.04167
366.209	3464.04167
370.182	3410.70833
374.152	3413.375
378.119	3399.04167
382.083	3418.70833
386.043	3432.70833
390	3369.375
393.954	3353.70833
397.905	3320.70833
401.852	3313.70833
405.797	3275.04167
409.738	3244.70833
413.676	3262.375
417.61	3244.04167
421.542	3158.04167
425.47	3095.70833
429.396	3049.375
433.318	3048.70833
437.236	3045.70833
441.152	3045.375
445.065	2999.04167
448.974	3000.70833
452.88	2944.375
456.783	2923.04167
460.683	2907.70833
464.58	2940.70833
468.473	2935.375
472.364	2934.04167
476.251	2930.375
480.135	2958.04167
484.016	3000.70833
487.894	3039.04167
491.769	3053.04167
495.641	3037.375
499.509	3035.70833
503.375	3017.70833
507.237	3023.375
511.096	3013.70833
514.952	3072.375
518.805	3110.70833
522.655	3117.70833
526.502	3012.375
530.346	3007.70833
534.187	3000.375
538.024	2980.70833
541.859	2978.04167
545.69	3013.375
549.519	2982.375
553.344	2970.70833
557.166	2940.70833
560.985	2893.70833
564.802	2873.04167
568.615	2824.375
572.425	2774.04167
576.232	2751.375
580.036	2755.70833
583.836	2776.375
587.634	2780.70833
591.429	2795.375
595.221	2828.70833
599.01	2855.70833
602.796	2887.70833
606.578	2917.04167
610.358	2922.70833
614.135	2904.04167
617.909	2882.04167
621.679	2878.375
625.447	2874.375
629.212	2845.04167
632.973	2885.375
636.732	2872.70833
640.488	2881.70833
644.241	2816.70833
647.991	2828.70833
651.737	2847.04167
655.481	2801.04167
659.222	2816.375
662.96	2818.70833
666.695	2844.04167
670.427	2862.04167
674.156	2873.375
677.882	2858.70833
681.605	2835.04167
685.325	2835.70833
689.043	2835.70833
692.757	2799.70833
696.468	2820.04167
700.177	2833.04167
703.882	2822.70833
707.585	2827.70833
711.284	2836.375
714.981	2847.70833
718.675	2866.375
722.366	2850.04167
726.054	2838.70833
729.739	2845.70833
733.421	2851.70833
737.1	2847.04167
740.777	2883.375
744.45	2914.04167
748.121	2907.04167
751.789	2971.70833
755.453	2963.375
759.115	2974.70833
762.774	3029.70833
766.431	3043.375
770.084	3073.70833
773.734	3121.375
777.382	3176.70833
781.027	3208.04167
784.669	3225.70833
788.308	3247.70833
791.944	3254.04167
795.577	3320.04167
799.208	3311.70833
802.835	3344.70833
806.46	3358.70833
810.082	3403.70833
813.701	3409.70833
817.317	3441.04167
820.931	3426.375
824.542	3416.04167
828.149	3386.70833
831.754	3386.70833
835.357	3357.375
838.956	3347.70833
842.553	3357.70833
846.146	3342.70833
849.737	3326.70833
853.326	3341.70833
856.911	3350.375
860.493	3408.70833
864.073	3427.70833
867.65	3487.70833
871.225	3526.375
874.796	3509.375
878.365	3518.04167
881.931	3542.375
885.494	3557.375
889.054	3596.70833
892.612	3566.70833
896.166	3568.375
899.719	3491.04167
903.268	3448.375
906.814	3455.70833
910.358	3427.375
913.899	3423.375
917.438	3420.375
920.973	3398.375
924.506	3455.70833
928.036	3505.375
931.564	3541.70833
935.088	3575.70833
938.61	3583.375
942.129	3635.04167
945.646	3702.375
949.16	3796.375
952.671	3882.70833
956.179	3918.70833
959.685	3874.375
963.188	3854.375
966.688	3792.04167
970.185	3718.70833
973.68	3647.375
977.173	3652.70833
980.662	3590.04167
984.149	3635.375
987.633	3628.70833
991.114	3710.375
994.593	3833.375
998.069	3925.375
1001.542	4065.375
1005.013	3958.70833
1008.481	3708.04167
1011.947	3686.04167
1015.409	3643.375
1018.869	3652.04167
1022.327	3621.70833
1025.782	3625.375
1029.234	3619.70833
1032.683	3555.70833
1036.13	3460.70833
1039.574	3341.70833
1043.016	3243.375
1046.455	3189.70833
1049.891	3119.375
1053.325	3129.375
1056.756	3145.375
1060.184	3171.70833
1063.61	3188.375
1067.033	3194.70833
1070.454	3187.04167
1073.872	3254.375
1077.287	3262.70833
1080.7	3258.04167
1084.11	3273.375
1087.517	3211.04167
1090.922	3173.70833
1094.325	3170.375
1097.724	3135.70833
1101.122	3119.04167
1104.516	3099.375
1107.908	3126.04167
1111.298	3160.04167
1114.684	3220.04167
1118.069	3265.70833
1121.45	3250.70833
1124.83	3263.04167
1128.206	3311.375
1131.58	3329.375
1134.951	3423.70833
1138.32	3524.04167
1141.687	3668.70833
1145.05	3765.375
1148.412	3773.04167
1151.77	3772.70833
1155.126	3770.70833
1158.48	3766.70833
1161.831	3817.04167
1165.18	3839.375
1168.525	3929.70833
1171.869	3951.70833
1175.21	3997.70833
1178.548	4047.04167
1181.884	4087.04167
1185.217	4082.70833
1188.548	4173.375
1191.877	4238.70833
1195.202	4311.70833
1198.526	4410.04167
1201.846	4414.70833
1205.165	4408.375
1208.48	4397.04167
1211.794	4372.70833
1215.104	4388.04167
1218.413	4391.375
1221.719	4391.375
1225.022	4353.70833
1228.323	4311.70833
1231.621	4305.70833
1234.917	4283.375
1238.21	4307.375
1241.501	4291.04167
1244.79	4296.375
1248.076	4314.04167
1251.359	4354.70833
1254.64	4429.375
1257.919	4476.04167
1261.195	4521.375
1264.468	4601.375
1267.74	4701.04167
1271.008	4680.375
1274.275	4640.04167
1277.538	4606.04167
1280.8	4600.375
1284.059	4583.04167
1287.315	4639.04167
1290.569	4669.04167
1293.821	4682.70833
1297.07	4733.04167
1300.317	4715.04167
1303.562	4697.70833
1306.803	4657.04167
1310.043	4629.70833
1313.28	4546.04167
1316.515	4485.70833
1319.747	4473.375
1322.977	4424.04167
1326.204	4336.70833
1329.429	4281.70833
1332.652	4241.375
1335.872	4225.375
1339.09	4218.04167
1342.306	4225.04167
1345.519	4182.04167
1348.729	4146.04167
1351.938	4152.70833
1355.144	4091.70833
1358.347	4043.04167
1361.548	4050.70833
1364.747	4052.70833
1367.944	4042.70833
1371.138	4073.375
1374.329	4096.375
1377.518	4152.70833
1380.705	4202.375
1383.89	4174.04167
1387.072	4055.04167
1390.252	3873.375
1393.429	3792.375
1396.605	3647.375
1399.777	3553.70833
1402.948	3523.70833
1406.116	3480.375
1409.282	3492.04167
1412.445	3502.375
1415.606	3563.375
1418.765	3578.70833
1421.921	3664.04167
1425.075	3740.04167
1428.227	3881.375
1431.376	4048.70833
1434.524	4209.375
1437.668	4312.375
1440.811	4342.04167
1443.951	4368.375
1447.089	4340.70833
1450.224	4367.04167
1453.357	4326.04167
1456.488	4290.70833
1459.617	4243.04167
1462.743	4183.04167
1465.867	4113.70833
1468.989	4055.04167
1472.108	3982.70833
1475.225	3888.04167
1478.34	3857.375
1481.453	3862.04167
1484.563	3827.375
1487.671	3926.375
1490.776	3985.375
1493.88	4039.04167
1496.981	4140.70833
1500.08	4202.70833
1503.176	4273.375
1506.271	4364.04167
1509.363	4433.70833
1512.452	4482.375
1515.54	4531.375
1518.625	4652.375
1521.708	4846.375
1524.789	5115.70833
1527.867	5438.375
1530.944	5785.04167
1534.018	6077.70833
1537.089	6223.70833
1540.159	6230.04167
1543.226	6097.04167
1546.291	5863.70833
1549.354	5677.375
1552.415	5491.70833
1555.473	5320.70833
1558.529	5224.70833
1561.583	5155.04167
1564.634	5080.375
1567.684	5071.04167
1570.731	5070.04167
1573.776	5071.375
1576.819	5111.70833
1579.859	5186.70833
1582.898	5228.375
1585.934	5290.70833
1588.968	5296.70833
1591.999	5285.375
1595.029	5291.04167
1598.056	5308.375
1601.081	5326.04167
1604.104	5308.70833
1607.125	5226.70833
1610.144	5132.375
1613.16	5021.375
1616.174	4915.375
1619.186	4778.04167
1622.196	4668.04167
1625.203	4582.375
1628.209	4512.375
1631.212	4476.70833
1634.213	4446.04167
1637.212	4433.70833
1640.209	4340.70833
1643.203	4249.04167
1646.196	4152.375
1649.186	4002.04167
1652.174	3868.375
1655.16	3716.70833
1658.144	3606.04167
1661.125	3464.70833
1664.105	3303.04167
1667.082	3146.04167
1670.057	2990.04167
1673.03	2810.375
1676.001	2608.04167
1678.97	2429.375
1681.937	2296.04167
1684.901	2178.04167
1687.863	2085.70833
1690.824	2012.375
1693.782	1978.375
1696.738	1905.70833
1699.692	1882.70833
1702.643	1807.70833
1705.593	1792.04167
1708.54	1772.375
1711.486	1755.04167
1714.429	1715.70833
1717.37	1698.70833
1720.309	1688.04167
1723.246	1681.375
1726.181	1642.375
1729.113	1648.04167
1732.044	1624.375
1734.972	1590.04167
1737.899	1596.375
1740.823	1598.04167
1743.745	1577.04167
1746.665	1540.375
1749.583	1489.04167
1752.499	1489.04167
1755.413	1469.375
1758.325	1426.04167
1761.235	1438.375
1764.142	1397.04167
1767.048	1391.70833
1769.951	1392.04167
1772.852	1376.375
1775.752	1395.70833
1778.649	1389.04167
1781.544	1361.375
1784.437	1337.04167
1787.328	1333.70833
1790.217	1344.375
1793.104	1306.04167
1795.989	1304.70833
1798.872	1277.375
1801.753	1306.04167
1804.631	1319.70833
1807.508	1305.04167
1810.383	1305.70833
1813.255	1291.04167
1816.126	1288.375
1818.994	1284.04167
1821.861	1263.04167
1824.725	1274.375
1827.587	1267.70833
1830.448	1247.04167
1833.306	1224.70833
1836.162	1240.70833
1839.017	1228.70833
1841.869	1219.70833
1844.719	1232.375
1847.567	1211.04167
1850.414	1208.04167
1853.258	1194.70833
1856.1	1210.375
1858.94	1216.375
1861.778	1206.375
1864.614	1179.70833
1867.448	1198.70833
1870.28	1198.70833
1873.111	1222.04167
1875.939	1194.70833
1878.765	1203.70833
1881.589	1191.04167
1884.411	1175.375
1887.231	1205.04167
1890.049	1181.04167
1892.865	1192.375
1895.68	1180.04167
1898.492	1169.375
1901.302	1179.375
1904.11	1151.375
1906.916	1158.70833
1909.721	1147.70833
1912.523	1149.70833
1915.323	1125.70833
1918.122	1142.70833
1920.918	1150.04167
1923.712	1127.70833
1926.505	1146.70833
1929.295	1119.04167
1932.084	1124.70833
1934.87	1138.375
1937.655	1124.70833
1940.438	1103.04167
1943.218	1120.375
1945.997	1121.375
1948.774	1136.04167
1951.549	1123.70833
1954.322	1131.375
1957.093	1116.70833
1959.862	1116.375
1962.629	1109.04167
1965.394	1108.04167
1968.157	1088.70833
1970.918	1095.375
1973.678	1091.70833
1976.435	1096.375
1979.19	1080.70833
1981.944	1072.70833
1984.696	1071.70833
1987.445	1068.375
1990.193	1071.375
1992.939	1086.70833
1995.683	1079.04167
1998.425	1046.70833
2001.165	1074.70833
2003.903	1046.70833
2006.639	1060.375
2009.374	1057.70833
2012.106	1059.04167
2014.837	1035.04167
2017.566	1051.375
2020.292	1058.04167
2023.017	1055.04167
2025.74	1061.70833
2028.461	1031.375
2031.18	1038.375
2033.898	1031.70833
2036.613	1036.04167
2039.327	1035.04167
2042.038	1011.375
2044.748	1033.375
2047.456	1032.375
2050.162	1005.70833
2052.866	1017.70833
2055.568	1024.70833
2058.268	1021.04167
2060.967	1026.375
2063.663	1004.375
2066.358	1015.04167
2069.051	1005.70833
2071.742	1017.04167
2074.431	1010.70833
2077.118	1010.04167
2079.804	998.375
2082.487	1016.04167
2085.169	1019.70833
2087.849	1027.04167
2090.527	1021.70833
2093.203	1040.70833
2095.877	1041.375
2098.55	1049.375
2101.22	1064.04167
2103.889	1087.04167
2106.556	1080.375
2109.221	1116.70833
2111.884	1163.70833
2114.546	1251.375
2117.205	1353.375
2119.863	1482.375
2122.519	1561.04167
2125.173	1716.375
2127.825	1806.70833
2130.475	1817.70833
2133.124	1795.70833
2135.771	1709.375
2138.416	1637.70833
2141.059	1543.375
2143.7	1463.04167
2146.339	1370.70833
2148.977	1307.375
2151.613	1255.70833
2154.247	1220.375
2156.879	1197.375
2159.51	1168.70833
2162.138	1162.04167
2164.765	1152.375
2167.39	1119.375
2170.013	1144.04167
2172.634	1131.375
2175.254	1118.70833
2177.872	1128.04167
2180.488	1094.04167
2183.102	1103.375
2185.714	1075.70833
2188.325	1043.70833
2190.934	1055.04167
2193.541	1031.70833
2196.146	1008.375
2198.75	990.70833
2201.351	990.04167
2203.951	973.375
2206.549	974.04167
2209.146	962.04167
2211.74	955.70833
2214.333	937.375
2216.924	911.375
2219.514	925.375
2222.101	898.70833
2224.687	923.04167
2227.271	894.375
2229.853	893.375
2232.433	877.04167
2235.012	890.04167
2237.589	905.04167
2240.164	903.70833
2242.738	896.04167
2245.309	871.04167
2247.879	885.70833
2250.448	884.04167
2253.014	857.70833
2255.579	847.04167
2258.142	840.04167
2260.703	818.375
2263.262	835.04167
2265.82	813.04167
2268.376	827.04167
2270.93	817.70833
2273.483	809.375
2276.033	821.375
2278.583	802.375
2281.13	798.70833
2283.675	779.375
2286.219	786.375
2288.761	784.70833
2291.302	797.70833
2293.841	789.375
2296.377	769.375
2298.913	771.375
2301.446	798.375
2303.978	776.70833
2306.508	773.04167
2309.037	766.04167
2311.563	766.70833
2314.088	781.04167
2316.612	754.70833
2319.133	760.375
2321.653	755.70833
2324.171	743.70833
2326.688	759.375
2329.202	748.70833
2331.715	761.70833
2334.227	749.04167
2336.736	735.70833
2339.244	739.70833
2341.751	725.70833
2344.255	746.04167
2346.758	727.04167
2349.259	730.375
2351.759	726.375
2354.257	726.375
2356.753	728.70833
2359.247	721.70833
2361.74	734.375
2364.231	726.04167
2366.721	733.70833
2369.209	726.70833
2371.695	719.70833
2374.179	708.04167
2376.662	715.70833
2379.143	728.04167
2381.622	714.375
2384.1	722.70833
2386.576	716.375
2389.051	727.70833
2391.524	735.04167
2393.995	714.70833
2396.464	715.375
2398.932	694.04167
2401.398	698.375
2403.863	704.375
2406.325	700.375
2408.787	698.04167
2411.246	695.04167
2413.704	699.04167
2416.16	687.375
2418.615	687.04167
2421.068	695.04167
2423.519	695.70833
2425.969	679.04167
2428.417	693.375
2430.863	713.04167
2433.308	705.375
2435.751	692.70833
2438.193	681.70833
2440.633	692.04167
2443.071	677.04167
2445.508	672.375
2447.943	682.375
2450.376	660.70833
2452.808	673.70833
2455.238	670.04167
2457.667	701.375
2460.093	679.04167
2462.519	660.70833
2464.942	670.70833
2467.365	676.375
2469.785	669.375
2472.204	669.375
2474.621	660.70833
2477.037	688.04167
2479.451	652.375
2481.863	651.04167
2484.274	649.375
2486.683	655.70833
2489.091	655.04167
2491.497	666.04167
2493.901	647.375
2496.304	650.04167
2498.705	658.375
2501.105	648.04167
2503.503	675.375
2505.899	637.04167
2508.294	665.04167
2510.687	643.70833
2513.079	639.04167
2515.469	632.375
2517.858	642.70833
2520.245	658.375
2522.63	644.04167
2525.014	634.70833
2527.396	633.04167
2529.776	641.04167
2532.156	643.70833
2534.533	619.04167
2536.909	633.375
2539.283	625.04167
2541.656	627.70833
2544.027	655.375
2546.397	641.70833
2548.765	632.70833
2551.131	626.04167
2553.496	631.04167
2555.86	639.70833
2558.221	633.375
2560.582	616.70833
2562.94	620.70833
2565.298	627.70833
2567.653	646.375
2570.007	614.375
2572.36	639.375
2574.711	619.375
2577.06	638.04167
2579.408	617.04167
2581.754	635.04167
2584.099	625.70833
2586.442	627.04167
2588.784	634.375
2591.124	623.04167
2593.463	621.375
2595.8	625.04167
2598.135	610.375
2600.469	611.375
2602.802	634.70833
2605.133	637.375
2607.462	611.375
2609.79	600.70833
2612.116	625.70833
2614.441	621.04167
2616.764	612.375
2619.086	625.375
2621.406	609.70833
2623.725	625.375
2626.042	621.70833
2628.358	624.375
2630.672	610.70833
2632.985	631.70833
2635.296	634.70833
2637.606	624.375
2639.914	611.04167
2642.22	613.04167
2644.525	608.04167
2646.829	630.375
2649.131	628.375
2651.432	634.04167
2653.731	621.70833
2656.028	627.70833
2658.324	638.375
2660.619	612.70833
2662.912	649.04167
2665.204	633.375
2667.494	642.70833
2669.782	629.70833
2672.07	640.70833
2674.355	632.375
2676.639	630.70833
2678.922	618.70833
2681.203	647.70833
2683.483	626.70833
2685.761	638.04167
2688.038	641.70833
2690.313	648.70833
2692.587	634.04167
2694.859	637.04167
2697.13	647.04167
2699.399	652.04167
2701.667	656.04167
2703.933	662.70833
2706.198	658.375
2708.461	672.375
2710.723	675.70833
2712.984	673.375
2715.243	677.04167
2717.5	675.70833
2719.757	689.04167
2722.011	667.375
2724.264	695.375
2726.516	707.70833
2728.766	684.375
2731.015	691.375
2733.262	691.04167
2735.508	689.04167
2737.753	684.375
2739.996	673.04167
2742.237	674.04167
2744.477	684.70833
2746.716	677.04167
2748.953	672.375
2751.189	666.04167
2753.423	657.04167
2755.656	654.04167
2757.887	651.70833
2760.117	666.375
2762.346	648.375
2764.573	646.04167
2766.798	647.70833
2769.022	654.375
2771.245	658.70833
2773.467	662.70833
2775.686	670.375
2777.905	671.04167
2780.122	686.70833
2782.337	682.70833
2784.552	678.70833
2786.764	685.04167
2788.976	709.04167
2791.186	703.375
2793.394	717.04167
2795.601	730.04167
2797.807	752.375
2800.011	741.70833
2802.214	766.04167
2804.415	753.70833
2806.615	765.70833
2808.814	788.04167
2811.011	785.70833
2813.206	785.04167
2815.401	810.70833
2817.594	825.70833
2819.785	841.04167
2821.975	830.04167
2824.164	832.70833
2826.351	865.70833
2828.537	890.375
2830.722	909.04167
2832.905	910.375
2835.086	960.375
2837.267	1005.375
2839.445	1016.70833
2841.623	1046.04167
2843.799	1098.04167
2845.974	1157.04167
2848.147	1201.375
2850.319	1224.04167
2852.489	1266.375
2854.659	1279.04167
2856.826	1292.375
2858.993	1323.375
2861.158	1302.375
2863.321	1299.70833
2865.483	1341.70833
2867.644	1342.04167
2869.804	1329.04167
2871.962	1323.04167
2874.118	1319.70833
2876.274	1363.04167
2878.428	1360.04167
2880.58	1328.375
2882.731	1316.375
2884.881	1312.375
2887.03	1308.70833
2889.177	1314.04167
2891.322	1334.04167
2893.467	1314.375
2895.61	1324.70833
2897.751	1339.375
2899.892	1349.375
2902.03	1342.04167
2904.168	1384.375
2906.304	1372.04167
2908.439	1388.04167
2910.572	1357.70833
2912.704	1373.375
2914.835	1382.375
2916.965	1369.70833
2919.093	1387.70833
2921.219	1343.375
2923.345	1360.04167
2925.469	1332.70833
2927.591	1308.70833
2929.712	1265.70833
2931.832	1264.04167
2933.951	1235.70833
2936.068	1213.04167
2938.184	1173.70833
2940.299	1136.70833
2942.412	1104.04167
2944.524	1054.70833
2946.634	1021.04167
2948.744	972.70833
2950.851	1002.375
2952.958	938.375
2955.063	927.70833
2957.167	909.04167
2959.269	861.70833
2961.371	870.70833
2963.471	826.375
2965.569	834.70833
2967.666	796.04167
2969.762	780.375
2971.857	754.04167
2973.95	746.70833
2976.042	724.04167
2978.133	703.04167
2980.222	686.04167
2982.31	653.70833
2984.396	644.70833
2986.482	641.375
2988.566	640.375
2990.648	614.70833
2992.73	614.70833
2994.81	594.70833
2996.889	601.04167
2998.966	589.04167
3001.042	601.04167
3003.117	588.375
3005.191	586.375
3007.263	572.70833
3009.334	562.375
3011.403	560.04167
3013.472	543.04167
3015.539	536.375
3017.604	542.04167
3019.669	510.04167
3021.732	507.70833
3023.794	516.70833
3025.854	500.70833
3027.914	500.70833
3029.971	501.70833
3032.028	496.70833
3034.083	489.04167
3036.137	491.70833
3038.19	472.04167
3040.242	462.375
3042.292	446.04167
3044.341	438.70833
3046.388	458.70833
3048.435	431.04167
3050.48	447.04167
3052.524	434.70833
3054.566	409.375
3056.607	432.04167
3058.647	410.70833
3060.686	410.70833
3062.723	387.375
3064.759	382.70833
3066.794	-1.95833
3068.828	-0.29167
3070.86	-1.625
