-0.839	358.75
3.438	410.75
7.711	122.41667
11.981	50.75
16.247	44.08333
20.509	42.41667
24.768	41.08333
29.024	49.08333
33.276	40.75
37.524	50.08333
41.769	41.08333
46.01	33.08333
50.247	50.75
54.481	62.41667
58.712	66.75
62.939	47.08333
67.162	61.75
71.382	56.75
75.599	44.75
79.812	63.75
84.021	82.08333
88.227	61.41667
92.429	61.75
96.628	51.08333
100.823	66.08333
105.015	73.75
109.204	71.75
113.388	78.41667
117.57	73.75
121.748	90.08333
125.922	78.08333
130.093	94.75
134.261	102.75
138.425	96.41667
142.585	140.41667
146.742	136.08333
150.896	151.41667
155.046	192.41667
159.193	297.08333
163.336	502.41667
167.476	915.08333
171.613	1678.08333
175.746	2821.08333
179.875	4184.08333
184.002	5465.75
188.124	6405.75
192.244	6781.08333
196.36	6803.08333
200.472	6685.75
204.581	6549.75
208.687	6410.75
212.79	6446.41667
216.889	6527.41667
220.984	6659.75
225.077	6756.41667
229.165	6864.08333
233.251	6982.41667
237.333	7060.41667
241.412	7076.08333
245.487	7085.75
249.559	7032.08333
253.628	7017.41667
257.694	6933.08333
261.756	6852.75
265.814	6735.41667
269.87	6559.41667
273.922	6351.75
277.97	6248.08333
282.016	6218.08333
286.058	6152.41667
290.097	6191.75
294.132	6239.08333
298.164	6119.75
302.193	5830.08333
306.219	5366.75
310.241	4893.08333
314.26	4459.08333
318.276	4091.08333
322.288	3808.08333
326.297	3597.08333
330.303	3422.08333
334.305	3311.08333
338.305	3216.75
342.301	3177.08333
346.294	3152.75
350.283	3119.08333
354.269	3089.08333
358.252	3061.08333
362.232	3010.75
366.209	2978.75
370.182	2937.08333
374.152	2944.75
378.119	2942.41667
382.083	2943.08333
386.043	2938.08333
390	2897.08333
393.954	2888.08333
397.905	2873.41667
401.852	2855.08333
405.797	2834.08333
409.738	2791.41667
413.676	2801.41667
417.61	2782.41667
421.542	2763.75
425.47	2736.41667
429.396	2708.41667
433.318	2691.41667
437.236	2682.41667
441.152	2711.75
445.065	2638.08333
448.974	2617.08333
452.88	2607.75
456.783	2583.41667
460.683	2577.41667
464.58	2581.08333
468.473	2598.08333
472.364	2624.41667
476.251	2614.41667
480.135	2631.75
484.016	2658.75
487.894	2668.75
491.769	2675.08333
495.641	2665.41667
499.509	2686.41667
503.375	2669.08333
507.237	2670.41667
511.096	2679.41667
514.952	2755.75
518.805	2781.08333
522.655	2797.75
526.502	2694.75
530.346	2663.41667
534.187	2664.75
538.024	2668.75
541.859	2660.41667
545.69	2699.75
549.519	2676.75
553.344	2666.75
557.166	2624.75
560.985	2590.08333
564.802	2566.41667
568.615	2513.75
572.425	2486.08333
576.232	2478.75
580.036	2462.08333
583.836	2478.41667
587.634	2486.41667
591.429	2464.41667
595.221	2516.41667
599.01	2555.41667
602.796	2574.41667
606.578	2589.08333
610.358	2619.41667
614.135	2576.08333
617.909	2592.75
621.679	2556.41667
625.447	2546.08333
629.212	2572.41667
632.973	2563.75
636.732	2547.08333
640.488	2541.08333
644.241	2521.08333
647.991	2495.08333
651.737	2543.08333
655.481	2505.41667
659.222	2518.08333
662.96	2520.08333
666.695	2550.41667
670.427	2559.75
674.156	2552.41667
677.882	2550.41667
681.605	2542.75
685.325	2504.75
689.043	2515.75
692.757	2497.08333
696.468	2506.75
700.177	2490.75
703.882	2512.08333
707.585	2499.41667
711.284	2488.75
714.981	2505.75
718.675	2503.75
722.366	2518.08333
726.054	2508.75
729.739	2481.08333
733.421	2512.41667
737.1	2502.75
740.777	2532.08333
744.45	2536.08333
748.121	2557.75
751.789	2615.41667
755.453	2571.41667
759.115	2615.08333
762.774	2635.41667
766.431	2675.75
770.084	2690.08333
773.734	2704.75
777.382	2756.08333
781.027	2813.08333
784.669	2791.08333
788.308	2812.08333
791.944	2824.75
795.577	2880.08333
799.208	2889.08333
802.835	2911.41667
806.46	2940.75
810.082	2966.41667
813.701	2963.75
817.317	2977.75
820.931	3004.08333
824.542	2969.75
828.149	2931.08333
831.754	2924.41667
835.357	2903.75
838.956	2907.41667
842.553	2898.41667
846.146	2861.75
849.737	2857.75
853.326	2838.08333
856.911	2872.41667
860.493	2909.08333
864.073	2932.41667
867.65	2981.41667
871.225	3022.08333
874.796	3054.08333
878.365	3040.41667
881.931	3045.41667
885.494	3064.08333
889.054	3078.08333
892.612	3063.41667
896.166	3031.75
899.719	2992.41667
903.268	2988.41667
906.814	2974.75
910.358	2947.75
913.899	2941.41667
917.438	2942.41667
920.973	2942.08333
924.506	2983.41667
928.036	3033.75
931.564	3076.41667
935.088	3081.75
938.61	3093.08333
942.129	3142.75
945.646	3199.08333
949.16	3279.75
952.671	3371.75
956.179	3389.08333
959.685	3381.08333
963.188	3357.41667
966.688	3313.08333
970.185	3211.75
973.68	3158.75
977.173	3112.41667
980.662	3082.75
984.149	3062.08333
987.633	3057.41667
991.114	3129.41667
994.593	3169.41667
998.069	3281.75
1001.542	3362.75
1005.013	3285.41667
1008.481	3122.75
1011.947	3049.08333
1015.409	3061.08333
1018.869	3062.75
1022.327	3050.08333
1025.782	3030.75
1029.234	3042.08333
1032.683	2992.08333
1036.13	2875.08333
1039.574	2785.41667
1043.016	2738.41667
1046.455	2670.08333
1049.891	2623.75
1053.325	2630.08333
1056.756	2639.75
1060.184	2660.08333
1063.61	2695.08333
1067.033	2702.08333
1070.454	2701.75
1073.872	2721.75
1077.287	2750.41667
1080.7	2747.08333
1084.11	2751.75
1087.517	2745.08333
1090.922	2680.08333
1094.325	2646.75
1097.724	2643.75
1101.122	2615.41667
1104.516	2631.08333
1107.908	2625.41667
1111.298	2673.41667
1114.684	2707.08333
1118.069	2732.41667
1121.45	2742.41667
1124.83	2729.08333
1128.206	2770.08333
1131.58	2819.08333
1134.951	2899.08333
1138.32	2978.41667
1141.687	3113.41667
1145.05	3199.08333
1148.412	3188.08333
1151.77	3174.08333
1155.126	3197.08333
1158.48	3192.08333
1161.831	3210.75
1165.18	3259.41667
1168.525	3275.08333
1171.869	3341.08333
1175.21	3344.08333
1178.548	3422.08333
1181.884	3445.08333
1185.217	3461.75
1188.548	3552.75
1191.877	3626.75
1195.202	3704.41667
1198.526	3776.08333
1201.846	3788.08333
1205.165	3784.75
1208.48	3728.75
1211.794	3705.08333
1215.104	3717.41667
1218.413	3718.08333
1221.719	3738.41667
1225.022	3697.75
1228.323	3640.41667
1231.621	3612.75
1234.917	3595.41667
1238.21	3608.41667
1241.501	3612.08333
1244.79	3616.41667
1248.076	3583.41667
1251.359	3637.08333
1254.64	3698.41667
1257.919	3723.75
1261.195	3801.08333
1264.468	3837.41667
1267.74	3897.41667
1271.008	3872.41667
1274.275	3886.41667
1277.538	3864.41667
1280.8	3821.41667
1284.059	3853.08333
1287.315	3896.08333
1290.569	3925.08333
1293.821	3948.75
1297.07	3940.41667
1300.317	3964.75
1303.562	3945.08333
1306.803	3913.08333
1310.043	3890.41667
1313.28	3848.41667
1316.515	3792.75
1319.747	3782.08333
1322.977	3721.75
1326.204	3650.41667
1329.429	3600.08333
1332.652	3593.41667
1335.872	3565.75
1339.09	3554.41667
1342.306	3545.41667
1345.519	3505.75
1348.729	3483.41667
1351.938	3463.75
1355.144	3395.75
1358.347	3374.41667
1361.548	3327.41667
1364.747	3390.08333
1367.944	3388.75
1371.138	3370.75
1374.329	3390.08333
1377.518	3442.08333
1380.705	3493.08333
1383.89	3448.75
1387.072	3357.41667
1390.252	3210.08333
1393.429	3134.75
1396.605	3019.75
1399.777	2941.41667
1402.948	2905.41667
1406.116	2895.08333
1409.282	2899.75
1412.445	2883.08333
1415.606	2928.75
1418.765	2985.75
1421.921	3037.75
1425.075	3105.08333
1428.227	3228.41667
1431.376	3338.41667
1434.524	3481.08333
1437.668	3549.08333
1440.811	3573.41667
1443.951	3600.75
1447.089	3610.75
1450.224	3612.75
1453.357	3602.75
1456.488	3564.75
1459.617	3488.75
1462.743	3490.08333
1465.867	3409.75
1468.989	3378.75
1472.108	3308.08333
1475.225	3261.08333
1478.34	3255.08333
1481.453	3250.08333
1484.563	3236.08333
1487.671	3268.75
1490.776	3342.75
1493.88	3395.75
1496.981	3497.41667
1500.08	3528.75
1503.176	3603.41667
1506.271	3691.41667
1509.363	3732.41667
1512.452	3783.08333
1515.54	3813.41667
1518.625	3893.41667
1521.708	4046.75
1524.789	4247.08333
1527.867	4470.41667
1530.944	4704.08333
1534.018	4912.08333
1537.089	5103.41667
1540.159	5049.08333
1543.226	4984.75
1546.291	4852.08333
1549.354	4714.08333
1552.415	4582.08333
1555.473	4443.75
1558.529	4373.08333
1561.583	4311.41667
1564.634	4261.08333
1567.684	4268.08333
1570.731	4275.75
1573.776	4296.41667
1576.819	4363.41667
1579.859	4393.75
1582.898	4438.75
1585.934	4465.75
1588.968	4469.08333
1591.999	4460.08333
1595.029	4464.41667
1598.056	4460.41667
1601.081	4487.08333
1604.104	4474.08333
1607.125	4421.75
1610.144	4321.75
1613.16	4215.41667
1616.174	4102.75
1619.186	3996.75
1622.196	3887.08333
1625.203	3789.75
1628.209	3715.75
1631.212	3688.75
1634.213	3676.75
1637.212	3681.75
1640.209	3609.08333
1643.203	3510.75
1646.196	3417.41667
1649.186	3286.41667
1652.174	3175.75
1655.16	3089.75
1658.144	2987.75
1661.125	2833.75
1664.105	2707.08333
1667.082	2573.41667
1670.057	2447.41667
1673.03	2298.41667
1676.001	2141.41667
1678.97	2019.08333
1681.937	1894.08333
1684.901	1794.08333
1687.863	1735.41667
1690.824	1663.75
1693.782	1613.08333
1696.738	1565.41667
1699.692	1540.41667
1702.643	1523.75
1705.593	1489.75
1708.54	1469.08333
1711.486	1470.75
1714.429	1422.08333
1717.37	1418.41667
1720.309	1402.41667
1723.246	1403.08333
1726.181	1355.41667
1729.113	1359.08333
1732.044	1355.41667
1734.972	1331.75
1737.899	1341.41667
1740.823	1328.41667
1743.745	1317.08333
1746.665	1280.08333
1749.583	1267.08333
1752.499	1237.08333
1755.413	1231.75
1758.325	1198.41667
1761.235	1192.08333
1764.142	1178.08333
1767.048	1169.08333
1769.951	1152.08333
1772.852	1156.41667
1775.752	1137.75
1778.649	1144.75
1781.544	1139.08333
1784.437	1115.75
1787.328	1139.41667
1790.217	1108.75
1793.104	1087.75
1795.989	1085.08333
1798.872	1080.75
1801.753	1109.75
1804.631	1092.75
1807.508	1090.08333
1810.383	1083.75
1813.255	1084.08333
1816.126	1072.08333
1818.994	1062.75
1821.861	1044.75
1824.725	1068.08333
1827.587	1061.08333
1830.448	1038.08333
1833.306	1026.08333
1836.162	1061.75
1839.017	1017.08333
1841.869	1028.41667
1844.719	1018.08333
1847.567	1016.75
1850.414	999.41667
1853.258	994.41667
1856.1	1018.08333
1858.94	1019.75
1861.778	1001.75
1864.614	1014.08333
1867.448	1013.41667
1870.28	993.41667
1873.111	1021.41667
1875.939	1008.75
1878.765	1016.75
1881.589	994.75
1884.411	991.41667
1887.231	1008.41667
1890.049	996.41667
1892.865	993.41667
1895.68	974.08333
1898.492	975.41667
1901.302	965.41667
1904.11	981.08333
1906.916	954.41667
1909.721	959.75
1912.523	955.41667
1915.323	958.75
1918.122	958.41667
1920.918	953.08333
1923.712	955.08333
1926.505	950.08333
1929.295	936.08333
1932.084	961.75
1934.87	945.08333
1937.655	932.75
1940.438	936.08333
1943.218	936.75
1945.997	958.41667
1948.774	951.75
1951.549	953.08333
1954.322	935.75
1957.093	939.08333
1959.862	920.08333
1962.629	921.41667
1965.394	919.75
1968.157	914.41667
1970.918	924.75
1973.678	903.41667
1976.435	910.75
1979.19	901.75
1981.944	891.08333
1984.696	906.41667
1987.445	898.75
1990.193	889.75
1992.939	912.75
1995.683	890.41667
1998.425	882.08333
2001.165	909.75
2003.903	887.75
2006.639	884.08333
2009.374	876.75
2012.106	889.75
2014.837	860.08333
2017.566	885.41667
2020.292	882.08333
2023.017	878.41667
2025.74	873.75
2028.461	857.75
2031.18	875.75
2033.898	870.75
2036.613	861.08333
2039.327	881.08333
2042.038	843.75
2044.748	854.75
2047.456	858.41667
2050.162	841.41667
2052.866	841.08333
2055.568	855.08333
2058.268	842.08333
2060.967	854.41667
2063.663	821.08333
2066.358	848.08333
2069.051	833.41667
2071.742	849.08333
2074.431	850.08333
2077.118	837.75
2079.804	839.41667
2082.487	847.41667
2085.169	861.75
2087.849	865.75
2090.527	846.08333
2093.203	860.08333
2095.877	854.08333
2098.55	862.75
2101.22	876.75
2103.889	876.75
2106.556	882.41667
2109.221	926.75
2111.884	926.41667
2114.546	999.08333
2117.205	1051.75
2119.863	1143.41667
2122.519	1204.75
2125.173	1277.08333
2127.825	1363.08333
2130.475	1377.75
2133.124	1344.75
2135.771	1295.75
2138.416	1273.75
2141.059	1193.75
2143.7	1134.08333
2146.339	1068.08333
2148.977	1010.75
2151.613	1035.41667
2154.247	970.75
2156.879	967.08333
2159.51	932.41667
2162.138	913.08333
2164.765	910.41667
2167.39	901.75
2170.013	912.75
2172.634	899.08333
2175.254	882.41667
2177.872	908.08333
2180.488	867.75
2183.102	866.75
2185.714	856.08333
2188.325	838.41667
2190.934	842.08333
2193.541	834.41667
2196.146	813.08333
2198.75	805.08333
2201.351	801.75
2203.951	788.41667
2206.549	801.41667
2209.146	778.41667
2211.74	777.08333
2214.333	785.75
2216.924	760.08333
2219.514	769.08333
2222.101	750.75
2224.687	771.75
2227.271	753.08333
2229.853	741.41667
2232.433	730.41667
2235.012	745.75
2237.589	744.08333
2240.164	752.08333
2242.738	747.08333
2245.309	720.41667
2247.879	724.41667
2250.448	743.75
2253.014	707.08333
2255.579	706.08333
2258.142	701.41667
2260.703	690.41667
2263.262	688.75
2265.82	690.41667
2268.376	690.08333
2270.93	685.41667
2273.483	674.08333
2276.033	674.41667
2278.583	676.75
2281.13	671.75
2283.675	669.75
2286.219	665.41667
2288.761	666.08333
2291.302	674.41667
2293.841	678.08333
2296.377	649.41667
2298.913	650.75
2301.446	659.41667
2303.978	655.08333
2306.508	657.41667
2309.037	652.08333
2311.563	657.41667
2314.088	659.75
2316.612	638.08333
2319.133	649.75
2321.653	641.08333
2324.171	632.75
2326.688	642.41667
2329.202	637.75
2331.715	643.08333
2334.227	628.41667
2336.736	630.08333
2339.244	625.75
2341.751	629.75
2344.255	634.08333
2346.758	632.08333
2349.259	622.75
2351.759	610.75
2354.257	619.41667
2356.753	613.41667
2359.247	617.08333
2361.74	624.08333
2364.231	605.75
2366.721	625.08333
2369.209	615.41667
2371.695	609.75
2374.179	612.75
2376.662	612.41667
2379.143	625.08333
2381.622	612.75
2384.1	617.41667
2386.576	602.08333
2389.051	615.08333
2391.524	615.75
2393.995	621.08333
2396.464	603.75
2398.932	596.08333
2401.398	610.75
2403.863	596.08333
2406.325	601.08333
2408.787	587.75
2411.246	592.41667
2413.704	595.08333
2416.16	587.75
2418.615	602.41667
2421.068	603.08333
2423.519	592.75
2425.969	592.75
2428.417	593.41667
2430.863	611.41667
2433.308	597.41667
2435.751	601.08333
2438.193	596.08333
2440.633	596.75
2443.071	587.75
2445.508	585.75
2447.943	580.75
2450.376	577.08333
2452.808	590.41667
2455.238	579.41667
2457.667	613.75
2460.093	583.41667
2462.519	564.75
2464.942	574.08333
2467.365	588.75
2469.785	582.08333
2472.204	577.41667
2474.621	570.75
2477.037	598.75
2479.451	552.41667
2481.863	564.41667
2484.274	558.08333
2486.683	576.75
2489.091	582.08333
2491.497	573.41667
2493.901	572.75
2496.304	569.41667
2498.705	573.08333
2501.105	565.41667
2503.503	599.08333
2505.899	554.75
2508.294	588.08333
2510.687	552.75
2513.079	549.41667
2515.469	551.08333
2517.858	555.75
2520.245	569.75
2522.63	560.41667
2525.014	563.41667
2527.396	556.41667
2529.776	547.08333
2532.156	569.08333
2534.533	543.08333
2536.909	556.41667
2539.283	545.41667
2541.656	550.41667
2544.027	567.08333
2546.397	557.75
2548.765	548.75
2551.131	554.41667
2553.496	544.41667
2555.86	557.75
2558.221	550.75
2560.582	552.75
2562.94	539.08333
2565.298	554.08333
2567.653	568.41667
2570.007	538.41667
2572.36	554.08333
2574.711	553.08333
2577.06	568.08333
2579.408	551.75
2581.754	548.41667
2584.099	559.41667
2586.442	552.41667
2588.784	552.75
2591.124	550.08333
2593.463	541.75
2595.8	553.41667
2598.135	540.08333
2600.469	545.41667
2602.802	557.41667
2605.133	560.41667
2607.462	541.41667
2609.79	543.75
2612.116	549.41667
2614.441	544.41667
2616.764	549.75
2619.086	558.08333
2621.406	542.08333
2623.725	577.08333
2626.042	550.75
2628.358	551.41667
2630.672	544.75
2632.985	564.08333
2635.296	559.75
2637.606	554.08333
2639.914	531.41667
2642.22	546.41667
2644.525	549.75
2646.829	554.41667
2649.131	565.41667
2651.432	563.41667
2653.731	561.75
2656.028	577.41667
2658.324	570.75
2660.619	551.75
2662.912	562.08333
2665.204	560.08333
2667.494	582.41667
2669.782	559.08333
2672.07	580.08333
2674.355	572.41667
2676.639	556.41667
2678.922	568.08333
2681.203	574.41667
2683.483	549.08333
2685.761	556.75
2688.038	571.41667
2690.313	586.41667
2692.587	570.75
2694.859	566.41667
2697.13	574.08333
2699.399	588.08333
2701.667	590.08333
2703.933	598.75
2706.198	595.75
2708.461	599.41667
2710.723	606.75
2712.984	604.75
2715.243	613.08333
2717.5	607.75
2719.757	622.75
2722.011	613.41667
2724.264	626.08333
2726.516	635.08333
2728.766	608.41667
2731.015	623.75
2733.262	624.75
2735.508	620.41667
2737.753	610.41667
2739.996	598.41667
2742.237	602.41667
2744.477	617.41667
2746.716	609.75
2748.953	595.75
2751.189	605.75
2753.423	601.41667
2755.656	602.75
2757.887	596.75
2760.117	598.41667
2762.346	592.41667
2764.573	585.75
2766.798	604.41667
2769.022	592.08333
2771.245	601.08333
2773.467	602.08333
2775.686	600.75
2777.905	615.41667
2780.122	623.08333
2782.337	611.08333
2784.552	618.41667
2786.764	625.75
2788.976	634.75
2791.186	641.75
2793.394	640.75
2795.601	652.08333
2797.807	659.41667
2800.011	664.41667
2802.214	680.75
2804.415	675.08333
2806.615	692.75
2808.814	697.41667
2811.011	712.08333
2813.206	701.75
2815.401	728.41667
2817.594	727.08333
2819.785	736.08333
2821.975	733.08333
2824.164	735.41667
2826.351	754.75
2828.537	804.75
2830.722	796.75
2832.905	799.75
2835.086	823.41667
2837.267	877.41667
2839.445	896.08333
2841.623	916.75
2843.799	950.41667
2845.974	989.08333
2848.147	1019.08333
2850.319	1043.41667
2852.489	1070.41667
2854.659	1080.41667
2856.826	1097.75
2858.993	1128.75
2861.158	1106.08333
2863.321	1102.75
2865.483	1128.08333
2867.644	1141.08333
2869.804	1122.41667
2871.962	1123.41667
2874.118	1121.75
2876.274	1120.41667
2878.428	1109.41667
2880.58	1114.41667
2882.731	1088.08333
2884.881	1098.41667
2887.03	1109.08333
2889.177	1094.08333
2891.322	1123.08333
2893.467	1104.08333
2895.61	1096.75
2897.751	1136.75
2899.892	1130.75
2902.03	1142.41667
2904.168	1150.08333
2906.304	1157.75
2908.439	1171.08333
2910.572	1148.75
2912.704	1162.08333
2914.835	1169.08333
2916.965	1154.75
2919.093	1165.08333
2921.219	1131.41667
2923.345	1157.75
2925.469	1123.41667
2927.591	1113.41667
2929.712	1096.75
2931.832	1071.08333
2933.951	1051.08333
2936.068	1030.08333
2938.184	992.08333
2940.299	975.75
2942.412	960.41667
2944.524	910.08333
2946.634	895.08333
2948.744	846.08333
2950.851	865.41667
2952.958	812.41667
2955.063	806.08333
2957.167	806.75
2959.269	766.08333
2961.371	773.41667
2963.471	733.08333
2965.569	739.08333
2967.666	710.75
2969.762	702.08333
2971.857	686.08333
2973.95	661.41667
2976.042	669.41667
2978.133	637.75
2980.222	628.41667
2982.31	606.41667
2984.396	603.41667
2986.482	597.41667
2988.566	597.41667
2990.648	582.75
2992.73	572.08333
2994.81	555.41667
2996.889	568.08333
2998.966	564.08333
3001.042	550.75
3003.117	559.41667
3005.191	556.75
3007.263	539.75
3009.334	548.75
3011.403	528.41667
3013.472	521.08333
3015.539	507.08333
3017.604	522.75
3019.669	483.75
3021.732	494.75
3023.794	488.41667
3025.854	482.75
3027.914	485.08333
3029.971	483.41667
3032.028	478.75
3034.083	484.75
3036.137	469.41667
3038.19	459.41667
3040.242	447.41667
3042.292	436.08333
3044.341	436.41667
3046.388	449.08333
3048.435	413.75
3050.48	432.75
3052.524	417.75
3054.566	413.08333
3056.607	430.08333
3058.647	414.75
3060.686	389.41667
3062.723	379.75
3064.759	368.75
3066.794	0.41667
3068.828	-1.58333
3070.86	-1.91667
