-0.839	363.875
3.438	408.20833
7.711	129.20833
11.981	52.54167
16.247	43.875
20.509	42.875
24.768	40.875
29.024	47.20833
33.276	44.875
37.524	49.875
41.769	43.20833
46.01	37.54167
50.247	54.875
54.481	57.54167
58.712	67.875
62.939	51.20833
67.162	62.20833
71.382	53.54167
75.599	44.875
79.812	64.54167
84.021	78.875
88.227	58.54167
92.429	65.54167
96.628	44.875
100.823	67.54167
105.015	74.875
109.204	76.20833
113.388	74.20833
117.57	73.54167
121.748	85.54167
125.922	78.875
130.093	98.54167
134.261	103.20833
138.425	94.875
142.585	138.54167
146.742	134.20833
150.896	154.20833
155.046	191.875
159.193	297.20833
163.336	504.54167
167.476	911.20833
171.613	1679.875
175.746	2798.20833
179.875	4190.54167
184.002	5527.875
188.124	6422.54167
192.244	6825.875
196.36	6815.54167
200.472	6695.875
204.581	6576.20833
208.687	6459.54167
212.79	6482.875
216.889	6548.875
220.984	6679.20833
225.077	6828.875
229.165	6923.20833
233.251	7032.20833
237.333	7108.20833
241.412	7148.875
245.487	7140.20833
249.559	7091.875
253.628	7046.54167
257.694	6987.20833
261.756	6932.20833
265.814	6799.875
269.87	6624.54167
273.922	6419.54167
277.97	6308.54167
282.016	6256.20833
286.058	6198.20833
290.097	6223.54167
294.132	6237.875
298.164	6133.875
302.193	5843.875
306.219	5409.54167
310.241	4929.20833
314.26	4491.20833
318.276	4129.20833
322.288	3850.20833
326.297	3622.54167
330.303	3469.875
334.305	3361.54167
338.305	3290.54167
342.301	3234.54167
346.294	3195.20833
350.283	3171.875
354.269	3123.54167
358.252	3097.875
362.232	3066.54167
366.209	3061.875
370.182	3042.20833
374.152	2996.54167
378.119	3013.875
382.083	3007.875
386.043	3025.54167
390	2970.875
393.954	2958.54167
397.905	2917.20833
401.852	2950.54167
405.797	2898.875
409.738	2854.54167
413.676	2856.54167
417.61	2850.54167
421.542	2805.54167
425.47	2809.875
429.396	2784.875
433.318	2761.875
437.236	2762.20833
441.152	2763.875
445.065	2711.54167
448.974	2700.54167
452.88	2687.54167
456.783	2657.54167
460.683	2646.54167
464.58	2652.54167
468.473	2662.54167
472.364	2679.875
476.251	2685.20833
480.135	2692.20833
484.016	2725.875
487.894	2751.875
491.769	2741.875
495.641	2760.20833
499.509	2742.875
503.375	2764.20833
507.237	2745.54167
511.096	2745.875
514.952	2804.20833
518.805	2829.54167
522.655	2876.20833
526.502	2755.875
530.346	2734.54167
534.187	2716.54167
538.024	2737.875
541.859	2728.875
545.69	2761.20833
549.519	2735.20833
553.344	2717.54167
557.166	2661.875
560.985	2648.20833
564.802	2622.20833
568.615	2569.20833
572.425	2547.54167
576.232	2536.54167
580.036	2521.20833
583.836	2537.54167
587.634	2541.54167
591.429	2535.54167
595.221	2560.875
599.01	2622.54167
602.796	2642.20833
606.578	2668.20833
610.358	2673.875
614.135	2654.54167
617.909	2625.54167
621.679	2626.54167
625.447	2611.875
629.212	2623.875
632.973	2636.875
636.732	2621.875
640.488	2605.54167
644.241	2564.54167
647.991	2581.20833
651.737	2609.54167
655.481	2589.875
659.222	2614.875
662.96	2607.20833
666.695	2609.54167
670.427	2633.20833
674.156	2624.20833
677.882	2621.20833
681.605	2614.20833
685.325	2564.875
689.043	2585.20833
692.757	2580.875
696.468	2582.875
700.177	2565.54167
703.882	2551.875
707.585	2558.54167
711.284	2540.54167
714.981	2562.875
718.675	2587.20833
722.366	2611.875
726.054	2548.54167
729.739	2566.875
733.421	2575.875
737.1	2550.54167
740.777	2576.875
744.45	2593.875
748.121	2618.54167
751.789	2656.875
755.453	2656.875
759.115	2665.20833
762.774	2690.875
766.431	2715.875
770.084	2756.54167
773.734	2765.875
777.382	2831.54167
781.027	2846.20833
784.669	2866.875
788.308	2859.875
791.944	2918.54167
795.577	2938.54167
799.208	2967.20833
802.835	2973.54167
806.46	2996.54167
810.082	3001.875
813.701	3043.20833
817.317	3061.54167
820.931	3061.54167
824.542	3048.875
828.149	2984.20833
831.754	2977.20833
835.357	2927.20833
838.956	2944.875
842.553	2937.875
846.146	2904.54167
849.737	2874.875
853.326	2915.54167
856.911	2891.54167
860.493	2935.875
864.073	2961.20833
867.65	3010.875
871.225	3044.875
874.796	3029.875
878.365	3050.875
881.931	3041.20833
885.494	3071.20833
889.054	3082.875
892.612	3084.20833
896.166	3060.54167
899.719	3035.54167
903.268	3008.54167
906.814	2968.20833
910.358	2985.875
913.899	2969.20833
917.438	2994.20833
920.973	2991.20833
924.506	3040.875
928.036	3055.54167
931.564	3095.54167
935.088	3123.20833
938.61	3149.20833
942.129	3145.20833
945.646	3237.54167
949.16	3328.54167
952.671	3400.875
956.179	3437.875
959.685	3413.20833
963.188	3410.875
966.688	3371.54167
970.185	3276.875
973.68	3179.875
977.173	3144.54167
980.662	3118.20833
984.149	3113.875
987.633	3115.54167
991.114	3155.20833
994.593	3238.875
998.069	3327.54167
1001.542	3418.20833
1005.013	3344.875
1008.481	3184.875
1011.947	3114.20833
1015.409	3071.54167
1018.869	3102.875
1022.327	3072.20833
1025.782	3081.20833
1029.234	3084.54167
1032.683	3025.875
1036.13	2942.20833
1039.574	2820.20833
1043.016	2745.20833
1046.455	2705.875
1049.891	2676.20833
1053.325	2690.875
1056.756	2692.20833
1060.184	2717.875
1063.61	2714.54167
1067.033	2717.20833
1070.454	2724.875
1073.872	2759.20833
1077.287	2792.20833
1080.7	2784.54167
1084.11	2808.54167
1087.517	2796.875
1090.922	2733.20833
1094.325	2712.875
1097.724	2657.54167
1101.122	2688.875
1104.516	2641.54167
1107.908	2663.875
1111.298	2691.54167
1114.684	2746.54167
1118.069	2763.20833
1121.45	2785.20833
1124.83	2769.875
1128.206	2809.54167
1131.58	2863.20833
1134.951	2922.20833
1138.32	3008.20833
1141.687	3120.20833
1145.05	3197.20833
1148.412	3205.20833
1151.77	3189.875
1155.126	3200.20833
1158.48	3199.54167
1161.831	3210.875
1165.18	3225.20833
1168.525	3280.54167
1171.869	3323.54167
1175.21	3343.20833
1178.548	3401.20833
1181.884	3455.875
1185.217	3509.20833
1188.548	3538.54167
1191.877	3601.20833
1195.202	3686.54167
1198.526	3772.20833
1201.846	3770.875
1205.165	3759.20833
1208.48	3765.875
1211.794	3739.20833
1215.104	3753.54167
1218.413	3763.20833
1221.719	3724.20833
1225.022	3682.875
1228.323	3650.875
1231.621	3610.20833
1234.917	3592.20833
1238.21	3616.20833
1241.501	3606.20833
1244.79	3613.54167
1248.076	3629.54167
1251.359	3662.20833
1254.64	3714.54167
1257.919	3729.875
1261.195	3795.54167
1264.468	3827.54167
1267.74	3916.54167
1271.008	3915.875
1274.275	3882.54167
1277.538	3857.54167
1280.8	3865.875
1284.059	3866.20833
1287.315	3902.875
1290.569	3918.20833
1293.821	3963.54167
1297.07	3963.54167
1300.317	3985.875
1303.562	3968.875
1306.803	3926.875
1310.043	3901.54167
1313.28	3854.20833
1316.515	3815.54167
1319.747	3773.20833
1322.977	3738.875
1326.204	3688.20833
1329.429	3640.875
1332.652	3640.20833
1335.872	3627.20833
1339.09	3607.54167
1342.306	3586.20833
1345.519	3556.20833
1348.729	3524.875
1351.938	3544.20833
1355.144	3459.54167
1358.347	3403.54167
1361.548	3408.875
1364.747	3434.54167
1367.944	3398.20833
1371.138	3442.54167
1374.329	3452.54167
1377.518	3448.20833
1380.705	3496.875
1383.89	3477.875
1387.072	3374.875
1390.252	3228.875
1393.429	3122.875
1396.605	3048.20833
1399.777	2952.20833
1402.948	2959.875
1406.116	2900.20833
1409.282	2900.875
1412.445	2930.54167
1415.606	2966.54167
1418.765	3002.20833
1421.921	3063.875
1425.075	3129.54167
1428.227	3232.54167
1431.376	3367.20833
1434.524	3506.875
1437.668	3579.54167
1440.811	3592.875
1443.951	3641.54167
1447.089	3639.875
1450.224	3623.875
1453.357	3639.54167
1456.488	3613.875
1459.617	3519.875
1462.743	3502.875
1465.867	3417.20833
1468.989	3387.54167
1472.108	3338.54167
1475.225	3301.20833
1478.34	3253.20833
1481.453	3252.20833
1484.563	3258.875
1487.671	3304.875
1490.776	3343.875
1493.88	3406.54167
1496.981	3472.875
1500.08	3524.875
1503.176	3599.875
1506.271	3628.54167
1509.363	3721.20833
1512.452	3740.54167
1515.54	3803.875
1518.625	3902.54167
1521.708	4034.875
1524.789	4204.54167
1527.867	4459.875
1530.944	4716.54167
1534.018	4924.54167
1537.089	5056.20833
1540.159	5074.20833
1543.226	4971.875
1546.291	4812.54167
1549.354	4686.20833
1552.415	4531.875
1555.473	4427.875
1558.529	4307.875
1561.583	4310.20833
1564.634	4248.20833
1567.684	4226.875
1570.731	4250.54167
1573.776	4260.54167
1576.819	4313.20833
1579.859	4362.875
1582.898	4399.875
1585.934	4436.54167
1588.968	4437.54167
1591.999	4435.875
1595.029	4444.875
1598.056	4471.54167
1601.081	4467.54167
1604.104	4460.875
1607.125	4438.875
1610.144	4293.875
1613.16	4185.54167
1616.174	4119.20833
1619.186	3992.54167
1622.196	3904.20833
1625.203	3803.20833
1628.209	3781.875
1631.212	3740.875
1634.213	3754.875
1637.212	3763.20833
1640.209	3709.20833
1643.203	3624.54167
1646.196	3519.54167
1649.186	3340.54167
1652.174	3265.54167
1655.16	3176.20833
1658.144	3082.875
1661.125	2926.20833
1664.105	2758.20833
1667.082	2639.20833
1670.057	2474.54167
1673.03	2331.875
1676.001	2165.20833
1678.97	2070.20833
1681.937	1930.54167
1684.901	1812.875
1687.863	1759.20833
1690.824	1672.875
1693.782	1653.875
1696.738	1584.875
1699.692	1572.20833
1702.643	1538.20833
1705.593	1481.20833
1708.54	1484.54167
1711.486	1471.875
1714.429	1456.54167
1717.37	1450.875
1720.309	1418.875
1723.246	1428.54167
1726.181	1388.20833
1729.113	1391.54167
1732.044	1374.54167
1734.972	1357.875
1737.899	1359.20833
1740.823	1350.20833
1743.745	1362.20833
1746.665	1312.54167
1749.583	1282.54167
1752.499	1273.54167
1755.413	1260.20833
1758.325	1224.20833
1761.235	1229.54167
1764.142	1178.54167
1767.048	1183.54167
1769.951	1180.54167
1772.852	1172.54167
1775.752	1164.20833
1778.649	1158.20833
1781.544	1173.20833
1784.437	1136.54167
1787.328	1144.20833
1790.217	1138.54167
1793.104	1118.54167
1795.989	1107.875
1798.872	1107.875
1801.753	1133.875
1804.631	1132.875
1807.508	1115.20833
1810.383	1109.20833
1813.255	1111.20833
1816.126	1105.54167
1818.994	1086.54167
1821.861	1081.54167
1824.725	1069.875
1827.587	1087.20833
1830.448	1082.54167
1833.306	1047.875
1836.162	1059.20833
1839.017	1042.875
1841.869	1048.54167
1844.719	1047.20833
1847.567	1037.20833
1850.414	1020.875
1853.258	1024.20833
1856.1	1035.20833
1858.94	1052.54167
1861.778	1033.20833
1864.614	1019.54167
1867.448	1040.54167
1870.28	1017.54167
1873.111	1041.20833
1875.939	1021.875
1878.765	1044.875
1881.589	1013.20833
1884.411	1023.20833
1887.231	1025.20833
1890.049	1016.875
1892.865	1001.54167
1895.68	999.20833
1898.492	1006.875
1901.302	998.20833
1904.11	993.20833
1906.916	979.875
1909.721	984.54167
1912.523	981.875
1915.323	959.20833
1918.122	966.875
1920.918	976.20833
1923.712	966.20833
1926.505	974.54167
1929.295	952.20833
1932.084	965.54167
1934.87	972.875
1937.655	953.875
1940.438	955.20833
1943.218	965.54167
1945.997	972.54167
1948.774	973.875
1951.549	973.875
1954.322	944.54167
1957.093	943.875
1959.862	952.20833
1962.629	955.54167
1965.394	931.20833
1968.157	913.20833
1970.918	930.54167
1973.678	923.54167
1976.435	931.20833
1979.19	924.875
1981.944	908.875
1984.696	908.875
1987.445	898.54167
1990.193	911.54167
1992.939	923.54167
1995.683	911.875
1998.425	900.20833
2001.165	934.20833
2003.903	902.20833
2006.639	904.875
2009.374	907.20833
2012.106	903.54167
2014.837	885.875
2017.566	893.20833
2020.292	894.20833
2023.017	888.20833
2025.74	896.875
2028.461	873.875
2031.18	896.875
2033.898	895.54167
2036.613	884.20833
2039.327	894.875
2042.038	857.20833
2044.748	879.54167
2047.456	877.875
2050.162	858.875
2052.866	866.20833
2055.568	870.20833
2058.268	863.875
2060.967	858.20833
2063.663	851.54167
2066.358	861.54167
2069.051	849.54167
2071.742	860.875
2074.431	868.20833
2077.118	857.20833
2079.804	849.875
2082.487	853.54167
2085.169	880.875
2087.849	879.20833
2090.527	861.54167
2093.203	874.20833
2095.877	869.875
2098.55	877.54167
2101.22	891.20833
2103.889	903.20833
2106.556	895.20833
2109.221	926.20833
2111.884	949.20833
2114.546	1009.875
2117.205	1061.20833
2119.863	1151.875
2122.519	1209.20833
2125.173	1278.20833
2127.825	1370.875
2130.475	1387.54167
2133.124	1336.54167
2135.771	1296.54167
2138.416	1261.20833
2141.059	1192.875
2143.7	1167.20833
2146.339	1083.20833
2148.977	1023.54167
2151.613	1015.20833
2154.247	995.20833
2156.879	961.875
2159.51	929.54167
2162.138	922.54167
2164.765	919.54167
2167.39	905.875
2170.013	916.875
2172.634	923.20833
2175.254	894.20833
2177.872	916.875
2180.488	881.875
2183.102	888.54167
2185.714	865.54167
2188.325	847.54167
2190.934	849.54167
2193.541	847.875
2196.146	829.875
2198.75	809.20833
2201.351	818.20833
2203.951	785.875
2206.549	809.20833
2209.146	798.54167
2211.74	785.875
2214.333	789.54167
2216.924	774.54167
2219.514	782.20833
2222.101	738.54167
2224.687	777.875
2227.271	762.20833
2229.853	751.54167
2232.433	753.54167
2235.012	754.875
2237.589	759.875
2240.164	763.20833
2242.738	760.54167
2245.309	738.20833
2247.879	736.54167
2250.448	746.54167
2253.014	726.54167
2255.579	704.20833
2258.142	718.875
2260.703	697.875
2263.262	707.20833
2265.82	700.54167
2268.376	708.54167
2270.93	690.20833
2273.483	676.875
2276.033	696.54167
2278.583	687.875
2281.13	679.875
2283.675	673.54167
2286.219	679.20833
2288.761	689.54167
2291.302	684.20833
2293.841	686.54167
2296.377	659.875
2298.913	660.875
2301.446	681.20833
2303.978	669.875
2306.508	658.54167
2309.037	658.20833
2311.563	659.54167
2314.088	660.875
2316.612	656.54167
2319.133	659.20833
2321.653	655.875
2324.171	647.20833
2326.688	652.875
2329.202	645.875
2331.715	643.875
2334.227	639.54167
2336.736	641.875
2339.244	632.875
2341.751	625.54167
2344.255	648.20833
2346.758	628.20833
2349.259	633.54167
2351.759	624.54167
2354.257	631.20833
2356.753	619.875
2359.247	618.20833
2361.74	632.54167
2364.231	614.54167
2366.721	633.54167
2369.209	617.20833
2371.695	611.20833
2374.179	610.20833
2376.662	618.875
2379.143	627.20833
2381.622	625.54167
2384.1	623.875
2386.576	606.54167
2389.051	620.20833
2391.524	624.20833
2393.995	627.875
2396.464	608.20833
2398.932	606.20833
2401.398	609.54167
2403.863	600.875
2406.325	608.875
2408.787	596.875
2411.246	589.20833
2413.704	596.20833
2416.16	594.875
2418.615	595.875
2421.068	604.875
2423.519	604.20833
2425.969	591.20833
2428.417	606.54167
2430.863	621.875
2433.308	616.54167
2435.751	596.54167
2438.193	597.20833
2440.633	612.20833
2443.071	590.875
2445.508	583.20833
2447.943	590.875
2450.376	585.875
2452.808	589.54167
2455.238	578.20833
2457.667	616.875
2460.093	588.875
2462.519	578.20833
2464.942	567.20833
2467.365	591.20833
2469.785	584.20833
2472.204	580.875
2474.621	565.875
2477.037	601.875
2479.451	577.20833
2481.863	568.20833
2484.274	568.54167
2486.683	579.54167
2489.091	580.875
2491.497	575.54167
2493.901	575.875
2496.304	568.20833
2498.705	588.20833
2501.105	569.875
2503.503	593.875
2505.899	562.875
2508.294	580.875
2510.687	559.20833
2513.079	567.875
2515.469	561.875
2517.858	555.875
2520.245	577.875
2522.63	564.54167
2525.014	559.875
2527.396	556.54167
2529.776	546.20833
2532.156	563.54167
2534.533	553.54167
2536.909	549.20833
2539.283	546.875
2541.656	550.875
2544.027	580.54167
2546.397	566.54167
2548.765	556.20833
2551.131	554.54167
2553.496	559.54167
2555.86	563.20833
2558.221	550.54167
2560.582	548.875
2562.94	543.875
2565.298	547.20833
2567.653	566.875
2570.007	540.54167
2572.36	555.20833
2574.711	548.875
2577.06	566.875
2579.408	555.20833
2581.754	554.20833
2584.099	564.20833
2586.442	550.875
2588.784	568.20833
2591.124	558.20833
2593.463	557.20833
2595.8	552.54167
2598.135	535.875
2600.469	545.20833
2602.802	569.20833
2605.133	559.54167
2607.462	552.20833
2609.79	551.875
2612.116	560.54167
2614.441	548.875
2616.764	558.20833
2619.086	550.54167
2621.406	537.875
2623.725	560.875
2626.042	556.54167
2628.358	543.20833
2630.672	554.20833
2632.985	570.875
2635.296	559.875
2637.606	555.54167
2639.914	552.20833
2642.22	555.20833
2644.525	547.875
2646.829	559.54167
2649.131	568.54167
2651.432	565.54167
2653.731	558.54167
2656.028	571.54167
2658.324	557.54167
2660.619	557.20833
2662.912	582.20833
2665.204	562.875
2667.494	578.20833
2669.782	567.20833
2672.07	569.54167
2674.355	577.875
2676.639	566.54167
2678.922	561.20833
2681.203	576.54167
2683.483	564.20833
2685.761	554.875
2688.038	581.54167
2690.313	593.54167
2692.587	579.20833
2694.859	566.54167
2697.13	571.875
2699.399	585.875
2701.667	596.54167
2703.933	588.875
2706.198	588.875
2708.461	608.20833
2710.723	602.54167
2712.984	596.20833
2715.243	605.54167
2717.5	605.875
2719.757	618.20833
2722.011	606.875
2724.264	620.54167
2726.516	626.20833
2728.766	605.875
2731.015	622.54167
2733.262	616.875
2735.508	609.54167
2737.753	615.20833
2739.996	598.20833
2742.237	596.875
2744.477	618.875
2746.716	618.20833
2748.953	599.20833
2751.189	606.20833
2753.423	582.20833
2755.656	585.54167
2757.887	578.20833
2760.117	593.875
2762.346	584.54167
2764.573	587.875
2766.798	590.875
2769.022	598.875
2771.245	595.54167
2773.467	600.20833
2775.686	602.54167
2777.905	607.20833
2780.122	609.20833
2782.337	612.875
2784.552	610.20833
2786.764	625.54167
2788.976	627.54167
2791.186	637.20833
2793.394	638.54167
2795.601	653.20833
2797.807	654.54167
2800.011	659.54167
2802.214	681.54167
2804.415	687.54167
2806.615	681.875
2808.814	693.875
2811.011	692.54167
2813.206	697.54167
2815.401	718.54167
2817.594	731.875
2819.785	745.875
2821.975	723.54167
2824.164	740.54167
2826.351	760.20833
2828.537	778.875
2830.722	787.54167
2832.905	797.20833
2835.086	826.54167
2837.267	855.20833
2839.445	876.20833
2841.623	909.20833
2843.799	941.875
2845.974	984.54167
2848.147	1031.875
2850.319	1047.875
2852.489	1070.54167
2854.659	1075.20833
2856.826	1103.54167
2858.993	1124.875
2861.158	1114.875
2863.321	1111.20833
2865.483	1125.54167
2867.644	1134.54167
2869.804	1130.54167
2871.962	1117.875
2874.118	1116.54167
2876.274	1115.875
2878.428	1100.875
2880.58	1089.20833
2882.731	1095.54167
2884.881	1108.54167
2887.03	1102.875
2889.177	1093.20833
2891.322	1119.20833
2893.467	1105.875
2895.61	1116.54167
2897.751	1133.54167
2899.892	1131.875
2902.03	1138.54167
2904.168	1154.54167
2906.304	1141.54167
2908.439	1168.20833
2910.572	1155.54167
2912.704	1158.54167
2914.835	1168.875
2916.965	1166.875
2919.093	1180.54167
2921.219	1147.875
2923.345	1153.54167
2925.469	1128.20833
2927.591	1121.54167
2929.712	1090.20833
2931.832	1083.54167
2933.951	1061.875
2936.068	1033.20833
2938.184	995.20833
2940.299	967.875
2942.412	949.20833
2944.524	907.875
2946.634	888.20833
2948.744	839.20833
2950.851	870.20833
2952.958	811.54167
2955.063	801.54167
2957.167	799.875
2959.269	754.54167
2961.371	776.875
2963.471	735.20833
2965.569	739.875
2967.666	710.20833
2969.762	703.54167
2971.857	686.54167
2973.95	654.20833
2976.042	656.20833
2978.133	637.875
2980.222	632.875
2982.31	616.20833
2984.396	589.54167
2986.482	596.20833
2988.566	583.20833
2990.648	574.20833
2992.73	571.20833
2994.81	562.875
2996.889	566.875
2998.966	554.54167
3001.042	560.875
3003.117	552.875
3005.191	548.20833
3007.263	540.875
3009.334	544.20833
3011.403	525.20833
3013.472	516.20833
3015.539	509.875
3017.604	531.875
3019.669	480.875
3021.732	489.54167
3023.794	505.20833
3025.854	468.54167
3027.914	472.20833
3029.971	487.875
3032.028	480.875
3034.083	474.875
3036.137	475.20833
3038.19	453.54167
3040.242	437.875
3042.292	434.20833
3044.341	421.875
3046.388	449.875
3048.435	416.54167
3050.48	438.20833
3052.524	426.20833
3054.566	400.54167
3056.607	414.54167
3058.647	395.54167
3060.686	390.54167
3062.723	388.20833
3064.759	370.20833
3066.794	-1.45833
3068.828	-1.45833
3070.86	-0.79167
