-0.839	447.16667
3.438	498.83333
7.711	134.5
11.981	56.83333
16.247	47.16667
20.509	47.5
24.768	47.83333
29.024	49.5
33.276	46.16667
37.524	51.5
41.769	42.5
46.01	37.5
50.247	53.83333
54.481	59.16667
58.712	66.16667
62.939	50.83333
67.162	65.83333
71.382	60.83333
75.599	50.16667
79.812	63.16667
84.021	86.83333
88.227	59.16667
92.429	66.16667
96.628	51.16667
100.823	66.16667
105.015	78.5
109.204	77.5
113.388	79.5
117.57	72.83333
121.748	88.16667
125.922	83.16667
130.093	103.83333
134.261	110.16667
138.425	105.16667
142.585	144.83333
146.742	147.5
150.896	172.83333
155.046	212.5
159.193	324.16667
163.336	559.83333
167.476	1036.16667
171.613	1888.83333
175.746	3176.83333
179.875	4726.5
184.002	6215.5
188.124	7267.5
192.244	7707.83333
196.36	7708.16667
200.472	7541.5
204.581	7408.16667
208.687	7276.5
212.79	7276.83333
216.889	7388.16667
220.984	7544.16667
225.077	7693.5
229.165	7827.5
233.251	8007.5
237.333	8051.16667
241.412	8081.16667
245.487	8090.83333
249.559	7999.83333
253.628	7965.16667
257.694	7882.5
261.756	7828.16667
265.814	7631.16667
269.87	7416.16667
273.922	7201.16667
277.97	7011.16667
282.016	6847.83333
286.058	6742.5
290.097	6773.83333
294.132	6736.83333
298.164	6604.83333
302.193	6296.5
306.219	5857.5
310.241	5305.16667
314.26	4798.5
318.276	4439.16667
322.288	4130.83333
326.297	3882.5
330.303	3716.16667
334.305	3612.83333
338.305	3522.83333
342.301	3455.16667
346.294	3433.16667
350.283	3407.16667
354.269	3381.5
358.252	3355.16667
362.232	3332.83333
366.209	3316.5
370.182	3276.83333
374.152	3252.83333
378.119	3243.16667
382.083	3266.83333
386.043	3270.16667
390	3226.83333
393.954	3220.5
397.905	3163.5
401.852	3167.83333
405.797	3128.5
409.738	3097.83333
413.676	3096.5
417.61	3053.16667
421.542	3018.16667
425.47	2995.83333
429.396	2947.5
433.318	2945.83333
437.236	2948.5
441.152	2960.16667
445.065	2886.83333
448.974	2893.83333
452.88	2870.83333
456.783	2855.16667
460.683	2852.16667
464.58	2855.5
468.473	2864.83333
472.364	2841.5
476.251	2868.83333
480.135	2907.16667
484.016	2929.16667
487.894	2938.16667
491.769	2969.5
495.641	2949.16667
499.509	2961.16667
503.375	2920.5
507.237	2918.5
511.096	2903.83333
514.952	2930.83333
518.805	2924.16667
522.655	2910.83333
526.502	2871.5
530.346	2898.16667
534.187	2894.16667
538.024	2899.5
541.859	2930.16667
545.69	2916.83333
549.519	2924.16667
553.344	2898.83333
557.166	2836.16667
560.985	2820.83333
564.802	2796.83333
568.615	2750.16667
572.425	2718.5
576.232	2705.16667
580.036	2700.5
583.836	2705.16667
587.634	2689.16667
591.429	2701.16667
595.221	2768.16667
599.01	2745.16667
602.796	2810.5
606.578	2824.16667
610.358	2823.5
614.135	2803.16667
617.909	2832.5
621.679	2788.16667
625.447	2768.83333
629.212	2788.83333
632.973	2797.5
636.732	2781.5
640.488	2795.5
644.241	2739.5
647.991	2740.83333
651.737	2764.16667
655.481	2734.83333
659.222	2767.83333
662.96	2758.83333
666.695	2763.83333
670.427	2784.16667
674.156	2791.83333
677.882	2786.16667
681.605	2792.5
685.325	2738.16667
689.043	2766.5
692.757	2745.83333
696.468	2743.16667
700.177	2750.5
703.882	2740.16667
707.585	2734.83333
711.284	2763.5
714.981	2744.16667
718.675	2764.16667
722.366	2774.16667
726.054	2745.5
729.739	2761.5
733.421	2780.5
737.1	2771.16667
740.777	2784.16667
744.45	2786.83333
748.121	2813.16667
751.789	2878.83333
755.453	2855.83333
759.115	2866.16667
762.774	2893.16667
766.431	2922.16667
770.084	2974.5
773.734	2973.16667
777.382	3051.5
781.027	3062.5
784.669	3093.16667
788.308	3101.16667
791.944	3123.83333
795.577	3154.16667
799.208	3179.16667
802.835	3195.16667
806.46	3232.16667
810.082	3246.5
813.701	3269.5
817.317	3301.16667
820.931	3310.5
824.542	3308.16667
828.149	3262.16667
831.754	3235.16667
835.357	3217.83333
838.956	3219.16667
842.553	3169.5
846.146	3160.16667
849.737	3143.83333
853.326	3153.16667
856.911	3176.16667
860.493	3216.83333
864.073	3238.5
867.65	3270.83333
871.225	3329.83333
874.796	3311.16667
878.365	3333.83333
881.931	3345.83333
885.494	3380.5
889.054	3364.5
892.612	3374.83333
896.166	3326.83333
899.719	3276.83333
903.268	3277.16667
906.814	3248.83333
910.358	3238.16667
913.899	3200.16667
917.438	3234.5
920.973	3209.16667
924.506	3224.5
928.036	3294.5
931.564	3324.16667
935.088	3357.83333
938.61	3362.16667
942.129	3395.5
945.646	3492.16667
949.16	3540.5
952.671	3627.83333
956.179	3659.5
959.685	3658.83333
963.188	3636.83333
966.688	3597.83333
970.185	3515.5
973.68	3433.83333
977.173	3435.5
980.662	3375.83333
984.149	3391.5
987.633	3395.83333
991.114	3462.16667
994.593	3570.83333
998.069	3663.5
1001.542	3785.5
1005.013	3710.5
1008.481	3514.5
1011.947	3446.16667
1015.409	3447.16667
1018.869	3445.16667
1022.327	3432.16667
1025.782	3424.16667
1029.234	3399.83333
1032.683	3371.83333
1036.13	3273.16667
1039.574	3156.5
1043.016	3074.16667
1046.455	3011.83333
1049.891	2987.83333
1053.325	3002.16667
1056.756	3002.83333
1060.184	3016.83333
1063.61	3026.5
1067.033	3031.83333
1070.454	3061.16667
1073.872	3101.83333
1077.287	3093.5
1080.7	3101.83333
1084.11	3108.5
1087.517	3089.83333
1090.922	3022.83333
1094.325	2986.5
1097.724	2963.5
1101.122	2956.5
1104.516	2958.83333
1107.908	2962.5
1111.298	3010.5
1114.684	3056.5
1118.069	3081.16667
1121.45	3113.83333
1124.83	3094.16667
1128.206	3106.16667
1131.58	3165.5
1134.951	3212.16667
1138.32	3320.16667
1141.687	3438.83333
1145.05	3532.83333
1148.412	3541.83333
1151.77	3568.83333
1155.126	3542.83333
1158.48	3568.16667
1161.831	3569.5
1165.18	3588.83333
1168.525	3643.5
1171.869	3697.5
1175.21	3737.16667
1178.548	3795.83333
1181.884	3806.5
1185.217	3815.5
1188.548	3891.5
1191.877	3931.5
1195.202	4032.83333
1198.526	4085.5
1201.846	4127.5
1205.165	4112.83333
1208.48	4075.16667
1211.794	4088.16667
1215.104	4073.83333
1218.413	4103.5
1221.719	4120.83333
1225.022	4048.16667
1228.323	4019.83333
1231.621	4024.5
1234.917	3975.83333
1238.21	4030.83333
1241.501	4003.83333
1244.79	4016.5
1248.076	4043.16667
1251.359	4049.83333
1254.64	4127.83333
1257.919	4140.5
1261.195	4199.16667
1264.468	4254.16667
1267.74	4311.16667
1271.008	4310.83333
1274.275	4316.5
1277.538	4272.83333
1280.8	4231.83333
1284.059	4237.16667
1287.315	4278.16667
1290.569	4287.16667
1293.821	4329.16667
1297.07	4374.16667
1300.317	4371.16667
1303.562	4349.16667
1306.803	4333.16667
1310.043	4280.83333
1313.28	4240.16667
1316.515	4185.16667
1319.747	4164.5
1322.977	4127.83333
1326.204	4056.16667
1329.429	3973.5
1332.652	3972.16667
1335.872	3948.83333
1339.09	3922.5
1342.306	3939.83333
1345.519	3900.16667
1348.729	3869.83333
1351.938	3858.16667
1355.144	3809.83333
1358.347	3762.5
1361.548	3768.5
1364.747	3776.16667
1367.944	3749.5
1371.138	3784.16667
1374.329	3817.5
1377.518	3850.16667
1380.705	3898.83333
1383.89	3848.16667
1387.072	3764.5
1390.252	3637.5
1393.429	3512.5
1396.605	3392.16667
1399.777	3299.83333
1402.948	3290.5
1406.116	3258.5
1409.282	3245.16667
1412.445	3262.5
1415.606	3300.83333
1418.765	3322.5
1421.921	3389.83333
1425.075	3465.83333
1428.227	3606.16667
1431.376	3758.83333
1434.524	3882.83333
1437.668	4011.16667
1440.811	4043.5
1443.951	4084.16667
1447.089	4041.16667
1450.224	4035.16667
1453.357	4041.16667
1456.488	3992.83333
1459.617	3934.16667
1462.743	3895.16667
1465.867	3797.5
1468.989	3757.5
1472.108	3687.5
1475.225	3603.5
1478.34	3588.83333
1481.453	3541.5
1484.563	3547.16667
1487.671	3583.83333
1490.776	3644.5
1493.88	3723.83333
1496.981	3771.5
1500.08	3843.16667
1503.176	3900.16667
1506.271	3974.16667
1509.363	4037.16667
1512.452	4082.16667
1515.54	4176.16667
1518.625	4285.16667
1521.708	4468.16667
1524.789	4713.16667
1527.867	5013.83333
1530.944	5317.83333
1534.018	5582.83333
1537.089	5748.83333
1540.159	5674.83333
1543.226	5541.16667
1546.291	5338.16667
1549.354	5143.83333
1552.415	5023.5
1555.473	4851.83333
1558.529	4743.5
1561.583	4705.5
1564.634	4638.83333
1567.684	4636.16667
1570.731	4655.16667
1573.776	4687.16667
1576.819	4696.5
1579.859	4758.5
1582.898	4807.5
1585.934	4827.5
1588.968	4836.5
1591.999	4867.16667
1595.029	4820.5
1598.056	4848.83333
1601.081	4853.16667
1604.104	4856.83333
1607.125	4776.83333
1610.144	4709.5
1613.16	4596.16667
1616.174	4485.5
1619.186	4362.83333
1622.196	4313.5
1625.203	4191.83333
1628.209	4119.5
1631.212	4109.5
1634.213	4090.5
1637.212	4062.5
1640.209	4022.83333
1643.203	3909.16667
1646.196	3785.5
1649.186	3639.83333
1652.174	3536.5
1655.16	3414.5
1658.144	3315.83333
1661.125	3143.16667
1664.105	3009.83333
1667.082	2882.16667
1670.057	2724.5
1673.03	2553.16667
1676.001	2412.5
1678.97	2239.16667
1681.937	2117.16667
1684.901	2008.16667
1687.863	1926.83333
1690.824	1842.83333
1693.782	1835.16667
1696.738	1748.83333
1699.692	1715.16667
1702.643	1677.16667
1705.593	1652.16667
1708.54	1631.16667
1711.486	1618.83333
1714.429	1592.5
1717.37	1570.16667
1720.309	1556.5
1723.246	1552.83333
1726.181	1525.5
1729.113	1521.83333
1732.044	1495.5
1734.972	1479.83333
1737.899	1477.5
1740.823	1470.16667
1743.745	1464.16667
1746.665	1429.16667
1749.583	1400.83333
1752.499	1382.83333
1755.413	1352.83333
1758.325	1330.83333
1761.235	1316.5
1764.142	1292.83333
1767.048	1278.83333
1769.951	1267.83333
1772.852	1261.83333
1775.752	1271.83333
1778.649	1270.16667
1781.544	1259.5
1784.437	1233.5
1787.328	1244.16667
1790.217	1230.5
1793.104	1192.83333
1795.989	1186.16667
1798.872	1185.83333
1801.753	1220.5
1804.631	1208.16667
1807.508	1206.83333
1810.383	1202.5
1813.255	1185.16667
1816.126	1180.16667
1818.994	1170.5
1821.861	1174.83333
1824.725	1172.16667
1827.587	1169.5
1830.448	1150.83333
1833.306	1132.83333
1836.162	1134.83333
1839.017	1125.5
1841.869	1133.83333
1844.719	1126.83333
1847.567	1102.16667
1850.414	1105.5
1853.258	1102.83333
1856.1	1120.83333
1858.94	1127.83333
1861.778	1103.83333
1864.614	1108.5
1867.448	1108.16667
1870.28	1077.16667
1873.111	1110.16667
1875.939	1072.83333
1878.765	1132.5
1881.589	1100.5
1884.411	1091.83333
1887.231	1101.5
1890.049	1092.83333
1892.865	1094.16667
1895.68	1086.83333
1898.492	1076.5
1901.302	1070.83333
1904.11	1069.5
1906.916	1049.16667
1909.721	1045.5
1912.523	1056.83333
1915.323	1041.83333
1918.122	1030.16667
1920.918	1034.83333
1923.712	1040.16667
1926.505	1035.16667
1929.295	1025.83333
1932.084	1029.16667
1934.87	1042.16667
1937.655	1029.5
1940.438	1017.5
1943.218	1029.83333
1945.997	1034.5
1948.774	1040.16667
1951.549	1024.5
1954.322	1026.83333
1957.093	1017.16667
1959.862	1006.83333
1962.629	1008.5
1965.394	999.83333
1968.157	993.16667
1970.918	1000.5
1973.678	1000.16667
1976.435	996.83333
1979.19	977.16667
1981.944	975.16667
1984.696	984.83333
1987.445	970.16667
1990.193	974.83333
1992.939	989.16667
1995.683	968.16667
1998.425	950.83333
2001.165	978.5
2003.903	949.83333
2006.639	962.83333
2009.374	956.83333
2012.106	971.83333
2014.837	938.83333
2017.566	958.16667
2020.292	950.83333
2023.017	954.16667
2025.74	934.83333
2028.461	931.83333
2031.18	949.83333
2033.898	936.5
2036.613	936.5
2039.327	934.5
2042.038	923.83333
2044.748	931.83333
2047.456	906.83333
2050.162	903.5
2052.866	915.5
2055.568	921.83333
2058.268	907.83333
2060.967	914.83333
2063.663	894.16667
2066.358	922.83333
2069.051	898.5
2071.742	912.83333
2074.431	914.16667
2077.118	901.83333
2079.804	907.5
2082.487	885.16667
2085.169	900.5
2087.849	918.16667
2090.527	908.83333
2093.203	901.5
2095.877	920.16667
2098.55	908.5
2101.22	933.16667
2103.889	926.5
2106.556	930.5
2109.221	972.83333
2111.884	976.16667
2114.546	1045.5
2117.205	1095.5
2119.863	1186.5
2122.519	1249.5
2125.173	1335.83333
2127.825	1439.83333
2130.475	1433.83333
2133.124	1427.5
2135.771	1372.5
2138.416	1307.5
2141.059	1251.83333
2143.7	1198.5
2146.339	1112.16667
2148.977	1071.83333
2151.613	1040.5
2154.247	1025.16667
2156.879	977.16667
2159.51	978.83333
2162.138	945.5
2164.765	945.83333
2167.39	928.5
2170.013	939.5
2172.634	946.83333
2175.254	916.16667
2177.872	956.16667
2180.488	913.83333
2183.102	908.16667
2185.714	905.83333
2188.325	878.16667
2190.934	881.5
2193.541	874.16667
2196.146	865.83333
2198.75	851.5
2201.351	840.16667
2203.951	820.16667
2206.549	832.83333
2209.146	823.5
2211.74	811.5
2214.333	812.83333
2216.924	789.16667
2219.514	792.5
2222.101	789.5
2224.687	795.83333
2227.271	779.5
2229.853	768.83333
2232.433	772.83333
2235.012	789.16667
2237.589	776.16667
2240.164	777.83333
2242.738	775.5
2245.309	761.16667
2247.879	765.16667
2250.448	758.16667
2253.014	750.5
2255.579	735.16667
2258.142	736.5
2260.703	730.5
2263.262	716.5
2265.82	714.5
2268.376	708.5
2270.93	705.5
2273.483	701.83333
2276.033	705.5
2278.583	696.83333
2281.13	684.16667
2283.675	676.83333
2286.219	687.5
2288.761	681.5
2291.302	688.83333
2293.841	684.83333
2296.377	675.5
2298.913	661.5
2301.446	681.83333
2303.978	659.83333
2306.508	659.5
2309.037	669.5
2311.563	654.16667
2314.088	663.5
2316.612	640.83333
2319.133	653.16667
2321.653	651.5
2324.171	635.16667
2326.688	664.5
2329.202	638.16667
2331.715	643.5
2334.227	632.83333
2336.736	628.5
2339.244	625.16667
2341.751	612.16667
2344.255	635.16667
2346.758	618.5
2349.259	613.5
2351.759	620.83333
2354.257	615.16667
2356.753	610.5
2359.247	615.16667
2361.74	632.16667
2364.231	609.83333
2366.721	611.5
2369.209	600.5
2371.695	615.83333
2374.179	594.83333
2376.662	602.83333
2379.143	614.16667
2381.622	599.5
2384.1	612.83333
2386.576	588.5
2389.051	614.16667
2391.524	617.16667
2393.995	593.16667
2396.464	592.16667
2398.932	582.83333
2401.398	587.5
2403.863	579.83333
2406.325	593.5
2408.787	582.5
2411.246	588.16667
2413.704	580.83333
2416.16	575.16667
2418.615	576.16667
2421.068	582.5
2423.519	578.83333
2425.969	564.16667
2428.417	584.83333
2430.863	583.83333
2433.308	577.5
2435.751	563.16667
2438.193	569.5
2440.633	568.83333
2443.071	567.16667
2445.508	545.5
2447.943	543.5
2450.376	545.16667
2452.808	556.5
2455.238	537.5
2457.667	579.5
2460.093	557.16667
2462.519	537.16667
2464.942	548.83333
2467.365	549.16667
2469.785	547.83333
2472.204	548.16667
2474.621	539.83333
2477.037	554.83333
2479.451	522.5
2481.863	513.83333
2484.274	521.16667
2486.683	534.83333
2489.091	532.83333
2491.497	531.5
2493.901	530.5
2496.304	530.16667
2498.705	532.5
2501.105	527.5
2503.503	543.5
2505.899	519.83333
2508.294	538.83333
2510.687	514.16667
2513.079	506.16667
2515.469	510.16667
2517.858	513.83333
2520.245	528.16667
2522.63	519.5
2525.014	511.5
2527.396	500.83333
2529.776	499.5
2532.156	513.16667
2534.533	491.83333
2536.909	490.16667
2539.283	492.83333
2541.656	495.16667
2544.027	519.16667
2546.397	499.83333
2548.765	497.16667
2551.131	491.16667
2553.496	500.5
2555.86	501.5
2558.221	492.83333
2560.582	496.16667
2562.94	476.16667
2565.298	488.16667
2567.653	505.16667
2570.007	475.5
2572.36	495.16667
2574.711	485.83333
2577.06	505.5
2579.408	486.83333
2581.754	490.16667
2584.099	485.83333
2586.442	480.16667
2588.784	491.16667
2591.124	484.16667
2593.463	476.16667
2595.8	480.5
2598.135	471.16667
2600.469	478.83333
2602.802	488.16667
2605.133	485.5
2607.462	469.5
2609.79	470.83333
2612.116	474.5
2614.441	476.5
2616.764	477.83333
2619.086	473.5
2621.406	467.5
2623.725	480.83333
2626.042	472.5
2628.358	468.16667
2630.672	466.5
2632.985	484.16667
2635.296	474.83333
2637.606	485.16667
2639.914	469.83333
2642.22	476.5
2644.525	462.83333
2646.829	487.83333
2649.131	483.16667
2651.432	487.16667
2653.731	473.5
2656.028	488.5
2658.324	466.83333
2660.619	466.5
2662.912	483.83333
2665.204	462.5
2667.494	482.16667
2669.782	471.83333
2672.07	472.83333
2674.355	488.83333
2676.639	474.83333
2678.922	473.16667
2681.203	486.5
2683.483	474.16667
2685.761	467.83333
2688.038	475.16667
2690.313	487.16667
2692.587	479.16667
2694.859	472.83333
2697.13	479.5
2699.399	489.5
2701.667	500.83333
2703.933	502.5
2706.198	499.83333
2708.461	501.5
2710.723	501.16667
2712.984	504.16667
2715.243	508.16667
2717.5	503.83333
2719.757	524.83333
2722.011	507.16667
2724.264	517.5
2726.516	536.83333
2728.766	514.5
2731.015	524.16667
2733.262	512.5
2735.508	510.83333
2737.753	512.5
2739.996	491.5
2742.237	491.5
2744.477	501.16667
2746.716	498.5
2748.953	491.5
2751.189	497.16667
2753.423	488.83333
2755.656	474.16667
2757.887	478.16667
2760.117	476.16667
2762.346	467.83333
2764.573	466.16667
2766.798	470.16667
2769.022	477.16667
2771.245	478.16667
2773.467	461.16667
2775.686	483.83333
2777.905	488.83333
2780.122	497.5
2782.337	490.5
2784.552	481.16667
2786.764	505.16667
2788.976	500.5
2791.186	518.83333
2793.394	506.5
2795.601	512.5
2797.807	529.83333
2800.011	542.5
2802.214	555.16667
2804.415	553.83333
2806.615	554.5
2808.814	571.5
2811.011	570.5
2813.206	575.5
2815.401	590.5
2817.594	607.83333
2819.785	610.16667
2821.975	597.16667
2824.164	620.5
2826.351	647.16667
2828.537	673.16667
2830.722	690.16667
2832.905	694.16667
2835.086	736.16667
2837.267	774.16667
2839.445	799.83333
2841.623	826.5
2843.799	868.5
2845.974	912.5
2848.147	983.5
2850.319	985.83333
2852.489	1041.5
2854.659	1045.83333
2856.826	1092.16667
2858.993	1094.5
2861.158	1084.16667
2863.321	1074.16667
2865.483	1109.5
2867.644	1102.83333
2869.804	1103.16667
2871.962	1087.5
2874.118	1110.16667
2876.274	1088.5
2878.428	1089.5
2880.58	1088.16667
2882.731	1065.5
2884.881	1069.83333
2887.03	1088.16667
2889.177	1063.83333
2891.322	1087.16667
2893.467	1088.16667
2895.61	1080.83333
2897.751	1120.5
2899.892	1107.83333
2902.03	1112.16667
2904.168	1134.83333
2906.304	1130.83333
2908.439	1155.83333
2910.572	1131.5
2912.704	1145.83333
2914.835	1137.16667
2916.965	1148.5
2919.093	1151.5
2921.219	1111.83333
2923.345	1128.83333
2925.469	1093.5
2927.591	1088.83333
2929.712	1064.16667
2931.832	1041.5
2933.951	1011.5
2936.068	991.16667
2938.184	959.16667
2940.299	924.83333
2942.412	892.5
2944.524	839.5
2946.634	840.5
2948.744	763.5
2950.851	791.5
2952.958	724.5
2955.063	721.16667
2957.167	688.16667
2959.269	656.5
2961.371	670.83333
2963.471	616.83333
2965.569	635.16667
2967.666	583.5
2969.762	573.16667
2971.857	543.16667
2973.95	526.83333
2976.042	525.83333
2978.133	494.83333
2980.222	487.16667
2982.31	466.5
2984.396	443.16667
2986.482	441.5
2988.566	445.5
2990.648	428.83333
2992.73	419.5
2994.81	402.16667
2996.889	412.16667
2998.966	396.16667
3001.042	400.83333
3003.117	403.16667
3005.191	394.83333
3007.263	374.5
3009.334	380.83333
3011.403	373.16667
3013.472	349.5
3015.539	363.5
3017.604	367.83333
3019.669	328.5
3021.732	335.83333
3023.794	331.83333
3025.854	318.16667
3027.914	318.5
3029.971	327.83333
3032.028	311.16667
3034.083	317.16667
3036.137	322.16667
3038.19	295.83333
3040.242	291.83333
3042.292	288.5
3044.341	281.83333
3046.388	292.83333
3048.435	268.5
3050.48	289.83333
3052.524	274.83333
3054.566	254.83333
3056.607	274.83333
3058.647	267.16667
3060.686	249.5
3062.723	240.83333
3064.759	238.16667
3066.794	1.83333
3068.828	-0.5
3070.86	-3.16667
