-0.839	351.16667
3.438	403.16667
7.711	120.5
11.981	55.83333
16.247	44.83333
20.509	43.83333
24.768	45.83333
29.024	45.83333
33.276	42.83333
37.524	51.5
41.769	41.5
46.01	37.16667
50.247	50.16667
54.481	62.5
58.712	68.16667
62.939	47.5
67.162	59.16667
71.382	59.5
75.599	47.83333
79.812	65.83333
84.021	84.5
88.227	59.16667
92.429	60.5
96.628	49.83333
100.823	72.16667
105.015	73.83333
109.204	76.83333
113.388	74.83333
117.57	69.5
121.748	83.16667
125.922	80.83333
130.093	95.5
134.261	103.5
138.425	97.5
142.585	140.5
146.742	132.5
150.896	152.83333
155.046	197.5
159.193	303.5
163.336	506.83333
167.476	912.5
171.613	1678.16667
175.746	2795.16667
179.875	4171.16667
184.002	5479.5
188.124	6456.5
192.244	6816.16667
196.36	6806.83333
200.472	6697.5
204.581	6592.16667
208.687	6467.16667
212.79	6465.83333
216.889	6523.16667
220.984	6624.83333
225.077	6798.5
229.165	6936.83333
233.251	7018.5
237.333	7100.5
241.412	7142.16667
245.487	7171.16667
249.559	7081.83333
253.628	7051.16667
257.694	6997.83333
261.756	6923.16667
265.814	6794.5
269.87	6598.5
273.922	6431.16667
277.97	6299.16667
282.016	6176.83333
286.058	6157.83333
290.097	6231.16667
294.132	6233.16667
298.164	6136.5
302.193	5839.83333
306.219	5413.83333
310.241	4938.83333
314.26	4473.5
318.276	4116.5
322.288	3846.83333
326.297	3647.16667
330.303	3473.16667
334.305	3345.83333
338.305	3266.16667
342.301	3244.83333
346.294	3201.16667
350.283	3156.5
354.269	3134.16667
358.252	3092.5
362.232	3066.5
366.209	3041.83333
370.182	3014.83333
374.152	2986.5
378.119	2986.5
382.083	3005.5
386.043	3007.83333
390	2947.5
393.954	2957.16667
397.905	2919.83333
401.852	2912.5
405.797	2895.83333
409.738	2871.5
413.676	2870.16667
417.61	2823.16667
421.542	2805.5
425.47	2794.16667
429.396	2746.5
433.318	2752.83333
437.236	2740.83333
441.152	2752.83333
445.065	2702.5
448.974	2715.5
452.88	2653.83333
456.783	2659.83333
460.683	2653.5
464.58	2635.16667
468.473	2645.83333
472.364	2672.5
476.251	2671.83333
480.135	2687.16667
484.016	2719.5
487.894	2734.5
491.769	2725.83333
495.641	2755.16667
499.509	2724.83333
503.375	2757.83333
507.237	2721.83333
511.096	2746.83333
514.952	2802.16667
518.805	2836.16667
522.655	2858.16667
526.502	2740.5
530.346	2716.5
534.187	2685.83333
538.024	2725.83333
541.859	2720.16667
545.69	2765.5
549.519	2721.16667
553.344	2698.83333
557.166	2664.5
560.985	2661.83333
564.802	2602.5
568.615	2564.5
572.425	2535.83333
576.232	2523.83333
580.036	2511.16667
583.836	2524.16667
587.634	2513.83333
591.429	2505.83333
595.221	2592.5
599.01	2566.5
602.796	2604.83333
606.578	2634.5
610.358	2665.83333
614.135	2637.16667
617.909	2631.83333
621.679	2616.83333
625.447	2596.83333
629.212	2613.16667
632.973	2600.83333
636.732	2594.83333
640.488	2609.5
644.241	2570.16667
647.991	2565.5
651.737	2588.5
655.481	2565.83333
659.222	2573.83333
662.96	2579.16667
666.695	2591.16667
670.427	2619.83333
674.156	2648.16667
677.882	2581.16667
681.605	2588.5
685.325	2571.83333
689.043	2569.5
692.757	2539.16667
696.468	2552.5
700.177	2559.16667
703.882	2532.5
707.585	2558.5
711.284	2548.83333
714.981	2565.16667
718.675	2552.5
722.366	2562.16667
726.054	2552.83333
729.739	2561.16667
733.421	2562.5
737.1	2551.83333
740.777	2582.16667
744.45	2575.83333
748.121	2595.83333
751.789	2654.16667
755.453	2652.5
759.115	2663.5
762.774	2676.83333
766.431	2688.16667
770.084	2728.83333
773.734	2766.83333
777.382	2803.83333
781.027	2815.16667
784.669	2841.16667
788.308	2860.16667
791.944	2875.5
795.577	2895.5
799.208	2936.83333
802.835	2934.16667
806.46	2980.16667
810.082	3003.5
813.701	3006.16667
817.317	3054.16667
820.931	3043.83333
824.542	3035.5
828.149	2990.83333
831.754	2965.16667
835.357	2941.16667
838.956	2933.83333
842.553	2909.5
846.146	2896.16667
849.737	2893.83333
853.326	2896.16667
856.911	2906.5
860.493	2944.5
864.073	2945.5
867.65	3003.5
871.225	3045.16667
874.796	3019.83333
878.365	3052.16667
881.931	3047.83333
885.494	3104.5
889.054	3068.16667
892.612	3085.16667
896.166	3078.16667
899.719	3011.16667
903.268	2997.83333
906.814	2966.16667
910.358	2988.83333
913.899	2967.5
917.438	2977.16667
920.973	2944.16667
924.506	3000.83333
928.036	3064.5
931.564	3086.5
935.088	3121.5
938.61	3140.16667
942.129	3171.16667
945.646	3247.83333
949.16	3329.83333
952.671	3395.83333
956.179	3410.5
959.685	3391.16667
963.188	3386.83333
966.688	3342.16667
970.185	3267.16667
973.68	3205.5
977.173	3148.83333
980.662	3078.83333
984.149	3106.16667
987.633	3093.83333
991.114	3133.5
994.593	3229.83333
998.069	3295.83333
1001.542	3378.83333
1005.013	3314.83333
1008.481	3143.83333
1011.947	3082.16667
1015.409	3054.16667
1018.869	3094.5
1022.327	3070.5
1025.782	3060.83333
1029.234	3091.83333
1032.683	3004.83333
1036.13	2923.5
1039.574	2814.83333
1043.016	2780.5
1046.455	2699.5
1049.891	2675.5
1053.325	2661.83333
1056.756	2682.5
1060.184	2718.5
1063.61	2719.16667
1067.033	2724.16667
1070.454	2723.83333
1073.872	2767.16667
1077.287	2760.16667
1080.7	2769.16667
1084.11	2788.83333
1087.517	2753.5
1090.922	2714.16667
1094.325	2690.16667
1097.724	2668.83333
1101.122	2648.83333
1104.516	2657.83333
1107.908	2678.5
1111.298	2715.5
1114.684	2722.83333
1118.069	2735.16667
1121.45	2781.83333
1124.83	2747.83333
1128.206	2786.5
1131.58	2833.83333
1134.951	2930.16667
1138.32	3005.5
1141.687	3125.16667
1145.05	3178.5
1148.412	3221.5
1151.77	3200.16667
1155.126	3195.16667
1158.48	3190.16667
1161.831	3248.16667
1165.18	3242.16667
1168.525	3277.83333
1171.869	3326.83333
1175.21	3350.83333
1178.548	3403.5
1181.884	3450.83333
1185.217	3479.5
1188.548	3534.16667
1191.877	3629.5
1195.202	3696.83333
1198.526	3761.83333
1201.846	3768.83333
1205.165	3773.16667
1208.48	3760.16667
1211.794	3753.5
1215.104	3741.5
1218.413	3722.83333
1221.719	3730.5
1225.022	3683.83333
1228.323	3634.16667
1231.621	3620.83333
1234.917	3587.5
1238.21	3628.5
1241.501	3599.5
1244.79	3620.83333
1248.076	3588.16667
1251.359	3649.83333
1254.64	3721.16667
1257.919	3717.83333
1261.195	3785.16667
1264.468	3851.5
1267.74	3895.5
1271.008	3889.83333
1274.275	3895.83333
1277.538	3877.83333
1280.8	3859.5
1284.059	3847.16667
1287.315	3873.16667
1290.569	3919.5
1293.821	3952.83333
1297.07	3962.16667
1300.317	3973.16667
1303.562	3950.16667
1306.803	3933.5
1310.043	3901.83333
1313.28	3852.5
1316.515	3815.16667
1319.747	3764.5
1322.977	3735.16667
1326.204	3673.5
1329.429	3639.16667
1332.652	3601.83333
1335.872	3603.16667
1339.09	3576.16667
1342.306	3587.5
1345.519	3567.16667
1348.729	3531.16667
1351.938	3511.83333
1355.144	3457.83333
1358.347	3407.5
1361.548	3410.16667
1364.747	3413.5
1367.944	3402.16667
1371.138	3419.5
1374.329	3421.83333
1377.518	3455.5
1380.705	3502.5
1383.89	3473.83333
1387.072	3369.16667
1390.252	3227.16667
1393.429	3115.16667
1396.605	3039.83333
1399.777	2967.16667
1402.948	2921.83333
1406.116	2917.16667
1409.282	2918.16667
1412.445	2909.5
1415.606	2948.16667
1418.765	2978.5
1421.921	3065.16667
1425.075	3113.83333
1428.227	3237.16667
1431.376	3370.16667
1434.524	3487.16667
1437.668	3587.16667
1440.811	3586.5
1443.951	3619.83333
1447.089	3629.83333
1450.224	3610.5
1453.357	3599.83333
1456.488	3579.16667
1459.617	3518.5
1462.743	3471.5
1465.867	3399.16667
1468.989	3374.16667
1472.108	3337.16667
1475.225	3286.83333
1478.34	3242.5
1481.453	3249.5
1484.563	3275.16667
1487.671	3270.83333
1490.776	3357.5
1493.88	3395.83333
1496.981	3474.16667
1500.08	3523.16667
1503.176	3583.83333
1506.271	3632.5
1509.363	3695.83333
1512.452	3756.16667
1515.54	3831.5
1518.625	3891.83333
1521.708	4033.5
1524.789	4203.5
1527.867	4436.16667
1530.944	4674.16667
1534.018	4947.83333
1537.089	5070.16667
1540.159	5057.83333
1543.226	4998.83333
1546.291	4830.83333
1549.354	4653.83333
1552.415	4533.16667
1555.473	4399.83333
1558.529	4331.5
1561.583	4262.5
1564.634	4225.83333
1567.684	4232.5
1570.731	4243.16667
1573.776	4292.16667
1576.819	4329.16667
1579.859	4367.16667
1582.898	4394.5
1585.934	4447.5
1588.968	4478.5
1591.999	4436.16667
1595.029	4420.16667
1598.056	4478.16667
1601.081	4480.83333
1604.104	4456.83333
1607.125	4409.5
1610.144	4313.5
1613.16	4197.83333
1616.174	4084.5
1619.186	3994.83333
1622.196	3885.83333
1625.203	3807.83333
1628.209	3755.16667
1631.212	3747.16667
1634.213	3739.83333
1637.212	3724.83333
1640.209	3674.16667
1643.203	3591.16667
1646.196	3482.5
1649.186	3355.16667
1652.174	3248.16667
1655.16	3152.16667
1658.144	3064.5
1661.125	2887.83333
1664.105	2738.5
1667.082	2623.16667
1670.057	2490.83333
1673.03	2310.16667
1676.001	2178.5
1678.97	2017.5
1681.937	1921.16667
1684.901	1811.83333
1687.863	1756.16667
1690.824	1689.83333
1693.782	1649.83333
1696.738	1582.16667
1699.692	1563.5
1702.643	1513.5
1705.593	1500.16667
1708.54	1480.5
1711.486	1476.16667
1714.429	1451.5
1717.37	1428.16667
1720.309	1412.16667
1723.246	1421.16667
1726.181	1389.16667
1729.113	1377.5
1732.044	1364.5
1734.972	1354.5
1737.899	1352.16667
1740.823	1340.16667
1743.745	1344.83333
1746.665	1309.16667
1749.583	1270.83333
1752.499	1262.83333
1755.413	1230.83333
1758.325	1220.83333
1761.235	1214.16667
1764.142	1201.16667
1767.048	1181.16667
1769.951	1179.5
1772.852	1160.83333
1775.752	1158.5
1778.649	1159.83333
1781.544	1145.83333
1784.437	1129.83333
1787.328	1137.16667
1790.217	1124.5
1793.104	1115.16667
1795.989	1103.5
1798.872	1088.5
1801.753	1123.5
1804.631	1106.5
1807.508	1115.16667
1810.383	1098.83333
1813.255	1099.5
1816.126	1079.83333
1818.994	1094.16667
1821.861	1077.16667
1824.725	1079.5
1827.587	1076.5
1830.448	1063.5
1833.306	1037.16667
1836.162	1058.5
1839.017	1039.16667
1841.869	1045.83333
1844.719	1036.16667
1847.567	1014.83333
1850.414	1010.5
1853.258	1009.5
1856.1	1034.16667
1858.94	1054.83333
1861.778	1022.16667
1864.614	1017.5
1867.448	1010.5
1870.28	1011.83333
1873.111	1034.5
1875.939	1015.16667
1878.765	1032.5
1881.589	1017.83333
1884.411	1013.5
1887.231	1019.83333
1890.049	1010.83333
1892.865	1002.5
1895.68	991.83333
1898.492	1005.5
1901.302	986.16667
1904.11	987.16667
1906.916	972.16667
1909.721	975.83333
1912.523	990.83333
1915.323	965.16667
1918.122	967.5
1920.918	964.83333
1923.712	962.83333
1926.505	962.5
1929.295	946.83333
1932.084	951.16667
1934.87	959.16667
1937.655	954.5
1940.438	956.16667
1943.218	959.5
1945.997	964.83333
1948.774	960.83333
1951.549	950.83333
1954.322	948.5
1957.093	950.16667
1959.862	940.83333
1962.629	934.83333
1965.394	921.16667
1968.157	919.16667
1970.918	935.83333
1973.678	922.16667
1976.435	922.16667
1979.19	905.5
1981.944	911.16667
1984.696	902.16667
1987.445	901.16667
1990.193	908.5
1992.939	923.16667
1995.683	914.16667
1998.425	888.83333
2001.165	922.16667
2003.903	907.83333
2006.639	901.16667
2009.374	891.5
2012.106	894.16667
2014.837	861.5
2017.566	900.5
2020.292	904.16667
2023.017	889.5
2025.74	888.16667
2028.461	878.5
2031.18	879.5
2033.898	876.5
2036.613	884.16667
2039.327	877.5
2042.038	862.5
2044.748	866.5
2047.456	860.5
2050.162	844.5
2052.866	857.83333
2055.568	868.83333
2058.268	854.5
2060.967	869.16667
2063.663	841.83333
2066.358	861.16667
2069.051	837.16667
2071.742	861.16667
2074.431	856.5
2077.118	848.83333
2079.804	838.83333
2082.487	850.16667
2085.169	863.16667
2087.849	871.5
2090.527	852.83333
2093.203	862.16667
2095.877	872.83333
2098.55	879.16667
2101.22	886.16667
2103.889	898.5
2106.556	898.16667
2109.221	925.5
2111.884	942.16667
2114.546	1001.5
2117.205	1072.5
2119.863	1141.16667
2122.519	1218.83333
2125.173	1279.5
2127.825	1361.16667
2130.475	1374.16667
2133.124	1350.5
2135.771	1299.83333
2138.416	1258.5
2141.059	1177.16667
2143.7	1142.83333
2146.339	1076.16667
2148.977	1033.5
2151.613	1022.16667
2154.247	990.5
2156.879	965.16667
2159.51	925.83333
2162.138	924.83333
2164.765	920.83333
2167.39	904.16667
2170.013	925.83333
2172.634	913.16667
2175.254	887.5
2177.872	913.83333
2180.488	878.16667
2183.102	888.16667
2185.714	857.83333
2188.325	845.5
2190.934	853.5
2193.541	833.5
2196.146	822.83333
2198.75	817.5
2201.351	808.83333
2203.951	797.5
2206.549	802.5
2209.146	790.16667
2211.74	779.16667
2214.333	782.83333
2216.924	754.5
2219.514	758.83333
2222.101	762.16667
2224.687	772.5
2227.271	750.5
2229.853	746.83333
2232.433	733.5
2235.012	762.16667
2237.589	754.5
2240.164	759.5
2242.738	748.5
2245.309	732.5
2247.879	744.16667
2250.448	747.83333
2253.014	717.5
2255.579	707.83333
2258.142	703.83333
2260.703	692.5
2263.262	695.5
2265.82	698.16667
2268.376	717.5
2270.93	683.5
2273.483	687.16667
2276.033	695.83333
2278.583	671.16667
2281.13	683.16667
2283.675	665.83333
2286.219	670.83333
2288.761	667.83333
2291.302	681.5
2293.841	673.5
2296.377	654.83333
2298.913	668.16667
2301.446	674.16667
2303.978	656.5
2306.508	657.16667
2309.037	661.16667
2311.563	667.83333
2314.088	661.83333
2316.612	645.83333
2319.133	653.16667
2321.653	653.16667
2324.171	637.83333
2326.688	652.5
2329.202	641.83333
2331.715	642.5
2334.227	644.5
2336.736	629.83333
2339.244	626.16667
2341.751	621.16667
2344.255	636.16667
2346.758	628.5
2349.259	622.83333
2351.759	624.5
2354.257	607.83333
2356.753	616.5
2359.247	609.83333
2361.74	630.5
2364.231	615.5
2366.721	630.5
2369.209	616.16667
2371.695	614.16667
2374.179	611.16667
2376.662	616.16667
2379.143	628.83333
2381.622	612.16667
2384.1	613.16667
2386.576	613.83333
2389.051	625.16667
2391.524	625.16667
2393.995	626.16667
2396.464	602.16667
2398.932	600.5
2401.398	614.16667
2403.863	597.83333
2406.325	597.16667
2408.787	602.5
2411.246	599.16667
2413.704	587.16667
2416.16	590.16667
2418.615	605.5
2421.068	608.83333
2423.519	602.83333
2425.969	592.16667
2428.417	606.16667
2430.863	621.16667
2433.308	601.5
2435.751	597.16667
2438.193	598.16667
2440.633	595.83333
2443.071	590.16667
2445.508	576.16667
2447.943	582.16667
2450.376	579.83333
2452.808	583.5
2455.238	581.83333
2457.667	616.83333
2460.093	578.16667
2462.519	573.16667
2464.942	569.5
2467.365	587.83333
2469.785	588.83333
2472.204	584.5
2474.621	567.5
2477.037	585.83333
2479.451	569.5
2481.863	561.83333
2484.274	562.5
2486.683	584.16667
2489.091	573.16667
2491.497	579.16667
2493.901	578.83333
2496.304	558.83333
2498.705	580.16667
2501.105	568.5
2503.503	604.5
2505.899	566.5
2508.294	579.5
2510.687	562.16667
2513.079	554.16667
2515.469	562.5
2517.858	557.5
2520.245	585.83333
2522.63	553.83333
2525.014	560.83333
2527.396	548.16667
2529.776	551.83333
2532.156	563.16667
2534.533	553.16667
2536.909	557.16667
2539.283	536.83333
2541.656	555.16667
2544.027	575.16667
2546.397	567.5
2548.765	560.5
2551.131	561.83333
2553.496	556.5
2555.86	561.83333
2558.221	542.5
2560.582	546.5
2562.94	540.5
2565.298	548.83333
2567.653	564.83333
2570.007	534.16667
2572.36	555.83333
2574.711	549.16667
2577.06	563.83333
2579.408	544.5
2581.754	552.83333
2584.099	555.16667
2586.442	549.16667
2588.784	554.5
2591.124	559.83333
2593.463	552.5
2595.8	550.16667
2598.135	543.83333
2600.469	547.83333
2602.802	559.5
2605.133	564.5
2607.462	549.16667
2609.79	539.83333
2612.116	556.83333
2614.441	538.83333
2616.764	558.83333
2619.086	548.5
2621.406	539.83333
2623.725	560.83333
2626.042	551.5
2628.358	533.5
2630.672	552.5
2632.985	556.16667
2635.296	550.5
2637.606	555.83333
2639.914	545.83333
2642.22	551.83333
2644.525	555.83333
2646.829	565.16667
2649.131	563.16667
2651.432	576.5
2653.731	564.83333
2656.028	578.5
2658.324	566.83333
2660.619	553.16667
2662.912	578.16667
2665.204	557.5
2667.494	574.16667
2669.782	559.83333
2672.07	566.5
2674.355	583.16667
2676.639	567.5
2678.922	563.16667
2681.203	577.5
2683.483	555.83333
2685.761	550.5
2688.038	576.16667
2690.313	584.83333
2692.587	579.16667
2694.859	555.5
2697.13	585.16667
2699.399	586.5
2701.667	589.5
2703.933	595.5
2706.198	592.16667
2708.461	598.83333
2710.723	605.83333
2712.984	589.83333
2715.243	615.83333
2717.5	610.5
2719.757	620.16667
2722.011	616.83333
2724.264	620.5
2726.516	630.16667
2728.766	617.5
2731.015	627.16667
2733.262	609.16667
2735.508	616.16667
2737.753	618.83333
2739.996	592.83333
2742.237	600.83333
2744.477	626.5
2746.716	616.5
2748.953	606.16667
2751.189	606.5
2753.423	598.83333
2755.656	591.83333
2757.887	592.16667
2760.117	592.83333
2762.346	591.5
2764.573	583.5
2766.798	584.16667
2769.022	584.16667
2771.245	599.83333
2773.467	597.5
2775.686	594.16667
2777.905	608.16667
2780.122	617.16667
2782.337	622.83333
2784.552	608.83333
2786.764	627.16667
2788.976	624.83333
2791.186	641.83333
2793.394	644.83333
2795.601	649.16667
2797.807	661.83333
2800.011	659.16667
2802.214	680.83333
2804.415	680.16667
2806.615	670.5
2808.814	693.5
2811.011	698.5
2813.206	701.16667
2815.401	714.83333
2817.594	725.83333
2819.785	739.83333
2821.975	734.83333
2824.164	733.5
2826.351	746.83333
2828.537	784.83333
2830.722	788.5
2832.905	791.16667
2835.086	831.16667
2837.267	868.83333
2839.445	888.16667
2841.623	907.16667
2843.799	940.16667
2845.974	984.16667
2848.147	1009.83333
2850.319	1027.16667
2852.489	1069.5
2854.659	1071.5
2856.826	1104.5
2858.993	1104.16667
2861.158	1107.16667
2863.321	1126.16667
2865.483	1128.16667
2867.644	1137.16667
2869.804	1127.83333
2871.962	1127.16667
2874.118	1124.5
2876.274	1123.5
2878.428	1106.5
2880.58	1102.5
2882.731	1102.16667
2884.881	1095.5
2887.03	1107.16667
2889.177	1100.16667
2891.322	1110.5
2893.467	1106.16667
2895.61	1110.83333
2897.751	1139.83333
2899.892	1129.16667
2902.03	1140.16667
2904.168	1150.83333
2906.304	1150.5
2908.439	1174.5
2910.572	1160.16667
2912.704	1171.5
2914.835	1173.83333
2916.965	1168.83333
2919.093	1174.5
2921.219	1134.83333
2923.345	1154.16667
2925.469	1122.5
2927.591	1128.83333
2929.712	1089.5
2931.832	1076.16667
2933.951	1056.16667
2936.068	1040.5
2938.184	1005.16667
2940.299	971.5
2942.412	946.83333
2944.524	912.83333
2946.634	905.16667
2948.744	844.83333
2950.851	866.5
2952.958	818.16667
2955.063	805.5
2957.167	793.83333
2959.269	776.16667
2961.371	783.5
2963.471	744.83333
2965.569	746.83333
2967.666	706.83333
2969.762	696.83333
2971.857	680.16667
2973.95	666.83333
2976.042	648.83333
2978.133	647.16667
2980.222	635.5
2982.31	604.5
2984.396	596.16667
2986.482	598.83333
2988.566	593.16667
2990.648	570.83333
2992.73	569.16667
2994.81	553.16667
2996.889	563.5
2998.966	561.16667
3001.042	564.16667
3003.117	548.5
3005.191	552.5
3007.263	541.5
3009.334	533.5
3011.403	528.16667
3013.472	512.16667
3015.539	512.83333
3017.604	522.5
3019.669	484.5
3021.732	490.16667
3023.794	492.83333
3025.854	474.83333
3027.914	471.16667
3029.971	487.16667
3032.028	471.5
3034.083	475.16667
3036.137	476.16667
3038.19	449.83333
3040.242	447.83333
3042.292	435.5
3044.341	437.16667
3046.388	450.5
3048.435	415.5
3050.48	435.16667
3052.524	417.5
3054.566	406.16667
3056.607	425.16667
3058.647	410.16667
3060.686	384.5
3062.723	373.83333
3064.759	355.16667
3066.794	0.5
3068.828	-2.16667
3070.86	-1.5
