-0.839	430.70833
3.438	478.04167
7.711	143.04167
11.981	56.375
16.247	50.70833
20.509	45.70833
24.768	47.375
29.024	48.375
33.276	45.70833
37.524	54.04167
41.769	42.375
46.01	41.04167
50.247	53.375
54.481	68.375
58.712	69.70833
62.939	48.04167
67.162	63.375
71.382	56.70833
75.599	51.375
79.812	69.04167
84.021	83.04167
88.227	59.375
92.429	64.70833
96.628	51.375
100.823	72.70833
105.015	80.04167
109.204	82.70833
113.388	86.04167
117.57	81.04167
121.748	93.375
125.922	86.70833
130.093	111.04167
134.261	116.375
138.425	108.04167
142.585	152.70833
146.742	152.04167
150.896	179.70833
155.046	224.375
159.193	349.70833
163.336	595.70833
167.476	1111.375
171.613	2017.375
175.746	3402.375
179.875	5062.04167
184.002	6618.70833
188.124	7732.04167
192.244	8209.04167
196.36	8143.375
200.472	8028.375
204.581	7894.04167
208.687	7754.375
212.79	7748.375
216.889	7789.70833
220.984	7954.375
225.077	8108.04167
229.165	8265.70833
233.251	8381.70833
237.333	8450.70833
241.412	8484.04167
245.487	8479.375
249.559	8364.70833
253.628	8303.70833
257.694	8257.04167
261.756	8113.375
265.814	7922.70833
269.87	7684.04167
273.922	7431.04167
277.97	7273.04167
282.016	7152.375
286.058	7086.04167
290.097	7108.04167
294.132	7082.70833
298.164	6907.04167
302.193	6600.375
306.219	6079.04167
310.241	5561.70833
314.26	5040.375
318.276	4646.04167
322.288	4300.375
326.297	4066.04167
330.303	3897.70833
334.305	3769.70833
338.305	3694.04167
342.301	3634.70833
346.294	3589.375
350.283	3536.04167
354.269	3491.04167
358.252	3484.375
362.232	3442.04167
366.209	3430.04167
370.182	3397.04167
374.152	3383.70833
378.119	3395.70833
382.083	3375.04167
386.043	3404.04167
390	3345.375
393.954	3336.70833
397.905	3294.70833
401.852	3305.375
405.797	3225.70833
409.738	3206.375
413.676	3243.375
417.61	3220.375
421.542	3128.70833
425.47	3072.04167
429.396	3054.70833
433.318	3023.70833
437.236	3020.375
441.152	3026.70833
445.065	2972.375
448.974	2962.375
452.88	2933.375
456.783	2921.70833
460.683	2916.375
464.58	2904.70833
468.473	2925.70833
472.364	2920.70833
476.251	2923.70833
480.135	2951.375
484.016	2989.04167
487.894	3016.04167
491.769	2998.04167
495.641	3026.04167
499.509	3005.70833
503.375	3023.375
507.237	3006.375
511.096	3008.70833
514.952	3038.04167
518.805	3099.70833
522.655	3124.70833
526.502	3003.04167
530.346	2964.70833
534.187	2984.70833
538.024	2987.70833
541.859	2958.70833
545.69	3009.04167
549.519	2977.375
553.344	2967.70833
557.166	2912.70833
560.985	2895.375
564.802	2835.375
568.615	2809.375
572.425	2781.70833
576.232	2742.04167
580.036	2729.375
583.836	2744.375
587.634	2762.04167
591.429	2736.70833
595.221	2819.04167
599.01	2830.70833
602.796	2878.70833
606.578	2884.375
610.358	2900.375
614.135	2882.70833
617.909	2890.04167
621.679	2870.70833
625.447	2848.375
629.212	2848.375
632.973	2848.375
636.732	2850.04167
640.488	2845.70833
644.241	2812.70833
647.991	2785.04167
651.737	2810.04167
655.481	2781.04167
659.222	2772.375
662.96	2795.04167
666.695	2811.375
670.427	2818.375
674.156	2831.70833
677.882	2821.70833
681.605	2818.04167
685.325	2772.04167
689.043	2815.04167
692.757	2781.04167
696.468	2800.375
700.177	2805.375
703.882	2798.70833
707.585	2821.375
711.284	2829.04167
714.981	2836.04167
718.675	2839.375
722.366	2837.70833
726.054	2808.70833
729.739	2814.375
733.421	2819.04167
737.1	2824.375
740.777	2853.04167
744.45	2865.04167
748.121	2892.375
751.789	2945.375
755.453	2941.04167
759.115	2952.375
762.774	2998.04167
766.431	3035.375
770.084	3062.375
773.734	3081.70833
777.382	3158.375
781.027	3214.70833
784.669	3179.375
788.308	3220.375
791.944	3272.04167
795.577	3259.375
799.208	3323.375
802.835	3341.375
806.46	3341.70833
810.082	3385.04167
813.701	3380.04167
817.317	3412.70833
820.931	3424.70833
824.542	3427.04167
828.149	3372.375
831.754	3370.04167
835.357	3369.375
838.956	3362.70833
842.553	3338.04167
846.146	3333.375
849.737	3312.70833
853.326	3322.04167
856.911	3314.70833
860.493	3377.375
864.073	3416.04167
867.65	3505.70833
871.225	3507.70833
874.796	3511.375
878.365	3527.375
881.931	3513.04167
885.494	3570.70833
889.054	3558.04167
892.612	3557.375
896.166	3535.375
899.719	3500.04167
903.268	3458.04167
906.814	3451.375
910.358	3395.375
913.899	3405.70833
917.438	3422.70833
920.973	3387.375
924.506	3452.375
928.036	3490.375
931.564	3537.70833
935.088	3574.70833
938.61	3557.375
942.129	3636.04167
945.646	3703.70833
949.16	3787.375
952.671	3873.375
956.179	3916.70833
959.685	3859.04167
963.188	3836.70833
966.688	3778.04167
970.185	3689.375
973.68	3626.04167
977.173	3605.70833
980.662	3591.04167
984.149	3592.375
987.633	3615.04167
991.114	3694.70833
994.593	3785.375
998.069	3911.70833
1001.542	4033.70833
1005.013	3934.375
1008.481	3694.375
1011.947	3653.04167
1015.409	3633.375
1018.869	3672.70833
1022.327	3621.375
1025.782	3605.04167
1029.234	3597.70833
1032.683	3578.70833
1036.13	3466.04167
1039.574	3323.04167
1043.016	3233.375
1046.455	3187.04167
1049.891	3139.70833
1053.325	3127.375
1056.756	3110.04167
1060.184	3176.04167
1063.61	3172.375
1067.033	3185.375
1070.454	3183.04167
1073.872	3215.70833
1077.287	3244.04167
1080.7	3289.375
1084.11	3224.375
1087.517	3219.70833
1090.922	3171.70833
1094.325	3135.04167
1097.724	3137.04167
1101.122	3135.70833
1104.516	3101.04167
1107.908	3099.70833
1111.298	3158.70833
1114.684	3206.04167
1118.069	3237.70833
1121.45	3255.375
1124.83	3258.70833
1128.206	3267.04167
1131.58	3320.375
1134.951	3432.04167
1138.32	3543.04167
1141.687	3651.375
1145.05	3755.70833
1148.412	3785.04167
1151.77	3772.04167
1155.126	3768.375
1158.48	3785.04167
1161.831	3823.04167
1165.18	3845.04167
1168.525	3928.375
1171.869	3948.375
1175.21	3989.70833
1178.548	4027.04167
1181.884	4078.04167
1185.217	4098.375
1188.548	4178.70833
1191.877	4228.70833
1195.202	4349.70833
1198.526	4398.70833
1201.846	4418.70833
1205.165	4385.04167
1208.48	4401.70833
1211.794	4389.70833
1215.104	4353.375
1218.413	4389.70833
1221.719	4363.04167
1225.022	4355.04167
1228.323	4321.04167
1231.621	4307.70833
1234.917	4261.70833
1238.21	4302.04167
1241.501	4320.70833
1244.79	4296.70833
1248.076	4325.70833
1251.359	4388.375
1254.64	4455.70833
1257.919	4458.70833
1261.195	4529.375
1264.468	4592.04167
1267.74	4676.375
1271.008	4673.70833
1274.275	4659.375
1277.538	4602.04167
1280.8	4554.70833
1284.059	4559.70833
1287.315	4624.375
1290.569	4651.70833
1293.821	4663.375
1297.07	4687.375
1300.317	4726.04167
1303.562	4674.70833
1306.803	4648.04167
1310.043	4629.04167
1313.28	4540.375
1316.515	4488.04167
1319.747	4436.70833
1322.977	4404.04167
1326.204	4312.375
1329.429	4233.70833
1332.652	4216.70833
1335.872	4211.375
1339.09	4169.375
1342.306	4201.70833
1345.519	4165.04167
1348.729	4179.70833
1351.938	4132.04167
1355.144	4068.375
1358.347	4047.70833
1361.548	4030.375
1364.747	4036.04167
1367.944	4018.375
1371.138	4051.70833
1374.329	4069.04167
1377.518	4119.04167
1380.705	4173.04167
1383.89	4136.70833
1387.072	4024.04167
1390.252	3862.375
1393.429	3755.70833
1396.605	3649.375
1399.777	3548.70833
1402.948	3499.375
1406.116	3485.375
1409.282	3476.04167
1412.445	3478.375
1415.606	3525.04167
1418.765	3592.70833
1421.921	3669.70833
1425.075	3771.04167
1428.227	3869.70833
1431.376	4046.04167
1434.524	4152.04167
1437.668	4296.70833
1440.811	4300.70833
1443.951	4325.04167
1447.089	4329.70833
1450.224	4370.70833
1453.357	4326.375
1456.488	4282.70833
1459.617	4178.04167
1462.743	4188.375
1465.867	4070.04167
1468.989	4057.70833
1472.108	3966.04167
1475.225	3909.04167
1478.34	3867.375
1481.453	3851.70833
1484.563	3842.375
1487.671	3935.375
1490.776	3998.04167
1493.88	4055.70833
1496.981	4148.375
1500.08	4215.375
1503.176	4289.70833
1506.271	4363.375
1509.363	4453.04167
1512.452	4485.375
1515.54	4575.04167
1518.625	4692.04167
1521.708	4840.04167
1524.789	5087.375
1527.867	5452.04167
1530.944	5769.375
1534.018	6047.04167
1537.089	6261.04167
1540.159	6233.70833
1543.226	6133.70833
1546.291	5889.04167
1549.354	5716.04167
1552.415	5547.04167
1555.473	5333.04167
1558.529	5239.04167
1561.583	5160.04167
1564.634	5108.70833
1567.684	5112.375
1570.731	5085.70833
1573.776	5139.04167
1576.819	5152.70833
1579.859	5211.70833
1582.898	5280.70833
1585.934	5276.04167
1588.968	5293.375
1591.999	5325.70833
1595.029	5316.70833
1598.056	5337.70833
1601.081	5338.70833
1604.104	5325.04167
1607.125	5288.04167
1610.144	5165.04167
1613.16	5033.375
1616.174	4895.375
1619.186	4775.375
1622.196	4636.375
1625.203	4569.04167
1628.209	4451.375
1631.212	4460.04167
1634.213	4426.70833
1637.212	4366.375
1640.209	4307.04167
1643.203	4211.375
1646.196	4084.70833
1649.186	3915.375
1652.174	3818.70833
1655.16	3694.375
1658.144	3574.04167
1661.125	3440.375
1664.105	3272.375
1667.082	3102.375
1670.057	2962.375
1673.03	2760.04167
1676.001	2576.70833
1678.97	2400.04167
1681.937	2268.70833
1684.901	2170.70833
1687.863	2095.70833
1690.824	1998.70833
1693.782	1946.375
1696.738	1897.04167
1699.692	1842.70833
1702.643	1795.70833
1705.593	1786.70833
1708.54	1755.04167
1711.486	1754.04167
1714.429	1707.70833
1717.37	1710.70833
1720.309	1660.70833
1723.246	1670.375
1726.181	1620.375
1729.113	1628.70833
1732.044	1611.70833
1734.972	1585.375
1737.899	1581.375
1740.823	1576.70833
1743.745	1579.04167
1746.665	1514.375
1749.583	1490.70833
1752.499	1474.70833
1755.413	1456.70833
1758.325	1428.70833
1761.235	1434.04167
1764.142	1377.70833
1767.048	1381.375
1769.951	1376.70833
1772.852	1360.70833
1775.752	1369.04167
1778.649	1388.70833
1781.544	1350.70833
1784.437	1324.70833
1787.328	1325.375
1790.217	1311.04167
1793.104	1292.70833
1795.989	1292.04167
1798.872	1273.375
1801.753	1304.70833
1804.631	1284.375
1807.508	1290.70833
1810.383	1288.04167
1813.255	1278.04167
1816.126	1275.04167
1818.994	1271.70833
1821.861	1263.70833
1824.725	1261.04167
1827.587	1251.70833
1830.448	1223.375
1833.306	1222.04167
1836.162	1234.70833
1839.017	1215.70833
1841.869	1206.70833
1844.719	1226.70833
1847.567	1208.04167
1850.414	1185.70833
1853.258	1197.375
1856.1	1200.375
1858.94	1208.375
1861.778	1204.70833
1864.614	1178.375
1867.448	1199.70833
1870.28	1191.375
1873.111	1206.04167
1875.939	1194.04167
1878.765	1204.70833
1881.589	1180.375
1884.411	1178.375
1887.231	1201.04167
1890.049	1182.375
1892.865	1177.70833
1895.68	1172.04167
1898.492	1175.70833
1901.302	1169.04167
1904.11	1153.04167
1906.916	1145.70833
1909.721	1134.04167
1912.523	1159.04167
1915.323	1126.70833
1918.122	1132.375
1920.918	1147.70833
1923.712	1107.70833
1926.505	1123.04167
1929.295	1115.70833
1932.084	1137.375
1934.87	1116.375
1937.655	1118.375
1940.438	1113.70833
1943.218	1121.04167
1945.997	1118.375
1948.774	1124.375
1951.549	1120.375
1954.322	1101.70833
1957.093	1117.70833
1959.862	1106.70833
1962.629	1101.04167
1965.394	1090.375
1968.157	1080.04167
1970.918	1076.04167
1973.678	1076.04167
1976.435	1071.04167
1979.19	1072.375
1981.944	1076.04167
1984.696	1070.375
1987.445	1051.375
1990.193	1068.375
1992.939	1064.04167
1995.683	1066.375
1998.425	1048.375
2001.165	1073.70833
2003.903	1051.375
2006.639	1043.70833
2009.374	1054.375
2012.106	1048.375
2014.837	1030.04167
2017.566	1055.04167
2020.292	1041.04167
2023.017	1046.375
2025.74	1028.04167
2028.461	1030.70833
2031.18	1043.375
2033.898	1031.70833
2036.613	1035.70833
2039.327	1044.04167
2042.038	1024.375
2044.748	1025.375
2047.456	1022.70833
2050.162	1013.04167
2052.866	1002.04167
2055.568	1018.04167
2058.268	1005.70833
2060.967	1017.375
2063.663	997.04167
2066.358	1006.70833
2069.051	998.70833
2071.742	1001.04167
2074.431	1010.375
2077.118	1014.375
2079.804	1004.70833
2082.487	1005.04167
2085.169	1028.04167
2087.849	1039.70833
2090.527	1019.375
2093.203	1022.375
2095.877	1028.70833
2098.55	1029.70833
2101.22	1065.04167
2103.889	1082.04167
2106.556	1083.70833
2109.221	1124.04167
2111.884	1168.04167
2114.546	1253.375
2117.205	1356.04167
2119.863	1497.375
2122.519	1609.70833
2125.173	1702.04167
2127.825	1827.70833
2130.475	1856.70833
2133.124	1815.70833
2135.771	1720.04167
2138.416	1658.70833
2141.059	1555.04167
2143.7	1487.375
2146.339	1374.375
2148.977	1278.70833
2151.613	1264.375
2154.247	1217.70833
2156.879	1197.70833
2159.51	1158.04167
2162.138	1145.04167
2164.765	1144.375
2167.39	1127.375
2170.013	1118.04167
2172.634	1113.04167
2175.254	1104.04167
2177.872	1148.04167
2180.488	1102.70833
2183.102	1099.70833
2185.714	1066.375
2188.325	1040.70833
2190.934	1051.04167
2193.541	1040.375
2196.146	1018.70833
2198.75	1001.04167
2201.351	1001.70833
2203.951	953.04167
2206.549	978.70833
2209.146	938.375
2211.74	929.70833
2214.333	944.375
2216.924	921.70833
2219.514	920.04167
2222.101	910.04167
2224.687	920.375
2227.271	899.70833
2229.853	887.375
2232.433	869.04167
2235.012	903.70833
2237.589	909.375
2240.164	904.375
2242.738	887.04167
2245.309	874.375
2247.879	879.70833
2250.448	885.375
2253.014	842.70833
2255.579	839.04167
2258.142	849.04167
2260.703	813.70833
2263.262	822.375
2265.82	811.70833
2268.376	820.375
2270.93	798.04167
2273.483	812.04167
2276.033	816.70833
2278.583	803.375
2281.13	797.375
2283.675	792.375
2286.219	797.375
2288.761	799.375
2291.302	789.70833
2293.841	792.70833
2296.377	768.70833
2298.913	774.04167
2301.446	783.04167
2303.978	771.04167
2306.508	760.70833
2309.037	773.04167
2311.563	773.375
2314.088	773.375
2316.612	750.70833
2319.133	760.375
2321.653	755.70833
2324.171	750.70833
2326.688	747.04167
2329.202	746.70833
2331.715	753.04167
2334.227	745.375
2336.736	742.70833
2339.244	741.70833
2341.751	728.70833
2344.255	734.70833
2346.758	722.04167
2349.259	725.04167
2351.759	737.375
2354.257	711.375
2356.753	717.70833
2359.247	717.04167
2361.74	732.375
2364.231	723.70833
2366.721	727.375
2369.209	711.70833
2371.695	720.70833
2374.179	716.70833
2376.662	707.70833
2379.143	727.04167
2381.622	712.375
2384.1	728.375
2386.576	707.70833
2389.051	721.04167
2391.524	724.375
2393.995	719.375
2396.464	701.70833
2398.932	700.70833
2401.398	708.70833
2403.863	699.375
2406.325	697.04167
2408.787	701.375
2411.246	704.70833
2413.704	704.375
2416.16	696.70833
2418.615	693.70833
2421.068	694.04167
2423.519	691.70833
2425.969	694.375
2428.417	687.375
2430.863	708.375
2433.308	709.04167
2435.751	694.375
2438.193	691.375
2440.633	697.70833
2443.071	689.375
2445.508	675.375
2447.943	676.04167
2450.376	665.375
2452.808	679.04167
2455.238	664.70833
2457.667	697.375
2460.093	666.70833
2462.519	665.04167
2464.942	670.70833
2467.365	676.375
2469.785	669.70833
2472.204	661.375
2474.621	662.04167
2477.037	687.04167
2479.451	649.70833
2481.863	656.04167
2484.274	657.375
2486.683	664.70833
2489.091	665.70833
2491.497	660.70833
2493.901	649.04167
2496.304	657.70833
2498.705	665.04167
2501.105	643.04167
2503.503	681.375
2505.899	645.70833
2508.294	672.70833
2510.687	642.04167
2513.079	636.70833
2515.469	642.04167
2517.858	646.70833
2520.245	656.375
2522.63	648.70833
2525.014	626.04167
2527.396	640.70833
2529.776	637.70833
2532.156	653.375
2534.533	637.375
2536.909	633.375
2539.283	617.70833
2541.656	636.375
2544.027	658.70833
2546.397	635.375
2548.765	638.04167
2551.131	642.70833
2553.496	640.70833
2555.86	634.04167
2558.221	636.04167
2560.582	626.70833
2562.94	617.70833
2565.298	631.70833
2567.653	649.04167
2570.007	609.375
2572.36	629.70833
2574.711	633.70833
2577.06	644.375
2579.408	626.70833
2581.754	617.70833
2584.099	625.70833
2586.442	618.375
2588.784	646.04167
2591.124	635.375
2593.463	625.375
2595.8	627.70833
2598.135	609.375
2600.469	621.70833
2602.802	637.70833
2605.133	636.04167
2607.462	613.375
2609.79	620.04167
2612.116	629.375
2614.441	629.04167
2616.764	625.04167
2619.086	620.04167
2621.406	618.04167
2623.725	641.70833
2626.042	631.375
2628.358	616.04167
2630.672	627.04167
2632.985	632.04167
2635.296	630.375
2637.606	639.04167
2639.914	610.375
2642.22	629.04167
2644.525	619.375
2646.829	636.04167
2649.131	645.375
2651.432	639.70833
2653.731	617.375
2656.028	648.04167
2658.324	638.04167
2660.619	638.70833
2662.912	653.70833
2665.204	631.375
2667.494	653.70833
2669.782	645.375
2672.07	640.70833
2674.355	657.70833
2676.639	634.04167
2678.922	646.70833
2681.203	651.70833
2683.483	625.04167
2685.761	633.70833
2688.038	650.70833
2690.313	663.70833
2692.587	649.70833
2694.859	635.04167
2697.13	654.04167
2699.399	655.70833
2701.667	667.04167
2703.933	666.04167
2706.198	680.375
2708.461	679.375
2710.723	685.04167
2712.984	673.70833
2715.243	702.04167
2717.5	682.375
2719.757	700.04167
2722.011	694.04167
2724.264	702.70833
2726.516	715.375
2728.766	699.375
2731.015	707.04167
2733.262	695.04167
2735.508	706.375
2737.753	701.70833
2739.996	681.04167
2742.237	674.375
2744.477	689.70833
2746.716	687.70833
2748.953	673.375
2751.189	686.375
2753.423	669.375
2755.656	673.375
2757.887	661.375
2760.117	680.70833
2762.346	657.375
2764.573	664.375
2766.798	656.70833
2769.022	667.70833
2771.245	668.04167
2773.467	670.70833
2775.686	687.375
2777.905	679.70833
2780.122	699.70833
2782.337	683.04167
2784.552	689.70833
2786.764	704.375
2788.976	720.04167
2791.186	728.70833
2793.394	718.04167
2795.601	737.70833
2797.807	743.375
2800.011	750.70833
2802.214	773.375
2804.415	769.70833
2806.615	776.375
2808.814	802.04167
2811.011	797.04167
2813.206	798.375
2815.401	811.375
2817.594	834.70833
2819.785	854.04167
2821.975	839.375
2824.164	860.04167
2826.351	877.70833
2828.537	901.375
2830.722	918.70833
2832.905	931.70833
2835.086	967.70833
2837.267	1003.70833
2839.445	1034.04167
2841.623	1059.04167
2843.799	1111.375
2845.974	1154.375
2848.147	1202.70833
2850.319	1231.375
2852.489	1264.70833
2854.659	1285.04167
2856.826	1306.04167
2858.993	1333.70833
2861.158	1319.70833
2863.321	1331.375
2865.483	1350.04167
2867.644	1341.04167
2869.804	1342.375
2871.962	1338.375
2874.118	1358.04167
2876.274	1386.375
2878.428	1365.04167
2880.58	1316.04167
2882.731	1327.70833
2884.881	1318.375
2887.03	1335.375
2889.177	1310.70833
2891.322	1332.70833
2893.467	1322.375
2895.61	1333.70833
2897.751	1350.70833
2899.892	1331.375
2902.03	1352.375
2904.168	1361.70833
2906.304	1368.04167
2908.439	1394.04167
2910.572	1372.04167
2912.704	1398.375
2914.835	1394.375
2916.965	1398.70833
2919.093	1394.04167
2921.219	1356.70833
2923.345	1361.04167
2925.469	1352.375
2927.591	1342.04167
2929.712	1289.375
2931.832	1276.70833
2933.951	1248.04167
2936.068	1215.375
2938.184	1188.375
2940.299	1139.04167
2942.412	1121.70833
2944.524	1074.375
2946.634	1035.70833
2948.744	982.70833
2950.851	1002.04167
2952.958	944.375
2955.063	923.04167
2957.167	895.04167
2959.269	873.70833
2961.371	892.375
2963.471	846.04167
2965.569	835.04167
2967.666	804.70833
2969.762	785.375
2971.857	761.04167
2973.95	746.375
2976.042	734.70833
2978.133	717.70833
2980.222	703.70833
2982.31	672.04167
2984.396	647.70833
2986.482	660.375
2988.566	651.70833
2990.648	632.04167
2992.73	627.375
2994.81	602.375
2996.889	618.375
2998.966	600.375
3001.042	602.70833
3003.117	590.375
3005.191	588.70833
3007.263	574.04167
3009.334	578.375
3011.403	571.375
3013.472	546.04167
3015.539	550.375
3017.604	552.70833
3019.669	519.04167
3021.732	522.375
3023.794	521.70833
3025.854	513.375
3027.914	510.375
3029.971	516.375
3032.028	506.70833
3034.083	504.70833
3036.137	507.04167
3038.19	482.04167
3040.242	472.04167
3042.292	459.04167
3044.341	458.375
3046.388	468.70833
3048.435	440.04167
3050.48	461.70833
3052.524	449.375
3054.566	426.70833
3056.607	431.04167
3058.647	427.04167
3060.686	403.375
3062.723	393.375
3064.759	382.04167
3066.794	-0.29167
3068.828	-0.95833
3070.86	-0.95833
