-0.839	422.875
3.438	478.54167
7.711	143.875
11.981	58.20833
16.247	47.875
20.509	44.875
24.768	45.875
29.024	46.875
33.276	48.20833
37.524	54.54167
41.769	46.20833
46.01	36.20833
50.247	54.54167
54.481	67.54167
58.712	67.20833
62.939	52.875
67.162	65.54167
71.382	60.20833
75.599	49.54167
79.812	70.54167
84.021	85.54167
88.227	66.20833
92.429	68.54167
96.628	55.875
100.823	73.54167
105.015	76.54167
109.204	78.54167
113.388	83.20833
117.57	79.54167
121.748	95.20833
125.922	85.54167
130.093	109.875
134.261	115.54167
138.425	108.875
142.585	149.54167
146.742	147.875
150.896	179.54167
155.046	222.875
159.193	352.875
163.336	596.54167
167.476	1103.20833
171.613	2035.875
175.746	3401.875
179.875	5069.54167
184.002	6630.54167
188.124	7755.20833
192.244	8178.20833
196.36	8176.20833
200.472	8014.54167
204.581	7890.875
208.687	7763.20833
212.79	7744.54167
216.889	7800.54167
220.984	7938.20833
225.077	8072.54167
229.165	8237.875
233.251	8383.20833
237.333	8464.875
241.412	8479.875
245.487	8470.54167
249.559	8386.20833
253.628	8294.875
257.694	8216.875
261.756	8107.20833
265.814	7906.54167
269.87	7699.875
273.922	7427.875
277.97	7250.20833
282.016	7158.875
286.058	7071.875
290.097	7101.54167
294.132	7083.54167
298.164	6922.875
302.193	6552.20833
306.219	6038.54167
310.241	5497.875
314.26	5025.54167
318.276	4614.54167
322.288	4304.875
326.297	4076.875
330.303	3901.20833
334.305	3757.54167
338.305	3669.54167
342.301	3617.54167
346.294	3579.875
350.283	3530.54167
354.269	3501.20833
358.252	3488.54167
362.232	3458.875
366.209	3419.20833
370.182	3376.20833
374.152	3373.875
378.119	3392.54167
382.083	3367.54167
386.043	3395.20833
390	3332.875
393.954	3327.20833
397.905	3285.54167
401.852	3260.54167
405.797	3225.875
409.738	3222.54167
413.676	3220.20833
417.61	3225.20833
421.542	3116.54167
425.47	3060.875
429.396	3027.20833
433.318	3039.54167
437.236	2996.875
441.152	3026.875
445.065	2928.54167
448.974	2956.875
452.88	2932.54167
456.783	2910.20833
460.683	2873.54167
464.58	2900.20833
468.473	2905.20833
472.364	2904.20833
476.251	2931.54167
480.135	2940.20833
484.016	2969.54167
487.894	3007.875
491.769	3006.875
495.641	3030.20833
499.509	2998.875
503.375	2995.875
507.237	2991.20833
511.096	2998.20833
514.952	3028.875
518.805	3065.875
522.655	3077.54167
526.502	3007.875
530.346	2949.54167
534.187	2958.54167
538.024	2976.20833
541.859	2971.875
545.69	3003.875
549.519	2957.875
553.344	2950.875
557.166	2889.54167
560.985	2880.875
564.802	2834.54167
568.615	2793.875
572.425	2758.20833
576.232	2746.875
580.036	2758.875
583.836	2750.20833
587.634	2749.20833
591.429	2743.54167
595.221	2795.20833
599.01	2810.54167
602.796	2868.54167
606.578	2905.54167
610.358	2894.875
614.135	2865.54167
617.909	2840.54167
621.679	2858.54167
625.447	2847.875
629.212	2856.20833
632.973	2849.54167
636.732	2846.875
640.488	2851.54167
644.241	2784.54167
647.991	2788.875
651.737	2801.875
655.481	2769.54167
659.222	2789.20833
662.96	2777.20833
666.695	2792.54167
670.427	2814.20833
674.156	2795.20833
677.882	2825.54167
681.605	2820.54167
685.325	2780.20833
689.043	2785.54167
692.757	2753.54167
696.468	2799.875
700.177	2794.875
703.882	2784.54167
707.585	2792.20833
711.284	2831.875
714.981	2785.20833
718.675	2825.875
722.366	2831.20833
726.054	2798.875
729.739	2816.875
733.421	2828.54167
737.1	2813.54167
740.777	2826.54167
744.45	2874.54167
748.121	2892.875
751.789	2945.54167
755.453	2941.875
759.115	2949.875
762.774	2997.20833
766.431	3023.20833
770.084	3042.20833
773.734	3074.54167
777.382	3149.20833
781.027	3151.875
784.669	3170.875
788.308	3204.875
791.944	3216.875
795.577	3269.54167
799.208	3300.20833
802.835	3328.875
806.46	3314.875
810.082	3362.20833
813.701	3371.54167
817.317	3392.875
820.931	3394.54167
824.542	3418.54167
828.149	3381.875
831.754	3359.875
835.357	3342.20833
838.956	3335.20833
842.553	3321.54167
846.146	3342.20833
849.737	3327.875
853.326	3321.875
856.911	3334.20833
860.493	3379.20833
864.073	3433.20833
867.65	3491.875
871.225	3523.54167
874.796	3498.875
878.365	3517.875
881.931	3536.875
885.494	3560.54167
889.054	3566.54167
892.612	3566.875
896.166	3557.20833
899.719	3485.54167
903.268	3462.20833
906.814	3454.875
910.358	3414.875
913.899	3413.54167
917.438	3419.20833
920.973	3394.20833
924.506	3449.54167
928.036	3475.875
931.564	3533.54167
935.088	3560.20833
938.61	3573.20833
942.129	3577.54167
945.646	3720.875
949.16	3792.875
952.671	3872.20833
956.179	3903.20833
959.685	3865.54167
963.188	3837.875
966.688	3777.54167
970.185	3667.875
973.68	3617.54167
977.173	3603.54167
980.662	3575.20833
984.149	3597.20833
987.633	3618.20833
991.114	3674.54167
994.593	3779.875
998.069	3901.20833
1001.542	4047.20833
1005.013	3943.20833
1008.481	3720.20833
1011.947	3655.54167
1015.409	3644.54167
1018.869	3636.54167
1022.327	3631.20833
1025.782	3613.54167
1029.234	3607.875
1032.683	3542.875
1036.13	3438.54167
1039.574	3292.20833
1043.016	3221.20833
1046.455	3156.20833
1049.891	3119.875
1053.325	3128.20833
1056.756	3126.20833
1060.184	3151.20833
1063.61	3158.875
1067.033	3188.20833
1070.454	3161.875
1073.872	3217.20833
1077.287	3220.54167
1080.7	3235.20833
1084.11	3222.20833
1087.517	3206.875
1090.922	3193.20833
1094.325	3141.20833
1097.724	3139.54167
1101.122	3106.20833
1104.516	3088.875
1107.908	3114.875
1111.298	3161.54167
1114.684	3188.54167
1118.069	3232.875
1121.45	3260.875
1124.83	3255.54167
1128.206	3301.875
1131.58	3352.20833
1134.951	3407.20833
1138.32	3524.20833
1141.687	3675.20833
1145.05	3784.54167
1148.412	3792.20833
1151.77	3773.54167
1155.126	3782.54167
1158.48	3782.875
1161.831	3803.875
1165.18	3852.54167
1168.525	3906.54167
1171.869	3986.20833
1175.21	3992.875
1178.548	4052.20833
1181.884	4095.875
1185.217	4105.54167
1188.548	4183.20833
1191.877	4250.54167
1195.202	4337.54167
1198.526	4429.54167
1201.846	4406.54167
1205.165	4402.875
1208.48	4404.54167
1211.794	4385.54167
1215.104	4386.20833
1218.413	4391.54167
1221.719	4388.54167
1225.022	4366.20833
1228.323	4333.20833
1231.621	4295.875
1234.917	4292.20833
1238.21	4329.875
1241.501	4318.20833
1244.79	4295.20833
1248.076	4325.875
1251.359	4362.20833
1254.64	4435.875
1257.919	4462.20833
1261.195	4523.20833
1264.468	4612.875
1267.74	4675.875
1271.008	4685.20833
1274.275	4660.20833
1277.538	4588.875
1280.8	4588.54167
1284.059	4578.54167
1287.315	4628.875
1290.569	4679.20833
1293.821	4671.20833
1297.07	4709.875
1300.317	4709.54167
1303.562	4691.875
1306.803	4659.875
1310.043	4610.20833
1313.28	4501.875
1316.515	4486.54167
1319.747	4425.54167
1322.977	4413.54167
1326.204	4319.20833
1329.429	4222.875
1332.652	4225.54167
1335.872	4214.875
1339.09	4182.875
1342.306	4199.20833
1345.519	4181.20833
1348.729	4163.54167
1351.938	4122.54167
1355.144	4054.54167
1358.347	4036.20833
1361.548	4030.20833
1364.747	4023.20833
1367.944	4002.875
1371.138	4041.54167
1374.329	4081.875
1377.518	4125.875
1380.705	4157.54167
1383.89	4128.54167
1387.072	4001.54167
1390.252	3860.54167
1393.429	3755.875
1396.605	3640.54167
1399.777	3518.20833
1402.948	3499.20833
1406.116	3485.875
1409.282	3503.875
1412.445	3483.54167
1415.606	3527.20833
1418.765	3577.20833
1421.921	3681.875
1425.075	3755.54167
1428.227	3887.54167
1431.376	4040.54167
1434.524	4179.20833
1437.668	4289.54167
1440.811	4316.875
1443.951	4346.54167
1447.089	4339.875
1450.224	4341.875
1453.357	4309.54167
1456.488	4305.54167
1459.617	4219.875
1462.743	4202.54167
1465.867	4102.875
1468.989	4036.54167
1472.108	3973.20833
1475.225	3926.875
1478.34	3881.54167
1481.453	3864.875
1484.563	3874.54167
1487.671	3931.54167
1490.776	3996.54167
1493.88	4083.20833
1496.981	4161.54167
1500.08	4257.54167
1503.176	4289.54167
1506.271	4380.875
1509.363	4455.20833
1512.452	4522.54167
1515.54	4589.875
1518.625	4693.20833
1521.708	4881.20833
1524.789	5114.875
1527.867	5444.54167
1530.944	5793.54167
1534.018	6062.875
1537.089	6264.875
1540.159	6240.20833
1543.226	6115.875
1546.291	5902.875
1549.354	5708.54167
1552.415	5529.20833
1555.473	5359.875
1558.529	5249.875
1561.583	5159.54167
1564.634	5125.875
1567.684	5114.54167
1570.731	5114.54167
1573.776	5168.20833
1576.819	5204.54167
1579.859	5210.54167
1582.898	5306.875
1585.934	5300.54167
1588.968	5331.875
1591.999	5314.875
1595.029	5316.54167
1598.056	5329.20833
1601.081	5334.875
1604.104	5323.54167
1607.125	5296.875
1610.144	5158.20833
1613.16	5039.875
1616.174	4901.54167
1619.186	4779.20833
1622.196	4659.875
1625.203	4557.875
1628.209	4470.20833
1631.212	4448.875
1634.213	4418.875
1637.212	4351.20833
1640.209	4295.54167
1643.203	4178.875
1646.196	4069.875
1649.186	3919.54167
1652.174	3819.875
1655.16	3691.20833
1658.144	3574.20833
1661.125	3416.875
1664.105	3259.875
1667.082	3123.875
1670.057	2946.20833
1673.03	2753.875
1676.001	2590.875
1678.97	2409.20833
1681.937	2280.875
1684.901	2142.54167
1687.863	2073.875
1690.824	1974.54167
1693.782	1946.875
1696.738	1885.20833
1699.692	1850.20833
1702.643	1792.875
1705.593	1797.54167
1708.54	1738.875
1711.486	1749.20833
1714.429	1714.54167
1717.37	1682.875
1720.309	1673.20833
1723.246	1662.20833
1726.181	1636.54167
1729.113	1640.20833
1732.044	1618.54167
1734.972	1585.875
1737.899	1599.54167
1740.823	1580.54167
1743.745	1579.54167
1746.665	1524.54167
1749.583	1497.54167
1752.499	1482.20833
1755.413	1441.875
1758.325	1424.20833
1761.235	1408.20833
1764.142	1388.20833
1767.048	1390.20833
1769.951	1380.875
1772.852	1355.20833
1775.752	1380.54167
1778.649	1366.54167
1781.544	1355.20833
1784.437	1335.54167
1787.328	1331.54167
1790.217	1297.20833
1793.104	1292.54167
1795.989	1293.875
1798.872	1285.20833
1801.753	1293.875
1804.631	1298.875
1807.508	1294.54167
1810.383	1284.20833
1813.255	1276.875
1816.126	1283.54167
1818.994	1259.54167
1821.861	1254.54167
1824.725	1251.875
1827.587	1253.54167
1830.448	1246.54167
1833.306	1225.875
1836.162	1225.20833
1839.017	1199.54167
1841.869	1218.875
1844.719	1214.875
1847.567	1188.20833
1850.414	1177.875
1853.258	1191.20833
1856.1	1204.20833
1858.94	1210.875
1861.778	1211.20833
1864.614	1191.54167
1867.448	1185.20833
1870.28	1178.875
1873.111	1189.875
1875.939	1175.875
1878.765	1200.20833
1881.589	1181.875
1884.411	1183.875
1887.231	1191.54167
1890.049	1182.20833
1892.865	1176.875
1895.68	1160.875
1898.492	1176.20833
1901.302	1156.54167
1904.11	1152.20833
1906.916	1138.20833
1909.721	1140.875
1912.523	1143.20833
1915.323	1107.875
1918.122	1128.875
1920.918	1127.875
1923.712	1128.54167
1926.505	1133.54167
1929.295	1100.20833
1932.084	1129.875
1934.87	1123.20833
1937.655	1123.54167
1940.438	1109.20833
1943.218	1117.54167
1945.997	1113.875
1948.774	1133.54167
1951.549	1127.20833
1954.322	1113.875
1957.093	1109.54167
1959.862	1106.54167
1962.629	1095.875
1965.394	1087.875
1968.157	1086.875
1970.918	1094.20833
1973.678	1072.54167
1976.435	1079.54167
1979.19	1069.20833
1981.944	1065.875
1984.696	1069.875
1987.445	1045.54167
1990.193	1071.54167
1992.939	1079.54167
1995.683	1065.20833
1998.425	1043.20833
2001.165	1075.875
2003.903	1049.20833
2006.639	1043.54167
2009.374	1049.54167
2012.106	1062.875
2014.837	1032.20833
2017.566	1043.875
2020.292	1048.54167
2023.017	1039.54167
2025.74	1030.54167
2028.461	1042.20833
2031.18	1040.54167
2033.898	1020.20833
2036.613	1042.20833
2039.327	1039.875
2042.038	1029.54167
2044.748	1025.54167
2047.456	1030.875
2050.162	1013.54167
2052.866	1017.875
2055.568	1015.20833
2058.268	1004.54167
2060.967	1021.875
2063.663	1006.54167
2066.358	1019.20833
2069.051	1011.54167
2071.742	1012.54167
2074.431	1019.875
2077.118	1012.875
2079.804	993.875
2082.487	1007.875
2085.169	1025.875
2087.849	1023.875
2090.527	1020.54167
2093.203	1040.20833
2095.877	1049.20833
2098.55	1032.20833
2101.22	1053.54167
2103.889	1071.875
2106.556	1095.875
2109.221	1124.20833
2111.884	1178.20833
2114.546	1250.875
2117.205	1359.20833
2119.863	1480.54167
2122.519	1603.54167
2125.173	1722.20833
2127.825	1837.875
2130.475	1864.20833
2133.124	1813.54167
2135.771	1727.20833
2138.416	1674.875
2141.059	1556.875
2143.7	1482.875
2146.339	1375.875
2148.977	1296.20833
2151.613	1279.875
2154.247	1223.875
2156.879	1196.20833
2159.51	1166.875
2162.138	1155.20833
2164.765	1132.875
2167.39	1127.54167
2170.013	1135.20833
2172.634	1132.875
2175.254	1111.20833
2177.872	1130.875
2180.488	1082.54167
2183.102	1094.54167
2185.714	1071.20833
2188.325	1040.20833
2190.934	1039.875
2193.541	1042.20833
2196.146	1016.20833
2198.75	1001.875
2201.351	994.875
2203.951	955.54167
2206.549	975.20833
2209.146	957.875
2211.74	939.54167
2214.333	943.875
2216.924	920.20833
2219.514	930.54167
2222.101	912.20833
2224.687	904.875
2227.271	892.875
2229.853	885.54167
2232.433	892.54167
2235.012	902.875
2237.589	904.875
2240.164	914.20833
2242.738	896.20833
2245.309	872.875
2247.879	887.20833
2250.448	883.20833
2253.014	849.875
2255.579	835.875
2258.142	853.20833
2260.703	835.875
2263.262	827.875
2265.82	828.54167
2268.376	824.875
2270.93	813.875
2273.483	811.54167
2276.033	817.54167
2278.583	791.54167
2281.13	799.54167
2283.675	795.875
2286.219	787.875
2288.761	801.54167
2291.302	792.20833
2293.841	792.54167
2296.377	772.54167
2298.913	765.54167
2301.446	788.54167
2303.978	767.875
2306.508	771.875
2309.037	773.54167
2311.563	774.54167
2314.088	778.20833
2316.612	747.54167
2319.133	766.20833
2321.653	766.875
2324.171	759.875
2326.688	761.20833
2329.202	749.20833
2331.715	757.875
2334.227	756.875
2336.736	745.875
2339.244	737.875
2341.751	738.54167
2344.255	746.54167
2346.758	728.20833
2349.259	730.54167
2351.759	734.875
2354.257	731.875
2356.753	724.20833
2359.247	728.54167
2361.74	740.875
2364.231	723.20833
2366.721	736.20833
2369.209	724.20833
2371.695	713.20833
2374.179	725.54167
2376.662	716.875
2379.143	731.875
2381.622	725.54167
2384.1	719.875
2386.576	716.20833
2389.051	729.54167
2391.524	732.875
2393.995	721.875
2396.464	705.875
2398.932	704.20833
2401.398	703.54167
2403.863	708.20833
2406.325	707.54167
2408.787	697.20833
2411.246	700.54167
2413.704	688.54167
2416.16	695.54167
2418.615	700.875
2421.068	706.875
2423.519	701.54167
2425.969	695.20833
2428.417	700.54167
2430.863	718.54167
2433.308	698.875
2435.751	685.20833
2438.193	680.54167
2440.633	695.875
2443.071	685.875
2445.508	680.20833
2447.943	677.54167
2450.376	669.20833
2452.808	676.875
2455.238	668.20833
2457.667	692.54167
2460.093	686.20833
2462.519	679.20833
2464.942	663.20833
2467.365	681.875
2469.785	673.875
2472.204	671.54167
2474.621	665.54167
2477.037	696.20833
2479.451	652.54167
2481.863	652.20833
2484.274	663.54167
2486.683	665.875
2489.091	675.54167
2491.497	662.875
2493.901	660.875
2496.304	658.54167
2498.705	662.875
2501.105	656.875
2503.503	683.20833
2505.899	662.20833
2508.294	675.875
2510.687	645.875
2513.079	648.20833
2515.469	652.20833
2517.858	644.54167
2520.245	669.20833
2522.63	639.875
2525.014	642.20833
2527.396	625.54167
2529.776	634.875
2532.156	639.875
2534.533	638.54167
2536.909	644.20833
2539.283	628.20833
2541.656	631.20833
2544.027	660.875
2546.397	644.54167
2548.765	640.20833
2551.131	629.54167
2553.496	644.875
2555.86	637.54167
2558.221	639.20833
2560.582	618.875
2562.94	619.875
2565.298	631.875
2567.653	650.20833
2570.007	621.875
2572.36	636.875
2574.711	630.20833
2577.06	645.54167
2579.408	626.54167
2581.754	625.54167
2584.099	634.54167
2586.442	623.20833
2588.784	624.20833
2591.124	641.875
2593.463	638.54167
2595.8	616.20833
2598.135	626.54167
2600.469	617.54167
2602.802	644.54167
2605.133	633.875
2607.462	615.20833
2609.79	627.54167
2612.116	640.54167
2614.441	635.54167
2616.764	626.875
2619.086	622.20833
2621.406	621.20833
2623.725	641.20833
2626.042	638.875
2628.358	606.20833
2630.672	626.875
2632.985	641.54167
2635.296	625.875
2637.606	633.54167
2639.914	620.54167
2642.22	639.20833
2644.525	628.20833
2646.829	635.54167
2649.131	640.875
2651.432	651.54167
2653.731	637.20833
2656.028	660.20833
2658.324	643.54167
2660.619	630.875
2662.912	646.20833
2665.204	633.875
2667.494	652.20833
2669.782	634.54167
2672.07	656.875
2674.355	659.875
2676.639	648.875
2678.922	636.875
2681.203	658.875
2683.483	632.875
2685.761	644.875
2688.038	653.54167
2690.313	671.20833
2692.587	638.20833
2694.859	642.20833
2697.13	657.54167
2699.399	662.54167
2701.667	683.875
2703.933	682.54167
2706.198	673.54167
2708.461	676.875
2710.723	698.20833
2712.984	683.20833
2715.243	692.54167
2717.5	688.20833
2719.757	692.875
2722.011	701.875
2724.264	706.875
2726.516	721.875
2728.766	706.54167
2731.015	719.20833
2733.262	709.54167
2735.508	704.54167
2737.753	699.54167
2739.996	681.875
2742.237	680.875
2744.477	692.20833
2746.716	686.875
2748.953	691.20833
2751.189	683.875
2753.423	672.20833
2755.656	675.20833
2757.887	655.875
2760.117	674.54167
2762.346	669.875
2764.573	668.875
2766.798	663.54167
2769.022	673.54167
2771.245	665.54167
2773.467	680.54167
2775.686	687.875
2777.905	687.875
2780.122	701.875
2782.337	705.54167
2784.552	694.875
2786.764	723.875
2788.976	721.54167
2791.186	722.20833
2793.394	730.875
2795.601	744.875
2797.807	751.875
2800.011	761.20833
2802.214	781.20833
2804.415	779.875
2806.615	783.875
2808.814	809.54167
2811.011	795.54167
2813.206	806.875
2815.401	824.20833
2817.594	828.54167
2819.785	846.875
2821.975	845.20833
2824.164	867.875
2826.351	892.54167
2828.537	899.875
2830.722	920.875
2832.905	944.54167
2835.086	970.20833
2837.267	999.875
2839.445	1058.54167
2841.623	1067.875
2843.799	1109.20833
2845.974	1178.875
2848.147	1202.20833
2850.319	1232.20833
2852.489	1275.875
2854.659	1282.54167
2856.826	1311.875
2858.993	1337.20833
2861.158	1333.54167
2863.321	1330.20833
2865.483	1358.54167
2867.644	1348.20833
2869.804	1356.54167
2871.962	1341.20833
2874.118	1364.20833
2876.274	1388.20833
2878.428	1353.20833
2880.58	1340.54167
2882.731	1332.20833
2884.881	1327.875
2887.03	1320.875
2889.177	1324.20833
2891.322	1350.20833
2893.467	1325.20833
2895.61	1331.54167
2897.751	1371.20833
2899.892	1359.54167
2902.03	1364.875
2904.168	1380.875
2906.304	1375.54167
2908.439	1395.875
2910.572	1374.54167
2912.704	1399.20833
2914.835	1403.54167
2916.965	1391.20833
2919.093	1389.54167
2921.219	1363.20833
2923.345	1377.20833
2925.469	1338.54167
2927.591	1333.54167
2929.712	1301.20833
2931.832	1279.54167
2933.951	1243.20833
2936.068	1211.54167
2938.184	1178.54167
2940.299	1142.54167
2942.412	1098.54167
2944.524	1084.875
2946.634	1053.20833
2948.744	986.54167
2950.851	999.875
2952.958	945.20833
2955.063	927.54167
2957.167	912.875
2959.269	873.875
2961.371	889.54167
2963.471	846.875
2965.569	841.54167
2967.666	805.20833
2969.762	796.20833
2971.857	771.875
2973.95	744.20833
2976.042	739.875
2978.133	721.20833
2980.222	697.54167
2982.31	670.54167
2984.396	651.54167
2986.482	665.875
2988.566	652.875
2990.648	628.875
2992.73	631.20833
2994.81	615.54167
2996.889	617.875
2998.966	603.20833
3001.042	615.54167
3003.117	595.54167
3005.191	597.54167
3007.263	585.20833
3009.334	588.20833
3011.403	580.875
3013.472	547.875
3015.539	567.20833
3017.604	558.875
3019.669	522.54167
3021.732	530.20833
3023.794	526.20833
3025.854	511.20833
3027.914	507.54167
3029.971	526.20833
3032.028	500.54167
3034.083	507.875
3036.137	506.20833
3038.19	487.54167
3040.242	474.54167
3042.292	465.20833
3044.341	452.875
3046.388	477.20833
3048.435	442.20833
3050.48	464.20833
3052.524	454.54167
3054.566	439.875
3056.607	446.875
3058.647	432.20833
3060.686	415.54167
3062.723	400.875
3064.759	396.20833
3066.794	0.54167
3068.828	-2.45833
3070.86	-1.125
