-0.839	481.54167
3.438	544.54167
7.711	152.875
11.981	58.20833
16.247	46.875
20.509	46.875
24.768	43.54167
29.024	43.20833
33.276	42.54167
37.524	48.20833
41.769	40.54167
46.01	39.20833
50.247	48.875
54.481	66.20833
58.712	67.875
62.939	50.54167
67.162	63.20833
71.382	62.54167
75.599	51.20833
79.812	65.875
84.021	80.20833
88.227	58.54167
92.429	59.20833
96.628	47.20833
100.823	65.875
105.015	75.20833
109.204	74.875
113.388	77.875
117.57	75.54167
121.748	90.20833
125.922	79.875
130.093	102.875
134.261	104.54167
138.425	101.875
142.585	144.54167
146.742	141.54167
150.896	164.54167
155.046	200.20833
159.193	324.54167
163.336	547.20833
167.476	993.875
171.613	1811.20833
175.746	3033.20833
179.875	4502.54167
184.002	5900.54167
188.124	6871.20833
192.244	7199.54167
196.36	7204.54167
200.472	7008.20833
204.581	6851.20833
208.687	6661.20833
212.79	6650.20833
216.889	6658.20833
220.984	6730.875
225.077	6778.875
229.165	6904.20833
233.251	6952.54167
237.333	7058.875
241.412	7031.875
245.487	7005.54167
249.559	6957.54167
253.628	6877.54167
257.694	6841.875
261.756	6819.20833
265.814	6678.20833
269.87	6505.875
273.922	6333.54167
277.97	6196.875
282.016	6076.20833
286.058	5993.54167
290.097	6022.54167
294.132	6022.875
298.164	5955.54167
302.193	5707.20833
306.219	5302.875
310.241	4846.875
314.26	4424.875
318.276	4037.20833
322.288	3786.875
326.297	3560.20833
330.303	3406.875
334.305	3297.875
338.305	3231.875
342.301	3178.54167
346.294	3139.54167
350.283	3120.875
354.269	3082.54167
358.252	3063.20833
362.232	3043.875
366.209	3016.54167
370.182	3011.20833
374.152	2958.20833
378.119	2985.875
382.083	2974.875
386.043	2996.54167
390	2953.20833
393.954	2941.20833
397.905	2919.54167
401.852	2916.54167
405.797	2875.54167
409.738	2856.20833
413.676	2864.20833
417.61	2847.875
421.542	2812.54167
425.47	2748.875
429.396	2748.54167
433.318	2711.875
437.236	2720.875
441.152	2720.875
445.065	2645.20833
448.974	2664.54167
452.88	2662.20833
456.783	2632.20833
460.683	2625.875
464.58	2627.20833
468.473	2638.20833
472.364	2641.20833
476.251	2624.20833
480.135	2653.54167
484.016	2675.875
487.894	2701.54167
491.769	2707.875
495.641	2692.54167
499.509	2687.54167
503.375	2706.20833
507.237	2692.54167
511.096	2698.20833
514.952	2710.875
518.805	2741.20833
522.655	2733.875
526.502	2674.20833
530.346	2680.20833
534.187	2677.54167
538.024	2684.54167
541.859	2675.54167
545.69	2694.20833
549.519	2669.54167
553.344	2674.875
557.166	2616.875
560.985	2614.875
564.802	2571.20833
568.615	2524.20833
572.425	2500.54167
576.232	2471.875
580.036	2468.20833
583.836	2513.54167
587.634	2489.54167
591.429	2481.875
595.221	2517.54167
599.01	2553.875
602.796	2575.54167
606.578	2603.875
610.358	2598.54167
614.135	2602.20833
617.909	2605.54167
621.679	2565.20833
625.447	2563.20833
629.212	2583.875
632.973	2592.20833
636.732	2585.54167
640.488	2565.20833
644.241	2531.875
647.991	2549.875
651.737	2564.54167
655.481	2556.54167
659.222	2576.875
662.96	2557.20833
666.695	2587.20833
670.427	2586.54167
674.156	2588.54167
677.882	2587.875
681.605	2568.875
685.325	2553.875
689.043	2548.54167
692.757	2524.20833
696.468	2530.20833
700.177	2533.875
703.882	2532.875
707.585	2519.20833
711.284	2531.20833
714.981	2512.875
718.675	2535.20833
722.366	2534.875
726.054	2524.20833
729.739	2527.20833
733.421	2534.54167
737.1	2522.20833
740.777	2552.875
744.45	2557.54167
748.121	2569.875
751.789	2616.54167
755.453	2621.54167
759.115	2620.20833
762.774	2654.20833
766.431	2668.54167
770.084	2705.875
773.734	2713.875
777.382	2803.54167
781.027	2793.20833
784.669	2799.20833
788.308	2815.54167
791.944	2812.875
795.577	2855.20833
799.208	2875.875
802.835	2881.875
806.46	2937.20833
810.082	2954.54167
813.701	2967.54167
817.317	3007.54167
820.931	2995.54167
824.542	2995.54167
828.149	2932.54167
831.754	2889.20833
835.357	2894.54167
838.956	2905.54167
842.553	2895.875
846.146	2858.875
849.737	2831.20833
853.326	2834.20833
856.911	2862.875
860.493	2860.875
864.073	2903.20833
867.65	2993.54167
871.225	2995.20833
874.796	2976.20833
878.365	2973.20833
881.931	2996.20833
885.494	3042.20833
889.054	3020.20833
892.612	3028.875
896.166	3001.54167
899.719	2966.875
903.268	2951.54167
906.814	2946.20833
910.358	2930.875
913.899	2917.20833
917.438	2922.20833
920.973	2908.875
924.506	2945.20833
928.036	2998.54167
931.564	3023.20833
935.088	3050.875
938.61	3051.875
942.129	3073.20833
945.646	3139.54167
949.16	3217.20833
952.671	3289.54167
956.179	3321.20833
959.685	3303.875
963.188	3322.20833
966.688	3290.875
970.185	3224.20833
973.68	3117.20833
977.173	3091.54167
980.662	3064.20833
984.149	3072.20833
987.633	3089.20833
991.114	3107.875
994.593	3215.54167
998.069	3308.20833
1001.542	3443.20833
1005.013	3344.54167
1008.481	3138.54167
1011.947	3090.20833
1015.409	3056.875
1018.869	3078.875
1022.327	3052.20833
1025.782	3048.54167
1029.234	3081.20833
1032.683	3032.20833
1036.13	2927.20833
1039.574	2814.875
1043.016	2764.20833
1046.455	2710.54167
1049.891	2689.875
1053.325	2677.875
1056.756	2665.54167
1060.184	2689.20833
1063.61	2688.54167
1067.033	2692.54167
1070.454	2722.20833
1073.872	2746.875
1077.287	2745.54167
1080.7	2753.875
1084.11	2780.875
1087.517	2734.20833
1090.922	2693.54167
1094.325	2657.54167
1097.724	2642.875
1101.122	2620.20833
1104.516	2622.54167
1107.908	2636.20833
1111.298	2684.20833
1114.684	2717.20833
1118.069	2738.54167
1121.45	2745.875
1124.83	2737.54167
1128.206	2764.20833
1131.58	2824.875
1134.951	2878.20833
1138.32	2962.875
1141.687	3074.20833
1145.05	3180.20833
1148.412	3186.54167
1151.77	3180.20833
1155.126	3164.54167
1158.48	3134.875
1161.831	3159.20833
1165.18	3167.875
1168.525	3240.875
1171.869	3272.20833
1175.21	3296.875
1178.548	3340.875
1181.884	3356.875
1185.217	3402.54167
1188.548	3452.20833
1191.877	3496.20833
1195.202	3593.54167
1198.526	3629.20833
1201.846	3636.875
1205.165	3633.875
1208.48	3623.875
1211.794	3611.875
1215.104	3593.20833
1218.413	3613.875
1221.719	3610.20833
1225.022	3565.875
1228.323	3543.875
1231.621	3518.875
1234.917	3505.20833
1238.21	3532.54167
1241.501	3484.20833
1244.79	3495.875
1248.076	3526.20833
1251.359	3572.54167
1254.64	3621.875
1257.919	3632.875
1261.195	3705.875
1264.468	3758.875
1267.74	3834.54167
1271.008	3827.20833
1274.275	3802.875
1277.538	3781.54167
1280.8	3785.20833
1284.059	3778.875
1287.315	3799.875
1290.569	3838.875
1293.821	3836.20833
1297.07	3856.875
1300.317	3875.20833
1303.562	3861.20833
1306.803	3836.875
1310.043	3800.54167
1313.28	3744.875
1316.515	3734.875
1319.747	3679.875
1322.977	3639.20833
1326.204	3611.875
1329.429	3556.875
1332.652	3565.20833
1335.872	3534.20833
1339.09	3528.875
1342.306	3514.54167
1345.519	3485.54167
1348.729	3473.875
1351.938	3482.54167
1355.144	3404.54167
1358.347	3356.20833
1361.548	3361.54167
1364.747	3379.20833
1367.944	3332.54167
1371.138	3382.20833
1374.329	3388.20833
1377.518	3403.54167
1380.705	3451.20833
1383.89	3438.20833
1387.072	3317.20833
1390.252	3231.54167
1393.429	3109.20833
1396.605	3016.54167
1399.777	2928.20833
1402.948	2891.20833
1406.116	2871.54167
1409.282	2873.54167
1412.445	2868.875
1415.606	2874.20833
1418.765	2942.20833
1421.921	2991.54167
1425.075	3067.54167
1428.227	3175.54167
1431.376	3311.54167
1434.524	3447.875
1437.668	3506.20833
1440.811	3547.54167
1443.951	3583.875
1447.089	3593.20833
1450.224	3596.54167
1453.357	3579.54167
1456.488	3542.875
1459.617	3490.875
1462.743	3426.875
1465.867	3357.875
1468.989	3337.875
1472.108	3292.20833
1475.225	3216.875
1478.34	3196.20833
1481.453	3184.54167
1484.563	3173.875
1487.671	3228.875
1490.776	3261.54167
1493.88	3329.20833
1496.981	3399.20833
1500.08	3456.20833
1503.176	3491.54167
1506.271	3565.20833
1509.363	3634.54167
1512.452	3668.875
1515.54	3714.875
1518.625	3782.875
1521.708	3902.54167
1524.789	4109.54167
1527.867	4332.54167
1530.944	4598.20833
1534.018	4773.875
1537.089	4966.875
1540.159	4917.20833
1543.226	4821.54167
1546.291	4632.20833
1549.354	4484.875
1552.415	4343.875
1555.473	4250.20833
1558.529	4153.875
1561.583	4129.20833
1564.634	4096.20833
1567.684	4048.54167
1570.731	4080.20833
1573.776	4140.54167
1576.819	4165.20833
1579.859	4197.54167
1582.898	4275.20833
1585.934	4302.20833
1588.968	4339.54167
1591.999	4278.54167
1595.029	4280.54167
1598.056	4326.875
1601.081	4336.20833
1604.104	4321.20833
1607.125	4293.20833
1610.144	4185.54167
1613.16	4115.875
1616.174	4029.20833
1619.186	3957.20833
1622.196	3897.875
1625.203	3786.20833
1628.209	3740.20833
1631.212	3703.54167
1634.213	3716.875
1637.212	3713.54167
1640.209	3657.54167
1643.203	3566.875
1646.196	3476.20833
1649.186	3359.54167
1652.174	3239.54167
1655.16	3128.875
1658.144	3063.875
1661.125	2904.54167
1664.105	2782.54167
1667.082	2643.20833
1670.057	2483.20833
1673.03	2325.20833
1676.001	2183.20833
1678.97	2027.875
1681.937	1929.54167
1684.901	1806.875
1687.863	1750.54167
1690.824	1672.54167
1693.782	1642.20833
1696.738	1588.20833
1699.692	1546.875
1702.643	1516.54167
1705.593	1500.20833
1708.54	1474.20833
1711.486	1481.54167
1714.429	1430.20833
1717.37	1441.54167
1720.309	1402.54167
1723.246	1405.54167
1726.181	1376.20833
1729.113	1395.54167
1732.044	1365.54167
1734.972	1346.20833
1737.899	1349.875
1740.823	1329.54167
1743.745	1355.875
1746.665	1304.54167
1749.583	1285.20833
1752.499	1258.875
1755.413	1240.875
1758.325	1204.20833
1761.235	1222.54167
1764.142	1191.875
1767.048	1186.54167
1769.951	1175.875
1772.852	1170.875
1775.752	1171.875
1778.649	1189.875
1781.544	1158.20833
1784.437	1141.20833
1787.328	1142.875
1790.217	1135.20833
1793.104	1104.20833
1795.989	1108.54167
1798.872	1093.875
1801.753	1117.54167
1804.631	1101.54167
1807.508	1109.54167
1810.383	1099.875
1813.255	1088.54167
1816.126	1094.54167
1818.994	1081.54167
1821.861	1076.54167
1824.725	1072.20833
1827.587	1073.54167
1830.448	1053.54167
1833.306	1030.875
1836.162	1046.875
1839.017	1036.54167
1841.869	1040.875
1844.719	1035.875
1847.567	1031.54167
1850.414	1014.54167
1853.258	1014.875
1856.1	1036.54167
1858.94	1038.54167
1861.778	1013.875
1864.614	1021.54167
1867.448	1009.875
1870.28	1011.54167
1873.111	1013.875
1875.939	1007.875
1878.765	1025.875
1881.589	1010.54167
1884.411	1011.54167
1887.231	1016.875
1890.049	1002.20833
1892.865	989.20833
1895.68	986.54167
1898.492	991.875
1901.302	971.875
1904.11	977.20833
1906.916	969.54167
1909.721	957.20833
1912.523	967.54167
1915.323	939.20833
1918.122	961.54167
1920.918	959.54167
1923.712	940.875
1926.505	951.20833
1929.295	946.54167
1932.084	947.20833
1934.87	950.20833
1937.655	939.54167
1940.438	929.875
1943.218	936.54167
1945.997	929.54167
1948.774	929.54167
1951.549	941.54167
1954.322	932.54167
1957.093	936.54167
1959.862	935.20833
1962.629	932.54167
1965.394	907.875
1968.157	913.54167
1970.918	922.54167
1973.678	904.875
1976.435	911.875
1979.19	907.875
1981.944	899.20833
1984.696	892.875
1987.445	891.20833
1990.193	890.20833
1992.939	893.54167
1995.683	900.20833
1998.425	865.54167
2001.165	900.20833
2003.903	875.54167
2006.639	870.20833
2009.374	879.20833
2012.106	882.54167
2014.837	841.54167
2017.566	882.875
2020.292	876.54167
2023.017	868.20833
2025.74	863.20833
2028.461	857.54167
2031.18	866.20833
2033.898	862.54167
2036.613	852.875
2039.327	856.875
2042.038	837.20833
2044.748	851.20833
2047.456	848.54167
2050.162	832.20833
2052.866	829.20833
2055.568	830.54167
2058.268	840.54167
2060.967	845.875
2063.663	827.20833
2066.358	832.875
2069.051	817.20833
2071.742	822.20833
2074.431	842.875
2077.118	827.54167
2079.804	804.875
2082.487	830.875
2085.169	839.20833
2087.849	830.54167
2090.527	819.54167
2093.203	838.54167
2095.877	844.875
2098.55	840.20833
2101.22	842.875
2103.889	851.20833
2106.556	849.54167
2109.221	866.54167
2111.884	888.54167
2114.546	923.20833
2117.205	971.875
2119.863	1049.54167
2122.519	1100.54167
2125.173	1186.875
2127.825	1270.875
2130.475	1295.875
2133.124	1284.20833
2135.771	1242.54167
2138.416	1196.875
2141.059	1123.54167
2143.7	1085.54167
2146.339	1018.20833
2148.977	962.20833
2151.613	947.875
2154.247	936.20833
2156.879	903.54167
2159.51	884.54167
2162.138	864.20833
2164.765	867.875
2167.39	849.20833
2170.013	866.54167
2172.634	867.875
2175.254	853.875
2177.872	874.20833
2180.488	818.20833
2183.102	837.20833
2185.714	826.54167
2188.325	790.20833
2190.934	796.54167
2193.541	797.875
2196.146	776.20833
2198.75	781.875
2201.351	773.20833
2203.951	734.20833
2206.549	777.54167
2209.146	754.54167
2211.74	745.54167
2214.333	746.20833
2216.924	723.54167
2219.514	729.875
2222.101	718.875
2224.687	731.54167
2227.271	711.54167
2229.853	714.20833
2232.433	706.20833
2235.012	714.20833
2237.589	725.875
2240.164	730.20833
2242.738	707.875
2245.309	698.20833
2247.879	709.875
2250.448	704.875
2253.014	667.20833
2255.579	662.875
2258.142	663.54167
2260.703	650.875
2263.262	656.54167
2265.82	654.54167
2268.376	655.875
2270.93	644.20833
2273.483	643.20833
2276.033	658.54167
2278.583	634.54167
2281.13	633.54167
2283.675	625.20833
2286.219	629.54167
2288.761	627.875
2291.302	641.20833
2293.841	627.20833
2296.377	611.875
2298.913	615.54167
2301.446	626.54167
2303.978	622.54167
2306.508	607.54167
2309.037	615.20833
2311.563	602.54167
2314.088	615.54167
2316.612	593.20833
2319.133	613.54167
2321.653	605.20833
2324.171	597.875
2326.688	605.20833
2329.202	589.875
2331.715	597.875
2334.227	596.20833
2336.736	588.875
2339.244	580.54167
2341.751	576.875
2344.255	583.875
2346.758	574.54167
2349.259	578.54167
2351.759	579.54167
2354.257	571.875
2356.753	571.875
2359.247	565.875
2361.74	574.20833
2364.231	572.875
2366.721	577.54167
2369.209	568.54167
2371.695	563.54167
2374.179	553.54167
2376.662	569.54167
2379.143	583.875
2381.622	555.875
2384.1	569.54167
2386.576	557.20833
2389.051	568.875
2391.524	578.875
2393.995	559.20833
2396.464	557.20833
2398.932	543.20833
2401.398	543.20833
2403.863	549.20833
2406.325	551.20833
2408.787	539.875
2411.246	544.875
2413.704	546.54167
2416.16	546.54167
2418.615	541.20833
2421.068	554.20833
2423.519	547.875
2425.969	530.875
2428.417	537.875
2430.863	551.54167
2433.308	541.875
2435.751	538.875
2438.193	532.54167
2440.633	548.875
2443.071	538.875
2445.508	521.54167
2447.943	518.875
2450.376	521.20833
2452.808	518.20833
2455.238	523.20833
2457.667	546.54167
2460.093	530.54167
2462.519	506.20833
2464.942	517.54167
2467.365	520.20833
2469.785	529.20833
2472.204	522.54167
2474.621	503.875
2477.037	536.875
2479.451	497.54167
2481.863	506.54167
2484.274	492.875
2486.683	508.54167
2489.091	517.20833
2491.497	513.54167
2493.901	505.20833
2496.304	504.875
2498.705	507.20833
2501.105	502.875
2503.503	527.875
2505.899	500.20833
2508.294	518.54167
2510.687	502.875
2513.079	493.875
2515.469	492.20833
2517.858	483.54167
2520.245	508.20833
2522.63	493.875
2525.014	488.20833
2527.396	480.875
2529.776	481.54167
2532.156	491.875
2534.533	481.20833
2536.909	488.54167
2539.283	471.54167
2541.656	483.20833
2544.027	508.54167
2546.397	481.54167
2548.765	484.54167
2551.131	490.20833
2553.496	480.20833
2555.86	484.20833
2558.221	487.20833
2560.582	476.54167
2562.94	472.875
2565.298	473.20833
2567.653	489.54167
2570.007	463.875
2572.36	479.875
2574.711	468.54167
2577.06	499.20833
2579.408	475.875
2581.754	470.20833
2584.099	472.54167
2586.442	470.875
2588.784	478.20833
2591.124	481.20833
2593.463	466.875
2595.8	471.20833
2598.135	460.54167
2600.469	458.875
2602.802	492.875
2605.133	484.875
2607.462	468.20833
2609.79	467.20833
2612.116	465.54167
2614.441	474.54167
2616.764	467.20833
2619.086	468.54167
2621.406	462.54167
2623.725	485.20833
2626.042	474.875
2628.358	459.20833
2630.672	458.875
2632.985	475.20833
2635.296	470.54167
2637.606	476.20833
2639.914	460.54167
2642.22	470.20833
2644.525	461.54167
2646.829	479.875
2649.131	484.20833
2651.432	485.20833
2653.731	470.875
2656.028	489.54167
2658.324	489.20833
2660.619	462.54167
2662.912	484.54167
2665.204	462.54167
2667.494	489.20833
2669.782	465.54167
2672.07	480.54167
2674.355	476.20833
2676.639	479.875
2678.922	470.20833
2681.203	487.20833
2683.483	470.20833
2685.761	464.54167
2688.038	482.54167
2690.313	488.20833
2692.587	476.875
2694.859	470.20833
2697.13	482.875
2699.399	483.20833
2701.667	491.20833
2703.933	497.20833
2706.198	495.875
2708.461	502.54167
2710.723	502.20833
2712.984	506.875
2715.243	503.20833
2717.5	505.54167
2719.757	518.54167
2722.011	504.875
2724.264	514.20833
2726.516	537.20833
2728.766	510.54167
2731.015	513.20833
2733.262	514.20833
2735.508	510.54167
2737.753	516.54167
2739.996	494.875
2742.237	499.875
2744.477	516.875
2746.716	503.875
2748.953	490.875
2751.189	501.54167
2753.423	491.54167
2755.656	486.54167
2757.887	482.875
2760.117	491.20833
2762.346	477.20833
2764.573	476.54167
2766.798	477.54167
2769.022	483.20833
2771.245	487.875
2773.467	480.875
2775.686	488.54167
2777.905	492.20833
2780.122	497.875
2782.337	496.54167
2784.552	503.875
2786.764	503.875
2788.976	507.20833
2791.186	506.54167
2793.394	511.20833
2795.601	522.54167
2797.807	529.54167
2800.011	536.54167
2802.214	546.54167
2804.415	543.54167
2806.615	543.54167
2808.814	567.875
2811.011	561.875
2813.206	561.875
2815.401	579.875
2817.594	595.20833
2819.785	602.54167
2821.975	584.875
2824.164	601.875
2826.351	618.54167
2828.537	636.20833
2830.722	657.20833
2832.905	655.875
2835.086	691.875
2837.267	727.875
2839.445	763.54167
2841.623	783.875
2843.799	813.54167
2845.974	848.20833
2848.147	885.54167
2850.319	918.875
2852.489	950.20833
2854.659	947.875
2856.826	977.20833
2858.993	1002.875
2861.158	987.54167
2863.321	985.875
2865.483	1027.54167
2867.644	1002.875
2869.804	1018.20833
2871.962	1014.54167
2874.118	1019.875
2876.274	1022.54167
2878.428	1002.54167
2880.58	1005.20833
2882.731	988.20833
2884.881	997.54167
2887.03	1007.20833
2889.177	995.54167
2891.322	1012.875
2893.467	1009.875
2895.61	993.20833
2897.751	1030.54167
2899.892	1017.875
2902.03	1035.54167
2904.168	1053.20833
2906.304	1048.875
2908.439	1073.54167
2910.572	1049.875
2912.704	1075.54167
2914.835	1075.20833
2916.965	1071.875
2919.093	1094.20833
2921.219	1039.875
2923.345	1059.54167
2925.469	1045.875
2927.591	1021.20833
2929.712	981.875
2931.832	989.875
2933.951	964.875
2936.068	938.54167
2938.184	914.875
2940.299	883.20833
2942.412	865.20833
2944.524	827.875
2946.634	805.875
2948.744	761.20833
2950.851	774.875
2952.958	722.20833
2955.063	722.875
2957.167	699.20833
2959.269	659.54167
2961.371	680.54167
2963.471	637.875
2965.569	653.875
2967.666	618.875
2969.762	597.54167
2971.857	581.875
2973.95	569.20833
2976.042	561.875
2978.133	534.875
2980.222	529.20833
2982.31	505.20833
2984.396	490.54167
2986.482	488.875
2988.566	487.875
2990.648	477.875
2992.73	473.875
2994.81	452.20833
2996.889	460.20833
2998.966	460.20833
3001.042	460.875
3003.117	456.54167
3005.191	449.54167
3007.263	439.875
3009.334	443.20833
3011.403	440.54167
3013.472	413.875
3015.539	417.875
3017.604	424.20833
3019.669	396.54167
3021.732	392.875
3023.794	396.54167
3025.854	374.20833
3027.914	380.20833
3029.971	390.54167
3032.028	384.54167
3034.083	376.54167
3036.137	382.875
3038.19	353.20833
3040.242	356.20833
3042.292	346.20833
3044.341	344.54167
3046.388	362.875
3048.435	331.20833
3050.48	348.875
3052.524	341.875
3054.566	319.20833
3056.607	334.20833
3058.647	318.54167
3060.686	310.54167
3062.723	286.875
3064.759	290.54167
3066.794	1.20833
3068.828	-0.79167
3070.86	-0.79167
