-0.839	433.16667
3.438	485.5
7.711	142.83333
11.981	54.5
16.247	46.16667
20.509	43.83333
24.768	45.83333
29.024	46.83333
33.276	45.16667
37.524	51.83333
41.769	39.5
46.01	37.83333
50.247	54.16667
54.481	63.83333
58.712	68.83333
62.939	50.83333
67.162	63.5
71.382	58.83333
75.599	51.16667
79.812	66.83333
84.021	84.16667
88.227	62.83333
92.429	67.16667
96.628	54.16667
100.823	72.5
105.015	77.16667
109.204	79.5
113.388	83.16667
117.57	84.16667
121.748	91.16667
125.922	82.16667
130.093	105.5
134.261	108.83333
138.425	110.83333
142.585	151.5
146.742	152.83333
150.896	176.5
155.046	216.83333
159.193	336.16667
163.336	574.5
167.476	1050.83333
171.613	1943.16667
175.746	3257.5
179.875	4854.16667
184.002	6408.83333
188.124	7489.83333
192.244	7897.5
196.36	7873.83333
200.472	7768.16667
204.581	7607.83333
208.687	7505.83333
212.79	7461.5
216.889	7562.5
220.984	7689.16667
225.077	7826.16667
229.165	7989.16667
233.251	8123.83333
237.333	8211.16667
241.412	8247.83333
245.487	8235.83333
249.559	8187.83333
253.628	8080.83333
257.694	8029.5
261.756	7930.5
265.814	7786.16667
269.87	7506.83333
273.922	7265.5
277.97	7116.16667
282.016	6952.83333
286.058	6865.16667
290.097	6889.83333
294.132	6813.16667
298.164	6706.83333
302.193	6402.83333
306.219	5922.16667
310.241	5395.83333
314.26	4918.16667
318.276	4511.16667
322.288	4204.83333
326.297	3983.16667
330.303	3817.5
334.305	3704.83333
338.305	3598.16667
342.301	3586.5
346.294	3504.83333
350.283	3485.16667
354.269	3444.5
358.252	3434.16667
362.232	3399.5
366.209	3375.16667
370.182	3364.16667
374.152	3344.16667
378.119	3344.83333
382.083	3331.16667
386.043	3342.5
390	3313.16667
393.954	3309.83333
397.905	3267.16667
401.852	3267.83333
405.797	3222.16667
409.738	3185.5
413.676	3175.83333
417.61	3177.5
421.542	3123.16667
425.47	3078.5
429.396	3058.83333
433.318	3068.5
437.236	3022.16667
441.152	3048.83333
445.065	2991.5
448.974	2973.5
452.88	2944.5
456.783	2930.16667
460.683	2925.83333
464.58	2919.83333
468.473	2913.5
472.364	2935.83333
476.251	2950.83333
480.135	2971.5
484.016	3007.83333
487.894	3021.83333
491.769	3033.83333
495.641	3029.16667
499.509	3014.5
503.375	3017.5
507.237	3005.16667
511.096	2984.83333
514.952	2986.5
518.805	2986.16667
522.655	2976.83333
526.502	2966.16667
530.346	2980.83333
534.187	2985.83333
538.024	2973.16667
541.859	2977.16667
545.69	3008.16667
549.519	2993.5
553.344	2960.5
557.166	2904.83333
560.985	2912.16667
564.802	2871.5
568.615	2838.83333
572.425	2789.5
576.232	2780.5
580.036	2776.5
583.836	2772.16667
587.634	2768.16667
591.429	2757.16667
595.221	2815.5
599.01	2851.5
602.796	2899.16667
606.578	2884.83333
610.358	2907.5
614.135	2872.16667
617.909	2891.16667
621.679	2880.5
625.447	2839.83333
629.212	2873.83333
632.973	2863.5
636.732	2848.5
640.488	2840.16667
644.241	2825.83333
647.991	2819.83333
651.737	2837.83333
655.481	2818.5
659.222	2835.83333
662.96	2837.5
666.695	2854.83333
670.427	2867.16667
674.156	2873.16667
677.882	2867.83333
681.605	2853.16667
685.325	2851.16667
689.043	2841.83333
692.757	2817.5
696.468	2825.16667
700.177	2823.16667
703.882	2835.16667
707.585	2825.5
711.284	2834.16667
714.981	2837.16667
718.675	2829.83333
722.366	2849.83333
726.054	2839.83333
729.739	2827.83333
733.421	2822.16667
737.1	2831.5
740.777	2868.83333
744.45	2873.16667
748.121	2891.83333
751.789	2919.83333
755.453	2941.16667
759.115	2950.16667
762.774	2962.16667
766.431	3000.16667
770.084	3039.83333
773.734	3051.16667
777.382	3110.5
781.027	3151.5
784.669	3162.83333
788.308	3156.5
791.944	3222.83333
795.577	3230.16667
799.208	3258.5
802.835	3303.83333
806.46	3309.83333
810.082	3353.5
813.701	3385.16667
817.317	3404.83333
820.931	3389.5
824.542	3389.83333
828.149	3348.83333
831.754	3320.83333
835.357	3271.5
838.956	3289.16667
842.553	3250.83333
846.146	3237.5
849.737	3223.16667
853.326	3232.5
856.911	3235.16667
860.493	3283.5
864.073	3300.16667
867.65	3362.83333
871.225	3386.83333
874.796	3381.16667
878.365	3397.83333
881.931	3404.5
885.494	3419.5
889.054	3420.83333
892.612	3435.83333
896.166	3377.16667
899.719	3361.83333
903.268	3342.83333
906.814	3319.16667
910.358	3322.5
913.899	3278.5
917.438	3300.5
920.973	3268.16667
924.506	3303.16667
928.036	3348.83333
931.564	3369.5
935.088	3426.5
938.61	3410.83333
942.129	3451.16667
945.646	3542.83333
949.16	3638.16667
952.671	3703.16667
956.179	3754.5
959.685	3736.83333
963.188	3740.16667
966.688	3669.16667
970.185	3569.16667
973.68	3521.16667
977.173	3480.83333
980.662	3437.16667
984.149	3486.16667
987.633	3478.83333
991.114	3548.16667
994.593	3646.16667
998.069	3736.16667
1001.542	3862.5
1005.013	3783.83333
1008.481	3575.83333
1011.947	3511.16667
1015.409	3514.83333
1018.869	3515.16667
1022.327	3483.5
1025.782	3471.83333
1029.234	3493.83333
1032.683	3448.83333
1036.13	3339.5
1039.574	3211.83333
1043.016	3159.16667
1046.455	3099.83333
1049.891	3045.5
1053.325	3062.5
1056.756	3061.5
1060.184	3108.16667
1063.61	3109.5
1067.033	3133.83333
1070.454	3126.83333
1073.872	3155.5
1077.287	3162.83333
1080.7	3181.83333
1084.11	3184.83333
1087.517	3157.16667
1090.922	3111.83333
1094.325	3062.16667
1097.724	3044.16667
1101.122	3033.16667
1104.516	2998.5
1107.908	3048.5
1111.298	3054.83333
1114.684	3089.16667
1118.069	3145.83333
1121.45	3174.83333
1124.83	3140.83333
1128.206	3169.16667
1131.58	3211.16667
1134.951	3286.83333
1138.32	3380.5
1141.687	3490.5
1145.05	3611.16667
1148.412	3631.83333
1151.77	3627.83333
1155.126	3616.16667
1158.48	3601.83333
1161.831	3625.5
1165.18	3672.5
1168.525	3727.5
1171.869	3752.83333
1175.21	3806.83333
1178.548	3830.16667
1181.884	3859.83333
1185.217	3895.83333
1188.548	3965.83333
1191.877	4023.83333
1195.202	4099.16667
1198.526	4137.5
1201.846	4187.5
1205.165	4191.83333
1208.48	4159.16667
1211.794	4133.5
1215.104	4182.16667
1218.413	4163.16667
1221.719	4134.5
1225.022	4140.83333
1228.323	4091.16667
1231.621	4071.16667
1234.917	4056.83333
1238.21	4105.83333
1241.501	4063.83333
1244.79	4088.83333
1248.076	4097.83333
1251.359	4094.5
1254.64	4196.5
1257.919	4197.83333
1261.195	4270.16667
1264.468	4350.16667
1267.74	4398.83333
1271.008	4383.83333
1274.275	4359.83333
1277.538	4338.5
1280.8	4326.16667
1284.059	4345.5
1287.315	4364.83333
1290.569	4411.5
1293.821	4419.83333
1297.07	4418.83333
1300.317	4451.83333
1303.562	4422.16667
1306.803	4426.83333
1310.043	4384.16667
1313.28	4310.5
1316.515	4271.5
1319.747	4224.5
1322.977	4190.83333
1326.204	4124.83333
1329.429	4079.16667
1332.652	4052.16667
1335.872	4038.16667
1339.09	4043.83333
1342.306	4007.16667
1345.519	3989.5
1348.729	3971.5
1351.938	3940.16667
1355.144	3894.5
1358.347	3845.5
1361.548	3849.5
1364.747	3880.5
1367.944	3832.5
1371.138	3836.5
1374.329	3873.16667
1377.518	3910.83333
1380.705	3947.83333
1383.89	3955.5
1387.072	3844.5
1390.252	3717.16667
1393.429	3599.5
1396.605	3482.5
1399.777	3389.16667
1402.948	3363.83333
1406.116	3308.16667
1409.282	3337.5
1412.445	3323.5
1415.606	3371.5
1418.765	3404.5
1421.921	3470.5
1425.075	3553.16667
1428.227	3679.83333
1431.376	3858.5
1434.524	3990.83333
1437.668	4112.5
1440.811	4139.5
1443.951	4140.5
1447.089	4132.16667
1450.224	4122.16667
1453.357	4071.83333
1456.488	4059.16667
1459.617	4027.83333
1462.743	3957.5
1465.867	3850.16667
1468.989	3807.5
1472.108	3738.16667
1475.225	3689.5
1478.34	3623.5
1481.453	3636.16667
1484.563	3617.5
1487.671	3661.83333
1490.776	3701.5
1493.88	3763.83333
1496.981	3866.5
1500.08	3917.16667
1503.176	3995.5
1506.271	4044.83333
1509.363	4140.16667
1512.452	4176.16667
1515.54	4248.16667
1518.625	4359.16667
1521.708	4511.83333
1524.789	4770.5
1527.867	5061.16667
1530.944	5384.5
1534.018	5662.83333
1537.089	5802.83333
1540.159	5777.5
1543.226	5630.83333
1546.291	5423.16667
1549.354	5230.83333
1552.415	5044.5
1555.473	4916.5
1558.529	4799.83333
1561.583	4775.16667
1564.634	4701.5
1567.684	4665.5
1570.731	4716.83333
1573.776	4777.5
1576.819	4759.16667
1579.859	4823.16667
1582.898	4880.16667
1585.934	4902.16667
1588.968	4930.16667
1591.999	4912.16667
1595.029	4904.83333
1598.056	4930.83333
1601.081	4941.5
1604.104	4915.83333
1607.125	4873.83333
1610.144	4763.83333
1613.16	4668.5
1616.174	4551.83333
1619.186	4458.16667
1622.196	4353.5
1625.203	4285.16667
1628.209	4210.5
1631.212	4212.16667
1634.213	4174.16667
1637.212	4172.5
1640.209	4106.83333
1643.203	3996.5
1646.196	3886.5
1649.186	3726.83333
1652.174	3627.16667
1655.16	3525.5
1658.144	3399.16667
1661.125	3250.16667
1664.105	3093.16667
1667.082	2948.83333
1670.057	2795.83333
1673.03	2613.5
1676.001	2452.83333
1678.97	2297.83333
1681.937	2154.16667
1684.901	2050.83333
1687.863	1994.16667
1690.824	1892.83333
1693.782	1859.16667
1696.738	1800.83333
1699.692	1753.5
1702.643	1720.83333
1705.593	1697.83333
1708.54	1685.5
1711.486	1685.16667
1714.429	1638.83333
1717.37	1618.5
1720.309	1572.5
1723.246	1585.5
1726.181	1550.5
1729.113	1546.5
1732.044	1523.83333
1734.972	1525.5
1737.899	1529.16667
1740.823	1512.5
1743.745	1509.16667
1746.665	1456.83333
1749.583	1426.5
1752.499	1414.83333
1755.413	1390.5
1758.325	1370.83333
1761.235	1349.83333
1764.142	1323.16667
1767.048	1316.5
1769.951	1315.16667
1772.852	1298.5
1775.752	1296.83333
1778.649	1280.83333
1781.544	1279.5
1784.437	1265.16667
1787.328	1273.83333
1790.217	1256.16667
1793.104	1230.83333
1795.989	1239.5
1798.872	1215.5
1801.753	1247.83333
1804.631	1240.5
1807.508	1243.5
1810.383	1220.16667
1813.255	1221.83333
1816.126	1224.83333
1818.994	1209.5
1821.861	1189.16667
1824.725	1197.16667
1827.587	1189.5
1830.448	1182.83333
1833.306	1163.16667
1836.162	1184.16667
1839.017	1152.83333
1841.869	1168.16667
1844.719	1155.83333
1847.567	1140.83333
1850.414	1123.83333
1853.258	1119.83333
1856.1	1160.5
1858.94	1158.5
1861.778	1142.16667
1864.614	1132.5
1867.448	1147.83333
1870.28	1124.5
1873.111	1145.83333
1875.939	1136.83333
1878.765	1145.5
1881.589	1107.5
1884.411	1115.83333
1887.231	1139.16667
1890.049	1103.5
1892.865	1129.16667
1895.68	1102.16667
1898.492	1099.83333
1901.302	1096.5
1904.11	1082.83333
1906.916	1066.83333
1909.721	1072.5
1912.523	1086.5
1915.323	1055.16667
1918.122	1067.16667
1920.918	1074.16667
1923.712	1040.5
1926.505	1056.5
1929.295	1051.83333
1932.084	1064.5
1934.87	1055.16667
1937.655	1054.83333
1940.438	1053.16667
1943.218	1054.5
1945.997	1042.83333
1948.774	1071.16667
1951.549	1058.16667
1954.322	1046.83333
1957.093	1034.16667
1959.862	1033.5
1962.629	1029.5
1965.394	1014.83333
1968.157	1021.83333
1970.918	1025.83333
1973.678	1009.16667
1976.435	1018.16667
1979.19	1010.16667
1981.944	1011.83333
1984.696	992.5
1987.445	988.83333
1990.193	996.5
1992.939	1017.16667
1995.683	998.83333
1998.425	980.83333
2001.165	1000.16667
2003.903	977.83333
2006.639	980.5
2009.374	986.16667
2012.106	985.5
2014.837	949.83333
2017.566	981.83333
2020.292	975.16667
2023.017	988.83333
2025.74	966.83333
2028.461	971.5
2031.18	971.83333
2033.898	956.16667
2036.613	961.16667
2039.327	965.5
2042.038	958.83333
2044.748	959.16667
2047.456	939.83333
2050.162	933.83333
2052.866	943.83333
2055.568	952.16667
2058.268	941.16667
2060.967	942.83333
2063.663	931.5
2066.358	930.16667
2069.051	916.16667
2071.742	929.5
2074.431	933.16667
2077.118	928.5
2079.804	929.5
2082.487	919.83333
2085.169	949.83333
2087.849	949.83333
2090.527	926.16667
2093.203	942.5
2095.877	945.16667
2098.55	941.16667
2101.22	959.83333
2103.889	962.83333
2106.556	948.83333
2109.221	982.83333
2111.884	1001.16667
2114.546	1058.16667
2117.205	1095.5
2119.863	1209.16667
2122.519	1270.83333
2125.173	1363.16667
2127.825	1438.5
2130.475	1472.83333
2133.124	1449.5
2135.771	1390.5
2138.416	1344.16667
2141.059	1271.83333
2143.7	1219.5
2146.339	1136.5
2148.977	1072.5
2151.613	1072.5
2154.247	1013.5
2156.879	995.83333
2159.51	986.16667
2162.138	974.16667
2164.765	966.5
2167.39	951.83333
2170.013	967.5
2172.634	964.5
2175.254	949.83333
2177.872	982.83333
2180.488	928.5
2183.102	929.16667
2185.714	917.5
2188.325	893.16667
2190.934	899.5
2193.541	878.5
2196.146	863.5
2198.75	859.5
2201.351	867.16667
2203.951	839.83333
2206.549	851.83333
2209.146	835.83333
2211.74	821.83333
2214.333	833.5
2216.924	812.83333
2219.514	821.5
2222.101	798.5
2224.687	821.5
2227.271	813.5
2229.853	803.5
2232.433	775.5
2235.012	805.5
2237.589	794.83333
2240.164	802.16667
2242.738	787.5
2245.309	777.83333
2247.879	775.5
2250.448	782.5
2253.014	749.5
2255.579	746.5
2258.142	748.5
2260.703	724.16667
2263.262	725.5
2265.82	723.5
2268.376	733.5
2270.93	719.83333
2273.483	725.16667
2276.033	709.16667
2278.583	707.5
2281.13	702.16667
2283.675	689.16667
2286.219	705.83333
2288.761	693.16667
2291.302	700.16667
2293.841	709.16667
2296.377	677.5
2298.913	687.16667
2301.446	699.5
2303.978	672.83333
2306.508	675.83333
2309.037	672.16667
2311.563	682.83333
2314.088	683.5
2316.612	665.5
2319.133	677.5
2321.653	667.83333
2324.171	655.16667
2326.688	667.16667
2329.202	670.16667
2331.715	667.83333
2334.227	649.83333
2336.736	647.16667
2339.244	647.5
2341.751	631.16667
2344.255	650.16667
2346.758	640.83333
2349.259	634.5
2351.759	638.16667
2354.257	631.5
2356.753	627.83333
2359.247	620.16667
2361.74	640.83333
2364.231	612.5
2366.721	637.16667
2369.209	610.5
2371.695	621.16667
2374.179	624.16667
2376.662	618.16667
2379.143	621.83333
2381.622	619.83333
2384.1	626.16667
2386.576	596.83333
2389.051	618.16667
2391.524	625.83333
2393.995	623.5
2396.464	610.16667
2398.932	596.5
2401.398	605.16667
2403.863	590.5
2406.325	586.16667
2408.787	599.16667
2411.246	596.83333
2413.704	595.16667
2416.16	584.5
2418.615	595.16667
2421.068	589.5
2423.519	586.83333
2425.969	578.16667
2428.417	591.16667
2430.863	605.5
2433.308	600.5
2435.751	587.16667
2438.193	586.5
2440.633	587.5
2443.071	580.5
2445.508	560.5
2447.943	567.16667
2450.376	563.83333
2452.808	569.16667
2455.238	552.83333
2457.667	586.83333
2460.093	557.5
2462.519	556.5
2464.942	544.83333
2467.365	559.16667
2469.785	564.16667
2472.204	560.83333
2474.621	544.16667
2477.037	570.16667
2479.451	538.16667
2481.863	538.5
2484.274	537.83333
2486.683	550.5
2489.091	552.16667
2491.497	542.83333
2493.901	529.83333
2496.304	536.83333
2498.705	546.16667
2501.105	536.83333
2503.503	547.16667
2505.899	528.83333
2508.294	548.5
2510.687	528.16667
2513.079	531.83333
2515.469	530.16667
2517.858	518.5
2520.245	555.83333
2522.63	516.16667
2525.014	519.83333
2527.396	514.16667
2529.776	514.83333
2532.156	521.5
2534.533	503.5
2536.909	513.83333
2539.283	501.16667
2541.656	500.83333
2544.027	528.83333
2546.397	515.16667
2548.765	512.83333
2551.131	498.5
2553.496	511.16667
2555.86	512.16667
2558.221	504.16667
2560.582	502.16667
2562.94	491.5
2565.298	493.83333
2567.653	521.83333
2570.007	481.16667
2572.36	500.16667
2574.711	491.83333
2577.06	514.5
2579.408	498.5
2581.754	498.5
2584.099	497.16667
2586.442	499.16667
2588.784	506.16667
2591.124	498.5
2593.463	488.16667
2595.8	492.5
2598.135	471.83333
2600.469	483.16667
2602.802	515.5
2605.133	497.16667
2607.462	486.16667
2609.79	477.16667
2612.116	490.16667
2614.441	486.5
2616.764	490.16667
2619.086	489.16667
2621.406	470.83333
2623.725	488.83333
2626.042	474.5
2628.358	477.16667
2630.672	468.5
2632.985	491.83333
2635.296	488.16667
2637.606	488.16667
2639.914	470.16667
2642.22	481.5
2644.525	476.83333
2646.829	480.16667
2649.131	489.83333
2651.432	497.83333
2653.731	483.83333
2656.028	503.16667
2658.324	486.16667
2660.619	474.83333
2662.912	489.5
2665.204	477.5
2667.494	497.5
2669.782	466.16667
2672.07	486.5
2674.355	499.83333
2676.639	484.5
2678.922	481.83333
2681.203	488.83333
2683.483	469.5
2685.761	474.16667
2688.038	490.5
2690.313	517.5
2692.587	485.5
2694.859	482.16667
2697.13	488.5
2699.399	487.83333
2701.667	490.5
2703.933	503.83333
2706.198	504.83333
2708.461	504.83333
2710.723	516.83333
2712.984	511.16667
2715.243	524.5
2717.5	514.5
2719.757	534.5
2722.011	520.5
2724.264	534.83333
2726.516	550.5
2728.766	520.5
2731.015	528.5
2733.262	520.5
2735.508	512.5
2737.753	513.16667
2739.996	499.16667
2742.237	510.16667
2744.477	515.5
2746.716	521.5
2748.953	494.83333
2751.189	510.5
2753.423	493.5
2755.656	483.16667
2757.887	478.83333
2760.117	479.5
2762.346	478.16667
2764.573	478.5
2766.798	477.16667
2769.022	484.16667
2771.245	480.83333
2773.467	483.83333
2775.686	492.5
2777.905	494.16667
2780.122	498.5
2782.337	498.16667
2784.552	499.16667
2786.764	503.83333
2788.976	514.83333
2791.186	518.83333
2793.394	514.83333
2795.601	536.83333
2797.807	540.83333
2800.011	545.16667
2802.214	553.5
2804.415	564.5
2806.615	560.16667
2808.814	574.16667
2811.011	576.16667
2813.206	585.16667
2815.401	604.5
2817.594	619.5
2819.785	625.16667
2821.975	616.16667
2824.164	631.5
2826.351	655.83333
2828.537	676.16667
2830.722	704.16667
2832.905	710.83333
2835.086	741.16667
2837.267	772.16667
2839.445	813.16667
2841.623	847.5
2843.799	893.83333
2845.974	940.5
2848.147	981.83333
2850.319	1019.16667
2852.489	1067.16667
2854.659	1071.16667
2856.826	1100.83333
2858.993	1113.5
2861.158	1076.5
2863.321	1097.83333
2865.483	1142.5
2867.644	1112.5
2869.804	1104.5
2871.962	1129.5
2874.118	1118.5
2876.274	1101.5
2878.428	1107.5
2880.58	1096.83333
2882.731	1075.5
2884.881	1094.83333
2887.03	1092.5
2889.177	1093.5
2891.322	1101.83333
2893.467	1104.5
2895.61	1115.83333
2897.751	1137.5
2899.892	1120.83333
2902.03	1130.5
2904.168	1152.83333
2906.304	1152.5
2908.439	1177.5
2910.572	1143.5
2912.704	1170.5
2914.835	1168.5
2916.965	1166.83333
2919.093	1170.16667
2921.219	1140.83333
2923.345	1162.16667
2925.469	1113.83333
2927.591	1115.83333
2929.712	1078.5
2931.832	1068.16667
2933.951	1039.16667
2936.068	1005.5
2938.184	981.83333
2940.299	933.83333
2942.412	913.5
2944.524	853.5
2946.634	837.5
2948.744	782.83333
2950.851	793.16667
2952.958	737.5
2955.063	733.5
2957.167	710.5
2959.269	661.16667
2961.371	679.16667
2963.471	635.16667
2965.569	630.83333
2967.666	593.5
2969.762	584.83333
2971.857	552.16667
2973.95	535.16667
2976.042	513.16667
2978.133	516.5
2980.222	496.5
2982.31	473.5
2984.396	450.5
2986.482	446.5
2988.566	443.83333
2990.648	436.5
2992.73	424.83333
2994.81	413.5
2996.889	414.83333
2998.966	404.83333
3001.042	401.16667
3003.117	400.16667
3005.191	391.5
3007.263	392.5
3009.334	383.16667
3011.403	379.83333
3013.472	359.5
3015.539	357.83333
3017.604	370.83333
3019.669	336.5
3021.732	339.16667
3023.794	339.83333
3025.854	318.16667
3027.914	315.5
3029.971	324.16667
3032.028	315.83333
3034.083	323.5
3036.137	308.83333
3038.19	301.16667
3040.242	306.5
3042.292	293.5
3044.341	282.16667
3046.388	301.16667
3048.435	279.83333
3050.48	294.16667
3052.524	287.5
3054.566	264.5
3056.607	284.83333
3058.647	269.16667
3060.686	260.16667
3062.723	245.5
3064.759	235.83333
3066.794	0.5
3068.828	-1.16667
3070.86	-2.16667
