-0.839	484.125
3.438	542.79167
7.711	151.79167
11.981	55.125
16.247	47.125
20.509	46.45833
24.768	49.125
29.024	47.79167
33.276	43.125
37.524	51.125
41.769	39.45833
46.01	38.79167
50.247	52.79167
54.481	60.45833
58.712	66.79167
62.939	49.125
67.162	60.45833
71.382	55.45833
75.599	47.125
79.812	64.79167
84.021	76.79167
88.227	59.125
92.429	60.45833
96.628	45.45833
100.823	67.79167
105.015	71.125
109.204	72.79167
113.388	75.79167
117.57	74.45833
121.748	87.79167
125.922	80.79167
130.093	97.79167
134.261	101.45833
138.425	105.45833
142.585	138.45833
146.742	141.79167
150.896	164.79167
155.046	197.45833
159.193	316.125
163.336	539.125
167.476	993.45833
171.613	1790.125
175.746	2985.79167
179.875	4446.79167
184.002	5768.79167
188.124	6720.79167
192.244	7082.79167
196.36	7026.79167
200.472	6904.79167
204.581	6680.79167
208.687	6530.45833
212.79	6477.45833
216.889	6471.79167
220.984	6545.45833
225.077	6630.125
229.165	6737.79167
233.251	6809.125
237.333	6880.45833
241.412	6887.125
245.487	6883.45833
249.559	6789.125
253.628	6726.79167
257.694	6718.45833
261.756	6633.125
265.814	6479.79167
269.87	6326.45833
273.922	6110.45833
277.97	5974.45833
282.016	5904.125
286.058	5783.45833
290.097	5805.45833
294.132	5850.79167
298.164	5765.125
302.193	5544.79167
306.219	5127.45833
310.241	4631.125
314.26	4213.125
318.276	3822.125
322.288	3616.79167
326.297	3350.45833
330.303	3240.79167
334.305	3125.125
338.305	3038.45833
342.301	3006.79167
346.294	2957.79167
350.283	2930.45833
354.269	2881.125
358.252	2880.125
362.232	2844.79167
366.209	2807.79167
370.182	2782.45833
374.152	2782.45833
378.119	2800.79167
382.083	2762.79167
386.043	2811.125
390	2741.125
393.954	2747.125
397.905	2701.125
401.852	2705.125
405.797	2656.45833
409.738	2641.45833
413.676	2631.45833
417.61	2613.79167
421.542	2588.79167
425.47	2568.45833
429.396	2550.125
433.318	2522.125
437.236	2510.45833
441.152	2521.79167
445.065	2488.79167
448.974	2464.45833
452.88	2435.45833
456.783	2430.125
460.683	2415.79167
464.58	2426.79167
468.473	2433.45833
472.364	2416.45833
476.251	2427.45833
480.135	2442.79167
484.016	2487.79167
487.894	2498.45833
491.769	2510.45833
495.641	2511.45833
499.509	2498.79167
503.375	2495.45833
507.237	2494.125
511.096	2467.45833
514.952	2509.125
518.805	2520.45833
522.655	2557.125
526.502	2477.79167
530.346	2477.45833
534.187	2500.45833
538.024	2462.45833
541.859	2477.79167
545.69	2504.45833
549.519	2485.125
553.344	2446.79167
557.166	2413.79167
560.985	2397.45833
564.802	2386.125
568.615	2354.45833
572.425	2316.79167
576.232	2315.45833
580.036	2282.45833
583.836	2306.45833
587.634	2311.79167
591.429	2280.125
595.221	2340.79167
599.01	2363.45833
602.796	2388.125
606.578	2409.125
610.358	2415.45833
614.135	2409.79167
617.909	2397.45833
621.679	2391.45833
625.447	2356.125
629.212	2389.125
632.973	2379.45833
636.732	2370.45833
640.488	2382.125
644.241	2349.79167
647.991	2346.79167
651.737	2368.79167
655.481	2358.45833
659.222	2360.45833
662.96	2356.45833
666.695	2377.79167
670.427	2390.45833
674.156	2383.45833
677.882	2378.79167
681.605	2368.45833
685.325	2351.79167
689.043	2353.79167
692.757	2341.79167
696.468	2343.125
700.177	2355.125
703.882	2320.45833
707.585	2327.45833
711.284	2348.125
714.981	2342.79167
718.675	2350.79167
722.366	2364.125
726.054	2346.125
729.739	2351.45833
733.421	2326.45833
737.1	2336.79167
740.777	2341.79167
744.45	2399.45833
748.121	2394.125
751.789	2455.79167
755.453	2444.125
759.115	2442.125
762.774	2477.45833
766.431	2508.45833
770.084	2513.45833
773.734	2538.79167
777.382	2614.45833
781.027	2622.79167
784.669	2604.79167
788.308	2651.45833
791.944	2645.79167
795.577	2685.79167
799.208	2717.79167
802.835	2745.45833
806.46	2748.125
810.082	2789.79167
813.701	2802.45833
817.317	2825.125
820.931	2832.125
824.542	2828.79167
828.149	2775.125
831.754	2752.125
835.357	2750.45833
838.956	2726.45833
842.553	2697.79167
846.146	2694.45833
849.737	2667.45833
853.326	2683.45833
856.911	2700.125
860.493	2741.45833
864.073	2750.79167
867.65	2788.125
871.225	2842.125
874.796	2836.79167
878.365	2841.45833
881.931	2866.45833
885.494	2893.79167
889.054	2878.125
892.612	2871.45833
896.166	2850.79167
899.719	2818.125
903.268	2793.125
906.814	2801.45833
910.358	2772.125
913.899	2762.125
917.438	2774.79167
920.973	2761.79167
924.506	2796.79167
928.036	2837.45833
931.564	2851.125
935.088	2904.125
938.61	2898.79167
942.129	2914.79167
945.646	3009.45833
949.16	3073.79167
952.671	3140.125
956.179	3188.125
959.685	3177.79167
963.188	3175.45833
966.688	3113.79167
970.185	3031.45833
973.68	2976.45833
977.173	2951.125
980.662	2928.125
984.149	2940.79167
987.633	2925.125
991.114	2981.45833
994.593	3065.45833
998.069	3146.45833
1001.542	3267.125
1005.013	3186.125
1008.481	3001.45833
1011.947	2964.45833
1015.409	2934.45833
1018.869	2916.125
1022.327	2931.45833
1025.782	2916.45833
1029.234	2923.45833
1032.683	2878.45833
1036.13	2795.125
1039.574	2685.79167
1043.016	2622.125
1046.455	2559.125
1049.891	2519.79167
1053.325	2541.45833
1056.756	2522.125
1060.184	2548.79167
1063.61	2561.125
1067.033	2572.79167
1070.454	2576.125
1073.872	2622.79167
1077.287	2626.79167
1080.7	2608.79167
1084.11	2608.79167
1087.517	2605.79167
1090.922	2551.125
1094.325	2524.79167
1097.724	2514.79167
1101.122	2536.45833
1104.516	2498.79167
1107.908	2495.79167
1111.298	2560.125
1114.684	2560.45833
1118.069	2624.79167
1121.45	2626.45833
1124.83	2612.45833
1128.206	2634.125
1131.58	2673.125
1134.951	2755.79167
1138.32	2855.45833
1141.687	2982.125
1145.05	3049.79167
1148.412	3080.79167
1151.77	3057.79167
1155.126	3044.45833
1158.48	3036.45833
1161.831	3050.79167
1165.18	3091.125
1168.525	3141.45833
1171.869	3181.79167
1175.21	3194.79167
1178.548	3246.79167
1181.884	3250.45833
1185.217	3285.125
1188.548	3347.45833
1191.877	3395.45833
1195.202	3457.45833
1198.526	3521.45833
1201.846	3548.79167
1205.165	3543.45833
1208.48	3525.125
1211.794	3516.45833
1215.104	3478.79167
1218.413	3514.125
1221.719	3512.79167
1225.022	3462.79167
1228.323	3420.125
1231.621	3420.125
1234.917	3396.45833
1238.21	3445.125
1241.501	3387.45833
1244.79	3415.79167
1248.076	3400.79167
1251.359	3438.79167
1254.64	3507.125
1257.919	3506.45833
1261.195	3578.79167
1264.468	3646.79167
1267.74	3714.79167
1271.008	3712.45833
1274.275	3722.79167
1277.538	3671.79167
1280.8	3679.79167
1284.059	3657.45833
1287.315	3703.125
1290.569	3730.79167
1293.821	3742.125
1297.07	3758.125
1300.317	3757.45833
1303.562	3774.45833
1306.803	3731.125
1310.043	3696.45833
1313.28	3648.45833
1316.515	3640.79167
1319.747	3584.79167
1322.977	3548.45833
1326.204	3506.79167
1329.429	3437.125
1332.652	3438.45833
1335.872	3444.125
1339.09	3388.45833
1342.306	3361.125
1345.519	3366.125
1348.729	3346.79167
1351.938	3315.79167
1355.144	3300.79167
1358.347	3252.125
1361.548	3217.79167
1364.747	3243.45833
1367.944	3241.79167
1371.138	3244.125
1374.329	3276.79167
1377.518	3311.45833
1380.705	3324.45833
1383.89	3314.79167
1387.072	3203.79167
1390.252	3098.45833
1393.429	2988.79167
1396.605	2890.79167
1399.777	2811.45833
1402.948	2810.79167
1406.116	2749.79167
1409.282	2766.125
1412.445	2757.45833
1415.606	2786.45833
1418.765	2843.79167
1421.921	2901.125
1425.075	2969.79167
1428.227	3062.79167
1431.376	3209.45833
1434.524	3347.125
1437.668	3452.79167
1440.811	3470.79167
1443.951	3469.125
1447.089	3496.45833
1450.224	3488.45833
1453.357	3456.45833
1456.488	3425.79167
1459.617	3394.125
1462.743	3352.45833
1465.867	3279.79167
1468.989	3225.45833
1472.108	3184.125
1475.225	3149.45833
1478.34	3095.125
1481.453	3087.79167
1484.563	3083.79167
1487.671	3116.125
1490.776	3200.125
1493.88	3249.125
1496.981	3303.79167
1500.08	3361.45833
1503.176	3430.79167
1506.271	3474.79167
1509.363	3530.45833
1512.452	3558.125
1515.54	3627.79167
1518.625	3708.125
1521.708	3844.45833
1524.789	4033.125
1527.867	4255.79167
1530.944	4504.79167
1534.018	4728.79167
1537.089	4869.125
1540.159	4857.125
1543.226	4761.125
1546.291	4575.79167
1549.354	4437.79167
1552.415	4317.45833
1555.473	4191.79167
1558.529	4115.79167
1561.583	4051.45833
1564.634	4022.79167
1567.684	4043.45833
1570.731	4020.45833
1573.776	4065.45833
1576.819	4146.125
1579.859	4187.125
1582.898	4227.79167
1585.934	4246.125
1588.968	4282.125
1591.999	4230.79167
1595.029	4264.45833
1598.056	4263.45833
1601.081	4256.45833
1604.104	4270.125
1607.125	4237.79167
1610.144	4113.79167
1613.16	4047.45833
1616.174	3951.125
1619.186	3886.79167
1622.196	3774.45833
1625.203	3725.45833
1628.209	3652.125
1631.212	3647.79167
1634.213	3656.125
1637.212	3609.79167
1640.209	3560.79167
1643.203	3479.125
1646.196	3356.125
1649.186	3212.79167
1652.174	3133.79167
1655.16	3023.45833
1658.144	2949.79167
1661.125	2803.45833
1664.105	2663.45833
1667.082	2534.45833
1670.057	2397.45833
1673.03	2241.125
1676.001	2109.125
1678.97	1957.79167
1681.937	1833.45833
1684.901	1741.45833
1687.863	1659.125
1690.824	1601.45833
1693.782	1578.79167
1696.738	1513.125
1699.692	1473.79167
1702.643	1440.45833
1705.593	1436.125
1708.54	1401.79167
1711.486	1402.45833
1714.429	1364.125
1717.37	1364.125
1720.309	1336.125
1723.246	1333.79167
1726.181	1301.79167
1729.113	1318.125
1732.044	1295.125
1734.972	1284.45833
1737.899	1268.45833
1740.823	1281.79167
1743.745	1272.45833
1746.665	1202.79167
1749.583	1195.79167
1752.499	1179.125
1755.413	1167.79167
1758.325	1134.125
1761.235	1146.79167
1764.142	1128.125
1767.048	1110.45833
1769.951	1109.45833
1772.852	1104.125
1775.752	1099.125
1778.649	1093.45833
1781.544	1076.79167
1784.437	1066.125
1787.328	1068.79167
1790.217	1064.125
1793.104	1030.45833
1795.989	1041.125
1798.872	1012.45833
1801.753	1042.45833
1804.631	1033.45833
1807.508	1035.125
1810.383	1024.45833
1813.255	1032.125
1816.126	1021.79167
1818.994	1019.45833
1821.861	1013.125
1824.725	1004.79167
1827.587	994.45833
1830.448	992.79167
1833.306	958.45833
1836.162	995.79167
1839.017	974.45833
1841.869	964.45833
1844.719	975.79167
1847.567	953.79167
1850.414	954.79167
1853.258	956.125
1856.1	965.125
1858.94	960.125
1861.778	962.79167
1864.614	935.79167
1867.448	960.45833
1870.28	944.125
1873.111	965.45833
1875.939	950.79167
1878.765	955.45833
1881.589	945.79167
1884.411	924.79167
1887.231	945.125
1890.049	939.125
1892.865	926.125
1895.68	925.79167
1898.492	936.45833
1901.302	912.79167
1904.11	921.45833
1906.916	911.125
1909.721	894.125
1912.523	910.79167
1915.323	880.45833
1918.122	887.79167
1920.918	908.125
1923.712	889.45833
1926.505	890.79167
1929.295	873.125
1932.084	903.125
1934.87	891.125
1937.655	875.79167
1940.438	877.125
1943.218	880.125
1945.997	886.79167
1948.774	899.125
1951.549	882.45833
1954.322	876.45833
1957.093	885.79167
1959.862	871.45833
1962.629	865.125
1965.394	860.45833
1968.157	846.45833
1970.918	853.125
1973.678	858.79167
1976.435	862.125
1979.19	840.79167
1981.944	828.79167
1984.696	843.79167
1987.445	827.125
1990.193	834.45833
1992.939	856.79167
1995.683	847.45833
1998.425	819.125
2001.165	853.125
2003.903	820.79167
2006.639	821.125
2009.374	820.125
2012.106	834.125
2014.837	802.79167
2017.566	818.45833
2020.292	821.79167
2023.017	823.45833
2025.74	817.125
2028.461	816.45833
2031.18	815.45833
2033.898	798.79167
2036.613	816.79167
2039.327	821.79167
2042.038	792.125
2044.748	786.125
2047.456	801.125
2050.162	786.79167
2052.866	782.45833
2055.568	792.79167
2058.268	793.125
2060.967	784.45833
2063.663	781.45833
2066.358	783.79167
2069.051	777.45833
2071.742	778.125
2074.431	776.79167
2077.118	773.79167
2079.804	771.125
2082.487	787.45833
2085.169	797.45833
2087.849	803.45833
2090.527	778.79167
2093.203	793.79167
2095.877	792.125
2098.55	798.45833
2101.22	804.45833
2103.889	807.79167
2106.556	803.125
2109.221	810.125
2111.884	835.79167
2114.546	886.45833
2117.205	941.125
2119.863	1004.45833
2122.519	1077.79167
2125.173	1140.125
2127.825	1241.45833
2130.475	1261.79167
2133.124	1230.45833
2135.771	1200.79167
2138.416	1162.79167
2141.059	1093.45833
2143.7	1042.125
2146.339	981.125
2148.977	925.79167
2151.613	913.45833
2154.247	879.79167
2156.879	866.125
2159.51	855.125
2162.138	843.45833
2164.765	832.125
2167.39	809.125
2170.013	829.125
2172.634	829.45833
2175.254	815.125
2177.872	833.45833
2180.488	796.45833
2183.102	802.45833
2185.714	786.79167
2188.325	772.125
2190.934	767.79167
2193.541	762.79167
2196.146	745.45833
2198.75	740.125
2201.351	734.125
2203.951	706.79167
2206.549	735.79167
2209.146	723.125
2211.74	702.125
2214.333	722.79167
2216.924	694.125
2219.514	697.45833
2222.101	680.79167
2224.687	707.79167
2227.271	682.79167
2229.853	676.79167
2232.433	677.125
2235.012	686.79167
2237.589	684.45833
2240.164	683.45833
2242.738	676.45833
2245.309	671.45833
2247.879	660.79167
2250.448	667.79167
2253.014	645.79167
2255.579	633.125
2258.142	641.125
2260.703	632.45833
2263.262	633.79167
2265.82	616.45833
2268.376	633.79167
2270.93	606.45833
2273.483	603.79167
2276.033	614.45833
2278.583	609.125
2281.13	609.79167
2283.675	601.79167
2286.219	604.45833
2288.761	597.45833
2291.302	603.125
2293.841	603.125
2296.377	589.79167
2298.913	593.79167
2301.446	606.79167
2303.978	589.125
2306.508	579.79167
2309.037	591.79167
2311.563	589.79167
2314.088	586.125
2316.612	573.125
2319.133	585.125
2321.653	577.125
2324.171	568.45833
2326.688	584.79167
2329.202	566.125
2331.715	573.79167
2334.227	559.45833
2336.736	553.45833
2339.244	564.79167
2341.751	540.79167
2344.255	565.79167
2346.758	559.125
2349.259	542.79167
2351.759	549.125
2354.257	547.79167
2356.753	542.45833
2359.247	546.79167
2361.74	546.45833
2364.231	544.125
2366.721	546.45833
2369.209	535.125
2371.695	538.79167
2374.179	529.45833
2376.662	530.79167
2379.143	552.125
2381.622	541.125
2384.1	540.45833
2386.576	528.45833
2389.051	545.79167
2391.524	554.45833
2393.995	545.79167
2396.464	534.79167
2398.932	532.45833
2401.398	535.45833
2403.863	522.125
2406.325	523.79167
2408.787	523.45833
2411.246	518.79167
2413.704	514.79167
2416.16	515.125
2418.615	525.125
2421.068	525.45833
2423.519	514.125
2425.969	506.79167
2428.417	521.45833
2430.863	530.125
2433.308	519.79167
2435.751	520.45833
2438.193	513.79167
2440.633	522.125
2443.071	507.79167
2445.508	497.79167
2447.943	503.79167
2450.376	499.45833
2452.808	506.79167
2455.238	502.45833
2457.667	530.45833
2460.093	496.45833
2462.519	486.125
2464.942	494.125
2467.365	502.79167
2469.785	494.45833
2472.204	494.45833
2474.621	488.45833
2477.037	508.45833
2479.451	478.45833
2481.863	474.45833
2484.274	480.45833
2486.683	491.79167
2489.091	498.45833
2491.497	491.79167
2493.901	491.79167
2496.304	483.79167
2498.705	491.45833
2501.105	483.45833
2503.503	504.45833
2505.899	476.125
2508.294	496.125
2510.687	473.125
2513.079	478.79167
2515.469	480.79167
2517.858	474.79167
2520.245	492.45833
2522.63	483.45833
2525.014	470.45833
2527.396	472.79167
2529.776	462.125
2532.156	479.79167
2534.533	452.79167
2536.909	467.125
2539.283	460.45833
2541.656	463.125
2544.027	490.125
2546.397	474.45833
2548.765	457.125
2551.131	465.125
2553.496	466.125
2555.86	471.125
2558.221	466.45833
2560.582	466.125
2562.94	450.45833
2565.298	463.79167
2567.653	478.79167
2570.007	446.79167
2572.36	467.125
2574.711	453.125
2577.06	481.125
2579.408	462.45833
2581.754	469.79167
2584.099	460.45833
2586.442	464.79167
2588.784	462.45833
2591.124	461.79167
2593.463	461.79167
2595.8	459.45833
2598.135	445.125
2600.469	456.125
2602.802	475.79167
2605.133	469.79167
2607.462	441.45833
2609.79	446.79167
2612.116	455.125
2614.441	454.45833
2616.764	452.45833
2619.086	453.125
2621.406	450.79167
2623.725	462.79167
2626.042	455.79167
2628.358	451.45833
2630.672	453.125
2632.985	464.125
2635.296	460.125
2637.606	462.45833
2639.914	445.79167
2642.22	456.45833
2644.525	455.45833
2646.829	457.45833
2649.131	475.125
2651.432	461.45833
2653.731	453.125
2656.028	467.125
2658.324	465.125
2660.619	447.45833
2662.912	474.45833
2665.204	455.125
2667.494	469.79167
2669.782	451.45833
2672.07	460.79167
2674.355	473.125
2676.639	461.45833
2678.922	451.125
2681.203	470.125
2683.483	453.45833
2685.761	454.45833
2688.038	469.125
2690.313	474.45833
2692.587	472.79167
2694.859	460.79167
2697.13	471.45833
2699.399	471.79167
2701.667	490.125
2703.933	481.125
2706.198	478.45833
2708.461	483.125
2710.723	491.79167
2712.984	483.79167
2715.243	501.125
2717.5	480.125
2719.757	504.45833
2722.011	498.45833
2724.264	511.79167
2726.516	515.79167
2728.766	498.125
2731.015	507.45833
2733.262	507.79167
2735.508	498.45833
2737.753	503.125
2739.996	480.79167
2742.237	489.79167
2744.477	502.125
2746.716	497.125
2748.953	485.45833
2751.189	493.79167
2753.423	486.125
2755.656	475.79167
2757.887	476.45833
2760.117	475.79167
2762.346	471.125
2764.573	460.79167
2766.798	467.45833
2769.022	478.45833
2771.245	473.125
2773.467	466.79167
2775.686	471.79167
2777.905	482.125
2780.122	483.45833
2782.337	487.79167
2784.552	477.45833
2786.764	493.125
2788.976	492.125
2791.186	497.79167
2793.394	509.125
2795.601	507.125
2797.807	523.79167
2800.011	517.45833
2802.214	531.45833
2804.415	528.45833
2806.615	539.79167
2808.814	549.125
2811.011	554.79167
2813.206	552.125
2815.401	569.45833
2817.594	578.125
2819.785	584.79167
2821.975	579.45833
2824.164	590.79167
2826.351	615.79167
2828.537	637.79167
2830.722	646.45833
2832.905	665.125
2835.086	689.45833
2837.267	720.45833
2839.445	751.45833
2841.623	767.45833
2843.799	803.45833
2845.974	857.125
2848.147	889.45833
2850.319	907.125
2852.489	940.79167
2854.659	964.125
2856.826	981.45833
2858.993	995.79167
2861.158	967.45833
2863.321	992.79167
2865.483	1002.79167
2867.644	1011.79167
2869.804	1015.45833
2871.962	989.125
2874.118	994.125
2876.274	989.125
2878.428	997.79167
2880.58	1007.45833
2882.731	974.79167
2884.881	988.45833
2887.03	985.45833
2889.177	995.125
2891.322	999.125
2893.467	1001.45833
2895.61	993.45833
2897.751	1021.45833
2899.892	1015.125
2902.03	1024.125
2904.168	1039.79167
2906.304	1042.125
2908.439	1054.45833
2910.572	1039.125
2912.704	1050.125
2914.835	1066.125
2916.965	1057.125
2919.093	1081.45833
2921.219	1030.125
2923.345	1063.45833
2925.469	1027.125
2927.591	1024.79167
2929.712	979.79167
2931.832	977.79167
2933.951	956.125
2936.068	926.45833
2938.184	903.45833
2940.299	875.79167
2942.412	847.79167
2944.524	814.125
2946.634	805.79167
2948.744	739.45833
2950.851	778.125
2952.958	723.45833
2955.063	719.79167
2957.167	697.125
2959.269	662.79167
2961.371	673.45833
2963.471	628.125
2965.569	645.125
2967.666	605.79167
2969.762	590.125
2971.857	571.125
2973.95	548.45833
2976.042	559.45833
2978.133	528.45833
2980.222	522.45833
2982.31	496.79167
2984.396	486.45833
2986.482	471.45833
2988.566	484.45833
2990.648	470.125
2992.73	466.79167
2994.81	457.45833
2996.889	455.79167
2998.966	453.79167
3001.042	449.45833
3003.117	450.45833
3005.191	451.125
3007.263	441.79167
3009.334	423.79167
3011.403	420.79167
3013.472	405.45833
3015.539	409.79167
3017.604	424.79167
3019.669	380.125
3021.732	387.79167
3023.794	391.79167
3025.854	373.45833
3027.914	379.79167
3029.971	379.79167
3032.028	366.45833
3034.083	369.45833
3036.137	374.79167
3038.19	352.79167
3040.242	348.45833
3042.292	336.125
3044.341	333.45833
3046.388	363.45833
3048.435	323.125
3050.48	345.45833
3052.524	331.125
3054.566	322.79167
3056.607	331.79167
3058.647	314.125
3060.686	298.79167
3062.723	282.125
3064.759	294.45833
3066.794	-1.20833
3068.828	-0.875
3070.86	-2.54167
