-0.839	424.83333
3.438	481.16667
7.711	138.5
11.981	57.5
16.247	46.5
20.509	44.5
24.768	49.16667
29.024	48.16667
33.276	47.83333
37.524	50.5
41.769	42.16667
46.01	36.16667
50.247	54.83333
54.481	66.83333
58.712	67.5
62.939	51.5
67.162	60.83333
71.382	59.5
75.599	52.5
79.812	66.83333
84.021	82.16667
88.227	64.83333
92.429	64.16667
96.628	52.5
100.823	73.5
105.015	76.5
109.204	80.83333
113.388	83.16667
117.57	80.16667
121.748	97.5
125.922	82.83333
130.093	108.16667
134.261	114.5
138.425	106.83333
142.585	152.5
146.742	148.5
150.896	176.83333
155.046	218.16667
159.193	345.16667
163.336	590.83333
167.476	1078.16667
171.613	1973.5
175.746	3307.16667
179.875	4965.5
184.002	6492.5
188.124	7607.5
192.244	8045.5
196.36	8039.16667
200.472	7875.83333
204.581	7737.83333
208.687	7602.5
212.79	7570.16667
216.889	7630.16667
220.984	7802.16667
225.077	7914.16667
229.165	8089.16667
233.251	8200.5
237.333	8329.83333
241.412	8303.5
245.487	8291.83333
249.559	8201.16667
253.628	8166.83333
257.694	8110.5
261.756	8002.5
265.814	7871.16667
269.87	7611.83333
273.922	7401.16667
277.97	7169.83333
282.016	7039.16667
286.058	6950.83333
290.097	6979.83333
294.132	6892.16667
298.164	6787.5
302.193	6488.16667
306.219	6004.16667
310.241	5451.16667
314.26	4971.16667
318.276	4595.5
322.288	4287.5
326.297	4060.83333
330.303	3868.83333
334.305	3772.16667
338.305	3680.83333
342.301	3605.83333
346.294	3586.16667
350.283	3580.16667
354.269	3519.5
358.252	3485.16667
362.232	3462.83333
366.209	3454.16667
370.182	3424.83333
374.152	3433.16667
378.119	3399.83333
382.083	3397.5
386.043	3431.16667
390	3365.83333
393.954	3362.5
397.905	3334.16667
401.852	3332.83333
405.797	3264.83333
409.738	3230.16667
413.676	3215.16667
417.61	3228.83333
421.542	3181.16667
425.47	3151.5
429.396	3108.16667
433.318	3090.16667
437.236	3080.5
441.152	3079.5
445.065	3026.16667
448.974	3041.83333
452.88	2993.83333
456.783	2997.83333
460.683	2996.5
464.58	3002.5
468.473	2984.16667
472.364	2999.5
476.251	3017.83333
480.135	3030.5
484.016	3051.16667
487.894	3074.5
491.769	3089.83333
495.641	3085.5
499.509	3084.83333
503.375	3088.83333
507.237	3073.5
511.096	3046.83333
514.952	3018.16667
518.805	3040.16667
522.655	3057.83333
526.502	3003.83333
530.346	3022.16667
534.187	3056.83333
538.024	3031.83333
541.859	3053.5
545.69	3059.83333
549.519	3046.16667
553.344	2993.5
557.166	2973.83333
560.985	2955.16667
564.802	2941.5
568.615	2881.16667
572.425	2848.16667
576.232	2817.5
580.036	2827.5
583.836	2835.5
587.634	2809.16667
591.429	2808.5
595.221	2867.5
599.01	2882.16667
602.796	2927.5
606.578	2934.5
610.358	2957.83333
614.135	2945.16667
617.909	2948.5
621.679	2916.16667
625.447	2916.16667
629.212	2937.5
632.973	2920.5
636.732	2907.5
640.488	2921.5
644.241	2879.16667
647.991	2877.83333
651.737	2908.83333
655.481	2880.5
659.222	2902.16667
662.96	2888.16667
666.695	2907.5
670.427	2884.16667
674.156	2934.5
677.882	2921.5
681.605	2908.83333
685.325	2891.16667
689.043	2901.16667
692.757	2864.5
696.468	2889.5
700.177	2882.5
703.882	2888.16667
707.585	2869.16667
711.284	2881.5
714.981	2878.16667
718.675	2893.83333
722.366	2912.5
726.054	2877.83333
729.739	2897.5
733.421	2893.16667
737.1	2867.16667
740.777	2934.5
744.45	2927.83333
748.121	2949.16667
751.789	2999.83333
755.453	2979.83333
759.115	3003.5
762.774	3030.83333
766.431	3062.5
770.084	3074.83333
773.734	3126.5
777.382	3167.83333
781.027	3230.5
784.669	3205.5
788.308	3215.83333
791.944	3262.5
795.577	3281.83333
799.208	3333.83333
802.835	3329.5
806.46	3388.5
810.082	3426.83333
813.701	3413.5
817.317	3440.5
820.931	3443.5
824.542	3408.5
828.149	3395.83333
831.754	3400.16667
835.357	3332.5
838.956	3335.5
842.553	3312.5
846.146	3278.5
849.737	3280.5
853.326	3269.16667
856.911	3285.5
860.493	3314.5
864.073	3336.5
867.65	3374.5
871.225	3438.5
874.796	3428.16667
878.365	3437.16667
881.931	3483.16667
885.494	3488.5
889.054	3480.5
892.612	3476.83333
896.166	3448.16667
899.719	3400.16667
903.268	3347.5
906.814	3371.5
910.358	3355.83333
913.899	3348.83333
917.438	3323.5
920.973	3346.5
924.506	3373.83333
928.036	3421.5
931.564	3435.5
935.088	3478.5
938.61	3507.83333
942.129	3531.16667
945.646	3600.5
949.16	3657.16667
952.671	3772.83333
956.179	3816.16667
959.685	3802.16667
963.188	3790.16667
966.688	3748.5
970.185	3661.16667
973.68	3563.5
977.173	3548.5
980.662	3511.16667
984.149	3525.5
987.633	3542.5
991.114	3616.16667
994.593	3699.16667
998.069	3787.5
1001.542	3934.83333
1005.013	3836.83333
1008.481	3652.5
1011.947	3557.16667
1015.409	3618.16667
1018.869	3643.83333
1022.327	3532.5
1025.782	3520.5
1029.234	3531.5
1032.683	3485.16667
1036.13	3411.83333
1039.574	3268.16667
1043.016	3194.5
1046.455	3148.16667
1049.891	3113.5
1053.325	3104.83333
1056.756	3125.5
1060.184	3130.5
1063.61	3152.83333
1067.033	3183.16667
1070.454	3154.16667
1073.872	3194.83333
1077.287	3200.5
1080.7	3217.83333
1084.11	3239.83333
1087.517	3197.5
1090.922	3141.83333
1094.325	3091.5
1097.724	3074.16667
1101.122	3069.16667
1104.516	3045.16667
1107.908	3065.83333
1111.298	3116.83333
1114.684	3156.16667
1118.069	3164.5
1121.45	3205.83333
1124.83	3188.16667
1128.206	3243.5
1131.58	3279.5
1134.951	3338.5
1138.32	3411.16667
1141.687	3557.83333
1145.05	3659.5
1148.412	3656.16667
1151.77	3669.5
1155.126	3668.5
1158.48	3664.16667
1161.831	3664.83333
1165.18	3707.16667
1168.525	3746.83333
1171.869	3807.5
1175.21	3826.5
1178.548	3895.16667
1181.884	3920.5
1185.217	3948.83333
1188.548	3978.5
1191.877	4038.5
1195.202	4152.5
1198.526	4228.16667
1201.846	4241.5
1205.165	4228.5
1208.48	4211.5
1211.794	4215.5
1215.104	4217.16667
1218.413	4202.83333
1221.719	4218.5
1225.022	4181.83333
1228.323	4144.5
1231.621	4139.16667
1234.917	4132.16667
1238.21	4146.83333
1241.501	4120.83333
1244.79	4144.16667
1248.076	4136.83333
1251.359	4167.83333
1254.64	4252.16667
1257.919	4233.5
1261.195	4347.16667
1264.468	4405.16667
1267.74	4438.16667
1271.008	4461.83333
1274.275	4438.16667
1277.538	4409.16667
1280.8	4406.83333
1284.059	4390.83333
1287.315	4434.16667
1290.569	4435.5
1293.821	4474.5
1297.07	4499.83333
1300.317	4499.83333
1303.562	4493.83333
1306.803	4463.5
1310.043	4439.16667
1313.28	4373.5
1316.515	4334.16667
1319.747	4297.16667
1322.977	4224.16667
1326.204	4197.83333
1329.429	4119.5
1332.652	4104.5
1335.872	4097.16667
1339.09	4096.5
1342.306	4079.5
1345.519	4057.5
1348.729	4045.83333
1351.938	4011.5
1355.144	3936.5
1358.347	3894.83333
1361.548	3891.5
1364.747	3933.16667
1367.944	3908.5
1371.138	3924.16667
1374.329	3946.16667
1377.518	3996.16667
1380.705	4029.83333
1383.89	4018.83333
1387.072	3887.16667
1390.252	3754.5
1393.429	3638.16667
1396.605	3532.16667
1399.777	3438.5
1402.948	3380.16667
1406.116	3384.5
1409.282	3360.5
1412.445	3365.83333
1415.606	3410.5
1418.765	3456.16667
1421.921	3505.5
1425.075	3626.16667
1428.227	3725.83333
1431.376	3916.5
1434.524	4058.16667
1437.668	4139.5
1440.811	4195.83333
1443.951	4199.16667
1447.089	4210.83333
1450.224	4188.83333
1453.357	4147.16667
1456.488	4120.5
1459.617	4053.16667
1462.743	4027.5
1465.867	3932.5
1468.989	3884.16667
1472.108	3788.5
1475.225	3740.16667
1478.34	3675.16667
1481.453	3664.83333
1484.563	3669.83333
1487.671	3717.16667
1490.776	3778.83333
1493.88	3824.16667
1496.981	3903.16667
1500.08	3955.83333
1503.176	4039.83333
1506.271	4114.5
1509.363	4150.83333
1512.452	4228.83333
1515.54	4310.16667
1518.625	4404.5
1521.708	4574.5
1524.789	4852.5
1527.867	5152.83333
1530.944	5436.16667
1534.018	5727.5
1537.089	5869.5
1540.159	5808.83333
1543.226	5665.83333
1546.291	5448.5
1549.354	5261.16667
1552.415	5125.16667
1555.473	4932.5
1558.529	4887.5
1561.583	4790.83333
1564.634	4722.83333
1567.684	4759.16667
1570.731	4773.16667
1573.776	4803.5
1576.819	4818.83333
1579.859	4877.5
1582.898	4923.5
1585.934	4970.16667
1588.968	4975.83333
1591.999	4948.16667
1595.029	4959.83333
1598.056	4974.5
1601.081	4983.16667
1604.104	4956.16667
1607.125	4933.83333
1610.144	4853.83333
1613.16	4711.16667
1616.174	4638.83333
1619.186	4511.16667
1622.196	4413.83333
1625.203	4314.83333
1628.209	4270.5
1631.212	4254.16667
1634.213	4255.83333
1637.212	4249.83333
1640.209	4192.16667
1643.203	4066.5
1646.196	3932.16667
1649.186	3802.83333
1652.174	3658.5
1655.16	3559.5
1658.144	3470.5
1661.125	3306.16667
1664.105	3150.16667
1667.082	2987.5
1670.057	2850.5
1673.03	2663.16667
1676.001	2495.5
1678.97	2333.83333
1681.937	2217.16667
1684.901	2083.5
1687.863	1999.5
1690.824	1936.5
1693.782	1892.16667
1696.738	1815.5
1699.692	1797.5
1702.643	1758.83333
1705.593	1728.16667
1708.54	1704.16667
1711.486	1695.83333
1714.429	1659.5
1717.37	1643.16667
1720.309	1616.16667
1723.246	1622.83333
1726.181	1594.16667
1729.113	1577.5
1732.044	1567.5
1734.972	1550.16667
1737.899	1542.16667
1740.823	1520.5
1743.745	1534.16667
1746.665	1486.5
1749.583	1468.5
1752.499	1442.83333
1755.413	1429.16667
1758.325	1391.16667
1761.235	1384.16667
1764.142	1350.83333
1767.048	1340.83333
1769.951	1338.5
1772.852	1334.5
1775.752	1332.83333
1778.649	1319.5
1781.544	1320.16667
1784.437	1279.83333
1787.328	1308.5
1790.217	1289.5
1793.104	1254.16667
1795.989	1255.16667
1798.872	1245.83333
1801.753	1270.5
1804.631	1258.83333
1807.508	1270.83333
1810.383	1263.83333
1813.255	1256.16667
1816.126	1242.16667
1818.994	1229.16667
1821.861	1220.83333
1824.725	1226.16667
1827.587	1217.5
1830.448	1210.5
1833.306	1167.16667
1836.162	1187.16667
1839.017	1184.16667
1841.869	1180.16667
1844.719	1189.5
1847.567	1162.83333
1850.414	1169.16667
1853.258	1158.83333
1856.1	1175.5
1858.94	1168.83333
1861.778	1170.5
1864.614	1153.5
1867.448	1163.83333
1870.28	1142.5
1873.111	1164.5
1875.939	1152.16667
1878.765	1167.5
1881.589	1163.16667
1884.411	1152.83333
1887.231	1163.83333
1890.049	1130.83333
1892.865	1130.5
1895.68	1130.16667
1898.492	1126.5
1901.302	1126.83333
1904.11	1106.5
1906.916	1109.5
1909.721	1109.16667
1912.523	1108.16667
1915.323	1086.83333
1918.122	1088.16667
1920.918	1101.5
1923.712	1084.83333
1926.505	1096.16667
1929.295	1077.16667
1932.084	1086.5
1934.87	1081.5
1937.655	1057.83333
1940.438	1072.16667
1943.218	1072.5
1945.997	1059.16667
1948.774	1083.83333
1951.549	1083.16667
1954.322	1060.83333
1957.093	1076.16667
1959.862	1051.83333
1962.629	1055.5
1965.394	1060.16667
1968.157	1034.5
1970.918	1058.83333
1973.678	1026.5
1976.435	1037.83333
1979.19	1028.5
1981.944	1017.83333
1984.696	1018.5
1987.445	1006.16667
1990.193	1024.16667
1992.939	1033.5
1995.683	1014.83333
1998.425	983.16667
2001.165	1042.5
2003.903	1011.83333
2006.639	995.16667
2009.374	1006.5
2012.106	1006.16667
2014.837	980.16667
2017.566	995.5
2020.292	1000.16667
2023.017	1001.16667
2025.74	996.16667
2028.461	986.83333
2031.18	995.83333
2033.898	971.5
2036.613	983.16667
2039.327	988.16667
2042.038	965.5
2044.748	964.16667
2047.456	967.16667
2050.162	952.83333
2052.866	959.5
2055.568	961.16667
2058.268	953.5
2060.967	962.5
2063.663	931.5
2066.358	952.83333
2069.051	927.5
2071.742	951.16667
2074.431	951.16667
2077.118	938.83333
2079.804	930.16667
2082.487	940.5
2085.169	947.16667
2087.849	971.16667
2090.527	939.83333
2093.203	954.16667
2095.877	960.83333
2098.55	958.5
2101.22	972.83333
2103.889	966.5
2106.556	971.5
2109.221	996.83333
2111.884	1018.83333
2114.546	1074.5
2117.205	1125.5
2119.863	1213.83333
2122.519	1284.5
2125.173	1369.83333
2127.825	1478.16667
2130.475	1485.5
2133.124	1454.16667
2135.771	1411.83333
2138.416	1363.83333
2141.059	1281.83333
2143.7	1243.5
2146.339	1154.16667
2148.977	1092.5
2151.613	1077.5
2154.247	1031.83333
2156.879	1022.83333
2159.51	1009.5
2162.138	980.83333
2164.765	982.83333
2167.39	967.16667
2170.013	988.5
2172.634	977.16667
2175.254	976.5
2177.872	997.16667
2180.488	935.16667
2183.102	946.5
2185.714	928.16667
2188.325	898.83333
2190.934	919.16667
2193.541	906.16667
2196.146	897.16667
2198.75	873.5
2201.351	881.83333
2203.951	847.5
2206.549	861.16667
2209.146	845.5
2211.74	855.5
2214.333	841.5
2216.924	818.83333
2219.514	849.5
2222.101	816.5
2224.687	835.16667
2227.271	807.16667
2229.853	802.83333
2232.433	799.83333
2235.012	808.16667
2237.589	810.5
2240.164	807.5
2242.738	799.16667
2245.309	784.5
2247.879	798.16667
2250.448	792.5
2253.014	766.16667
2255.579	757.16667
2258.142	755.16667
2260.703	747.16667
2263.262	748.83333
2265.82	742.16667
2268.376	735.83333
2270.93	732.83333
2273.483	733.83333
2276.033	733.5
2278.583	711.16667
2281.13	705.5
2283.675	708.16667
2286.219	703.83333
2288.761	713.16667
2291.302	715.16667
2293.841	711.5
2296.377	693.83333
2298.913	694.83333
2301.446	701.83333
2303.978	704.5
2306.508	687.83333
2309.037	689.83333
2311.563	697.16667
2314.088	697.16667
2316.612	673.16667
2319.133	677.83333
2321.653	673.83333
2324.171	676.5
2326.688	671.16667
2329.202	675.5
2331.715	660.5
2334.227	662.83333
2336.736	665.16667
2339.244	656.16667
2341.751	638.5
2344.255	668.5
2346.758	650.83333
2349.259	637.16667
2351.759	641.16667
2354.257	643.16667
2356.753	631.83333
2359.247	632.5
2361.74	647.5
2364.231	628.5
2366.721	647.16667
2369.209	619.83333
2371.695	629.83333
2374.179	616.5
2376.662	621.5
2379.143	637.16667
2381.622	628.83333
2384.1	633.5
2386.576	624.5
2389.051	624.5
2391.524	639.5
2393.995	629.5
2396.464	618.5
2398.932	606.16667
2401.398	613.16667
2403.863	609.5
2406.325	603.83333
2408.787	602.16667
2411.246	604.5
2413.704	600.5
2416.16	599.5
2418.615	605.16667
2421.068	605.16667
2423.519	587.83333
2425.969	591.16667
2428.417	598.16667
2430.863	614.5
2433.308	603.5
2435.751	591.16667
2438.193	587.16667
2440.633	592.5
2443.071	588.83333
2445.508	580.5
2447.943	584.16667
2450.376	572.5
2452.808	571.16667
2455.238	578.5
2457.667	593.5
2460.093	566.5
2462.519	557.83333
2464.942	569.5
2467.365	572.83333
2469.785	568.83333
2472.204	565.5
2474.621	555.5
2477.037	584.16667
2479.451	550.16667
2481.863	552.5
2484.274	548.16667
2486.683	559.83333
2489.091	554.16667
2491.497	551.5
2493.901	551.5
2496.304	548.16667
2498.705	549.5
2501.105	546.5
2503.503	570.16667
2505.899	542.83333
2508.294	549.83333
2510.687	534.83333
2513.079	533.5
2515.469	522.5
2517.858	536.5
2520.245	547.83333
2522.63	537.16667
2525.014	521.5
2527.396	521.5
2529.776	521.83333
2532.156	528.83333
2534.533	513.83333
2536.909	514.5
2539.283	508.83333
2541.656	512.83333
2544.027	536.5
2546.397	515.16667
2548.765	510.5
2551.131	518.16667
2553.496	516.83333
2555.86	519.5
2558.221	510.16667
2560.582	503.83333
2562.94	500.83333
2565.298	505.83333
2567.653	528.83333
2570.007	496.16667
2572.36	510.83333
2574.711	495.83333
2577.06	519.16667
2579.408	507.16667
2581.754	503.83333
2584.099	503.16667
2586.442	502.83333
2588.784	499.5
2591.124	498.83333
2593.463	497.16667
2595.8	497.83333
2598.135	479.5
2600.469	492.5
2602.802	502.5
2605.133	505.5
2607.462	478.83333
2609.79	488.5
2612.116	496.83333
2614.441	487.16667
2616.764	493.5
2619.086	495.83333
2621.406	482.16667
2623.725	494.5
2626.042	492.16667
2628.358	492.83333
2630.672	479.83333
2632.985	503.16667
2635.296	489.5
2637.606	489.5
2639.914	478.16667
2642.22	490.5
2644.525	489.16667
2646.829	488.83333
2649.131	500.83333
2651.432	487.16667
2653.731	490.83333
2656.028	501.83333
2658.324	493.16667
2660.619	490.16667
2662.912	494.16667
2665.204	485.5
2667.494	504.83333
2669.782	476.5
2672.07	491.5
2674.355	501.16667
2676.639	488.83333
2678.922	493.16667
2681.203	497.83333
2683.483	480.83333
2685.761	478.83333
2688.038	486.16667
2690.313	510.5
2692.587	497.16667
2694.859	482.83333
2697.13	492.83333
2699.399	501.16667
2701.667	517.16667
2703.933	511.83333
2706.198	513.83333
2708.461	515.83333
2710.723	518.83333
2712.984	512.5
2715.243	518.16667
2717.5	515.16667
2719.757	529.83333
2722.011	526.16667
2724.264	528.83333
2726.516	549.16667
2728.766	524.16667
2731.015	538.83333
2733.262	528.16667
2735.508	523.83333
2737.753	527.83333
2739.996	516.5
2742.237	512.83333
2744.477	509.83333
2746.716	519.83333
2748.953	511.5
2751.189	515.83333
2753.423	499.83333
2755.656	487.16667
2757.887	491.16667
2760.117	488.16667
2762.346	480.5
2764.573	480.5
2766.798	479.5
2769.022	482.83333
2771.245	494.83333
2773.467	478.83333
2775.686	491.83333
2777.905	497.83333
2780.122	506.83333
2782.337	502.83333
2784.552	504.16667
2786.764	515.5
2788.976	516.83333
2791.186	517.83333
2793.394	516.5
2795.601	535.16667
2797.807	546.5
2800.011	549.83333
2802.214	561.83333
2804.415	562.16667
2806.615	567.16667
2808.814	585.5
2811.011	578.5
2813.206	596.16667
2815.401	608.5
2817.594	623.83333
2819.785	635.83333
2821.975	621.5
2824.164	640.5
2826.351	660.5
2828.537	694.83333
2830.722	699.5
2832.905	708.5
2835.086	758.16667
2837.267	791.5
2839.445	820.5
2841.623	850.5
2843.799	894.5
2845.974	943.16667
2848.147	1000.5
2850.319	1028.5
2852.489	1061.5
2854.659	1072.83333
2856.826	1107.16667
2858.993	1129.16667
2861.158	1109.83333
2863.321	1122.16667
2865.483	1154.16667
2867.644	1141.16667
2869.804	1128.5
2871.962	1122.16667
2874.118	1133.16667
2876.274	1114.83333
2878.428	1125.5
2880.58	1125.5
2882.731	1094.83333
2884.881	1103.83333
2887.03	1113.5
2889.177	1102.5
2891.322	1128.5
2893.467	1112.5
2895.61	1113.83333
2897.751	1136.83333
2899.892	1133.83333
2902.03	1144.16667
2904.168	1164.5
2906.304	1161.83333
2908.439	1180.16667
2910.572	1147.83333
2912.704	1185.5
2914.835	1188.16667
2916.965	1178.83333
2919.093	1190.83333
2921.219	1139.83333
2923.345	1158.83333
2925.469	1127.83333
2927.591	1120.83333
2929.712	1072.5
2931.832	1068.83333
2933.951	1042.5
2936.068	1012.16667
2938.184	980.5
2940.299	945.16667
2942.412	917.16667
2944.524	870.5
2946.634	853.83333
2948.744	789.5
2950.851	801.16667
2952.958	748.5
2955.063	738.5
2957.167	715.5
2959.269	679.16667
2961.371	680.5
2963.471	636.5
2965.569	639.5
2967.666	596.83333
2969.762	584.16667
2971.857	565.5
2973.95	543.16667
2976.042	538.5
2978.133	523.16667
2980.222	503.5
2982.31	478.5
2984.396	467.83333
2986.482	466.5
2988.566	451.16667
2990.648	440.83333
2992.73	437.16667
2994.81	424.83333
2996.889	414.5
2998.966	406.83333
3001.042	417.16667
3003.117	394.83333
3005.191	399.83333
3007.263	386.5
3009.334	387.83333
3011.403	374.16667
3013.472	365.16667
3015.539	365.16667
3017.604	375.16667
3019.669	337.83333
3021.732	339.5
3023.794	339.83333
3025.854	323.83333
3027.914	324.83333
3029.971	326.5
3032.028	321.83333
3034.083	319.83333
3036.137	319.16667
3038.19	308.16667
3040.242	298.83333
3042.292	293.16667
3044.341	286.16667
3046.388	304.83333
3048.435	276.16667
3050.48	297.83333
3052.524	280.5
3054.566	264.83333
3056.607	276.5
3058.647	274.5
3060.686	253.83333
3062.723	250.83333
3064.759	240.16667
3066.794	-1.83333
3068.828	-0.5
3070.86	-2.16667
