-0.839	413.75
3.438	470.08333
7.711	136.08333
11.981	54.08333
16.247	49.41667
20.509	44.41667
24.768	48.08333
29.024	51.08333
33.276	44.75
37.524	56.41667
41.769	44.75
46.01	38.75
50.247	55.75
54.481	59.75
58.712	66.41667
62.939	52.41667
67.162	65.75
71.382	61.41667
75.599	53.08333
79.812	67.41667
84.021	85.08333
88.227	60.75
92.429	62.75
96.628	54.08333
100.823	72.41667
105.015	79.75
109.204	79.41667
113.388	81.75
117.57	83.75
121.748	98.08333
125.922	81.75
130.093	107.08333
134.261	114.08333
138.425	106.08333
142.585	148.08333
146.742	154.75
150.896	176.41667
155.046	227.41667
159.193	351.08333
163.336	591.41667
167.476	1098.41667
171.613	2013.08333
175.746	3389.41667
179.875	5060.75
184.002	6636.75
188.124	7796.41667
192.244	8203.75
196.36	8186.08333
200.472	8023.75
204.581	7878.75
208.687	7712.08333
212.79	7725.75
216.889	7819.75
220.984	7976.08333
225.077	8134.75
229.165	8222.75
233.251	8345.08333
237.333	8454.41667
241.412	8443.41667
245.487	8452.41667
249.559	8393.08333
253.628	8304.41667
257.694	8217.75
261.756	8144.08333
265.814	7934.41667
269.87	7625.75
273.922	7407.75
277.97	7254.75
282.016	7123.08333
286.058	7106.08333
290.097	7131.08333
294.132	7118.75
298.164	6891.08333
302.193	6572.41667
306.219	6067.75
310.241	5513.75
314.26	5038.75
318.276	4627.41667
322.288	4330.08333
326.297	4065.08333
330.303	3880.08333
334.305	3746.41667
338.305	3661.75
342.301	3607.08333
346.294	3588.41667
350.283	3545.41667
354.269	3506.75
358.252	3465.41667
362.232	3451.41667
366.209	3416.08333
370.182	3386.75
374.152	3375.08333
378.119	3370.08333
382.083	3350.75
386.043	3369.75
390	3335.08333
393.954	3307.08333
397.905	3285.75
401.852	3279.75
405.797	3205.75
409.738	3220.75
413.676	3210.41667
417.61	3209.41667
421.542	3134.75
425.47	3071.75
429.396	3037.75
433.318	3027.75
437.236	2988.41667
441.152	3014.41667
445.065	2947.41667
448.974	2946.08333
452.88	2925.75
456.783	2889.75
460.683	2864.41667
464.58	2899.75
468.473	2893.75
472.364	2909.75
476.251	2892.75
480.135	2922.08333
484.016	2975.08333
487.894	2995.41667
491.769	3007.75
495.641	3004.41667
499.509	3001.41667
503.375	2994.41667
507.237	2963.75
511.096	2989.41667
514.952	3006.75
518.805	3062.41667
522.655	3068.08333
526.502	2977.08333
530.346	2945.08333
534.187	2963.75
538.024	2964.41667
541.859	2962.08333
545.69	2985.75
549.519	2980.08333
553.344	2954.41667
557.166	2887.41667
560.985	2865.08333
564.802	2837.08333
568.615	2802.41667
572.425	2766.75
576.232	2743.08333
580.036	2747.08333
583.836	2733.75
587.634	2752.75
591.429	2737.75
595.221	2780.75
599.01	2824.08333
602.796	2843.08333
606.578	2870.75
610.358	2875.41667
614.135	2857.08333
617.909	2856.75
621.679	2842.41667
625.447	2823.75
629.212	2853.08333
632.973	2849.08333
636.732	2852.08333
640.488	2847.75
644.241	2795.41667
647.991	2776.41667
651.737	2787.41667
655.481	2753.41667
659.222	2784.41667
662.96	2786.41667
666.695	2792.08333
670.427	2786.75
674.156	2823.75
677.882	2829.41667
681.605	2828.75
685.325	2791.75
689.043	2792.75
692.757	2792.41667
696.468	2790.75
700.177	2801.08333
703.882	2779.41667
707.585	2805.41667
711.284	2801.08333
714.981	2801.41667
718.675	2804.08333
722.366	2825.75
726.054	2801.08333
729.739	2809.75
733.421	2824.75
737.1	2812.08333
740.777	2841.41667
744.45	2872.75
748.121	2862.08333
751.789	2935.41667
755.453	2945.08333
759.115	2953.41667
762.774	2978.08333
766.431	3013.41667
770.084	3054.41667
773.734	3083.08333
777.382	3141.41667
781.027	3186.41667
784.669	3196.75
788.308	3202.75
791.944	3200.41667
795.577	3268.41667
799.208	3291.41667
802.835	3297.41667
806.46	3338.75
810.082	3344.41667
813.701	3384.75
817.317	3391.75
820.931	3393.08333
824.542	3399.08333
828.149	3377.41667
831.754	3334.41667
835.357	3331.08333
838.956	3326.41667
842.553	3342.08333
846.146	3339.41667
849.737	3292.41667
853.326	3307.08333
856.911	3322.75
860.493	3380.75
864.073	3406.75
867.65	3492.41667
871.225	3519.75
874.796	3487.41667
878.365	3516.08333
881.931	3538.75
885.494	3564.08333
889.054	3578.08333
892.612	3569.75
896.166	3525.41667
899.719	3487.75
903.268	3456.08333
906.814	3427.75
910.358	3413.41667
913.899	3400.75
917.438	3415.75
920.973	3394.08333
924.506	3420.41667
928.036	3492.08333
931.564	3526.75
935.088	3570.08333
938.61	3573.41667
942.129	3613.08333
945.646	3686.41667
949.16	3798.08333
952.671	3920.41667
956.179	3928.08333
959.685	3852.41667
963.188	3833.08333
966.688	3771.41667
970.185	3674.41667
973.68	3613.75
977.173	3585.08333
980.662	3581.08333
984.149	3613.75
987.633	3599.75
991.114	3693.08333
994.593	3808.75
998.069	3903.08333
1001.542	3997.08333
1005.013	3947.08333
1008.481	3701.75
1011.947	3626.41667
1015.409	3654.41667
1018.869	3656.08333
1022.327	3620.75
1025.782	3590.41667
1029.234	3572.41667
1032.683	3548.75
1036.13	3438.75
1039.574	3306.41667
1043.016	3236.41667
1046.455	3155.08333
1049.891	3114.08333
1053.325	3102.08333
1056.756	3135.75
1060.184	3157.41667
1063.61	3165.41667
1067.033	3187.08333
1070.454	3186.75
1073.872	3220.41667
1077.287	3226.08333
1080.7	3206.08333
1084.11	3221.75
1087.517	3214.75
1090.922	3172.75
1094.325	3122.75
1097.724	3127.08333
1101.122	3100.41667
1104.516	3099.41667
1107.908	3094.41667
1111.298	3160.41667
1114.684	3193.41667
1118.069	3245.75
1121.45	3297.75
1124.83	3241.75
1128.206	3273.08333
1131.58	3330.41667
1134.951	3410.41667
1138.32	3547.75
1141.687	3673.41667
1145.05	3771.41667
1148.412	3764.08333
1151.77	3802.75
1155.126	3780.41667
1158.48	3782.08333
1161.831	3813.08333
1165.18	3853.08333
1168.525	3920.75
1171.869	3984.75
1175.21	3993.41667
1178.548	4064.08333
1181.884	4092.08333
1185.217	4145.08333
1188.548	4187.75
1191.877	4243.75
1195.202	4348.08333
1198.526	4415.08333
1201.846	4443.41667
1205.165	4437.08333
1208.48	4379.41667
1211.794	4401.75
1215.104	4385.08333
1218.413	4397.08333
1221.719	4402.75
1225.022	4362.75
1228.323	4313.41667
1231.621	4316.08333
1234.917	4293.41667
1238.21	4306.08333
1241.501	4290.41667
1244.79	4310.75
1248.076	4328.08333
1251.359	4380.41667
1254.64	4431.08333
1257.919	4469.08333
1261.195	4543.41667
1264.468	4632.08333
1267.74	4686.41667
1271.008	4701.08333
1274.275	4681.08333
1277.538	4603.75
1280.8	4578.41667
1284.059	4602.41667
1287.315	4630.41667
1290.569	4656.08333
1293.821	4660.08333
1297.07	4669.41667
1300.317	4703.08333
1303.562	4689.08333
1306.803	4661.41667
1310.043	4587.75
1313.28	4540.41667
1316.515	4492.75
1319.747	4424.41667
1322.977	4386.41667
1326.204	4312.08333
1329.429	4202.41667
1332.652	4197.08333
1335.872	4197.75
1339.09	4174.41667
1342.306	4159.41667
1345.519	4181.08333
1348.729	4150.41667
1351.938	4146.75
1355.144	4084.41667
1358.347	4000.75
1361.548	4027.08333
1364.747	4007.08333
1367.944	3988.75
1371.138	4034.75
1374.329	4067.75
1377.518	4134.41667
1380.705	4181.75
1383.89	4116.08333
1387.072	3982.08333
1390.252	3892.41667
1393.429	3729.08333
1396.605	3621.08333
1399.777	3520.75
1402.948	3492.75
1406.116	3480.08333
1409.282	3483.08333
1412.445	3482.75
1415.606	3519.08333
1418.765	3569.75
1421.921	3652.41667
1425.075	3754.41667
1428.227	3853.08333
1431.376	4059.08333
1434.524	4199.75
1437.668	4249.75
1440.811	4315.41667
1443.951	4349.41667
1447.089	4363.08333
1450.224	4357.75
1453.357	4339.75
1456.488	4300.75
1459.617	4215.08333
1462.743	4187.75
1465.867	4107.08333
1468.989	4059.41667
1472.108	3979.41667
1475.225	3937.41667
1478.34	3864.41667
1481.453	3865.41667
1484.563	3873.08333
1487.671	3929.75
1490.776	3968.75
1493.88	4060.75
1496.981	4171.75
1500.08	4238.08333
1503.176	4319.41667
1506.271	4390.75
1509.363	4439.08333
1512.452	4523.41667
1515.54	4587.75
1518.625	4698.08333
1521.708	4870.08333
1524.789	5109.08333
1527.867	5422.08333
1530.944	5778.75
1534.018	6103.75
1537.089	6263.75
1540.159	6281.08333
1543.226	6141.41667
1546.291	5938.08333
1549.354	5727.08333
1552.415	5551.08333
1555.473	5395.75
1558.529	5263.41667
1561.583	5216.08333
1564.634	5149.41667
1567.684	5123.41667
1570.731	5113.75
1573.776	5149.41667
1576.819	5210.41667
1579.859	5193.08333
1582.898	5265.08333
1585.934	5327.75
1588.968	5359.08333
1591.999	5298.75
1595.029	5325.75
1598.056	5324.75
1601.081	5351.41667
1604.104	5307.08333
1607.125	5273.08333
1610.144	5166.41667
1613.16	5017.75
1616.174	4905.75
1619.186	4761.08333
1622.196	4638.75
1625.203	4574.08333
1628.209	4493.75
1631.212	4444.75
1634.213	4382.41667
1637.212	4338.75
1640.209	4264.75
1643.203	4139.41667
1646.196	4028.41667
1649.186	3896.75
1652.174	3762.75
1655.16	3665.75
1658.144	3565.08333
1661.125	3394.41667
1664.105	3234.08333
1667.082	3076.08333
1670.057	2936.75
1673.03	2766.41667
1676.001	2587.75
1678.97	2403.41667
1681.937	2258.08333
1684.901	2153.41667
1687.863	2094.75
1690.824	1984.75
1693.782	1953.41667
1696.738	1881.41667
1699.692	1860.75
1702.643	1798.75
1705.593	1786.75
1708.54	1759.08333
1711.486	1748.75
1714.429	1705.08333
1717.37	1689.08333
1720.309	1666.75
1723.246	1662.75
1726.181	1642.08333
1729.113	1619.75
1732.044	1582.08333
1734.972	1588.41667
1737.899	1602.08333
1740.823	1571.08333
1743.745	1562.08333
1746.665	1506.75
1749.583	1482.41667
1752.499	1480.08333
1755.413	1443.41667
1758.325	1427.41667
1761.235	1421.08333
1764.142	1377.41667
1767.048	1386.41667
1769.951	1371.75
1772.852	1352.41667
1775.752	1362.41667
1778.649	1381.08333
1781.544	1360.08333
1784.437	1328.41667
1787.328	1334.75
1790.217	1316.75
1793.104	1285.08333
1795.989	1280.75
1798.872	1287.08333
1801.753	1293.08333
1804.631	1299.08333
1807.508	1295.41667
1810.383	1266.41667
1813.255	1279.75
1816.126	1264.75
1818.994	1253.41667
1821.861	1245.75
1824.725	1261.75
1827.587	1250.41667
1830.448	1244.08333
1833.306	1221.08333
1836.162	1226.08333
1839.017	1216.08333
1841.869	1225.08333
1844.719	1211.75
1847.567	1205.75
1850.414	1197.41667
1853.258	1191.75
1856.1	1198.41667
1858.94	1218.75
1861.778	1183.75
1864.614	1197.75
1867.448	1189.41667
1870.28	1175.75
1873.111	1206.08333
1875.939	1186.08333
1878.765	1203.08333
1881.589	1180.41667
1884.411	1183.08333
1887.231	1183.08333
1890.049	1180.41667
1892.865	1159.41667
1895.68	1156.08333
1898.492	1155.08333
1901.302	1148.41667
1904.11	1150.75
1906.916	1144.75
1909.721	1125.08333
1912.523	1148.08333
1915.323	1121.75
1918.122	1123.41667
1920.918	1142.41667
1923.712	1110.75
1926.505	1104.08333
1929.295	1108.41667
1932.084	1129.41667
1934.87	1131.75
1937.655	1113.41667
1940.438	1104.41667
1943.218	1113.75
1945.997	1116.75
1948.774	1121.41667
1951.549	1110.41667
1954.322	1108.41667
1957.093	1107.41667
1959.862	1102.75
1962.629	1104.75
1965.394	1097.08333
1968.157	1077.41667
1970.918	1091.75
1973.678	1079.75
1976.435	1079.41667
1979.19	1063.75
1981.944	1081.41667
1984.696	1064.75
1987.445	1049.08333
1990.193	1065.08333
1992.939	1074.75
1995.683	1053.08333
1998.425	1043.75
2001.165	1080.41667
2003.903	1041.41667
2006.639	1049.08333
2009.374	1045.08333
2012.106	1044.08333
2014.837	1024.08333
2017.566	1052.75
2020.292	1048.41667
2023.017	1046.75
2025.74	1033.41667
2028.461	1023.41667
2031.18	1032.75
2033.898	1011.08333
2036.613	1041.41667
2039.327	1034.08333
2042.038	1014.41667
2044.748	1015.75
2047.456	1011.41667
2050.162	999.08333
2052.866	1002.41667
2055.568	1010.08333
2058.268	1015.41667
2060.967	1013.75
2063.663	999.75
2066.358	1009.08333
2069.051	987.41667
2071.742	1007.08333
2074.431	1012.08333
2077.118	1020.75
2079.804	999.41667
2082.487	1003.41667
2085.169	1029.41667
2087.849	1041.41667
2090.527	1017.08333
2093.203	1032.41667
2095.877	1032.75
2098.55	1054.41667
2101.22	1063.41667
2103.889	1080.41667
2106.556	1089.08333
2109.221	1132.08333
2111.884	1163.75
2114.546	1272.41667
2117.205	1367.75
2119.863	1487.08333
2122.519	1613.41667
2125.173	1731.08333
2127.825	1840.08333
2130.475	1870.41667
2133.124	1826.41667
2135.771	1735.41667
2138.416	1670.08333
2141.059	1567.08333
2143.7	1484.08333
2146.339	1380.75
2148.977	1298.41667
2151.613	1281.75
2154.247	1220.75
2156.879	1207.08333
2159.51	1172.75
2162.138	1141.41667
2164.765	1144.41667
2167.39	1112.41667
2170.013	1131.08333
2172.634	1123.08333
2175.254	1107.41667
2177.872	1146.41667
2180.488	1081.75
2183.102	1084.75
2185.714	1063.75
2188.325	1048.08333
2190.934	1045.08333
2193.541	1032.08333
2196.146	1019.41667
2198.75	988.08333
2201.351	980.08333
2203.951	959.08333
2206.549	986.08333
2209.146	955.41667
2211.74	938.41667
2214.333	951.41667
2216.924	923.75
2219.514	930.08333
2222.101	900.75
2224.687	926.41667
2227.271	891.08333
2229.853	895.41667
2232.433	891.08333
2235.012	911.08333
2237.589	890.41667
2240.164	910.41667
2242.738	883.41667
2245.309	875.08333
2247.879	883.08333
2250.448	878.41667
2253.014	856.08333
2255.579	845.75
2258.142	831.75
2260.703	830.75
2263.262	838.75
2265.82	824.08333
2268.376	824.41667
2270.93	815.41667
2273.483	811.41667
2276.033	812.41667
2278.583	798.75
2281.13	800.41667
2283.675	784.08333
2286.219	790.75
2288.761	793.75
2291.302	790.08333
2293.841	788.08333
2296.377	780.08333
2298.913	788.08333
2301.446	785.41667
2303.978	783.75
2306.508	779.08333
2309.037	765.41667
2311.563	782.41667
2314.088	772.08333
2316.612	761.08333
2319.133	771.08333
2321.653	762.41667
2324.171	749.75
2326.688	757.75
2329.202	756.08333
2331.715	760.75
2334.227	744.08333
2336.736	753.08333
2339.244	748.75
2341.751	745.75
2344.255	755.75
2346.758	731.75
2349.259	729.41667
2351.759	730.75
2354.257	740.08333
2356.753	729.41667
2359.247	738.75
2361.74	729.75
2364.231	717.75
2366.721	727.41667
2369.209	732.75
2371.695	716.41667
2374.179	718.41667
2376.662	723.08333
2379.143	729.75
2381.622	719.08333
2384.1	728.08333
2386.576	712.75
2389.051	726.41667
2391.524	725.41667
2393.995	726.41667
2396.464	711.75
2398.932	701.08333
2401.398	712.08333
2403.863	701.41667
2406.325	700.41667
2408.787	699.08333
2411.246	692.41667
2413.704	694.75
2416.16	690.75
2418.615	692.75
2421.068	714.75
2423.519	694.41667
2425.969	687.41667
2428.417	687.41667
2430.863	710.75
2433.308	705.75
2435.751	689.41667
2438.193	686.75
2440.633	694.41667
2443.071	690.75
2445.508	674.75
2447.943	679.75
2450.376	681.08333
2452.808	686.75
2455.238	667.75
2457.667	699.08333
2460.093	678.75
2462.519	665.08333
2464.942	668.41667
2467.365	678.41667
2469.785	680.08333
2472.204	683.75
2474.621	664.75
2477.037	680.41667
2479.451	660.41667
2481.863	668.08333
2484.274	655.75
2486.683	666.41667
2489.091	680.75
2491.497	664.75
2493.901	655.41667
2496.304	661.41667
2498.705	662.75
2501.105	656.08333
2503.503	685.08333
2505.899	649.75
2508.294	677.08333
2510.687	656.41667
2513.079	645.41667
2515.469	639.41667
2517.858	653.08333
2520.245	670.41667
2522.63	646.75
2525.014	643.41667
2527.396	643.08333
2529.776	637.41667
2532.156	647.75
2534.533	637.08333
2536.909	645.08333
2539.283	628.41667
2541.656	642.41667
2544.027	663.75
2546.397	649.08333
2548.765	646.75
2551.131	637.75
2553.496	643.41667
2555.86	656.41667
2558.221	630.41667
2560.582	642.41667
2562.94	631.08333
2565.298	646.75
2567.653	655.08333
2570.007	626.08333
2572.36	632.41667
2574.711	633.41667
2577.06	652.41667
2579.408	627.08333
2581.754	637.75
2584.099	634.08333
2586.442	634.75
2588.784	648.08333
2591.124	631.41667
2593.463	640.75
2595.8	628.75
2598.135	629.75
2600.469	626.41667
2602.802	638.08333
2605.133	627.08333
2607.462	617.08333
2609.79	625.75
2612.116	631.41667
2614.441	622.75
2616.764	629.08333
2619.086	629.08333
2621.406	627.41667
2623.725	643.75
2626.042	634.41667
2628.358	624.08333
2630.672	637.08333
2632.985	645.41667
2635.296	643.75
2637.606	641.75
2639.914	623.08333
2642.22	626.08333
2644.525	628.75
2646.829	633.08333
2649.131	642.75
2651.432	659.41667
2653.731	638.41667
2656.028	655.75
2658.324	646.08333
2660.619	643.75
2662.912	656.08333
2665.204	647.08333
2667.494	662.41667
2669.782	638.08333
2672.07	654.75
2674.355	655.75
2676.639	648.08333
2678.922	643.75
2681.203	653.75
2683.483	642.75
2685.761	632.41667
2688.038	652.08333
2690.313	666.08333
2692.587	656.75
2694.859	666.41667
2697.13	657.08333
2699.399	673.75
2701.667	672.41667
2703.933	668.41667
2706.198	676.75
2708.461	687.08333
2710.723	697.75
2712.984	679.41667
2715.243	703.75
2717.5	696.75
2719.757	707.08333
2722.011	700.41667
2724.264	702.41667
2726.516	731.41667
2728.766	706.08333
2731.015	718.08333
2733.262	709.08333
2735.508	712.08333
2737.753	707.41667
2739.996	687.75
2742.237	692.08333
2744.477	697.08333
2746.716	695.75
2748.953	690.41667
2751.189	692.08333
2753.423	686.41667
2755.656	669.75
2757.887	667.41667
2760.117	679.75
2762.346	668.41667
2764.573	663.41667
2766.798	668.41667
2769.022	684.41667
2771.245	686.41667
2773.467	679.41667
2775.686	689.08333
2777.905	681.41667
2780.122	693.08333
2782.337	703.75
2784.552	698.41667
2786.764	703.41667
2788.976	718.75
2791.186	732.41667
2793.394	724.41667
2795.601	749.75
2797.807	765.75
2800.011	765.75
2802.214	782.08333
2804.415	796.08333
2806.615	783.41667
2808.814	801.75
2811.011	815.41667
2813.206	814.08333
2815.401	825.41667
2817.594	852.41667
2819.785	859.41667
2821.975	853.41667
2824.164	870.41667
2826.351	897.75
2828.537	914.41667
2830.722	925.08333
2832.905	942.75
2835.086	982.41667
2837.267	1014.75
2839.445	1051.41667
2841.623	1085.41667
2843.799	1118.08333
2845.974	1166.41667
2848.147	1207.75
2850.319	1240.41667
2852.489	1275.08333
2854.659	1294.41667
2856.826	1315.41667
2858.993	1352.41667
2861.158	1338.08333
2863.321	1330.08333
2865.483	1356.41667
2867.644	1359.75
2869.804	1353.75
2871.962	1340.08333
2874.118	1366.75
2876.274	1378.75
2878.428	1380.41667
2880.58	1345.08333
2882.731	1332.41667
2884.881	1323.08333
2887.03	1320.75
2889.177	1330.41667
2891.322	1356.75
2893.467	1339.41667
2895.61	1343.75
2897.751	1379.75
2899.892	1362.41667
2902.03	1372.41667
2904.168	1373.08333
2906.304	1381.41667
2908.439	1395.08333
2910.572	1371.41667
2912.704	1395.41667
2914.835	1395.41667
2916.965	1388.41667
2919.093	1398.75
2921.219	1358.41667
2923.345	1394.08333
2925.469	1347.08333
2927.591	1328.41667
2929.712	1282.41667
2931.832	1282.08333
2933.951	1255.41667
2936.068	1223.41667
2938.184	1189.75
2940.299	1167.08333
2942.412	1136.41667
2944.524	1064.75
2946.634	1048.75
2948.744	996.41667
2950.851	1001.41667
2952.958	950.08333
2955.063	942.41667
2957.167	917.08333
2959.269	873.08333
2961.371	895.08333
2963.471	852.08333
2965.569	853.41667
2967.666	804.08333
2969.762	793.41667
2971.857	771.41667
2973.95	754.41667
2976.042	751.75
2978.133	721.08333
2980.222	705.08333
2982.31	682.41667
2984.396	652.75
2986.482	648.08333
2988.566	651.08333
2990.648	643.41667
2992.73	643.08333
2994.81	612.75
2996.889	623.41667
2998.966	609.75
3001.042	618.75
3003.117	607.08333
3005.191	599.08333
3007.263	586.41667
3009.334	585.75
3011.403	573.75
3013.472	552.41667
3015.539	556.41667
3017.604	564.41667
3019.669	542.08333
3021.732	535.41667
3023.794	531.41667
3025.854	520.41667
3027.914	517.75
3029.971	516.08333
3032.028	510.75
3034.083	512.08333
3036.137	509.41667
3038.19	491.75
3040.242	480.75
3042.292	460.75
3044.341	468.75
3046.388	471.08333
3048.435	447.08333
3050.48	458.75
3052.524	458.08333
3054.566	435.75
3056.607	447.41667
3058.647	435.41667
3060.686	418.75
3062.723	400.41667
3064.759	389.08333
3066.794	-0.25
3068.828	-1.91667
3070.86	-0.91667
