-0.839	368.95833
3.438	404.29167
7.711	118.625
11.981	54.29167
16.247	45.29167
20.509	43.625
24.768	42.95833
29.024	48.625
33.276	46.29167
37.524	46.625
41.769	42.29167
46.01	39.95833
50.247	50.625
54.481	63.29167
58.712	65.29167
62.939	48.625
67.162	61.95833
71.382	58.29167
75.599	48.95833
79.812	61.625
84.021	79.29167
88.227	56.625
92.429	63.95833
96.628	48.95833
100.823	68.95833
105.015	74.95833
109.204	71.95833
113.388	78.29167
117.57	67.625
121.748	90.29167
125.922	78.29167
130.093	96.29167
134.261	109.625
138.425	98.29167
142.585	137.29167
146.742	132.95833
150.896	156.29167
155.046	189.95833
159.193	294.29167
163.336	497.29167
167.476	912.95833
171.613	1675.29167
175.746	2805.95833
179.875	4171.29167
184.002	5505.95833
188.124	6434.29167
192.244	6799.625
196.36	6863.29167
200.472	6707.95833
204.581	6579.95833
208.687	6503.29167
212.79	6488.95833
216.889	6561.29167
220.984	6707.625
225.077	6811.29167
229.165	6966.95833
233.251	7055.29167
237.333	7138.29167
241.412	7173.625
245.487	7167.625
249.559	7099.29167
253.628	7085.29167
257.694	7008.29167
261.756	6975.95833
265.814	6836.95833
269.87	6627.625
273.922	6447.95833
277.97	6329.95833
282.016	6251.95833
286.058	6186.625
290.097	6207.625
294.132	6262.95833
298.164	6136.29167
302.193	5871.625
306.219	5386.29167
310.241	4928.29167
314.26	4470.95833
318.276	4126.95833
322.288	3850.625
326.297	3645.29167
330.303	3491.95833
334.305	3394.625
338.305	3325.625
342.301	3255.625
346.294	3213.95833
350.283	3203.29167
354.269	3169.625
358.252	3109.95833
362.232	3117.95833
366.209	3076.95833
370.182	3059.625
374.152	3037.95833
378.119	3036.95833
382.083	3001.29167
386.043	3036.29167
390	2993.625
393.954	2992.95833
397.905	2964.29167
401.852	2971.29167
405.797	2903.29167
409.738	2872.29167
413.676	2897.29167
417.61	2878.95833
421.542	2835.625
425.47	2807.625
429.396	2784.29167
433.318	2784.29167
437.236	2764.625
441.152	2795.29167
445.065	2736.95833
448.974	2734.95833
452.88	2692.95833
456.783	2677.625
460.683	2695.625
464.58	2689.625
468.473	2697.625
472.364	2691.625
476.251	2722.95833
480.135	2710.625
484.016	2750.95833
487.894	2768.95833
491.769	2783.625
495.641	2781.95833
499.509	2758.29167
503.375	2765.625
507.237	2773.625
511.096	2777.95833
514.952	2818.29167
518.805	2885.95833
522.655	2877.29167
526.502	2792.625
530.346	2755.625
534.187	2733.625
538.024	2731.95833
541.859	2756.29167
545.69	2784.29167
549.519	2760.625
553.344	2726.95833
557.166	2693.95833
560.985	2674.29167
564.802	2653.625
568.615	2594.95833
572.425	2585.95833
576.232	2544.29167
580.036	2522.29167
583.836	2544.29167
587.634	2544.29167
591.429	2534.29167
595.221	2599.625
599.01	2616.29167
602.796	2682.95833
606.578	2688.95833
610.358	2679.625
614.135	2697.95833
617.909	2667.29167
621.679	2662.625
625.447	2631.95833
629.212	2617.29167
632.973	2628.625
636.732	2627.95833
640.488	2639.95833
644.241	2594.625
647.991	2606.29167
651.737	2628.95833
655.481	2611.95833
659.222	2648.29167
662.96	2618.625
666.695	2645.625
670.427	2633.625
674.156	2643.95833
677.882	2636.625
681.605	2616.29167
685.325	2586.29167
689.043	2594.29167
692.757	2583.29167
696.468	2576.625
700.177	2590.625
703.882	2589.95833
707.585	2579.625
711.284	2594.625
714.981	2591.95833
718.675	2600.625
722.366	2612.625
726.054	2571.625
729.739	2578.29167
733.421	2580.95833
737.1	2556.95833
740.777	2589.95833
744.45	2625.29167
748.121	2618.625
751.789	2666.29167
755.453	2681.29167
759.115	2679.625
762.774	2708.95833
766.431	2748.625
770.084	2751.95833
773.734	2793.625
777.382	2815.95833
781.027	2830.625
784.669	2854.29167
788.308	2873.625
791.944	2913.95833
795.577	2917.625
799.208	2975.29167
802.835	2992.95833
806.46	3014.95833
810.082	3044.625
813.701	3047.625
817.317	3062.625
820.931	3048.625
824.542	3064.95833
828.149	3009.625
831.754	2987.29167
835.357	2961.29167
838.956	2908.625
842.553	2906.29167
846.146	2902.95833
849.737	2893.95833
853.326	2881.625
856.911	2905.625
860.493	2945.95833
864.073	2961.29167
867.65	3002.29167
871.225	3043.29167
874.796	3024.29167
878.365	3046.625
881.931	3083.29167
885.494	3091.29167
889.054	3070.95833
892.612	3086.625
896.166	3054.29167
899.719	3033.29167
903.268	3012.625
906.814	2989.95833
910.358	3007.29167
913.899	2964.95833
917.438	2984.95833
920.973	2983.625
924.506	3004.625
928.036	3071.29167
931.564	3118.625
935.088	3124.29167
938.61	3132.29167
942.129	3171.29167
945.646	3239.625
949.16	3325.29167
952.671	3394.625
956.179	3428.625
959.685	3413.95833
963.188	3413.95833
966.688	3414.95833
970.185	3298.95833
973.68	3225.625
977.173	3173.29167
980.662	3135.29167
984.149	3127.95833
987.633	3134.95833
991.114	3150.29167
994.593	3255.625
998.069	3362.29167
1001.542	3438.95833
1005.013	3352.95833
1008.481	3154.95833
1011.947	3090.625
1015.409	3099.95833
1018.869	3104.29167
1022.327	3117.625
1025.782	3078.95833
1029.234	3079.625
1032.683	3055.625
1036.13	2951.95833
1039.574	2829.625
1043.016	2776.29167
1046.455	2726.29167
1049.891	2681.95833
1053.325	2705.625
1056.756	2691.29167
1060.184	2743.95833
1063.61	2707.95833
1067.033	2729.625
1070.454	2726.95833
1073.872	2767.95833
1077.287	2785.625
1080.7	2802.95833
1084.11	2783.625
1087.517	2776.95833
1090.922	2713.625
1094.325	2692.625
1097.724	2656.29167
1101.122	2669.29167
1104.516	2656.29167
1107.908	2670.625
1111.298	2700.29167
1114.684	2740.625
1118.069	2754.95833
1121.45	2797.625
1124.83	2774.29167
1128.206	2798.29167
1131.58	2832.95833
1134.951	2895.625
1138.32	3011.29167
1141.687	3100.95833
1145.05	3209.29167
1148.412	3197.625
1151.77	3216.95833
1155.126	3173.29167
1158.48	3223.95833
1161.831	3213.625
1165.18	3227.625
1168.525	3291.95833
1171.869	3336.95833
1175.21	3371.29167
1178.548	3396.29167
1181.884	3447.625
1185.217	3461.95833
1188.548	3515.625
1191.877	3608.95833
1195.202	3699.625
1198.526	3740.95833
1201.846	3780.29167
1205.165	3780.625
1208.48	3775.625
1211.794	3744.625
1215.104	3754.95833
1218.413	3737.95833
1221.719	3729.29167
1225.022	3688.29167
1228.323	3637.625
1231.621	3617.95833
1234.917	3608.95833
1238.21	3631.95833
1241.501	3623.625
1244.79	3596.29167
1248.076	3633.29167
1251.359	3649.29167
1254.64	3695.95833
1257.919	3735.95833
1261.195	3785.95833
1264.468	3830.625
1267.74	3907.95833
1271.008	3920.625
1274.275	3905.29167
1277.538	3854.95833
1280.8	3848.29167
1284.059	3864.95833
1287.315	3897.95833
1290.569	3904.29167
1293.821	3958.29167
1297.07	3955.95833
1300.317	3970.625
1303.562	3962.29167
1306.803	3908.95833
1310.043	3885.95833
1313.28	3860.95833
1316.515	3788.95833
1319.747	3783.29167
1322.977	3744.625
1326.204	3710.625
1329.429	3651.29167
1332.652	3610.625
1335.872	3600.95833
1339.09	3588.29167
1342.306	3610.625
1345.519	3568.625
1348.729	3547.625
1351.938	3543.95833
1355.144	3487.625
1358.347	3390.95833
1361.548	3438.29167
1364.747	3405.29167
1367.944	3424.29167
1371.138	3438.95833
1374.329	3458.625
1377.518	3469.29167
1380.705	3515.29167
1383.89	3485.95833
1387.072	3363.625
1390.252	3260.29167
1393.429	3144.29167
1396.605	3043.29167
1399.777	2982.625
1402.948	2925.95833
1406.116	2900.625
1409.282	2907.95833
1412.445	2940.95833
1415.606	2962.95833
1418.765	3006.29167
1421.921	3065.29167
1425.075	3138.625
1428.227	3223.95833
1431.376	3385.625
1434.524	3505.95833
1437.668	3585.95833
1440.811	3595.625
1443.951	3628.95833
1447.089	3622.29167
1450.224	3617.95833
1453.357	3634.625
1456.488	3592.625
1459.617	3527.95833
1462.743	3488.625
1465.867	3408.625
1468.989	3413.29167
1472.108	3344.625
1475.225	3311.29167
1478.34	3281.95833
1481.453	3264.95833
1484.563	3267.625
1487.671	3297.95833
1490.776	3330.95833
1493.88	3436.625
1496.981	3465.95833
1500.08	3531.625
1503.176	3582.29167
1506.271	3634.95833
1509.363	3697.95833
1512.452	3761.29167
1515.54	3818.95833
1518.625	3914.95833
1521.708	4059.625
1524.789	4210.95833
1527.867	4444.95833
1530.944	4716.95833
1534.018	4975.625
1537.089	5061.625
1540.159	5075.625
1543.226	4965.625
1546.291	4801.95833
1549.354	4665.95833
1552.415	4521.29167
1555.473	4385.29167
1558.529	4317.95833
1561.583	4291.29167
1564.634	4232.95833
1567.684	4203.95833
1570.731	4237.625
1573.776	4283.625
1576.819	4298.625
1579.859	4352.29167
1582.898	4410.625
1585.934	4470.95833
1588.968	4462.29167
1591.999	4422.29167
1595.029	4426.95833
1598.056	4447.625
1601.081	4473.95833
1604.104	4465.29167
1607.125	4383.29167
1610.144	4282.29167
1613.16	4212.29167
1616.174	4113.95833
1619.186	3986.29167
1622.196	3918.625
1625.203	3829.95833
1628.209	3774.625
1631.212	3759.29167
1634.213	3767.95833
1637.212	3776.625
1640.209	3737.95833
1643.203	3649.95833
1646.196	3531.29167
1649.186	3378.95833
1652.174	3267.95833
1655.16	3167.29167
1658.144	3083.625
1661.125	2931.95833
1664.105	2792.29167
1667.082	2641.625
1670.057	2509.625
1673.03	2342.29167
1676.001	2202.625
1678.97	2066.29167
1681.937	1932.625
1684.901	1827.625
1687.863	1772.95833
1690.824	1678.29167
1693.782	1671.625
1696.738	1608.29167
1699.692	1568.29167
1702.643	1528.625
1705.593	1500.625
1708.54	1486.95833
1711.486	1482.625
1714.429	1455.29167
1717.37	1443.95833
1720.309	1411.95833
1723.246	1421.29167
1726.181	1401.625
1729.113	1385.29167
1732.044	1371.29167
1734.972	1351.29167
1737.899	1356.625
1740.823	1367.625
1743.745	1354.95833
1746.665	1314.29167
1749.583	1279.95833
1752.499	1268.29167
1755.413	1263.95833
1758.325	1220.29167
1761.235	1226.625
1764.142	1196.29167
1767.048	1194.625
1769.951	1186.625
1772.852	1177.95833
1775.752	1169.29167
1778.649	1172.29167
1781.544	1166.625
1784.437	1142.625
1787.328	1142.95833
1790.217	1141.29167
1793.104	1114.625
1795.989	1127.95833
1798.872	1111.95833
1801.753	1132.625
1804.631	1127.29167
1807.508	1138.29167
1810.383	1103.625
1813.255	1104.625
1816.126	1104.29167
1818.994	1101.29167
1821.861	1094.95833
1824.725	1088.625
1827.587	1089.29167
1830.448	1087.625
1833.306	1048.625
1836.162	1061.95833
1839.017	1050.625
1841.869	1069.95833
1844.719	1061.95833
1847.567	1025.29167
1850.414	1023.95833
1853.258	1046.625
1856.1	1038.95833
1858.94	1056.95833
1861.778	1038.625
1864.614	1026.625
1867.448	1039.29167
1870.28	1025.95833
1873.111	1046.95833
1875.939	1037.625
1878.765	1053.29167
1881.589	1022.625
1884.411	1026.29167
1887.231	1025.29167
1890.049	1010.95833
1892.865	1018.625
1895.68	1007.29167
1898.492	1004.95833
1901.302	994.625
1904.11	994.29167
1906.916	991.29167
1909.721	977.625
1912.523	983.625
1915.323	957.29167
1918.122	983.625
1920.918	993.29167
1923.712	974.95833
1926.505	980.29167
1929.295	955.625
1932.084	973.625
1934.87	974.625
1937.655	966.95833
1940.438	955.95833
1943.218	965.29167
1945.997	974.625
1948.774	976.95833
1951.549	973.95833
1954.322	952.29167
1957.093	965.95833
1959.862	948.95833
1962.629	957.95833
1965.394	946.95833
1968.157	917.29167
1970.918	939.95833
1973.678	922.95833
1976.435	944.29167
1979.19	927.29167
1981.944	916.625
1984.696	914.95833
1987.445	908.625
1990.193	905.625
1992.939	930.95833
1995.683	916.625
1998.425	903.625
2001.165	923.95833
2003.903	897.95833
2006.639	904.29167
2009.374	909.29167
2012.106	908.625
2014.837	891.625
2017.566	912.95833
2020.292	893.625
2023.017	898.95833
2025.74	882.29167
2028.461	888.95833
2031.18	900.95833
2033.898	877.625
2036.613	887.95833
2039.327	888.625
2042.038	871.625
2044.748	876.95833
2047.456	869.625
2050.162	853.95833
2052.866	866.29167
2055.568	872.29167
2058.268	859.95833
2060.967	869.625
2063.663	842.95833
2066.358	866.625
2069.051	846.29167
2071.742	860.29167
2074.431	871.625
2077.118	848.95833
2079.804	848.625
2082.487	856.625
2085.169	868.625
2087.849	878.625
2090.527	871.95833
2093.203	885.29167
2095.877	874.29167
2098.55	870.625
2101.22	888.95833
2103.889	900.29167
2106.556	900.95833
2109.221	925.95833
2111.884	948.95833
2114.546	1000.625
2117.205	1065.29167
2119.863	1139.29167
2122.519	1204.625
2125.173	1284.625
2127.825	1357.29167
2130.475	1392.95833
2133.124	1497.625
2135.771	1335.29167
2138.416	1273.95833
2141.059	1197.95833
2143.7	1143.625
2146.339	1083.95833
2148.977	1030.625
2151.613	1019.29167
2154.247	983.95833
2156.879	968.625
2159.51	939.95833
2162.138	928.625
2164.765	931.29167
2167.39	899.29167
2170.013	921.29167
2172.634	902.625
2175.254	901.625
2177.872	919.95833
2180.488	881.625
2183.102	884.625
2185.714	861.29167
2188.325	845.625
2190.934	857.29167
2193.541	833.95833
2196.146	833.95833
2198.75	813.625
2201.351	811.29167
2203.951	790.95833
2206.549	796.29167
2209.146	796.95833
2211.74	776.625
2214.333	796.625
2216.924	772.95833
2219.514	774.625
2222.101	764.95833
2224.687	781.29167
2227.271	755.95833
2229.853	751.625
2232.433	743.29167
2235.012	771.625
2237.589	756.95833
2240.164	760.95833
2242.738	745.29167
2245.309	740.95833
2247.879	746.29167
2250.448	748.29167
2253.014	710.29167
2255.579	704.625
2258.142	713.625
2260.703	701.95833
2263.262	699.625
2265.82	698.625
2268.376	709.95833
2270.93	693.625
2273.483	670.29167
2276.033	697.95833
2278.583	688.625
2281.13	696.29167
2283.675	671.625
2286.219	689.95833
2288.761	678.29167
2291.302	678.29167
2293.841	679.625
2296.377	664.29167
2298.913	658.29167
2301.446	680.29167
2303.978	652.29167
2306.508	653.95833
2309.037	666.95833
2311.563	668.625
2314.088	673.29167
2316.612	649.95833
2319.133	648.625
2321.653	652.29167
2324.171	641.29167
2326.688	658.625
2329.202	639.95833
2331.715	646.625
2334.227	654.625
2336.736	638.29167
2339.244	636.29167
2341.751	630.95833
2344.255	642.95833
2346.758	622.95833
2349.259	631.625
2351.759	624.625
2354.257	625.95833
2356.753	620.29167
2359.247	614.625
2361.74	636.95833
2364.231	623.625
2366.721	633.625
2369.209	614.625
2371.695	613.625
2374.179	620.95833
2376.662	615.95833
2379.143	626.95833
2381.622	619.29167
2384.1	623.95833
2386.576	610.29167
2389.051	627.95833
2391.524	627.625
2393.995	628.625
2396.464	619.625
2398.932	609.95833
2401.398	598.95833
2403.863	603.29167
2406.325	604.29167
2408.787	607.625
2411.246	599.95833
2413.704	599.29167
2416.16	599.95833
2418.615	599.95833
2421.068	608.29167
2423.519	601.29167
2425.969	591.625
2428.417	607.625
2430.863	609.29167
2433.308	605.29167
2435.751	598.29167
2438.193	587.625
2440.633	610.29167
2443.071	604.625
2445.508	588.29167
2447.943	597.625
2450.376	582.95833
2452.808	589.95833
2455.238	576.95833
2457.667	607.29167
2460.093	579.95833
2462.519	578.29167
2464.942	572.95833
2467.365	598.29167
2469.785	586.29167
2472.204	582.95833
2474.621	573.29167
2477.037	592.29167
2479.451	566.625
2481.863	569.29167
2484.274	561.625
2486.683	584.29167
2489.091	585.95833
2491.497	573.29167
2493.901	579.95833
2496.304	572.29167
2498.705	571.625
2501.105	572.29167
2503.503	596.95833
2505.899	564.95833
2508.294	588.625
2510.687	560.625
2513.079	557.95833
2515.469	559.625
2517.858	555.625
2520.245	577.95833
2522.63	565.29167
2525.014	552.95833
2527.396	553.625
2529.776	564.29167
2532.156	566.29167
2534.533	549.95833
2536.909	563.95833
2539.283	544.95833
2541.656	559.625
2544.027	573.625
2546.397	557.625
2548.765	553.29167
2551.131	557.95833
2553.496	559.625
2555.86	568.29167
2558.221	555.625
2560.582	546.95833
2562.94	544.29167
2565.298	557.95833
2567.653	573.625
2570.007	537.625
2572.36	558.29167
2574.711	549.95833
2577.06	562.625
2579.408	543.29167
2581.754	543.95833
2584.099	551.625
2586.442	546.625
2588.784	555.95833
2591.124	554.29167
2593.463	546.95833
2595.8	550.625
2598.135	542.95833
2600.469	547.95833
2602.802	562.95833
2605.133	561.29167
2607.462	545.625
2609.79	546.29167
2612.116	549.625
2614.441	549.625
2616.764	551.625
2619.086	543.95833
2621.406	541.29167
2623.725	561.29167
2626.042	554.29167
2628.358	547.625
2630.672	539.29167
2632.985	568.95833
2635.296	558.625
2637.606	569.95833
2639.914	543.625
2642.22	544.625
2644.525	541.625
2646.829	557.95833
2649.131	570.625
2651.432	573.625
2653.731	555.625
2656.028	572.95833
2658.324	573.95833
2660.619	547.625
2662.912	568.625
2665.204	556.29167
2667.494	575.625
2669.782	558.95833
2672.07	574.625
2674.355	577.29167
2676.639	564.625
2678.922	558.625
2681.203	580.29167
2683.483	560.95833
2685.761	554.29167
2688.038	576.95833
2690.313	575.29167
2692.587	581.29167
2694.859	566.625
2697.13	568.95833
2699.399	578.95833
2701.667	604.95833
2703.933	597.29167
2706.198	580.625
2708.461	604.625
2710.723	608.95833
2712.984	591.95833
2715.243	613.95833
2717.5	604.29167
2719.757	618.95833
2722.011	606.29167
2724.264	615.625
2726.516	619.95833
2728.766	611.625
2731.015	620.95833
2733.262	605.95833
2735.508	611.95833
2737.753	612.95833
2739.996	600.95833
2742.237	599.95833
2744.477	617.95833
2746.716	608.29167
2748.953	591.95833
2751.189	599.95833
2753.423	596.95833
2755.656	588.625
2757.887	577.95833
2760.117	591.625
2762.346	576.29167
2764.573	580.95833
2766.798	584.95833
2769.022	594.95833
2771.245	592.625
2773.467	596.95833
2775.686	591.29167
2777.905	596.95833
2780.122	603.625
2782.337	611.29167
2784.552	610.95833
2786.764	625.625
2788.976	624.625
2791.186	632.29167
2793.394	634.95833
2795.601	646.625
2797.807	648.625
2800.011	663.95833
2802.214	675.95833
2804.415	668.625
2806.615	662.95833
2808.814	687.625
2811.011	691.95833
2813.206	693.29167
2815.401	706.29167
2817.594	729.625
2819.785	738.95833
2821.975	724.625
2824.164	743.95833
2826.351	762.625
2828.537	769.95833
2830.722	790.625
2832.905	805.625
2835.086	825.29167
2837.267	855.625
2839.445	874.625
2841.623	899.95833
2843.799	930.29167
2845.974	966.95833
2848.147	1007.29167
2850.319	1037.625
2852.489	1065.625
2854.659	1072.29167
2856.826	1092.95833
2858.993	1128.29167
2861.158	1088.29167
2863.321	1105.29167
2865.483	1126.29167
2867.644	1109.625
2869.804	1119.625
2871.962	1103.625
2874.118	1117.95833
2876.274	1114.95833
2878.428	1103.29167
2880.58	1095.29167
2882.731	1092.625
2884.881	1098.29167
2887.03	1110.625
2889.177	1090.29167
2891.322	1113.95833
2893.467	1101.625
2895.61	1110.625
2897.751	1141.29167
2899.892	1120.29167
2902.03	1143.625
2904.168	1139.95833
2906.304	1138.625
2908.439	1176.95833
2910.572	1165.29167
2912.704	1170.625
2914.835	1178.29167
2916.965	1153.29167
2919.093	1175.95833
2921.219	1135.625
2923.345	1157.625
2925.469	1127.625
2927.591	1120.29167
2929.712	1067.95833
2931.832	1066.29167
2933.951	1056.95833
2936.068	1019.95833
2938.184	1010.29167
2940.299	967.29167
2942.412	947.625
2944.524	910.29167
2946.634	895.29167
2948.744	844.625
2950.851	869.95833
2952.958	809.29167
2955.063	805.95833
2957.167	789.625
2959.269	759.29167
2961.371	768.625
2963.471	739.625
2965.569	737.29167
2967.666	707.95833
2969.762	684.625
2971.857	674.95833
2973.95	660.625
2976.042	651.625
2978.133	646.95833
2980.222	620.95833
2982.31	611.95833
2984.396	595.625
2986.482	587.95833
2988.566	592.95833
2990.648	562.625
2992.73	578.29167
2994.81	553.95833
2996.889	559.625
2998.966	554.95833
3001.042	567.95833
3003.117	550.95833
3005.191	558.625
3007.263	538.29167
3009.334	527.29167
3011.403	527.625
3013.472	510.29167
3015.539	517.95833
3017.604	523.29167
3019.669	484.29167
3021.732	488.29167
3023.794	492.625
3025.854	473.95833
3027.914	470.95833
3029.971	488.29167
3032.028	472.625
3034.083	466.29167
3036.137	464.625
3038.19	453.95833
3040.242	437.29167
3042.292	435.29167
3044.341	425.29167
3046.388	441.29167
3048.435	417.95833
3050.48	424.29167
3052.524	421.29167
3054.566	391.95833
3056.607	415.95833
3058.647	401.95833
3060.686	389.29167
3062.723	373.29167
3064.759	361.29167
3066.794	1.625
3068.828	-1.70833
3070.86	-2.04167
