-0.839	487.5
3.438	547.83333
7.711	145.5
11.981	58.83333
16.247	46.5
20.509	41.5
24.768	46.16667
29.024	47.5
33.276	43.83333
37.524	47.16667
41.769	39.83333
46.01	36.16667
50.247	49.5
54.481	59.5
58.712	65.5
62.939	45.83333
67.162	60.5
71.382	57.16667
75.599	47.83333
79.812	62.83333
84.021	82.5
88.227	59.5
92.429	61.83333
96.628	50.5
100.823	65.83333
105.015	73.83333
109.204	74.83333
113.388	78.16667
117.57	69.16667
121.748	86.16667
125.922	78.83333
130.093	101.5
134.261	103.16667
138.425	96.83333
142.585	136.5
146.742	145.16667
150.896	162.83333
155.046	200.5
159.193	315.16667
163.336	536.16667
167.476	980.16667
171.613	1793.5
175.746	2962.16667
179.875	4408.16667
184.002	5745.83333
188.124	6669.83333
192.244	7009.5
196.36	6954.5
200.472	6777.83333
204.581	6581.16667
208.687	6449.5
212.79	6381.16667
216.889	6413.16667
220.984	6491.5
225.077	6532.16667
229.165	6612.83333
233.251	6733.16667
237.333	6791.5
241.412	6789.83333
245.487	6761.16667
249.559	6680.83333
253.628	6629.83333
257.694	6586.5
261.756	6528.83333
265.814	6402.5
269.87	6234.83333
273.922	6019.5
277.97	5912.83333
282.016	5783.83333
286.058	5751.16667
290.097	5755.5
294.132	5776.83333
298.164	5733.16667
302.193	5446.5
306.219	5041.83333
310.241	4582.16667
314.26	4124.5
318.276	3757.5
322.288	3521.83333
326.297	3302.5
330.303	3158.83333
334.305	3057.5
338.305	2982.5
342.301	2919.5
346.294	2867.5
350.283	2847.83333
354.269	2845.83333
358.252	2802.5
362.232	2760.5
366.209	2743.5
370.182	2701.16667
374.152	2680.83333
378.119	2692.16667
382.083	2679.5
386.043	2711.83333
390	2666.16667
393.954	2657.5
397.905	2642.16667
401.852	2630.16667
405.797	2581.5
409.738	2560.16667
413.676	2556.5
417.61	2537.5
421.542	2506.16667
425.47	2469.5
429.396	2470.5
433.318	2426.5
437.236	2416.16667
441.152	2420.16667
445.065	2395.16667
448.974	2382.16667
452.88	2360.83333
456.783	2341.83333
460.683	2335.5
464.58	2340.5
468.473	2324.16667
472.364	2324.83333
476.251	2341.5
480.135	2344.83333
484.016	2387.83333
487.894	2413.5
491.769	2408.5
495.641	2406.5
499.509	2415.83333
503.375	2421.83333
507.237	2408.83333
511.096	2401.5
514.952	2428.5
518.805	2442.83333
522.655	2449.5
526.502	2388.83333
530.346	2383.5
534.187	2401.16667
538.024	2394.16667
541.859	2388.16667
545.69	2414.5
549.519	2412.83333
553.344	2393.5
557.166	2342.5
560.985	2338.83333
564.802	2306.5
568.615	2260.16667
572.425	2239.16667
576.232	2231.5
580.036	2205.83333
583.836	2221.16667
587.634	2208.83333
591.429	2216.16667
595.221	2260.16667
599.01	2305.5
602.796	2311.16667
606.578	2344.16667
610.358	2353.16667
614.135	2311.5
617.909	2328.16667
621.679	2305.5
625.447	2288.83333
629.212	2289.83333
632.973	2305.16667
636.732	2290.5
640.488	2284.83333
644.241	2272.83333
647.991	2286.5
651.737	2276.5
655.481	2270.16667
659.222	2299.83333
662.96	2270.5
666.695	2292.83333
670.427	2297.5
674.156	2323.83333
677.882	2302.16667
681.605	2302.83333
685.325	2261.16667
689.043	2264.16667
692.757	2259.5
696.468	2258.16667
700.177	2240.5
703.882	2253.5
707.585	2253.16667
711.284	2271.5
714.981	2266.83333
718.675	2280.5
722.366	2285.5
726.054	2258.5
729.739	2257.5
733.421	2258.16667
737.1	2268.5
740.777	2282.5
744.45	2303.16667
748.121	2323.83333
751.789	2364.5
755.453	2354.5
759.115	2383.5
762.774	2416.16667
766.431	2426.16667
770.084	2435.83333
773.734	2473.5
777.382	2526.83333
781.027	2552.16667
784.669	2552.83333
788.308	2582.16667
791.944	2603.16667
795.577	2609.83333
799.208	2647.5
802.835	2662.83333
806.46	2678.83333
810.082	2703.16667
813.701	2726.16667
817.317	2746.16667
820.931	2731.83333
824.542	2728.16667
828.149	2708.5
831.754	2673.16667
835.357	2673.83333
838.956	2670.83333
842.553	2641.83333
846.146	2644.16667
849.737	2624.83333
853.326	2634.5
856.911	2638.5
860.493	2687.16667
864.073	2696.5
867.65	2736.5
871.225	2776.16667
874.796	2778.83333
878.365	2801.16667
881.931	2811.16667
885.494	2831.16667
889.054	2835.16667
892.612	2845.16667
896.166	2787.16667
899.719	2775.83333
903.268	2748.83333
906.814	2722.83333
910.358	2735.83333
913.899	2691.83333
917.438	2705.83333
920.973	2698.83333
924.506	2743.5
928.036	2772.16667
931.564	2795.83333
935.088	2842.16667
938.61	2834.5
942.129	2867.83333
945.646	2953.83333
949.16	3018.16667
952.671	3111.16667
956.179	3142.83333
959.685	3105.5
963.188	3101.16667
966.688	3052.5
970.185	2968.16667
973.68	2896.5
977.173	2869.5
980.662	2866.16667
984.149	2843.83333
987.633	2845.83333
991.114	2916.5
994.593	2975.5
998.069	3121.83333
1001.542	3201.16667
1005.013	3127.83333
1008.481	2945.16667
1011.947	2876.83333
1015.409	2866.16667
1018.869	2870.83333
1022.327	2874.16667
1025.782	2838.83333
1029.234	2860.5
1032.683	2829.83333
1036.13	2734.5
1039.574	2640.5
1043.016	2554.83333
1046.455	2505.83333
1049.891	2456.16667
1053.325	2470.16667
1056.756	2479.83333
1060.184	2506.16667
1063.61	2521.16667
1067.033	2536.5
1070.454	2499.16667
1073.872	2559.5
1077.287	2562.83333
1080.7	2544.16667
1084.11	2556.16667
1087.517	2536.16667
1090.922	2527.5
1094.325	2469.83333
1097.724	2449.16667
1101.122	2475.16667
1104.516	2465.83333
1107.908	2458.83333
1111.298	2492.16667
1114.684	2539.5
1118.069	2550.5
1121.45	2581.5
1124.83	2571.16667
1128.206	2597.16667
1131.58	2646.16667
1134.951	2700.16667
1138.32	2792.16667
1141.687	2924.83333
1145.05	3016.16667
1148.412	3027.16667
1151.77	3045.16667
1155.126	3024.5
1158.48	3023.5
1161.831	3037.83333
1165.18	3079.16667
1168.525	3108.16667
1171.869	3161.83333
1175.21	3183.83333
1178.548	3215.5
1181.884	3243.5
1185.217	3266.5
1188.548	3307.5
1191.877	3366.83333
1195.202	3459.5
1198.526	3496.16667
1201.846	3526.5
1205.165	3496.83333
1208.48	3476.16667
1211.794	3481.16667
1215.104	3463.16667
1218.413	3477.16667
1221.719	3476.83333
1225.022	3424.16667
1228.323	3378.16667
1231.621	3372.5
1234.917	3347.83333
1238.21	3373.5
1241.501	3391.16667
1244.79	3378.83333
1248.076	3364.16667
1251.359	3416.16667
1254.64	3461.16667
1257.919	3508.83333
1261.195	3531.5
1264.468	3606.5
1267.74	3681.5
1271.008	3696.83333
1274.275	3638.16667
1277.538	3628.5
1280.8	3626.5
1284.059	3617.83333
1287.315	3652.83333
1290.569	3677.5
1293.821	3712.5
1297.07	3724.16667
1300.317	3721.16667
1303.562	3717.16667
1306.803	3684.5
1310.043	3664.5
1313.28	3601.83333
1316.515	3581.16667
1319.747	3550.5
1322.977	3502.5
1326.204	3455.5
1329.429	3397.16667
1332.652	3365.16667
1335.872	3380.83333
1339.09	3321.5
1342.306	3322.16667
1345.519	3276.83333
1348.729	3266.5
1351.938	3231.83333
1355.144	3229.83333
1358.347	3172.83333
1361.548	3141.5
1364.747	3164.5
1367.944	3147.16667
1371.138	3189.5
1374.329	3206.16667
1377.518	3242.16667
1380.705	3239.16667
1383.89	3242.83333
1387.072	3154.16667
1390.252	3034.5
1393.429	2919.16667
1396.605	2849.83333
1399.777	2778.16667
1402.948	2713.16667
1406.116	2708.5
1409.282	2704.83333
1412.445	2696.83333
1415.606	2736.83333
1418.765	2778.16667
1421.921	2853.83333
1425.075	2906.5
1428.227	3024.5
1431.376	3172.5
1434.524	3285.83333
1437.668	3365.5
1440.811	3397.16667
1443.951	3426.5
1447.089	3447.83333
1450.224	3445.16667
1453.357	3411.16667
1456.488	3391.83333
1459.617	3357.83333
1462.743	3294.5
1465.867	3219.5
1468.989	3189.16667
1472.108	3140.5
1475.225	3085.5
1478.34	3069.16667
1481.453	3064.16667
1484.563	3034.5
1487.671	3087.16667
1490.776	3151.16667
1493.88	3213.83333
1496.981	3285.5
1500.08	3357.5
1503.176	3395.83333
1506.271	3422.16667
1509.363	3508.83333
1512.452	3546.5
1515.54	3600.83333
1518.625	3675.16667
1521.708	3815.5
1524.789	4035.83333
1527.867	4256.16667
1530.944	4493.83333
1534.018	4724.5
1537.089	4850.5
1540.159	4808.16667
1543.226	4698.83333
1546.291	4591.83333
1549.354	4434.16667
1552.415	4267.5
1555.473	4186.16667
1558.529	4090.16667
1561.583	4049.83333
1564.634	4017.5
1567.684	4021.16667
1570.731	4047.16667
1573.776	4071.5
1576.819	4093.83333
1579.859	4161.5
1582.898	4195.5
1585.934	4233.83333
1588.968	4291.16667
1591.999	4226.83333
1595.029	4246.16667
1598.056	4248.5
1601.081	4277.16667
1604.104	4282.5
1607.125	4239.5
1610.144	4126.5
1613.16	4019.16667
1616.174	3950.83333
1619.186	3850.83333
1622.196	3748.5
1625.203	3637.16667
1628.209	3623.83333
1631.212	3588.83333
1634.213	3558.16667
1637.212	3539.5
1640.209	3446.16667
1643.203	3368.83333
1646.196	3252.16667
1649.186	3133.83333
1652.174	3060.5
1655.16	2921.16667
1658.144	2843.5
1661.125	2688.83333
1664.105	2575.83333
1667.082	2472.5
1670.057	2314.83333
1673.03	2196.16667
1676.001	2037.16667
1678.97	1917.16667
1681.937	1785.83333
1684.901	1694.83333
1687.863	1616.83333
1690.824	1555.16667
1693.782	1528.5
1696.738	1471.83333
1699.692	1454.83333
1702.643	1391.5
1705.593	1383.16667
1708.54	1358.83333
1711.486	1373.16667
1714.429	1333.16667
1717.37	1320.16667
1720.309	1285.5
1723.246	1287.83333
1726.181	1271.83333
1729.113	1264.16667
1732.044	1249.16667
1734.972	1229.5
1737.899	1239.5
1740.823	1233.5
1743.745	1221.5
1746.665	1180.83333
1749.583	1159.83333
1752.499	1147.5
1755.413	1132.83333
1758.325	1103.16667
1761.235	1101.5
1764.142	1085.5
1767.048	1068.16667
1769.951	1059.16667
1772.852	1057.83333
1775.752	1048.16667
1778.649	1057.83333
1781.544	1057.16667
1784.437	1026.16667
1787.328	1026.5
1790.217	1027.16667
1793.104	993.83333
1795.989	984.83333
1798.872	993.5
1801.753	1016.5
1804.631	1006.5
1807.508	1007.16667
1810.383	995.16667
1813.255	990.5
1816.126	987.5
1818.994	969.16667
1821.861	961.5
1824.725	966.83333
1827.587	963.83333
1830.448	957.5
1833.306	922.16667
1836.162	946.16667
1839.017	936.83333
1841.869	932.16667
1844.719	928.5
1847.567	914.83333
1850.414	913.16667
1853.258	914.5
1856.1	924.5
1858.94	925.5
1861.778	917.83333
1864.614	915.83333
1867.448	908.16667
1870.28	914.5
1873.111	918.83333
1875.939	909.16667
1878.765	929.5
1881.589	898.5
1884.411	892.16667
1887.231	907.83333
1890.049	899.5
1892.865	901.16667
1895.68	893.16667
1898.492	901.5
1901.302	867.16667
1904.11	891.16667
1906.916	879.83333
1909.721	872.5
1912.523	872.5
1915.323	852.16667
1918.122	868.83333
1920.918	871.16667
1923.712	855.83333
1926.505	854.5
1929.295	841.5
1932.084	864.5
1934.87	866.5
1937.655	850.5
1940.438	863.5
1943.218	852.5
1945.997	856.5
1948.774	864.16667
1951.549	846.16667
1954.322	849.83333
1957.093	852.83333
1959.862	837.83333
1962.629	841.16667
1965.394	825.5
1968.157	828.16667
1970.918	825.16667
1973.678	824.5
1976.435	836.5
1979.19	821.5
1981.944	821.16667
1984.696	803.83333
1987.445	789.5
1990.193	800.5
1992.939	809.16667
1995.683	815.5
1998.425	784.83333
2001.165	821.5
2003.903	789.16667
2006.639	794.16667
2009.374	802.5
2012.106	796.16667
2014.837	775.5
2017.566	810.5
2020.292	798.16667
2023.017	793.16667
2025.74	780.5
2028.461	785.16667
2031.18	786.5
2033.898	782.83333
2036.613	791.5
2039.327	773.5
2042.038	758.16667
2044.748	763.16667
2047.456	763.83333
2050.162	752.83333
2052.866	758.16667
2055.568	756.83333
2058.268	750.5
2060.967	768.83333
2063.663	747.5
2066.358	762.16667
2069.051	747.16667
2071.742	764.83333
2074.431	757.83333
2077.118	761.5
2079.804	757.5
2082.487	759.5
2085.169	761.5
2087.849	779.5
2090.527	759.83333
2093.203	769.16667
2095.877	769.5
2098.55	777.5
2101.22	784.83333
2103.889	772.5
2106.556	784.16667
2109.221	801.5
2111.884	823.83333
2114.546	867.83333
2117.205	935.83333
2119.863	1006.83333
2122.519	1062.16667
2125.173	1137.83333
2127.825	1227.83333
2130.475	1248.5
2133.124	1227.83333
2135.771	1194.83333
2138.416	1158.83333
2141.059	1072.83333
2143.7	1038.83333
2146.339	971.83333
2148.977	909.83333
2151.613	894.5
2154.247	873.5
2156.879	855.16667
2159.51	834.16667
2162.138	809.83333
2164.765	809.16667
2167.39	791.16667
2170.013	812.5
2172.634	807.5
2175.254	795.5
2177.872	823.83333
2180.488	763.83333
2183.102	785.83333
2185.714	753.5
2188.325	739.83333
2190.934	738.83333
2193.541	747.5
2196.146	721.16667
2198.75	710.16667
2201.351	722.16667
2203.951	695.83333
2206.549	717.5
2209.146	700.83333
2211.74	682.5
2214.333	715.16667
2216.924	669.83333
2219.514	681.5
2222.101	663.5
2224.687	681.16667
2227.271	663.5
2229.853	662.16667
2232.433	646.16667
2235.012	680.83333
2237.589	665.83333
2240.164	681.5
2242.738	662.83333
2245.309	639.83333
2247.879	656.83333
2250.448	654.16667
2253.014	620.16667
2255.579	609.83333
2258.142	607.16667
2260.703	603.5
2263.262	614.83333
2265.82	598.83333
2268.376	619.16667
2270.93	593.83333
2273.483	589.16667
2276.033	603.5
2278.583	592.83333
2281.13	590.83333
2283.675	571.16667
2286.219	586.16667
2288.761	582.83333
2291.302	587.83333
2293.841	591.16667
2296.377	569.83333
2298.913	567.83333
2301.446	581.5
2303.978	578.16667
2306.508	568.5
2309.037	574.5
2311.563	570.83333
2314.088	580.16667
2316.612	555.83333
2319.133	570.83333
2321.653	560.83333
2324.171	544.5
2326.688	562.83333
2329.202	560.16667
2331.715	555.16667
2334.227	552.5
2336.736	543.16667
2339.244	547.83333
2341.751	523.16667
2344.255	543.83333
2346.758	546.83333
2349.259	538.5
2351.759	538.16667
2354.257	531.5
2356.753	527.83333
2359.247	521.5
2361.74	542.83333
2364.231	522.83333
2366.721	536.5
2369.209	522.16667
2371.695	531.5
2374.179	523.83333
2376.662	527.16667
2379.143	540.83333
2381.622	513.83333
2384.1	533.16667
2386.576	520.16667
2389.051	523.83333
2391.524	545.83333
2393.995	532.16667
2396.464	514.16667
2398.932	511.16667
2401.398	513.83333
2403.863	514.5
2406.325	507.16667
2408.787	504.83333
2411.246	516.5
2413.704	508.16667
2416.16	498.83333
2418.615	505.83333
2421.068	512.5
2423.519	499.83333
2425.969	496.16667
2428.417	513.5
2430.863	525.16667
2433.308	512.83333
2435.751	508.5
2438.193	496.16667
2440.633	504.16667
2443.071	510.83333
2445.508	484.5
2447.943	498.16667
2450.376	485.5
2452.808	500.83333
2455.238	487.5
2457.667	514.5
2460.093	489.5
2462.519	478.5
2464.942	486.83333
2467.365	493.83333
2469.785	488.83333
2472.204	486.16667
2474.621	472.83333
2477.037	496.16667
2479.451	469.83333
2481.863	477.83333
2484.274	469.5
2486.683	488.16667
2489.091	480.5
2491.497	480.5
2493.901	484.5
2496.304	477.83333
2498.705	484.5
2501.105	481.16667
2503.503	503.5
2505.899	470.83333
2508.294	482.5
2510.687	479.5
2513.079	474.5
2515.469	460.16667
2517.858	463.16667
2520.245	483.83333
2522.63	462.5
2525.014	457.5
2527.396	455.16667
2529.776	459.16667
2532.156	470.5
2534.533	450.83333
2536.909	457.83333
2539.283	445.83333
2541.656	451.5
2544.027	474.16667
2546.397	468.83333
2548.765	460.83333
2551.131	452.16667
2553.496	454.5
2555.86	467.83333
2558.221	449.5
2560.582	460.16667
2562.94	440.5
2565.298	452.83333
2567.653	466.16667
2570.007	440.16667
2572.36	462.83333
2574.711	439.5
2577.06	468.16667
2579.408	460.5
2581.754	449.83333
2584.099	454.83333
2586.442	441.5
2588.784	457.83333
2591.124	457.83333
2593.463	441.16667
2595.8	450.16667
2598.135	434.5
2600.469	441.83333
2602.802	461.5
2605.133	448.5
2607.462	439.83333
2609.79	440.5
2612.116	451.5
2614.441	439.83333
2616.764	450.83333
2619.086	442.16667
2621.406	445.5
2623.725	451.83333
2626.042	455.83333
2628.358	453.5
2630.672	442.5
2632.985	458.83333
2635.296	452.16667
2637.606	449.83333
2639.914	441.16667
2642.22	455.16667
2644.525	445.5
2646.829	455.16667
2649.131	448.5
2651.432	462.83333
2653.731	451.5
2656.028	460.83333
2658.324	457.5
2660.619	440.83333
2662.912	464.5
2665.204	449.5
2667.494	456.83333
2669.782	443.16667
2672.07	461.16667
2674.355	459.5
2676.639	451.83333
2678.922	452.16667
2681.203	468.5
2683.483	447.5
2685.761	443.83333
2688.038	463.83333
2690.313	472.83333
2692.587	457.83333
2694.859	456.16667
2697.13	463.16667
2699.399	460.5
2701.667	479.83333
2703.933	481.5
2706.198	478.83333
2708.461	482.5
2710.723	490.83333
2712.984	475.16667
2715.243	490.16667
2717.5	492.16667
2719.757	502.5
2722.011	492.5
2724.264	496.5
2726.516	503.16667
2728.766	495.83333
2731.015	505.83333
2733.262	490.5
2735.508	486.16667
2737.753	496.16667
2739.996	472.83333
2742.237	480.16667
2744.477	491.83333
2746.716	490.5
2748.953	480.83333
2751.189	485.5
2753.423	474.83333
2755.656	472.83333
2757.887	464.16667
2760.117	471.5
2762.346	458.83333
2764.573	456.5
2766.798	464.16667
2769.022	470.5
2771.245	474.83333
2773.467	468.83333
2775.686	473.5
2777.905	478.16667
2780.122	483.16667
2782.337	477.5
2784.552	472.83333
2786.764	491.16667
2788.976	489.5
2791.186	492.5
2793.394	499.5
2795.601	512.16667
2797.807	512.5
2800.011	520.5
2802.214	537.83333
2804.415	525.5
2806.615	531.83333
2808.814	547.83333
2811.011	552.5
2813.206	551.5
2815.401	572.83333
2817.594	575.5
2819.785	587.83333
2821.975	577.16667
2824.164	591.16667
2826.351	622.5
2828.537	626.16667
2830.722	644.83333
2832.905	642.83333
2835.086	677.83333
2837.267	718.5
2839.445	757.83333
2841.623	764.5
2843.799	807.16667
2845.974	844.5
2848.147	882.83333
2850.319	906.16667
2852.489	936.83333
2854.659	943.5
2856.826	957.83333
2858.993	991.5
2861.158	978.5
2863.321	979.16667
2865.483	1000.83333
2867.644	993.83333
2869.804	1000.5
2871.962	990.5
2874.118	999.16667
2876.274	984.5
2878.428	980.16667
2880.58	976.16667
2882.731	977.16667
2884.881	986.5
2887.03	981.5
2889.177	990.16667
2891.322	989.83333
2893.467	998.16667
2895.61	995.5
2897.751	1013.16667
2899.892	995.16667
2902.03	1025.5
2904.168	1033.16667
2906.304	1026.5
2908.439	1072.16667
2910.572	1048.83333
2912.704	1049.83333
2914.835	1058.5
2916.965	1053.5
2919.093	1066.5
2921.219	1033.5
2923.345	1043.5
2925.469	1014.16667
2927.591	1013.5
2929.712	986.83333
2931.832	956.5
2933.951	950.5
2936.068	928.83333
2938.184	900.5
2940.299	872.83333
2942.412	848.5
2944.524	800.5
2946.634	798.5
2948.744	730.5
2950.851	766.5
2952.958	703.5
2955.063	700.16667
2957.167	693.16667
2959.269	658.83333
2961.371	673.16667
2963.471	637.5
2965.569	627.5
2967.666	605.5
2969.762	592.83333
2971.857	568.16667
2973.95	548.5
2976.042	557.83333
2978.133	536.5
2980.222	513.16667
2982.31	501.5
2984.396	476.5
2986.482	487.83333
2988.566	481.16667
2990.648	466.83333
2992.73	470.16667
2994.81	434.5
2996.889	451.83333
2998.966	443.16667
3001.042	448.83333
3003.117	433.16667
3005.191	437.83333
3007.263	442.83333
3009.334	424.16667
3011.403	422.83333
3013.472	401.16667
3015.539	413.83333
3017.604	423.16667
3019.669	385.16667
3021.732	395.16667
3023.794	385.83333
3025.854	367.16667
3027.914	370.5
3029.971	382.5
3032.028	367.83333
3034.083	377.5
3036.137	374.83333
3038.19	351.16667
3040.242	339.5
3042.292	342.83333
3044.341	331.83333
3046.388	353.16667
3048.435	319.16667
3050.48	345.16667
3052.524	334.5
3054.566	313.5
3056.607	337.5
3058.647	319.83333
3060.686	302.83333
3062.723	291.83333
3064.759	285.16667
3066.794	-0.5
3068.828	-1.5
3070.86	0.16667
