-0.839	424.54167
3.438	475.875
7.711	138.20833
11.981	55.54167
16.247	49.20833
20.509	44.875
24.768	44.875
29.024	49.20833
33.276	45.20833
37.524	49.875
41.769	40.20833
46.01	35.54167
50.247	54.20833
54.481	63.875
58.712	63.54167
62.939	46.54167
67.162	60.875
71.382	54.875
75.599	48.20833
79.812	66.20833
84.021	78.20833
88.227	56.54167
92.429	66.54167
96.628	49.20833
100.823	64.875
105.015	79.54167
109.204	76.20833
113.388	78.54167
117.57	72.875
121.748	91.875
125.922	82.20833
130.093	97.54167
134.261	108.20833
138.425	103.875
142.585	143.54167
146.742	144.875
150.896	163.20833
155.046	205.54167
159.193	321.20833
163.336	562.54167
167.476	1015.875
171.613	1878.54167
175.746	3116.20833
179.875	4683.54167
184.002	6138.20833
188.124	7211.54167
192.244	7599.54167
196.36	7576.54167
200.472	7474.20833
204.581	7345.20833
208.687	7215.54167
212.79	7202.54167
216.889	7321.54167
220.984	7417.54167
225.077	7585.20833
229.165	7791.54167
233.251	7908.54167
237.333	8007.20833
241.412	8045.875
245.487	8053.20833
249.559	7969.875
253.628	7901.875
257.694	7828.54167
261.756	7781.875
265.814	7561.875
269.87	7359.875
273.922	7101.875
277.97	6975.875
282.016	6806.875
286.058	6713.20833
290.097	6706.875
294.132	6703.20833
298.164	6555.54167
302.193	6227.875
306.219	5794.875
310.241	5219.54167
314.26	4768.20833
318.276	4384.20833
322.288	4083.20833
326.297	3847.54167
330.303	3681.875
334.305	3571.875
338.305	3474.20833
342.301	3416.54167
346.294	3366.54167
350.283	3358.875
354.269	3330.54167
358.252	3307.54167
362.232	3281.54167
366.209	3271.20833
370.182	3198.875
374.152	3217.875
378.119	3203.875
382.083	3192.54167
386.043	3231.20833
390	3163.875
393.954	3155.54167
397.905	3129.20833
401.852	3162.54167
405.797	3089.875
409.738	3059.54167
413.676	3067.54167
417.61	3035.875
421.542	2979.20833
425.47	2963.20833
429.396	2936.20833
433.318	2912.20833
437.236	2893.20833
441.152	2913.20833
445.065	2844.875
448.974	2858.54167
452.88	2838.20833
456.783	2831.54167
460.683	2796.20833
464.58	2795.54167
468.473	2802.54167
472.364	2834.875
476.251	2841.54167
480.135	2853.54167
484.016	2869.54167
487.894	2867.54167
491.769	2896.875
495.641	2916.20833
499.509	2890.54167
503.375	2900.54167
507.237	2868.54167
511.096	2851.875
514.952	2868.54167
518.805	2864.20833
522.655	2876.54167
526.502	2840.20833
530.346	2847.54167
534.187	2869.20833
538.024	2849.875
541.859	2865.54167
545.69	2879.875
549.519	2875.54167
553.344	2846.20833
557.166	2796.20833
560.985	2764.875
564.802	2739.20833
568.615	2709.875
572.425	2680.875
576.232	2682.20833
580.036	2661.54167
583.836	2661.875
587.634	2662.54167
591.429	2671.20833
595.221	2713.54167
599.01	2732.54167
602.796	2778.54167
606.578	2785.875
610.358	2788.875
614.135	2776.20833
617.909	2770.875
621.679	2759.20833
625.447	2736.54167
629.212	2761.875
632.973	2757.54167
636.732	2731.875
640.488	2742.20833
644.241	2694.54167
647.991	2702.875
651.737	2722.54167
655.481	2696.20833
659.222	2716.875
662.96	2719.54167
666.695	2728.20833
670.427	2717.875
674.156	2742.20833
677.882	2749.54167
681.605	2742.875
685.325	2719.54167
689.043	2726.20833
692.757	2711.875
696.468	2710.54167
700.177	2724.875
703.882	2703.54167
707.585	2733.54167
711.284	2715.20833
714.981	2730.54167
718.675	2730.20833
722.366	2710.20833
726.054	2723.54167
729.739	2728.20833
733.421	2713.875
737.1	2712.875
740.777	2749.875
744.45	2757.54167
748.121	2786.20833
751.789	2835.20833
755.453	2823.20833
759.115	2855.20833
762.774	2864.20833
766.431	2901.875
770.084	2918.54167
773.734	2959.54167
777.382	3001.875
781.027	3030.875
784.669	3049.875
788.308	3060.875
791.944	3089.54167
795.577	3123.875
799.208	3167.20833
802.835	3171.875
806.46	3189.54167
810.082	3244.875
813.701	3250.20833
817.317	3272.20833
820.931	3275.875
824.542	3281.54167
828.149	3239.20833
831.754	3189.875
835.357	3181.20833
838.956	3196.54167
842.553	3176.54167
846.146	3120.54167
849.737	3120.875
853.326	3133.54167
856.911	3123.54167
860.493	3195.875
864.073	3216.875
867.65	3263.54167
871.225	3278.20833
874.796	3280.54167
878.365	3296.875
881.931	3315.875
885.494	3346.54167
889.054	3340.54167
892.612	3332.20833
896.166	3312.875
899.719	3273.54167
903.268	3243.54167
906.814	3227.54167
910.358	3226.20833
913.899	3185.20833
917.438	3189.54167
920.973	3184.20833
924.506	3220.875
928.036	3246.875
931.564	3299.20833
935.088	3318.875
938.61	3334.875
942.129	3373.54167
945.646	3447.875
949.16	3536.20833
952.671	3609.875
956.179	3635.54167
959.685	3614.54167
963.188	3617.875
966.688	3533.20833
970.185	3465.54167
973.68	3393.20833
977.173	3365.875
980.662	3349.875
984.149	3358.875
987.633	3372.20833
991.114	3424.54167
994.593	3513.54167
998.069	3612.20833
1001.542	3742.875
1005.013	3661.875
1008.481	3477.875
1011.947	3417.20833
1015.409	3399.20833
1018.869	3390.20833
1022.327	3397.20833
1025.782	3372.20833
1029.234	3358.54167
1032.683	3329.54167
1036.13	3241.20833
1039.574	3099.875
1043.016	3044.54167
1046.455	3003.54167
1049.891	2933.20833
1053.325	2935.54167
1056.756	2957.20833
1060.184	3010.54167
1063.61	3008.54167
1067.033	3023.20833
1070.454	3012.20833
1073.872	3068.20833
1077.287	3070.54167
1080.7	3071.20833
1084.11	3062.54167
1087.517	3043.875
1090.922	2999.20833
1094.325	3000.54167
1097.724	2946.54167
1101.122	2942.20833
1104.516	2921.20833
1107.908	2909.875
1111.298	3000.875
1114.684	3027.875
1118.069	3037.20833
1121.45	3071.875
1124.83	3067.54167
1128.206	3077.20833
1131.58	3115.20833
1134.951	3195.54167
1138.32	3299.875
1141.687	3429.54167
1145.05	3493.20833
1148.412	3510.875
1151.77	3510.54167
1155.126	3529.875
1158.48	3525.54167
1161.831	3557.875
1165.18	3572.20833
1168.525	3645.20833
1171.869	3686.20833
1175.21	3711.20833
1178.548	3743.875
1181.884	3792.54167
1185.217	3807.20833
1188.548	3842.875
1191.877	3923.54167
1195.202	3987.875
1198.526	4065.20833
1201.846	4082.20833
1205.165	4073.54167
1208.48	4050.20833
1211.794	4014.54167
1215.104	4047.54167
1218.413	4074.875
1221.719	4048.54167
1225.022	4028.875
1228.323	3977.54167
1231.621	3970.20833
1234.917	3954.875
1238.21	4002.875
1241.501	3985.875
1244.79	3993.54167
1248.076	3981.20833
1251.359	4048.54167
1254.64	4095.20833
1257.919	4126.20833
1261.195	4165.54167
1264.468	4237.54167
1267.74	4295.54167
1271.008	4295.54167
1274.275	4289.20833
1277.538	4248.20833
1280.8	4232.20833
1284.059	4223.54167
1287.315	4255.20833
1290.569	4276.54167
1293.821	4306.54167
1297.07	4350.54167
1300.317	4328.20833
1303.562	4330.20833
1306.803	4302.875
1310.043	4245.20833
1313.28	4205.875
1316.515	4154.54167
1319.747	4108.54167
1322.977	4080.54167
1326.204	4017.875
1329.429	3953.20833
1332.652	3937.20833
1335.872	3931.875
1339.09	3898.54167
1342.306	3898.54167
1345.519	3860.875
1348.729	3836.20833
1351.938	3812.875
1355.144	3734.875
1358.347	3699.54167
1361.548	3713.54167
1364.747	3738.54167
1367.944	3723.20833
1371.138	3747.54167
1374.329	3760.54167
1377.518	3796.20833
1380.705	3864.875
1383.89	3800.875
1387.072	3705.20833
1390.252	3583.54167
1393.429	3465.20833
1396.605	3352.54167
1399.777	3287.20833
1402.948	3240.54167
1406.116	3203.20833
1409.282	3226.54167
1412.445	3247.20833
1415.606	3251.54167
1418.765	3291.54167
1421.921	3368.20833
1425.075	3449.875
1428.227	3573.875
1431.376	3726.54167
1434.524	3876.875
1437.668	3963.54167
1440.811	3981.20833
1443.951	4017.54167
1447.089	4021.54167
1450.224	4014.875
1453.357	3986.54167
1456.488	3990.875
1459.617	3883.54167
1462.743	3833.875
1465.867	3780.875
1468.989	3718.20833
1472.108	3663.54167
1475.225	3588.20833
1478.34	3533.54167
1481.453	3550.20833
1484.563	3533.20833
1487.671	3604.54167
1490.776	3629.875
1493.88	3710.20833
1496.981	3755.875
1500.08	3814.20833
1503.176	3876.54167
1506.271	3945.20833
1509.363	4029.875
1512.452	4066.875
1515.54	4154.875
1518.625	4266.20833
1521.708	4443.875
1524.789	4680.20833
1527.867	4957.54167
1530.944	5284.54167
1534.018	5540.20833
1537.089	5719.20833
1540.159	5681.54167
1543.226	5505.54167
1546.291	5326.875
1549.354	5146.54167
1552.415	4980.875
1555.473	4824.20833
1558.529	4733.54167
1561.583	4656.54167
1564.634	4657.20833
1567.684	4624.20833
1570.731	4603.20833
1573.776	4662.875
1576.819	4695.54167
1579.859	4725.875
1582.898	4801.875
1585.934	4816.54167
1588.968	4869.20833
1591.999	4811.875
1595.029	4846.875
1598.056	4841.54167
1601.081	4852.875
1604.104	4832.20833
1607.125	4758.20833
1610.144	4670.54167
1613.16	4561.20833
1616.174	4445.54167
1619.186	4357.875
1622.196	4264.54167
1625.203	4145.875
1628.209	4109.20833
1631.212	4067.20833
1634.213	4029.20833
1637.212	3997.54167
1640.209	3935.20833
1643.203	3828.20833
1646.196	3729.875
1649.186	3595.54167
1652.174	3503.54167
1655.16	3370.875
1658.144	3262.20833
1661.125	3113.875
1664.105	2949.54167
1667.082	2838.20833
1670.057	2678.875
1673.03	2529.54167
1676.001	2362.20833
1678.97	2223.54167
1681.937	2087.875
1684.901	1965.875
1687.863	1911.54167
1690.824	1839.875
1693.782	1801.20833
1696.738	1732.875
1699.692	1711.20833
1702.643	1648.54167
1705.593	1642.54167
1708.54	1614.54167
1711.486	1619.54167
1714.429	1580.54167
1717.37	1548.20833
1720.309	1542.20833
1723.246	1536.875
1726.181	1496.20833
1729.113	1510.54167
1732.044	1470.875
1734.972	1462.54167
1737.899	1462.875
1740.823	1460.20833
1743.745	1458.20833
1746.665	1404.875
1749.583	1384.54167
1752.499	1353.875
1755.413	1358.875
1758.325	1318.20833
1761.235	1289.875
1764.142	1276.20833
1767.048	1266.20833
1769.951	1256.20833
1772.852	1257.54167
1775.752	1246.54167
1778.649	1239.875
1781.544	1251.20833
1784.437	1231.20833
1787.328	1225.875
1790.217	1206.875
1793.104	1194.54167
1795.989	1185.20833
1798.872	1188.875
1801.753	1199.20833
1804.631	1193.20833
1807.508	1200.875
1810.383	1175.20833
1813.255	1168.875
1816.126	1172.20833
1818.994	1143.875
1821.861	1157.20833
1824.725	1143.20833
1827.587	1155.20833
1830.448	1141.20833
1833.306	1113.875
1836.162	1122.875
1839.017	1114.20833
1841.869	1103.20833
1844.719	1111.20833
1847.567	1096.54167
1850.414	1092.875
1853.258	1092.20833
1856.1	1102.875
1858.94	1107.875
1861.778	1103.54167
1864.614	1081.875
1867.448	1074.20833
1870.28	1073.54167
1873.111	1102.20833
1875.939	1086.20833
1878.765	1106.54167
1881.589	1070.20833
1884.411	1064.875
1887.231	1088.875
1890.049	1056.20833
1892.865	1059.54167
1895.68	1059.54167
1898.492	1055.20833
1901.302	1061.54167
1904.11	1050.20833
1906.916	1029.20833
1909.721	1033.54167
1912.523	1045.54167
1915.323	1024.54167
1918.122	1030.875
1920.918	1039.875
1923.712	1011.54167
1926.505	1034.875
1929.295	1017.875
1932.084	1016.20833
1934.87	1026.875
1937.655	1014.54167
1940.438	1013.20833
1943.218	1012.54167
1945.997	1016.875
1948.774	1027.875
1951.549	1017.875
1954.322	1004.54167
1957.093	1013.20833
1959.862	992.54167
1962.629	1001.20833
1965.394	985.54167
1968.157	979.20833
1970.918	986.20833
1973.678	972.54167
1976.435	990.20833
1979.19	973.20833
1981.944	968.20833
1984.696	958.20833
1987.445	954.20833
1990.193	961.875
1992.939	977.54167
1995.683	955.54167
1998.425	938.54167
2001.165	961.20833
2003.903	945.20833
2006.639	948.20833
2009.374	950.20833
2012.106	949.54167
2014.837	919.875
2017.566	933.875
2020.292	933.875
2023.017	949.875
2025.74	926.20833
2028.461	932.20833
2031.18	936.875
2033.898	924.875
2036.613	926.54167
2039.327	917.875
2042.038	908.20833
2044.748	920.54167
2047.456	918.54167
2050.162	902.875
2052.866	900.20833
2055.568	902.875
2058.268	886.54167
2060.967	906.875
2063.663	883.875
2066.358	896.54167
2069.051	889.54167
2071.742	896.875
2074.431	887.875
2077.118	872.54167
2079.804	882.875
2082.487	896.54167
2085.169	895.20833
2087.849	925.20833
2090.527	895.20833
2093.203	906.875
2095.877	923.875
2098.55	908.875
2101.22	913.20833
2103.889	918.20833
2106.556	914.875
2109.221	957.875
2111.884	972.20833
2114.546	1038.54167
2117.205	1082.20833
2119.863	1170.20833
2122.519	1244.875
2125.173	1334.54167
2127.825	1411.20833
2130.475	1445.20833
2133.124	1415.54167
2135.771	1366.875
2138.416	1329.875
2141.059	1228.875
2143.7	1191.20833
2146.339	1116.875
2148.977	1044.875
2151.613	1029.54167
2154.247	995.54167
2156.879	975.875
2159.51	948.875
2162.138	927.20833
2164.765	934.54167
2167.39	916.54167
2170.013	940.875
2172.634	926.20833
2175.254	910.20833
2177.872	944.20833
2180.488	881.54167
2183.102	900.20833
2185.714	884.54167
2188.325	850.20833
2190.934	857.54167
2193.541	856.875
2196.146	840.20833
2198.75	821.54167
2201.351	832.875
2203.951	814.20833
2206.549	819.20833
2209.146	809.875
2211.74	794.54167
2214.333	803.54167
2216.924	775.20833
2219.514	788.20833
2222.101	770.20833
2224.687	797.20833
2227.271	767.54167
2229.853	771.54167
2232.433	759.875
2235.012	773.875
2237.589	769.20833
2240.164	772.20833
2242.738	768.875
2245.309	744.875
2247.879	744.875
2250.448	764.54167
2253.014	736.20833
2255.579	714.875
2258.142	714.875
2260.703	695.875
2263.262	709.20833
2265.82	706.20833
2268.376	707.54167
2270.93	684.875
2273.483	692.875
2276.033	695.20833
2278.583	676.20833
2281.13	680.875
2283.675	671.20833
2286.219	671.875
2288.761	676.54167
2291.302	679.54167
2293.841	673.20833
2296.377	654.20833
2298.913	662.875
2301.446	668.875
2303.978	662.54167
2306.508	644.54167
2309.037	644.875
2311.563	668.875
2314.088	654.875
2316.612	641.20833
2319.133	639.875
2321.653	636.20833
2324.171	627.20833
2326.688	640.20833
2329.202	618.54167
2331.715	625.54167
2334.227	630.20833
2336.736	618.54167
2339.244	630.20833
2341.751	613.54167
2344.255	630.875
2346.758	612.20833
2349.259	613.20833
2351.759	608.20833
2354.257	606.54167
2356.753	595.54167
2359.247	610.20833
2361.74	609.54167
2364.231	601.54167
2366.721	611.875
2369.209	600.20833
2371.695	596.20833
2374.179	588.54167
2376.662	592.875
2379.143	605.875
2381.622	589.875
2384.1	601.54167
2386.576	579.54167
2389.051	599.875
2391.524	604.875
2393.995	600.20833
2396.464	577.54167
2398.932	576.875
2401.398	575.20833
2403.863	573.54167
2406.325	573.20833
2408.787	578.20833
2411.246	570.20833
2413.704	568.20833
2416.16	574.54167
2418.615	573.875
2421.068	568.20833
2423.519	561.54167
2425.969	557.875
2428.417	564.54167
2430.863	579.875
2433.308	575.875
2435.751	567.20833
2438.193	559.875
2440.633	563.54167
2443.071	562.20833
2445.508	548.875
2447.943	542.20833
2450.376	540.54167
2452.808	555.20833
2455.238	535.20833
2457.667	570.20833
2460.093	545.54167
2462.519	540.875
2464.942	533.20833
2467.365	545.20833
2469.785	539.54167
2472.204	542.875
2474.621	527.20833
2477.037	549.875
2479.451	521.20833
2481.863	521.875
2484.274	521.20833
2486.683	523.875
2489.091	532.875
2491.497	523.20833
2493.901	517.875
2496.304	519.20833
2498.705	518.20833
2501.105	517.54167
2503.503	546.875
2505.899	517.54167
2508.294	532.54167
2510.687	505.54167
2513.079	509.20833
2515.469	506.20833
2517.858	505.20833
2520.245	528.875
2522.63	505.875
2525.014	484.54167
2527.396	502.20833
2529.776	506.54167
2532.156	499.54167
2534.533	483.54167
2536.909	493.875
2539.283	484.875
2541.656	490.54167
2544.027	503.875
2546.397	497.875
2548.765	491.875
2551.131	488.875
2553.496	494.54167
2555.86	504.20833
2558.221	492.20833
2560.582	478.875
2562.94	479.54167
2565.298	489.875
2567.653	492.20833
2570.007	467.875
2572.36	482.54167
2574.711	479.875
2577.06	493.875
2579.408	481.875
2581.754	476.875
2584.099	474.875
2586.442	483.54167
2588.784	491.54167
2591.124	482.20833
2593.463	464.875
2595.8	474.54167
2598.135	463.875
2600.469	468.875
2602.802	491.54167
2605.133	482.20833
2607.462	464.875
2609.79	462.20833
2612.116	472.20833
2614.441	470.875
2616.764	470.20833
2619.086	468.54167
2621.406	464.20833
2623.725	479.54167
2626.042	468.20833
2628.358	470.20833
2630.672	464.875
2632.985	474.875
2635.296	468.20833
2637.606	473.875
2639.914	454.54167
2642.22	464.54167
2644.525	462.54167
2646.829	476.54167
2649.131	474.54167
2651.432	471.54167
2653.731	465.20833
2656.028	474.20833
2658.324	466.875
2660.619	469.20833
2662.912	477.20833
2665.204	449.875
2667.494	475.54167
2669.782	465.54167
2672.07	484.875
2674.355	485.54167
2676.639	468.875
2678.922	466.54167
2681.203	482.54167
2683.483	460.20833
2685.761	462.20833
2688.038	476.20833
2690.313	484.875
2692.587	473.54167
2694.859	470.54167
2697.13	471.54167
2699.399	474.20833
2701.667	493.54167
2703.933	492.875
2706.198	490.20833
2708.461	508.54167
2710.723	499.54167
2712.984	496.875
2715.243	511.54167
2717.5	494.54167
2719.757	510.54167
2722.011	501.54167
2724.264	515.54167
2726.516	524.875
2728.766	505.54167
2731.015	509.20833
2733.262	514.20833
2735.508	501.20833
2737.753	497.20833
2739.996	495.20833
2742.237	485.54167
2744.477	500.20833
2746.716	499.875
2748.953	496.20833
2751.189	486.875
2753.423	478.54167
2755.656	474.54167
2757.887	471.54167
2760.117	478.20833
2762.346	467.54167
2764.573	462.20833
2766.798	462.54167
2769.022	475.20833
2771.245	470.54167
2773.467	470.20833
2775.686	472.875
2777.905	483.875
2780.122	485.875
2782.337	485.20833
2784.552	486.875
2786.764	495.20833
2788.976	504.875
2791.186	506.54167
2793.394	507.875
2795.601	521.875
2797.807	529.20833
2800.011	536.54167
2802.214	542.20833
2804.415	550.54167
2806.615	555.54167
2808.814	572.20833
2811.011	564.875
2813.206	572.54167
2815.401	576.54167
2817.594	602.20833
2819.785	618.20833
2821.975	606.54167
2824.164	616.20833
2826.351	637.875
2828.537	672.875
2830.722	684.20833
2832.905	694.875
2835.086	727.20833
2837.267	769.54167
2839.445	798.875
2841.623	826.875
2843.799	873.20833
2845.974	916.20833
2848.147	965.875
2850.319	992.54167
2852.489	1024.875
2854.659	1042.875
2856.826	1065.20833
2858.993	1085.20833
2861.158	1067.875
2863.321	1077.20833
2865.483	1107.20833
2867.644	1105.20833
2869.804	1081.875
2871.962	1077.875
2874.118	1103.20833
2876.274	1076.54167
2878.428	1079.20833
2880.58	1082.54167
2882.731	1060.875
2884.881	1077.20833
2887.03	1061.20833
2889.177	1063.20833
2891.322	1094.875
2893.467	1082.54167
2895.61	1077.20833
2897.751	1103.20833
2899.892	1089.54167
2902.03	1091.20833
2904.168	1118.875
2906.304	1128.875
2908.439	1128.875
2910.572	1123.20833
2912.704	1143.20833
2914.835	1139.875
2916.965	1132.875
2919.093	1138.20833
2921.219	1121.54167
2923.345	1116.54167
2925.469	1094.20833
2927.591	1085.20833
2929.712	1037.875
2931.832	1033.54167
2933.951	990.54167
2936.068	975.20833
2938.184	944.875
2940.299	904.54167
2942.412	878.875
2944.524	835.20833
2946.634	811.20833
2948.744	750.20833
2950.851	766.875
2952.958	722.20833
2955.063	701.20833
2957.167	681.875
2959.269	649.20833
2961.371	661.875
2963.471	610.54167
2965.569	610.54167
2967.666	579.54167
2969.762	570.54167
2971.857	528.875
2973.95	533.20833
2976.042	516.54167
2978.133	499.20833
2980.222	475.20833
2982.31	465.875
2984.396	440.54167
2986.482	445.875
2988.566	440.20833
2990.648	415.20833
2992.73	419.20833
2994.81	396.54167
2996.889	410.54167
2998.966	391.54167
3001.042	394.875
3003.117	394.875
3005.191	393.20833
3007.263	372.54167
3009.334	370.54167
3011.403	363.54167
3013.472	350.54167
3015.539	352.875
3017.604	357.20833
3019.669	326.20833
3021.732	335.54167
3023.794	335.54167
3025.854	314.54167
3027.914	313.20833
3029.971	322.54167
3032.028	306.20833
3034.083	314.20833
3036.137	307.20833
3038.19	291.875
3040.242	287.20833
3042.292	281.54167
3044.341	273.20833
3046.388	293.20833
3048.435	262.20833
3050.48	290.875
3052.524	270.54167
3054.566	251.875
3056.607	270.20833
3058.647	262.20833
3060.686	245.20833
3062.723	237.875
3064.759	229.54167
3066.794	0.875
3068.828	-1.125
3070.86	-2.45833
