-0.839	423.83333
3.438	475.5
7.711	139.5
11.981	58.16667
16.247	48.83333
20.509	44.16667
24.768	48.5
29.024	47.83333
33.276	42.83333
37.524	47.5
41.769	41.16667
46.01	41.83333
50.247	49.5
54.481	62.83333
58.712	69.83333
62.939	48.16667
67.162	63.83333
71.382	60.5
75.599	50.5
79.812	65.5
84.021	86.83333
88.227	62.16667
92.429	67.5
96.628	52.16667
100.823	67.83333
105.015	79.5
109.204	82.5
113.388	83.83333
117.57	82.16667
121.748	94.83333
125.922	84.5
130.093	107.16667
134.261	114.16667
138.425	110.16667
142.585	153.16667
146.742	148.16667
150.896	181.5
155.046	209.5
159.193	347.83333
163.336	607.83333
167.476	1100.16667
171.613	2020.5
175.746	3405.16667
179.875	5077.83333
184.002	6657.5
188.124	7731.5
192.244	8192.16667
196.36	8224.5
200.472	8010.16667
204.581	7882.83333
208.687	7725.83333
212.79	7715.16667
216.889	7788.16667
220.984	7964.16667
225.077	8019.16667
229.165	8206.83333
233.251	8333.5
237.333	8474.5
241.412	8449.16667
245.487	8464.83333
249.559	8448.5
253.628	8289.16667
257.694	8241.83333
261.756	8161.83333
265.814	8038.83333
269.87	7730.16667
273.922	7499.5
277.97	7297.16667
282.016	7156.5
286.058	7028.16667
290.097	7053.16667
294.132	7029.16667
298.164	6871.16667
302.193	6598.5
306.219	6141.5
310.241	5563.16667
314.26	5081.16667
318.276	4659.83333
322.288	4371.5
326.297	4146.16667
330.303	3980.5
334.305	3846.5
338.305	3752.5
342.301	3719.5
346.294	3671.83333
350.283	3644.83333
354.269	3646.16667
358.252	3587.83333
362.232	3573.83333
366.209	3548.16667
370.182	3543.16667
374.152	3491.83333
378.119	3521.5
382.083	3476.16667
386.043	3515.5
390	3467.16667
393.954	3464.5
397.905	3435.16667
401.852	3415.5
405.797	3374.5
409.738	3328.83333
413.676	3350.5
417.61	3314.5
421.542	3265.83333
425.47	3271.16667
429.396	3197.5
433.318	3201.83333
437.236	3164.83333
441.152	3178.16667
445.065	3120.5
448.974	3140.83333
452.88	3069.16667
456.783	3082.83333
460.683	3052.5
464.58	3072.83333
468.473	3074.5
472.364	3123.5
476.251	3092.5
480.135	3114.16667
484.016	3160.16667
487.894	3165.83333
491.769	3173.16667
495.641	3192.16667
499.509	3183.83333
503.375	3132.83333
507.237	3151.5
511.096	3131.16667
514.952	3143.83333
518.805	3109.5
522.655	3104.16667
526.502	3087.83333
530.346	3117.83333
534.187	3133.5
538.024	3138.5
541.859	3122.16667
545.69	3155.5
549.519	3117.5
553.344	3105.83333
557.166	3043.5
560.985	3031.83333
564.802	3001.83333
568.615	2965.83333
572.425	2935.16667
576.232	2916.5
580.036	2901.5
583.836	2909.5
587.634	2904.83333
591.429	2903.5
595.221	2962.83333
599.01	2973.83333
602.796	3025.83333
606.578	3026.16667
610.358	3052.16667
614.135	3001.5
617.909	3029.83333
621.679	3011.83333
625.447	2982.83333
629.212	2969.83333
632.973	3000.5
636.732	2982.16667
640.488	3000.5
644.241	2969.83333
647.991	2965.16667
651.737	2974.5
655.481	2959.16667
659.222	2984.83333
662.96	2957.83333
666.695	2984.83333
670.427	2991.83333
674.156	3007.83333
677.882	3014.83333
681.605	3007.5
685.325	2953.83333
689.043	2978.83333
692.757	2943.83333
696.468	2953.83333
700.177	2977.83333
703.882	2954.5
707.585	2971.83333
711.284	2923.16667
714.981	2968.16667
718.675	2956.5
722.366	2985.16667
726.054	2949.83333
729.739	2960.16667
733.421	2971.16667
737.1	2940.16667
740.777	2987.83333
744.45	2987.83333
748.121	3020.16667
751.789	3082.16667
755.453	3077.83333
759.115	3104.16667
762.774	3122.16667
766.431	3141.5
770.084	3169.83333
773.734	3188.83333
777.382	3246.5
781.027	3275.83333
784.669	3271.16667
788.308	3309.83333
791.944	3340.16667
795.577	3347.83333
799.208	3390.83333
802.835	3398.16667
806.46	3428.83333
810.082	3480.83333
813.701	3489.5
817.317	3521.83333
820.931	3509.83333
824.542	3507.83333
828.149	3478.83333
831.754	3443.5
835.357	3401.83333
838.956	3408.16667
842.553	3395.83333
846.146	3352.83333
849.737	3350.5
853.326	3350.5
856.911	3332.83333
860.493	3413.16667
864.073	3436.16667
867.65	3462.16667
871.225	3504.83333
874.796	3516.5
878.365	3501.83333
881.931	3526.83333
885.494	3548.5
889.054	3555.5
892.612	3549.16667
896.166	3515.5
899.719	3454.5
903.268	3440.83333
906.814	3414.83333
910.358	3429.16667
913.899	3400.83333
917.438	3425.5
920.973	3388.83333
924.506	3435.5
928.036	3472.5
931.564	3512.83333
935.088	3552.5
938.61	3534.83333
942.129	3601.83333
945.646	3644.16667
949.16	3755.5
952.671	3862.5
956.179	3893.83333
959.685	3871.5
963.188	3848.83333
966.688	3824.16667
970.185	3686.5
973.68	3627.16667
977.173	3620.16667
980.662	3595.83333
984.149	3585.5
987.633	3591.5
991.114	3671.5
994.593	3730.83333
998.069	3883.83333
1001.542	3999.83333
1005.013	3917.16667
1008.481	3714.16667
1011.947	3624.5
1015.409	3630.83333
1018.869	3618.16667
1022.327	3628.16667
1025.782	3618.5
1029.234	3627.83333
1032.683	3580.83333
1036.13	3460.5
1039.574	3358.16667
1043.016	3251.16667
1046.455	3211.5
1049.891	3176.16667
1053.325	3179.16667
1056.756	3162.5
1060.184	3230.83333
1063.61	3224.16667
1067.033	3231.83333
1070.454	3225.5
1073.872	3256.83333
1077.287	3290.5
1080.7	3306.83333
1084.11	3291.5
1087.517	3247.83333
1090.922	3197.83333
1094.325	3157.83333
1097.724	3131.5
1101.122	3111.83333
1104.516	3114.5
1107.908	3108.83333
1111.298	3181.5
1114.684	3201.16667
1118.069	3241.16667
1121.45	3267.83333
1124.83	3266.16667
1128.206	3282.83333
1131.58	3310.83333
1134.951	3395.16667
1138.32	3478.16667
1141.687	3616.16667
1145.05	3718.5
1148.412	3733.83333
1151.77	3728.5
1155.126	3701.5
1158.48	3712.5
1161.831	3745.5
1165.18	3740.16667
1168.525	3821.83333
1171.869	3853.83333
1175.21	3892.16667
1178.548	3943.16667
1181.884	3975.83333
1185.217	4003.16667
1188.548	4060.5
1191.877	4127.5
1195.202	4225.16667
1198.526	4289.83333
1201.846	4276.5
1205.165	4272.5
1208.48	4271.83333
1211.794	4275.16667
1215.104	4300.83333
1218.413	4301.16667
1221.719	4275.5
1225.022	4248.5
1228.323	4221.83333
1231.621	4197.16667
1234.917	4172.83333
1238.21	4224.16667
1241.501	4190.83333
1244.79	4190.5
1248.076	4227.83333
1251.359	4233.5
1254.64	4328.83333
1257.919	4327.83333
1261.195	4386.5
1264.468	4446.16667
1267.74	4520.83333
1271.008	4519.5
1274.275	4513.16667
1277.538	4488.83333
1280.8	4465.5
1284.059	4460.16667
1287.315	4480.83333
1290.569	4552.16667
1293.821	4527.5
1297.07	4569.83333
1300.317	4561.83333
1303.562	4578.16667
1306.803	4540.16667
1310.043	4481.16667
1313.28	4430.5
1316.515	4396.16667
1319.747	4342.83333
1322.977	4327.83333
1326.204	4237.83333
1329.429	4190.83333
1332.652	4152.83333
1335.872	4184.16667
1339.09	4142.16667
1342.306	4153.5
1345.519	4139.16667
1348.729	4127.83333
1351.938	4094.5
1355.144	4004.5
1358.347	3989.83333
1361.548	3968.83333
1364.747	3978.5
1367.944	3946.16667
1371.138	3974.83333
1374.329	4022.16667
1377.518	4055.16667
1380.705	4110.83333
1383.89	4046.83333
1387.072	3981.83333
1390.252	3831.16667
1393.429	3686.83333
1396.605	3585.5
1399.777	3506.83333
1402.948	3452.16667
1406.116	3446.16667
1409.282	3427.5
1412.445	3429.83333
1415.606	3448.16667
1418.765	3516.83333
1421.921	3589.83333
1425.075	3661.16667
1428.227	3794.16667
1431.376	3952.16667
1434.524	4110.5
1437.668	4225.5
1440.811	4267.5
1443.951	4285.5
1447.089	4264.5
1450.224	4271.5
1453.357	4227.5
1456.488	4217.83333
1459.617	4148.5
1462.743	4104.83333
1465.867	3974.83333
1468.989	3929.5
1472.108	3837.83333
1475.225	3793.5
1478.34	3748.83333
1481.453	3737.16667
1484.563	3734.16667
1487.671	3759.5
1490.776	3805.5
1493.88	3876.5
1496.981	3927.83333
1500.08	4011.5
1503.176	4094.83333
1506.271	4153.83333
1509.363	4172.83333
1512.452	4296.5
1515.54	4385.5
1518.625	4501.83333
1521.708	4629.83333
1524.789	4881.83333
1527.867	5214.83333
1530.944	5523.16667
1534.018	5794.16667
1537.089	5921.5
1540.159	5898.5
1543.226	5732.83333
1546.291	5518.5
1549.354	5353.83333
1552.415	5142.83333
1555.473	5027.83333
1558.529	4916.16667
1561.583	4846.83333
1564.634	4799.83333
1567.684	4797.5
1570.731	4839.83333
1573.776	4851.83333
1576.819	4904.5
1579.859	4914.16667
1582.898	4989.16667
1585.934	5013.5
1588.968	5024.16667
1591.999	5003.5
1595.029	5000.5
1598.056	5030.5
1601.081	5028.16667
1604.104	5037.16667
1607.125	4979.16667
1610.144	4871.83333
1613.16	4798.16667
1616.174	4666.16667
1619.186	4590.83333
1622.196	4490.16667
1625.203	4401.16667
1628.209	4330.5
1631.212	4310.5
1634.213	4339.16667
1637.212	4346.5
1640.209	4256.83333
1643.203	4191.16667
1646.196	4007.16667
1649.186	3861.16667
1652.174	3765.83333
1655.16	3631.5
1658.144	3529.16667
1661.125	3381.83333
1664.105	3202.16667
1667.082	3057.83333
1670.057	2904.16667
1673.03	2728.83333
1676.001	2549.16667
1678.97	2388.83333
1681.937	2278.83333
1684.901	2116.16667
1687.863	2059.5
1690.824	1968.16667
1693.782	1920.83333
1696.738	1874.83333
1699.692	1823.16667
1702.643	1771.16667
1705.593	1748.5
1708.54	1725.83333
1711.486	1732.16667
1714.429	1686.83333
1717.37	1665.5
1720.309	1650.5
1723.246	1646.16667
1726.181	1612.83333
1729.113	1618.83333
1732.044	1577.5
1734.972	1583.16667
1737.899	1578.5
1740.823	1576.5
1743.745	1580.16667
1746.665	1520.5
1749.583	1486.83333
1752.499	1492.16667
1755.413	1457.83333
1758.325	1430.16667
1761.235	1419.83333
1764.142	1388.83333
1767.048	1376.83333
1769.951	1375.5
1772.852	1369.5
1775.752	1371.5
1778.649	1342.16667
1781.544	1351.16667
1784.437	1321.83333
1787.328	1320.83333
1790.217	1322.5
1793.104	1276.5
1795.989	1283.16667
1798.872	1290.16667
1801.753	1292.5
1804.631	1288.83333
1807.508	1297.83333
1810.383	1291.5
1813.255	1274.83333
1816.126	1280.83333
1818.994	1267.5
1821.861	1255.16667
1824.725	1250.16667
1827.587	1248.5
1830.448	1243.16667
1833.306	1200.16667
1836.162	1234.5
1839.017	1219.83333
1841.869	1210.5
1844.719	1200.83333
1847.567	1181.16667
1850.414	1191.83333
1853.258	1193.16667
1856.1	1203.5
1858.94	1210.5
1861.778	1200.83333
1864.614	1187.16667
1867.448	1188.5
1870.28	1174.16667
1873.111	1190.16667
1875.939	1175.5
1878.765	1202.5
1881.589	1170.5
1884.411	1174.16667
1887.231	1197.5
1890.049	1159.5
1892.865	1174.5
1895.68	1156.16667
1898.492	1141.83333
1901.302	1150.83333
1904.11	1139.5
1906.916	1124.83333
1909.721	1136.83333
1912.523	1139.5
1915.323	1111.83333
1918.122	1121.5
1920.918	1125.5
1923.712	1111.83333
1926.505	1111.83333
1929.295	1095.5
1932.084	1109.16667
1934.87	1124.83333
1937.655	1100.16667
1940.438	1087.16667
1943.218	1097.83333
1945.997	1104.5
1948.774	1093.5
1951.549	1093.83333
1954.322	1102.5
1957.093	1103.5
1959.862	1084.5
1962.629	1077.5
1965.394	1075.5
1968.157	1065.83333
1970.918	1079.16667
1973.678	1054.83333
1976.435	1058.16667
1979.19	1043.83333
1981.944	1062.16667
1984.696	1047.83333
1987.445	1044.16667
1990.193	1040.5
1992.939	1047.5
1995.683	1044.83333
1998.425	1030.83333
2001.165	1049.83333
2003.903	1038.5
2006.639	1028.83333
2009.374	1023.16667
2012.106	1031.5
2014.837	997.5
2017.566	1023.83333
2020.292	1016.5
2023.017	1013.5
2025.74	1008.16667
2028.461	1008.83333
2031.18	996.83333
2033.898	994.16667
2036.613	1010.83333
2039.327	1009.5
2042.038	985.83333
2044.748	988.5
2047.456	981.5
2050.162	972.16667
2052.866	985.83333
2055.568	983.5
2058.268	982.83333
2060.967	990.5
2063.663	965.5
2066.358	974.16667
2069.051	957.83333
2071.742	964.83333
2074.431	967.5
2077.118	959.16667
2079.804	954.5
2082.487	964.5
2085.169	982.16667
2087.849	983.83333
2090.527	962.5
2093.203	973.16667
2095.877	965.5
2098.55	981.83333
2101.22	1007.5
2103.889	987.83333
2106.556	992.5
2109.221	1024.16667
2111.884	1034.83333
2114.546	1090.16667
2117.205	1150.5
2119.863	1237.83333
2122.519	1307.16667
2125.173	1392.83333
2127.825	1495.83333
2130.475	1515.16667
2133.124	1479.16667
2135.771	1429.83333
2138.416	1384.83333
2141.059	1310.5
2143.7	1257.83333
2146.339	1189.16667
2148.977	1107.5
2151.613	1113.16667
2154.247	1064.83333
2156.879	1047.83333
2159.51	1038.83333
2162.138	1005.16667
2164.765	1002.5
2167.39	984.5
2170.013	1005.16667
2172.634	984.16667
2175.254	993.83333
2177.872	1001.5
2180.488	966.16667
2183.102	965.5
2185.714	949.16667
2188.325	935.83333
2190.934	929.16667
2193.541	922.83333
2196.146	913.83333
2198.75	889.5
2201.351	902.83333
2203.951	862.16667
2206.549	887.5
2209.146	863.16667
2211.74	872.5
2214.333	859.83333
2216.924	839.83333
2219.514	854.5
2222.101	830.83333
2224.687	851.5
2227.271	830.83333
2229.853	821.5
2232.433	813.83333
2235.012	838.83333
2237.589	823.5
2240.164	822.16667
2242.738	818.83333
2245.309	804.16667
2247.879	800.5
2250.448	817.5
2253.014	783.16667
2255.579	778.83333
2258.142	782.83333
2260.703	754.5
2263.262	760.16667
2265.82	756.16667
2268.376	754.16667
2270.93	738.16667
2273.483	745.16667
2276.033	733.5
2278.583	742.16667
2281.13	752.16667
2283.675	723.5
2286.219	735.83333
2288.761	737.16667
2291.302	731.83333
2293.841	732.5
2296.377	714.83333
2298.913	711.5
2301.446	723.5
2303.978	707.83333
2306.508	709.83333
2309.037	704.16667
2311.563	717.16667
2314.088	695.16667
2316.612	687.16667
2319.133	706.83333
2321.653	687.16667
2324.171	685.16667
2326.688	691.5
2329.202	687.5
2331.715	681.5
2334.227	679.83333
2336.736	684.83333
2339.244	679.83333
2341.751	659.16667
2344.255	677.83333
2346.758	663.83333
2349.259	645.16667
2351.759	663.5
2354.257	652.83333
2356.753	645.16667
2359.247	652.16667
2361.74	648.16667
2364.231	663.5
2366.721	668.5
2369.209	643.5
2371.695	643.83333
2374.179	631.16667
2376.662	644.16667
2379.143	652.16667
2381.622	640.83333
2384.1	646.5
2386.576	635.5
2389.051	642.16667
2391.524	651.16667
2393.995	637.16667
2396.464	619.83333
2398.932	619.5
2401.398	616.83333
2403.863	625.5
2406.325	613.83333
2408.787	620.16667
2411.246	617.83333
2413.704	607.5
2416.16	608.83333
2418.615	595.83333
2421.068	619.5
2423.519	611.5
2425.969	601.83333
2428.417	608.16667
2430.863	628.5
2433.308	613.5
2435.751	614.16667
2438.193	608.5
2440.633	605.5
2443.071	605.83333
2445.508	588.16667
2447.943	585.5
2450.376	585.16667
2452.808	596.83333
2455.238	581.83333
2457.667	615.5
2460.093	581.16667
2462.519	567.16667
2464.942	572.83333
2467.365	585.16667
2469.785	580.5
2472.204	570.16667
2474.621	571.5
2477.037	588.16667
2479.451	547.16667
2481.863	557.83333
2484.274	567.83333
2486.683	571.83333
2489.091	565.16667
2491.497	563.16667
2493.901	553.5
2496.304	560.16667
2498.705	564.5
2501.105	556.5
2503.503	574.83333
2505.899	545.5
2508.294	561.16667
2510.687	546.5
2513.079	543.83333
2515.469	539.83333
2517.858	541.5
2520.245	554.5
2522.63	542.16667
2525.014	529.16667
2527.396	530.83333
2529.776	526.83333
2532.156	546.83333
2534.533	524.5
2536.909	525.83333
2539.283	515.16667
2541.656	517.83333
2544.027	547.83333
2546.397	534.5
2548.765	522.16667
2551.131	525.5
2553.496	533.16667
2555.86	529.5
2558.221	527.5
2560.582	513.83333
2562.94	498.83333
2565.298	519.5
2567.653	536.5
2570.007	511.16667
2572.36	517.5
2574.711	506.16667
2577.06	531.16667
2579.408	507.16667
2581.754	518.83333
2584.099	515.16667
2586.442	503.16667
2588.784	516.83333
2591.124	509.5
2593.463	504.5
2595.8	513.83333
2598.135	502.5
2600.469	500.83333
2602.802	517.5
2605.133	503.16667
2607.462	494.16667
2609.79	489.83333
2612.116	501.5
2614.441	492.83333
2616.764	501.16667
2619.086	489.16667
2621.406	490.83333
2623.725	507.5
2626.042	502.83333
2628.358	489.5
2630.672	496.16667
2632.985	510.16667
2635.296	499.83333
2637.606	499.5
2639.914	487.5
2642.22	503.5
2644.525	489.5
2646.829	510.83333
2649.131	505.5
2651.432	501.5
2653.731	502.16667
2656.028	510.5
2658.324	494.83333
2660.619	499.16667
2662.912	511.16667
2665.204	495.83333
2667.494	513.16667
2669.782	499.83333
2672.07	513.83333
2674.355	513.16667
2676.639	496.5
2678.922	496.16667
2681.203	508.83333
2683.483	481.5
2685.761	488.16667
2688.038	508.5
2690.313	508.5
2692.587	503.5
2694.859	495.83333
2697.13	503.16667
2699.399	510.16667
2701.667	515.83333
2703.933	521.16667
2706.198	517.83333
2708.461	530.5
2710.723	527.16667
2712.984	520.16667
2715.243	533.5
2717.5	527.5
2719.757	551.83333
2722.011	531.5
2724.264	546.5
2726.516	561.16667
2728.766	539.5
2731.015	542.83333
2733.262	536.16667
2735.508	531.16667
2737.753	532.5
2739.996	510.16667
2742.237	519.83333
2744.477	524.5
2746.716	525.5
2748.953	510.16667
2751.189	524.83333
2753.423	507.5
2755.656	503.16667
2757.887	494.83333
2760.117	491.83333
2762.346	492.83333
2764.573	495.16667
2766.798	481.83333
2769.022	492.16667
2771.245	489.83333
2773.467	490.5
2775.686	497.16667
2777.905	501.16667
2780.122	515.5
2782.337	507.83333
2784.552	517.83333
2786.764	520.5
2788.976	523.5
2791.186	531.16667
2793.394	527.5
2795.601	544.83333
2797.807	542.5
2800.011	553.16667
2802.214	569.83333
2804.415	560.5
2806.615	562.5
2808.814	593.5
2811.011	585.5
2813.206	595.5
2815.401	605.5
2817.594	629.16667
2819.785	637.83333
2821.975	633.83333
2824.164	645.5
2826.351	674.83333
2828.537	687.16667
2830.722	688.83333
2832.905	717.83333
2835.086	770.16667
2837.267	801.83333
2839.445	826.83333
2841.623	865.16667
2843.799	901.5
2845.974	951.16667
2848.147	991.83333
2850.319	1024.5
2852.489	1089.83333
2854.659	1085.83333
2856.826	1109.83333
2858.993	1127.83333
2861.158	1130.83333
2863.321	1123.5
2865.483	1158.5
2867.644	1153.5
2869.804	1158.83333
2871.962	1131.5
2874.118	1149.83333
2876.274	1133.5
2878.428	1124.16667
2880.58	1121.16667
2882.731	1124.83333
2884.881	1121.83333
2887.03	1127.83333
2889.177	1118.83333
2891.322	1124.16667
2893.467	1136.83333
2895.61	1138.5
2897.751	1168.83333
2899.892	1161.83333
2902.03	1168.83333
2904.168	1186.5
2906.304	1184.5
2908.439	1202.16667
2910.572	1172.83333
2912.704	1188.5
2914.835	1208.16667
2916.965	1185.5
2919.093	1201.83333
2921.219	1159.5
2923.345	1179.16667
2925.469	1155.5
2927.591	1145.16667
2929.712	1102.16667
2931.832	1071.5
2933.951	1054.83333
2936.068	1045.16667
2938.184	985.5
2940.299	971.16667
2942.412	936.16667
2944.524	887.16667
2946.634	856.16667
2948.744	804.83333
2950.851	814.16667
2952.958	761.83333
2955.063	746.16667
2957.167	720.83333
2959.269	694.16667
2961.371	688.83333
2963.471	647.83333
2965.569	650.5
2967.666	616.83333
2969.762	594.16667
2971.857	571.16667
2973.95	549.5
2976.042	549.5
2978.133	524.5
2980.222	510.16667
2982.31	487.83333
2984.396	461.5
2986.482	457.5
2988.566	462.83333
2990.648	437.5
2992.73	433.5
2994.81	420.5
2996.889	426.16667
2998.966	417.16667
3001.042	415.5
3003.117	403.83333
3005.191	394.16667
3007.263	393.83333
3009.334	390.16667
3011.403	385.83333
3013.472	368.16667
3015.539	366.16667
3017.604	376.5
3019.669	335.83333
3021.732	343.83333
3023.794	351.16667
3025.854	326.16667
3027.914	328.16667
3029.971	336.16667
3032.028	326.16667
3034.083	327.83333
3036.137	320.16667
3038.19	311.16667
3040.242	302.5
3042.292	294.83333
3044.341	292.83333
3046.388	298.16667
3048.435	276.5
3050.48	297.83333
3052.524	290.83333
3054.566	268.5
3056.607	286.83333
3058.647	277.5
3060.686	251.83333
3062.723	248.5
3064.759	242.83333
3066.794	-0.16667
3068.828	-0.16667
3070.86	-3.16667
