-0.839	426.83333
3.438	472.5
7.711	141.83333
11.981	57.5
16.247	48.5
20.509	44.5
24.768	45.83333
29.024	45.5
33.276	43.5
37.524	51.16667
41.769	43.16667
46.01	37.5
50.247	52.83333
54.481	65.83333
58.712	65.5
62.939	54.16667
67.162	62.83333
71.382	59.16667
75.599	53.16667
79.812	68.16667
84.021	86.5
88.227	60.83333
92.429	68.16667
96.628	52.16667
100.823	72.5
105.015	85.16667
109.204	83.5
113.388	79.83333
117.57	80.83333
121.748	97.83333
125.922	90.5
130.093	109.5
134.261	112.83333
138.425	111.5
142.585	148.83333
146.742	153.5
150.896	180.5
155.046	220.16667
159.193	356.16667
163.336	596.16667
167.476	1101.5
171.613	2034.16667
175.746	3382.5
179.875	5084.16667
184.002	6624.5
188.124	7778.16667
192.244	8149.83333
196.36	8172.83333
200.472	8016.5
204.581	7916.5
208.687	7719.5
212.79	7734.5
216.889	7777.16667
220.984	7934.5
225.077	8077.83333
229.165	8210.83333
233.251	8338.83333
237.333	8460.83333
241.412	8440.5
245.487	8415.16667
249.559	8355.16667
253.628	8251.16667
257.694	8186.83333
261.756	8104.5
265.814	7918.83333
269.87	7610.16667
273.922	7429.5
277.97	7246.16667
282.016	7143.83333
286.058	7097.83333
290.097	7133.5
294.132	7064.16667
298.164	6957.5
302.193	6596.5
306.219	6055.16667
310.241	5535.83333
314.26	5017.16667
318.276	4628.83333
322.288	4309.5
326.297	4054.5
330.303	3889.83333
334.305	3769.83333
338.305	3666.5
342.301	3620.5
346.294	3563.16667
350.283	3510.83333
354.269	3493.5
358.252	3442.83333
362.232	3423.16667
366.209	3395.5
370.182	3395.16667
374.152	3343.83333
378.119	3348.5
382.083	3349.16667
386.043	3354.5
390	3311.5
393.954	3320.16667
397.905	3250.5
401.852	3253.5
405.797	3190.5
409.738	3197.83333
413.676	3209.16667
417.61	3195.83333
421.542	3101.5
425.47	3054.5
429.396	3033.16667
433.318	3019.5
437.236	2977.83333
441.152	2982.5
445.065	2950.5
448.974	2930.83333
452.88	2909.16667
456.783	2889.5
460.683	2881.5
464.58	2891.5
468.473	2902.16667
472.364	2880.16667
476.251	2894.83333
480.135	2933.83333
484.016	2935.5
487.894	2977.5
491.769	2981.16667
495.641	2978.16667
499.509	2979.5
503.375	2984.5
507.237	2980.16667
511.096	2975.5
514.952	3003.83333
518.805	3059.5
522.655	3085.83333
526.502	2984.16667
530.346	2946.5
534.187	2968.16667
538.024	2928.5
541.859	2941.83333
545.69	2971.5
549.519	2934.83333
553.344	2939.16667
557.166	2882.16667
560.985	2875.5
564.802	2812.83333
568.615	2817.5
572.425	2748.5
576.232	2714.16667
580.036	2749.5
583.836	2735.16667
587.634	2719.5
591.429	2720.5
595.221	2785.83333
599.01	2792.16667
602.796	2823.5
606.578	2862.16667
610.358	2893.5
614.135	2855.5
617.909	2860.83333
621.679	2822.83333
625.447	2840.83333
629.212	2825.83333
632.973	2826.5
636.732	2829.83333
640.488	2826.16667
644.241	2785.5
647.991	2781.83333
651.737	2796.5
655.481	2750.5
659.222	2760.16667
662.96	2738.83333
666.695	2781.16667
670.427	2795.83333
674.156	2813.83333
677.882	2794.16667
681.605	2790.83333
685.325	2763.83333
689.043	2791.83333
692.757	2768.16667
696.468	2779.83333
700.177	2791.83333
703.882	2785.5
707.585	2787.5
711.284	2783.5
714.981	2795.83333
718.675	2805.5
722.366	2828.16667
726.054	2796.83333
729.739	2795.16667
733.421	2826.5
737.1	2797.16667
740.777	2830.5
744.45	2842.83333
748.121	2847.83333
751.789	2924.5
755.453	2917.83333
759.115	2928.5
762.774	2965.16667
766.431	2992.16667
770.084	3047.5
773.734	3100.16667
777.382	3164.5
781.027	3160.5
784.669	3188.16667
788.308	3208.5
791.944	3210.5
795.577	3256.5
799.208	3276.83333
802.835	3294.16667
806.46	3326.16667
810.082	3367.16667
813.701	3341.5
817.317	3389.83333
820.931	3369.5
824.542	3369.5
828.149	3360.5
831.754	3347.83333
835.357	3330.5
838.956	3346.83333
842.553	3341.5
846.146	3318.5
849.737	3306.16667
853.326	3319.5
856.911	3327.5
860.493	3367.83333
864.073	3414.83333
867.65	3512.83333
871.225	3517.5
874.796	3512.5
878.365	3539.83333
881.931	3557.83333
885.494	3593.5
889.054	3561.83333
892.612	3568.5
896.166	3543.83333
899.719	3490.5
903.268	3459.5
906.814	3436.16667
910.358	3420.5
913.899	3394.83333
917.438	3410.83333
920.973	3404.5
924.506	3428.16667
928.036	3499.5
931.564	3511.16667
935.088	3537.16667
938.61	3565.16667
942.129	3617.83333
945.646	3704.83333
949.16	3775.16667
952.671	3882.16667
956.179	3892.16667
959.685	3859.5
963.188	3835.5
966.688	3761.83333
970.185	3662.16667
973.68	3619.5
977.173	3581.83333
980.662	3575.5
984.149	3620.5
987.633	3615.16667
991.114	3669.5
994.593	3764.83333
998.069	3899.16667
1001.542	4020.5
1005.013	3913.83333
1008.481	3696.16667
1011.947	3611.83333
1015.409	3607.16667
1018.869	3638.5
1022.327	3606.83333
1025.782	3574.16667
1029.234	3589.5
1032.683	3552.16667
1036.13	3422.5
1039.574	3297.16667
1043.016	3200.5
1046.455	3143.83333
1049.891	3082.16667
1053.325	3125.16667
1056.756	3095.83333
1060.184	3130.83333
1063.61	3165.5
1067.033	3177.16667
1070.454	3162.16667
1073.872	3198.5
1077.287	3219.83333
1080.7	3199.83333
1084.11	3211.16667
1087.517	3180.83333
1090.922	3172.16667
1094.325	3149.83333
1097.724	3111.16667
1101.122	3083.5
1104.516	3066.16667
1107.908	3107.16667
1111.298	3164.5
1114.684	3214.5
1118.069	3211.83333
1121.45	3265.83333
1124.83	3243.5
1128.206	3270.16667
1131.58	3331.83333
1134.951	3423.5
1138.32	3545.16667
1141.687	3655.5
1145.05	3769.16667
1148.412	3787.16667
1151.77	3777.16667
1155.126	3765.16667
1158.48	3804.83333
1161.831	3813.16667
1165.18	3856.5
1168.525	3950.16667
1171.869	3986.83333
1175.21	4011.5
1178.548	4057.83333
1181.884	4105.16667
1185.217	4131.16667
1188.548	4190.5
1191.877	4250.83333
1195.202	4347.83333
1198.526	4402.5
1201.846	4427.16667
1205.165	4424.16667
1208.48	4366.5
1211.794	4383.83333
1215.104	4372.83333
1218.413	4382.5
1221.719	4400.5
1225.022	4353.83333
1228.323	4302.5
1231.621	4313.5
1234.917	4292.83333
1238.21	4292.16667
1241.501	4280.83333
1244.79	4307.83333
1248.076	4317.16667
1251.359	4384.5
1254.64	4437.5
1257.919	4474.5
1261.195	4533.5
1264.468	4624.16667
1267.74	4688.16667
1271.008	4716.83333
1274.275	4628.16667
1277.538	4633.16667
1280.8	4575.83333
1284.059	4572.16667
1287.315	4622.5
1290.569	4622.5
1293.821	4657.16667
1297.07	4698.5
1300.317	4694.16667
1303.562	4663.16667
1306.803	4640.83333
1310.043	4600.83333
1313.28	4552.5
1316.515	4474.83333
1319.747	4435.16667
1322.977	4385.16667
1326.204	4300.5
1329.429	4246.5
1332.652	4204.5
1335.872	4194.5
1339.09	4184.83333
1342.306	4175.5
1345.519	4172.5
1348.729	4124.83333
1351.938	4125.16667
1355.144	4030.5
1358.347	3992.16667
1361.548	4002.5
1364.747	4017.5
1367.944	4003.16667
1371.138	4004.5
1374.329	4068.83333
1377.518	4125.5
1380.705	4147.16667
1383.89	4099.5
1387.072	4010.5
1390.252	3845.5
1393.429	3711.83333
1396.605	3628.16667
1399.777	3542.5
1402.948	3497.16667
1406.116	3454.5
1409.282	3453.83333
1412.445	3485.83333
1415.606	3509.83333
1418.765	3562.5
1421.921	3634.83333
1425.075	3729.83333
1428.227	3877.16667
1431.376	4034.5
1434.524	4150.16667
1437.668	4291.5
1440.811	4289.83333
1443.951	4316.83333
1447.089	4342.16667
1450.224	4337.83333
1453.357	4331.16667
1456.488	4255.83333
1459.617	4226.83333
1462.743	4183.16667
1465.867	4107.5
1468.989	4059.83333
1472.108	3966.83333
1475.225	3911.16667
1478.34	3866.83333
1481.453	3872.83333
1484.563	3881.5
1487.671	3931.5
1490.776	3975.83333
1493.88	4076.16667
1496.981	4177.83333
1500.08	4272.16667
1503.176	4303.5
1506.271	4401.5
1509.363	4487.16667
1512.452	4505.5
1515.54	4584.16667
1518.625	4716.83333
1521.708	4887.5
1524.789	5132.5
1527.867	5450.16667
1530.944	5807.16667
1534.018	6084.5
1537.089	6294.5
1540.159	6270.83333
1543.226	6153.16667
1546.291	5953.16667
1549.354	5752.83333
1552.415	5535.16667
1555.473	5376.5
1558.529	5258.83333
1561.583	5222.83333
1564.634	5148.5
1567.684	5139.83333
1570.731	5138.16667
1573.776	5159.5
1576.819	5204.16667
1579.859	5225.5
1582.898	5289.5
1585.934	5322.5
1588.968	5349.83333
1591.999	5327.16667
1595.029	5314.83333
1598.056	5362.5
1601.081	5380.16667
1604.104	5346.16667
1607.125	5266.83333
1610.144	5200.83333
1613.16	5017.83333
1616.174	4917.5
1619.186	4760.16667
1622.196	4645.83333
1625.203	4521.5
1628.209	4471.16667
1631.212	4411.83333
1634.213	4376.5
1637.212	4302.16667
1640.209	4221.16667
1643.203	4126.5
1646.196	4001.83333
1649.186	3883.83333
1652.174	3761.16667
1655.16	3618.5
1658.144	3511.83333
1661.125	3367.16667
1664.105	3230.83333
1667.082	3097.16667
1670.057	2907.16667
1673.03	2744.83333
1676.001	2557.16667
1678.97	2390.83333
1681.937	2267.5
1684.901	2134.83333
1687.863	2064.5
1690.824	1988.83333
1693.782	1954.83333
1696.738	1892.83333
1699.692	1839.16667
1702.643	1799.5
1705.593	1775.83333
1708.54	1735.83333
1711.486	1721.5
1714.429	1683.83333
1717.37	1685.16667
1720.309	1651.16667
1723.246	1666.5
1726.181	1615.83333
1729.113	1612.16667
1732.044	1598.5
1734.972	1585.16667
1737.899	1584.16667
1740.823	1565.5
1743.745	1567.16667
1746.665	1507.5
1749.583	1491.16667
1752.499	1475.16667
1755.413	1456.5
1758.325	1411.5
1761.235	1408.5
1764.142	1381.16667
1767.048	1374.83333
1769.951	1353.5
1772.852	1361.16667
1775.752	1369.5
1778.649	1376.83333
1781.544	1351.16667
1784.437	1311.5
1787.328	1323.83333
1790.217	1310.5
1793.104	1286.5
1795.989	1283.83333
1798.872	1272.83333
1801.753	1298.83333
1804.631	1294.83333
1807.508	1291.5
1810.383	1282.83333
1813.255	1257.16667
1816.126	1264.83333
1818.994	1252.5
1821.861	1251.5
1824.725	1248.5
1827.587	1248.16667
1830.448	1236.83333
1833.306	1199.16667
1836.162	1218.83333
1839.017	1215.5
1841.869	1205.16667
1844.719	1202.5
1847.567	1184.5
1850.414	1192.83333
1853.258	1187.5
1856.1	1197.5
1858.94	1215.83333
1861.778	1192.5
1864.614	1178.5
1867.448	1201.83333
1870.28	1173.16667
1873.111	1196.83333
1875.939	1176.5
1878.765	1194.16667
1881.589	1184.16667
1884.411	1180.83333
1887.231	1180.83333
1890.049	1170.5
1892.865	1170.16667
1895.68	1160.16667
1898.492	1158.5
1901.302	1140.83333
1904.11	1142.83333
1906.916	1134.16667
1909.721	1140.5
1912.523	1142.5
1915.323	1104.16667
1918.122	1119.83333
1920.918	1121.83333
1923.712	1131.16667
1926.505	1120.83333
1929.295	1105.16667
1932.084	1123.5
1934.87	1117.16667
1937.655	1104.16667
1940.438	1099.83333
1943.218	1104.83333
1945.997	1092.16667
1948.774	1133.5
1951.549	1122.16667
1954.322	1115.83333
1957.093	1115.83333
1959.862	1097.5
1962.629	1092.5
1965.394	1074.5
1968.157	1089.16667
1970.918	1080.83333
1973.678	1078.83333
1976.435	1080.16667
1979.19	1091.83333
1981.944	1068.5
1984.696	1057.83333
1987.445	1048.5
1990.193	1056.16667
1992.939	1072.5
1995.683	1067.5
1998.425	1036.5
2001.165	1062.83333
2003.903	1055.5
2006.639	1041.5
2009.374	1055.16667
2012.106	1055.83333
2014.837	1023.5
2017.566	1044.83333
2020.292	1047.83333
2023.017	1044.16667
2025.74	1033.83333
2028.461	1025.83333
2031.18	1037.16667
2033.898	1028.5
2036.613	1041.16667
2039.327	1022.5
2042.038	1013.83333
2044.748	1019.83333
2047.456	1022.5
2050.162	1001.83333
2052.866	1004.16667
2055.568	1012.83333
2058.268	1007.83333
2060.967	1016.16667
2063.663	998.16667
2066.358	997.83333
2069.051	992.83333
2071.742	1007.83333
2074.431	998.83333
2077.118	1003.5
2079.804	1001.83333
2082.487	1014.16667
2085.169	1017.5
2087.849	1031.16667
2090.527	1009.5
2093.203	1034.5
2095.877	1040.16667
2098.55	1039.5
2101.22	1052.16667
2103.889	1087.5
2106.556	1082.83333
2109.221	1124.83333
2111.884	1167.16667
2114.546	1250.83333
2117.205	1356.83333
2119.863	1499.16667
2122.519	1611.16667
2125.173	1734.5
2127.825	1851.5
2130.475	1881.16667
2133.124	1826.83333
2135.771	1762.5
2138.416	1664.83333
2141.059	1556.16667
2143.7	1492.5
2146.339	1380.5
2148.977	1312.83333
2151.613	1279.83333
2154.247	1229.16667
2156.879	1202.5
2159.51	1180.5
2162.138	1146.16667
2164.765	1140.83333
2167.39	1123.16667
2170.013	1124.16667
2172.634	1112.5
2175.254	1109.5
2177.872	1117.16667
2180.488	1080.5
2183.102	1092.16667
2185.714	1059.83333
2188.325	1042.5
2190.934	1045.83333
2193.541	1025.5
2196.146	1015.5
2198.75	983.16667
2201.351	990.5
2203.951	967.5
2206.549	972.83333
2209.146	959.5
2211.74	942.5
2214.333	941.5
2216.924	921.5
2219.514	927.16667
2222.101	912.16667
2224.687	927.16667
2227.271	903.5
2229.853	892.83333
2232.433	883.5
2235.012	903.16667
2237.589	906.16667
2240.164	896.5
2242.738	889.16667
2245.309	878.16667
2247.879	884.83333
2250.448	880.5
2253.014	849.16667
2255.579	835.5
2258.142	834.5
2260.703	832.83333
2263.262	821.83333
2265.82	826.16667
2268.376	825.16667
2270.93	825.16667
2273.483	802.83333
2276.033	815.16667
2278.583	799.83333
2281.13	802.16667
2283.675	780.83333
2286.219	816.5
2288.761	800.16667
2291.302	790.83333
2293.841	792.83333
2296.377	778.16667
2298.913	788.16667
2301.446	780.83333
2303.978	774.5
2306.508	770.16667
2309.037	775.5
2311.563	780.16667
2314.088	773.83333
2316.612	748.16667
2319.133	771.16667
2321.653	751.16667
2324.171	750.16667
2326.688	764.16667
2329.202	746.16667
2331.715	762.5
2334.227	743.83333
2336.736	743.16667
2339.244	731.83333
2341.751	721.83333
2344.255	756.83333
2346.758	732.16667
2349.259	730.5
2351.759	740.16667
2354.257	726.83333
2356.753	721.16667
2359.247	730.83333
2361.74	745.5
2364.231	729.83333
2366.721	734.5
2369.209	721.5
2371.695	717.83333
2374.179	726.83333
2376.662	723.83333
2379.143	737.16667
2381.622	712.16667
2384.1	733.83333
2386.576	724.83333
2389.051	733.16667
2391.524	731.16667
2393.995	730.83333
2396.464	714.83333
2398.932	703.83333
2401.398	705.16667
2403.863	708.5
2406.325	705.5
2408.787	704.83333
2411.246	710.83333
2413.704	704.5
2416.16	697.83333
2418.615	705.5
2421.068	710.16667
2423.519	697.83333
2425.969	692.83333
2428.417	712.5
2430.863	727.5
2433.308	704.83333
2435.751	689.83333
2438.193	680.5
2440.633	689.83333
2443.071	683.16667
2445.508	680.5
2447.943	689.83333
2450.376	678.16667
2452.808	686.16667
2455.238	669.83333
2457.667	698.16667
2460.093	681.83333
2462.519	669.16667
2464.942	667.83333
2467.365	689.16667
2469.785	679.83333
2472.204	687.5
2474.621	667.16667
2477.037	691.5
2479.451	669.16667
2481.863	655.16667
2484.274	658.83333
2486.683	678.83333
2489.091	682.83333
2491.497	674.5
2493.901	670.16667
2496.304	668.83333
2498.705	674.16667
2501.105	661.5
2503.503	689.83333
2505.899	657.5
2508.294	683.16667
2510.687	656.83333
2513.079	654.5
2515.469	649.83333
2517.858	659.5
2520.245	667.83333
2522.63	647.16667
2525.014	652.5
2527.396	645.83333
2529.776	652.16667
2532.156	659.16667
2534.533	630.5
2536.909	644.5
2539.283	632.83333
2541.656	636.83333
2544.027	654.16667
2546.397	641.83333
2548.765	651.5
2551.131	637.16667
2553.496	639.83333
2555.86	647.83333
2558.221	640.16667
2560.582	645.83333
2562.94	630.16667
2565.298	630.83333
2567.653	654.83333
2570.007	622.83333
2572.36	651.16667
2574.711	623.83333
2577.06	657.5
2579.408	633.16667
2581.754	646.5
2584.099	633.16667
2586.442	633.16667
2588.784	653.83333
2591.124	648.16667
2593.463	637.83333
2595.8	637.83333
2598.135	620.5
2600.469	628.5
2602.802	647.83333
2605.133	635.16667
2607.462	632.83333
2609.79	625.83333
2612.116	639.83333
2614.441	629.83333
2616.764	632.83333
2619.086	634.83333
2621.406	632.16667
2623.725	656.5
2626.042	650.5
2628.358	626.5
2630.672	625.5
2632.985	649.83333
2635.296	638.16667
2637.606	645.5
2639.914	629.16667
2642.22	641.83333
2644.525	648.5
2646.829	641.83333
2649.131	651.16667
2651.432	661.83333
2653.731	648.83333
2656.028	667.5
2658.324	648.83333
2660.619	642.5
2662.912	663.16667
2665.204	642.16667
2667.494	655.16667
2669.782	638.5
2672.07	660.83333
2674.355	653.83333
2676.639	661.16667
2678.922	654.83333
2681.203	676.83333
2683.483	649.16667
2685.761	645.16667
2688.038	674.83333
2690.313	680.83333
2692.587	653.16667
2694.859	659.83333
2697.13	674.5
2699.399	665.5
2701.667	680.16667
2703.933	694.16667
2706.198	684.16667
2708.461	694.16667
2710.723	693.83333
2712.984	694.5
2715.243	704.83333
2717.5	700.83333
2719.757	716.16667
2722.011	715.5
2724.264	728.16667
2726.516	727.83333
2728.766	717.5
2731.015	719.83333
2733.262	717.83333
2735.508	716.83333
2737.753	714.83333
2739.996	696.16667
2742.237	701.5
2744.477	701.16667
2746.716	706.83333
2748.953	692.5
2751.189	708.83333
2753.423	687.83333
2755.656	683.83333
2757.887	676.83333
2760.117	679.5
2762.346	679.16667
2764.573	677.16667
2766.798	685.16667
2769.022	686.5
2771.245	691.5
2773.467	694.83333
2775.686	704.5
2777.905	703.5
2780.122	701.83333
2782.337	717.83333
2784.552	719.16667
2786.764	727.16667
2788.976	730.16667
2791.186	735.83333
2793.394	737.16667
2795.601	761.5
2797.807	776.5
2800.011	773.83333
2802.214	788.16667
2804.415	798.83333
2806.615	790.83333
2808.814	817.5
2811.011	822.16667
2813.206	818.5
2815.401	838.16667
2817.594	856.16667
2819.785	877.16667
2821.975	867.16667
2824.164	881.83333
2826.351	898.16667
2828.537	918.83333
2830.722	933.16667
2832.905	946.83333
2835.086	981.83333
2837.267	1031.83333
2839.445	1058.16667
2841.623	1091.5
2843.799	1133.5
2845.974	1184.83333
2848.147	1222.5
2850.319	1244.83333
2852.489	1306.16667
2854.659	1306.83333
2856.826	1344.5
2858.993	1354.5
2861.158	1334.83333
2863.321	1342.83333
2865.483	1358.5
2867.644	1376.5
2869.804	1361.83333
2871.962	1357.83333
2874.118	1381.16667
2876.274	1400.83333
2878.428	1390.83333
2880.58	1347.5
2882.731	1343.16667
2884.881	1349.83333
2887.03	1337.16667
2889.177	1346.5
2891.322	1351.5
2893.467	1341.5
2895.61	1349.16667
2897.751	1390.16667
2899.892	1364.5
2902.03	1380.5
2904.168	1379.83333
2906.304	1371.83333
2908.439	1418.5
2910.572	1402.16667
2912.704	1404.5
2914.835	1385.5
2916.965	1390.16667
2919.093	1410.16667
2921.219	1368.5
2923.345	1381.16667
2925.469	1345.16667
2927.591	1341.83333
2929.712	1299.16667
2931.832	1280.5
2933.951	1265.16667
2936.068	1233.16667
2938.184	1196.83333
2940.299	1145.16667
2942.412	1131.5
2944.524	1081.5
2946.634	1056.5
2948.744	998.16667
2950.851	1016.16667
2952.958	963.16667
2955.063	952.5
2957.167	922.16667
2959.269	874.83333
2961.371	902.16667
2963.471	860.83333
2965.569	874.83333
2967.666	817.5
2969.762	805.83333
2971.857	783.16667
2973.95	752.5
2976.042	750.5
2978.133	727.5
2980.222	716.5
2982.31	686.83333
2984.396	658.5
2986.482	669.16667
2988.566	660.83333
2990.648	644.16667
2992.73	636.83333
2994.81	634.5
2996.889	624.16667
2998.966	627.5
3001.042	628.5
3003.117	608.16667
3005.191	614.5
3007.263	599.16667
3009.334	586.83333
3011.403	594.83333
3013.472	560.5
3015.539	571.16667
3017.604	574.83333
3019.669	538.16667
3021.732	533.83333
3023.794	544.5
3025.854	521.83333
3027.914	525.16667
3029.971	531.5
3032.028	514.83333
3034.083	531.5
3036.137	515.83333
3038.19	483.5
3040.242	488.5
3042.292	476.16667
3044.341	464.5
3046.388	485.5
3048.435	449.16667
3050.48	473.16667
3052.524	466.16667
3054.566	434.83333
3056.607	457.16667
3058.647	436.83333
3060.686	420.83333
3062.723	408.83333
3064.759	403.16667
3066.794	-0.5
3068.828	-0.83333
3070.86	-1.5
