-0.839	371.125
3.438	406.45833
7.711	118.125
11.981	52.125
16.247	44.79167
20.509	40.79167
24.768	44.45833
29.024	48.79167
33.276	43.125
37.524	51.79167
41.769	41.79167
46.01	36.125
50.247	51.79167
54.481	62.125
58.712	65.45833
62.939	47.79167
67.162	60.125
71.382	55.45833
75.599	48.45833
79.812	63.125
84.021	82.125
88.227	55.45833
92.429	63.125
96.628	47.125
100.823	69.79167
105.015	75.125
109.204	79.79167
113.388	76.45833
117.57	71.79167
121.748	89.79167
125.922	77.125
130.093	95.79167
134.261	103.79167
138.425	97.125
142.585	140.125
146.742	136.125
150.896	154.45833
155.046	181.79167
159.193	296.79167
163.336	497.125
167.476	915.79167
171.613	1670.79167
175.746	2797.79167
179.875	4183.79167
184.002	5493.125
188.124	6436.79167
192.244	6806.45833
196.36	6803.45833
200.472	6651.45833
204.581	6556.79167
208.687	6452.79167
212.79	6448.45833
216.889	6537.79167
220.984	6619.45833
225.077	6743.45833
229.165	6899.125
233.251	6999.45833
237.333	7110.79167
241.412	7100.79167
245.487	7118.125
249.559	7042.45833
253.628	6971.45833
257.694	6946.45833
261.756	6919.45833
265.814	6787.79167
269.87	6585.79167
273.922	6382.79167
277.97	6301.125
282.016	6190.45833
286.058	6147.125
290.097	6235.125
294.132	6210.79167
298.164	6115.79167
302.193	5794.45833
306.219	5375.45833
310.241	4888.79167
314.26	4446.125
318.276	4105.45833
322.288	3833.79167
326.297	3587.125
330.303	3453.79167
334.305	3322.79167
338.305	3248.79167
342.301	3202.45833
346.294	3149.125
350.283	3135.45833
354.269	3089.79167
358.252	3061.45833
362.232	3028.79167
366.209	3021.125
370.182	2989.45833
374.152	2961.79167
378.119	2970.45833
382.083	2952.45833
386.043	2991.125
390	2913.79167
393.954	2916.45833
397.905	2901.79167
401.852	2881.79167
405.797	2849.125
409.738	2805.45833
413.676	2803.45833
417.61	2812.79167
421.542	2795.125
425.47	2756.79167
429.396	2731.79167
433.318	2725.79167
437.236	2716.125
441.152	2722.125
445.065	2661.79167
448.974	2648.125
452.88	2624.45833
456.783	2593.79167
460.683	2615.125
464.58	2613.79167
468.473	2621.45833
472.364	2629.45833
476.251	2645.125
480.135	2668.79167
484.016	2683.45833
487.894	2683.79167
491.769	2698.45833
495.641	2699.45833
499.509	2680.45833
503.375	2699.125
507.237	2692.79167
511.096	2692.45833
514.952	2743.125
518.805	2817.125
522.655	2829.45833
526.502	2705.45833
530.346	2669.45833
534.187	2690.79167
538.024	2706.79167
541.859	2687.125
545.69	2715.45833
549.519	2700.125
553.344	2674.45833
557.166	2644.45833
560.985	2590.79167
564.802	2584.45833
568.615	2543.79167
572.425	2506.79167
576.232	2475.79167
580.036	2475.125
583.836	2502.45833
587.634	2483.79167
591.429	2500.45833
595.221	2527.79167
599.01	2566.45833
602.796	2592.45833
606.578	2617.125
610.358	2630.125
614.135	2617.45833
617.909	2601.125
621.679	2579.125
625.447	2569.79167
629.212	2581.79167
632.973	2578.45833
636.732	2560.45833
640.488	2565.125
644.241	2520.79167
647.991	2529.79167
651.737	2547.125
655.481	2520.125
659.222	2560.125
662.96	2545.45833
666.695	2555.79167
670.427	2562.79167
674.156	2594.45833
677.882	2577.79167
681.605	2540.125
685.325	2544.79167
689.043	2545.45833
692.757	2499.125
696.468	2527.125
700.177	2535.125
703.882	2525.125
707.585	2505.45833
711.284	2505.79167
714.981	2529.125
718.675	2545.45833
722.366	2539.125
726.054	2521.79167
729.739	2522.45833
733.421	2503.45833
737.1	2512.125
740.777	2535.79167
744.45	2541.79167
748.121	2558.79167
751.789	2620.79167
755.453	2610.79167
759.115	2634.125
762.774	2627.45833
766.431	2698.125
770.084	2684.45833
773.734	2742.79167
777.382	2780.45833
781.027	2810.79167
784.669	2802.45833
788.308	2829.125
791.944	2871.45833
795.577	2885.45833
799.208	2904.45833
802.835	2937.125
806.46	2944.125
810.082	2974.125
813.701	2986.45833
817.317	3001.125
820.931	2997.125
824.542	3010.79167
828.149	2981.125
831.754	2924.45833
835.357	2910.125
838.956	2920.45833
842.553	2915.45833
846.146	2875.79167
849.737	2860.79167
853.326	2893.125
856.911	2882.79167
860.493	2932.45833
864.073	2956.45833
867.65	2981.45833
871.225	3013.125
874.796	3028.79167
878.365	3028.125
881.931	3049.79167
885.494	3086.125
889.054	3086.125
892.612	3079.79167
896.166	3045.125
899.719	3026.45833
903.268	2976.45833
906.814	2979.79167
910.358	2963.125
913.899	2936.45833
917.438	2952.79167
920.973	2955.45833
924.506	2997.79167
928.036	3036.125
931.564	3054.45833
935.088	3118.45833
938.61	3098.79167
942.129	3125.79167
945.646	3213.79167
949.16	3307.45833
952.671	3377.79167
956.179	3406.45833
959.685	3380.45833
963.188	3380.45833
966.688	3327.45833
970.185	3232.125
973.68	3171.79167
977.173	3102.45833
980.662	3085.125
984.149	3084.125
987.633	3047.79167
991.114	3134.45833
994.593	3192.45833
998.069	3273.45833
1001.542	3394.79167
1005.013	3293.125
1008.481	3108.125
1011.947	3063.125
1015.409	3053.125
1018.869	3052.45833
1022.327	3068.79167
1025.782	3044.79167
1029.234	3036.125
1032.683	3004.125
1036.13	2898.125
1039.574	2798.79167
1043.016	2751.79167
1046.455	2693.45833
1049.891	2659.125
1053.325	2648.125
1056.756	2658.125
1060.184	2699.79167
1063.61	2698.45833
1067.033	2715.125
1070.454	2677.45833
1073.872	2730.79167
1077.287	2731.45833
1080.7	2742.125
1084.11	2747.125
1087.517	2731.125
1090.922	2716.79167
1094.325	2679.125
1097.724	2640.45833
1101.122	2651.125
1104.516	2642.125
1107.908	2641.125
1111.298	2682.45833
1114.684	2698.79167
1118.069	2723.125
1121.45	2780.79167
1124.83	2747.125
1128.206	2760.79167
1131.58	2837.125
1134.951	2906.45833
1138.32	2977.45833
1141.687	3110.79167
1145.05	3180.79167
1148.412	3211.125
1151.77	3178.45833
1155.126	3192.79167
1158.48	3186.79167
1161.831	3240.125
1165.18	3259.45833
1168.525	3284.125
1171.869	3332.45833
1175.21	3354.45833
1178.548	3415.45833
1181.884	3442.45833
1185.217	3461.45833
1188.548	3552.125
1191.877	3596.45833
1195.202	3698.125
1198.526	3751.79167
1201.846	3790.45833
1205.165	3760.79167
1208.48	3749.45833
1211.794	3696.79167
1215.104	3715.79167
1218.413	3734.45833
1221.719	3715.45833
1225.022	3677.125
1228.323	3658.45833
1231.621	3617.79167
1234.917	3595.45833
1238.21	3623.125
1241.501	3597.125
1244.79	3594.125
1248.076	3608.79167
1251.359	3627.45833
1254.64	3708.125
1257.919	3724.125
1261.195	3813.45833
1264.468	3840.125
1267.74	3881.45833
1271.008	3920.79167
1274.275	3889.79167
1277.538	3852.79167
1280.8	3836.45833
1284.059	3855.125
1287.315	3901.45833
1290.569	3929.125
1293.821	3950.79167
1297.07	3929.125
1300.317	3963.79167
1303.562	3923.45833
1306.803	3907.79167
1310.043	3877.125
1313.28	3854.125
1316.515	3792.79167
1319.747	3761.79167
1322.977	3695.125
1326.204	3666.45833
1329.429	3622.125
1332.652	3603.79167
1335.872	3604.79167
1339.09	3565.125
1342.306	3565.125
1345.519	3541.45833
1348.729	3505.125
1351.938	3491.79167
1355.144	3433.79167
1358.347	3410.45833
1361.548	3380.125
1364.747	3385.125
1367.944	3370.45833
1371.138	3409.45833
1374.329	3419.79167
1377.518	3456.45833
1380.705	3485.79167
1383.89	3452.79167
1387.072	3359.125
1390.252	3222.79167
1393.429	3116.45833
1396.605	3039.125
1399.777	2952.125
1402.948	2914.79167
1406.116	2887.79167
1409.282	2889.45833
1412.445	2900.125
1415.606	2933.125
1418.765	2967.125
1421.921	3053.45833
1425.075	3108.45833
1428.227	3213.45833
1431.376	3378.125
1434.524	3502.45833
1437.668	3571.79167
1440.811	3601.125
1443.951	3619.79167
1447.089	3626.79167
1450.224	3621.125
1453.357	3611.45833
1456.488	3566.79167
1459.617	3545.45833
1462.743	3465.45833
1465.867	3380.79167
1468.989	3377.125
1472.108	3340.79167
1475.225	3265.79167
1478.34	3247.45833
1481.453	3240.79167
1484.563	3262.125
1487.671	3293.79167
1490.776	3317.125
1493.88	3397.79167
1496.981	3488.45833
1500.08	3526.79167
1503.176	3582.125
1506.271	3640.45833
1509.363	3689.45833
1512.452	3742.125
1515.54	3816.45833
1518.625	3918.45833
1521.708	4052.45833
1524.789	4242.125
1527.867	4467.125
1530.944	4692.79167
1534.018	4944.45833
1537.089	5055.125
1540.159	5084.125
1543.226	4969.45833
1546.291	4827.45833
1549.354	4697.79167
1552.415	4539.125
1555.473	4405.45833
1558.529	4350.79167
1561.583	4276.45833
1564.634	4247.79167
1567.684	4241.125
1570.731	4237.125
1573.776	4317.125
1576.819	4329.45833
1579.859	4370.125
1582.898	4438.45833
1585.934	4467.79167
1588.968	4448.45833
1591.999	4464.125
1595.029	4445.45833
1598.056	4463.45833
1601.081	4484.125
1604.104	4458.125
1607.125	4430.45833
1610.144	4319.125
1613.16	4186.45833
1616.174	4076.45833
1619.186	4002.125
1622.196	3896.125
1625.203	3815.125
1628.209	3741.45833
1631.212	3732.79167
1634.213	3723.45833
1637.212	3712.79167
1640.209	3660.125
1643.203	3572.45833
1646.196	3451.79167
1649.186	3314.125
1652.174	3212.125
1655.16	3114.79167
1658.144	3015.45833
1661.125	2850.125
1664.105	2699.79167
1667.082	2602.125
1670.057	2454.79167
1673.03	2295.45833
1676.001	2163.125
1678.97	2000.79167
1681.937	1898.79167
1684.901	1795.45833
1687.863	1748.45833
1690.824	1678.125
1693.782	1640.79167
1696.738	1571.125
1699.692	1557.45833
1702.643	1510.45833
1705.593	1489.125
1708.54	1470.45833
1711.486	1465.79167
1714.429	1417.45833
1717.37	1426.125
1720.309	1403.125
1723.246	1400.79167
1726.181	1379.125
1729.113	1368.79167
1732.044	1357.45833
1734.972	1350.79167
1737.899	1348.125
1740.823	1335.79167
1743.745	1345.45833
1746.665	1266.79167
1749.583	1262.45833
1752.499	1259.79167
1755.413	1238.79167
1758.325	1199.125
1761.235	1196.79167
1764.142	1189.79167
1767.048	1169.79167
1769.951	1172.79167
1772.852	1152.125
1775.752	1148.79167
1778.649	1150.125
1781.544	1139.79167
1784.437	1124.45833
1787.328	1125.125
1790.217	1109.125
1793.104	1104.79167
1795.989	1095.125
1798.872	1086.45833
1801.753	1101.125
1804.631	1099.125
1807.508	1102.125
1810.383	1093.79167
1813.255	1085.45833
1816.126	1073.45833
1818.994	1082.125
1821.861	1060.45833
1824.725	1056.125
1827.587	1062.79167
1830.448	1054.79167
1833.306	1029.45833
1836.162	1051.125
1839.017	1038.125
1841.869	1034.45833
1844.719	1023.79167
1847.567	1010.45833
1850.414	1012.45833
1853.258	1013.79167
1856.1	1030.79167
1858.94	1029.45833
1861.778	1021.45833
1864.614	1010.125
1867.448	1021.125
1870.28	1010.79167
1873.111	1026.79167
1875.939	1003.45833
1878.765	1027.125
1881.589	1002.125
1884.411	1005.125
1887.231	996.125
1890.049	999.79167
1892.865	1005.45833
1895.68	991.125
1898.492	983.45833
1901.302	996.45833
1904.11	982.125
1906.916	967.79167
1909.721	969.125
1912.523	978.45833
1915.323	964.125
1918.122	956.125
1920.918	961.79167
1923.712	945.79167
1926.505	957.79167
1929.295	946.79167
1932.084	957.45833
1934.87	964.79167
1937.655	936.45833
1940.438	928.45833
1943.218	949.125
1945.997	952.125
1948.774	966.79167
1951.549	953.79167
1954.322	920.45833
1957.093	951.45833
1959.862	930.125
1962.629	917.125
1965.394	929.45833
1968.157	913.79167
1970.918	919.79167
1973.678	912.79167
1976.435	922.125
1979.19	905.125
1981.944	900.125
1984.696	905.125
1987.445	892.45833
1990.193	901.79167
1992.939	917.125
1995.683	903.125
1998.425	873.45833
2001.165	914.79167
2003.903	893.79167
2006.639	885.45833
2009.374	881.45833
2012.106	888.79167
2014.837	862.125
2017.566	892.45833
2020.292	877.125
2023.017	876.79167
2025.74	880.125
2028.461	865.45833
2031.18	877.45833
2033.898	868.45833
2036.613	875.79167
2039.327	878.45833
2042.038	860.79167
2044.748	858.79167
2047.456	867.79167
2050.162	837.45833
2052.866	849.45833
2055.568	850.45833
2058.268	837.45833
2060.967	861.125
2063.663	839.45833
2066.358	862.79167
2069.051	840.125
2071.742	856.125
2074.431	856.45833
2077.118	847.45833
2079.804	834.79167
2082.487	852.125
2085.169	861.45833
2087.849	860.125
2090.527	844.79167
2093.203	859.125
2095.877	859.125
2098.55	867.125
2101.22	889.125
2103.889	887.125
2106.556	882.125
2109.221	923.125
2111.884	940.79167
2114.546	998.45833
2117.205	1048.125
2119.863	1130.45833
2122.519	1208.45833
2125.173	1288.79167
2127.825	1360.125
2130.475	1374.79167
2133.124	1349.79167
2135.771	1306.45833
2138.416	1246.45833
2141.059	1192.125
2143.7	1141.125
2146.339	1075.125
2148.977	1022.79167
2151.613	1012.45833
2154.247	976.45833
2156.879	962.45833
2159.51	945.45833
2162.138	917.79167
2164.765	927.45833
2167.39	897.45833
2170.013	910.79167
2172.634	891.79167
2175.254	901.125
2177.872	914.45833
2180.488	866.79167
2183.102	886.79167
2185.714	860.125
2188.325	834.45833
2190.934	849.79167
2193.541	847.79167
2196.146	819.125
2198.75	797.125
2201.351	807.125
2203.951	774.125
2206.549	789.45833
2209.146	779.125
2211.74	782.79167
2214.333	784.125
2216.924	761.45833
2219.514	775.79167
2222.101	751.45833
2224.687	770.125
2227.271	749.45833
2229.853	743.45833
2232.433	732.79167
2235.012	755.125
2237.589	745.125
2240.164	756.45833
2242.738	740.79167
2245.309	725.125
2247.879	743.125
2250.448	749.125
2253.014	708.45833
2255.579	696.79167
2258.142	712.125
2260.703	697.45833
2263.262	707.45833
2265.82	694.125
2268.376	696.79167
2270.93	680.79167
2273.483	683.125
2276.033	682.125
2278.583	679.79167
2281.13	680.79167
2283.675	665.45833
2286.219	679.45833
2288.761	671.45833
2291.302	677.79167
2293.841	679.79167
2296.377	652.79167
2298.913	666.45833
2301.446	675.125
2303.978	655.125
2306.508	642.45833
2309.037	650.79167
2311.563	662.45833
2314.088	660.45833
2316.612	642.45833
2319.133	648.79167
2321.653	645.125
2324.171	633.79167
2326.688	654.125
2329.202	637.45833
2331.715	638.125
2334.227	632.125
2336.736	628.79167
2339.244	633.125
2341.751	618.125
2344.255	636.79167
2346.758	622.125
2349.259	614.125
2351.759	619.79167
2354.257	610.125
2356.753	620.79167
2359.247	623.79167
2361.74	625.45833
2364.231	613.79167
2366.721	618.125
2369.209	616.125
2371.695	619.125
2374.179	615.45833
2376.662	607.45833
2379.143	627.79167
2381.622	608.79167
2384.1	618.45833
2386.576	604.79167
2389.051	603.79167
2391.524	624.45833
2393.995	630.45833
2396.464	601.125
2398.932	607.125
2401.398	603.45833
2403.863	598.45833
2406.325	595.79167
2408.787	602.45833
2411.246	589.125
2413.704	599.79167
2416.16	586.79167
2418.615	592.45833
2421.068	601.45833
2423.519	590.45833
2425.969	589.125
2428.417	599.125
2430.863	614.79167
2433.308	612.45833
2435.751	586.125
2438.193	588.79167
2440.633	603.125
2443.071	593.79167
2445.508	574.125
2447.943	586.125
2450.376	578.45833
2452.808	593.45833
2455.238	575.79167
2457.667	606.79167
2460.093	591.125
2462.519	576.79167
2464.942	584.45833
2467.365	586.79167
2469.785	583.125
2472.204	576.125
2474.621	561.79167
2477.037	590.79167
2479.451	564.125
2481.863	573.45833
2484.274	566.45833
2486.683	575.45833
2489.091	568.125
2491.497	576.79167
2493.901	582.79167
2496.304	574.125
2498.705	569.125
2501.105	567.125
2503.503	592.79167
2505.899	564.125
2508.294	581.125
2510.687	558.45833
2513.079	559.125
2515.469	557.79167
2517.858	554.79167
2520.245	578.125
2522.63	560.125
2525.014	553.45833
2527.396	544.79167
2529.776	546.125
2532.156	565.125
2534.533	539.79167
2536.909	550.125
2539.283	544.45833
2541.656	551.79167
2544.027	573.45833
2546.397	558.45833
2548.765	553.79167
2551.131	545.125
2553.496	554.79167
2555.86	559.45833
2558.221	548.45833
2560.582	543.79167
2562.94	540.79167
2565.298	563.79167
2567.653	567.79167
2570.007	532.125
2572.36	555.125
2574.711	551.79167
2577.06	570.125
2579.408	557.125
2581.754	546.125
2584.099	556.79167
2586.442	549.45833
2588.784	552.45833
2591.124	560.45833
2593.463	550.79167
2595.8	549.125
2598.135	532.45833
2600.469	545.125
2602.802	565.125
2605.133	568.79167
2607.462	539.79167
2609.79	544.45833
2612.116	547.125
2614.441	551.125
2616.764	550.125
2619.086	546.125
2621.406	544.79167
2623.725	560.45833
2626.042	559.45833
2628.358	555.45833
2630.672	546.125
2632.985	554.79167
2635.296	555.45833
2637.606	556.79167
2639.914	546.125
2642.22	559.79167
2644.525	553.79167
2646.829	560.125
2649.131	565.125
2651.432	564.79167
2653.731	560.79167
2656.028	579.45833
2658.324	558.79167
2660.619	559.125
2662.912	586.125
2665.204	553.125
2667.494	574.79167
2669.782	553.79167
2672.07	569.45833
2674.355	571.79167
2676.639	564.125
2678.922	560.45833
2681.203	573.79167
2683.483	553.45833
2685.761	550.45833
2688.038	570.45833
2690.313	582.125
2692.587	567.45833
2694.859	578.79167
2697.13	590.79167
2699.399	585.79167
2701.667	588.79167
2703.933	593.45833
2706.198	583.79167
2708.461	601.45833
2710.723	600.79167
2712.984	596.125
2715.243	609.79167
2717.5	600.79167
2719.757	622.45833
2722.011	611.125
2724.264	621.125
2726.516	641.79167
2728.766	625.79167
2731.015	624.45833
2733.262	617.125
2735.508	620.79167
2737.753	617.125
2739.996	602.125
2742.237	603.45833
2744.477	614.79167
2746.716	606.45833
2748.953	599.125
2751.189	619.125
2753.423	605.79167
2755.656	593.45833
2757.887	584.45833
2760.117	607.45833
2762.346	588.45833
2764.573	580.79167
2766.798	584.125
2769.022	596.45833
2771.245	594.45833
2773.467	602.125
2775.686	610.45833
2777.905	608.79167
2780.122	607.45833
2782.337	628.79167
2784.552	619.79167
2786.764	631.125
2788.976	630.125
2791.186	644.45833
2793.394	641.45833
2795.601	652.125
2797.807	665.125
2800.011	665.45833
2802.214	684.45833
2804.415	691.79167
2806.615	682.125
2808.814	695.125
2811.011	697.79167
2813.206	690.45833
2815.401	714.125
2817.594	733.79167
2819.785	739.45833
2821.975	725.125
2824.164	740.45833
2826.351	771.79167
2828.537	780.45833
2830.722	793.79167
2832.905	794.45833
2835.086	827.45833
2837.267	872.125
2839.445	887.45833
2841.623	910.45833
2843.799	945.79167
2845.974	982.125
2848.147	1014.125
2850.319	1024.125
2852.489	1065.125
2854.659	1082.45833
2856.826	1098.79167
2858.993	1122.45833
2861.158	1102.79167
2863.321	1104.125
2865.483	1132.45833
2867.644	1137.45833
2869.804	1122.125
2871.962	1127.79167
2874.118	1130.79167
2876.274	1128.79167
2878.428	1109.125
2880.58	1099.45833
2882.731	1094.45833
2884.881	1101.45833
2887.03	1098.79167
2889.177	1103.45833
2891.322	1116.125
2893.467	1113.79167
2895.61	1117.125
2897.751	1146.125
2899.892	1125.79167
2902.03	1144.79167
2904.168	1146.125
2906.304	1132.79167
2908.439	1180.125
2910.572	1145.45833
2912.704	1173.45833
2914.835	1170.45833
2916.965	1163.79167
2919.093	1166.45833
2921.219	1128.125
2923.345	1158.79167
2925.469	1134.79167
2927.591	1133.45833
2929.712	1084.45833
2931.832	1081.45833
2933.951	1037.45833
2936.068	1029.125
2938.184	1005.45833
2940.299	971.45833
2942.412	946.125
2944.524	906.125
2946.634	911.45833
2948.744	847.45833
2950.851	869.79167
2952.958	813.79167
2955.063	817.45833
2957.167	798.45833
2959.269	763.45833
2961.371	797.45833
2963.471	743.125
2965.569	740.125
2967.666	708.45833
2969.762	701.45833
2971.857	689.79167
2973.95	650.79167
2976.042	659.125
2978.133	640.45833
2980.222	632.79167
2982.31	590.79167
2984.396	591.125
2986.482	589.125
2988.566	588.45833
2990.648	576.125
2992.73	568.125
2994.81	552.125
2996.889	575.125
2998.966	556.79167
3001.042	550.79167
3003.117	542.79167
3005.191	563.45833
3007.263	543.45833
3009.334	536.45833
3011.403	528.45833
3013.472	510.125
3015.539	511.45833
3017.604	526.45833
3019.669	495.45833
3021.732	494.79167
3023.794	489.45833
3025.854	480.79167
3027.914	481.125
3029.971	486.45833
3032.028	474.79167
3034.083	485.45833
3036.137	475.45833
3038.19	456.45833
3040.242	445.45833
3042.292	435.125
3044.341	428.125
3046.388	445.45833
3048.435	412.79167
3050.48	427.45833
3052.524	431.125
3054.566	418.125
3056.607	422.79167
3058.647	408.125
3060.686	393.45833
3062.723	378.125
3064.759	365.79167
3066.794	-0.54167
3068.828	-3.20833
3070.86	-2.20833
