-0.839	139.79167
3.438	162.79167
7.711	69.79167
11.981	45.79167
16.247	33.45833
20.509	38.79167
24.768	38.79167
29.024	42.79167
33.276	32.125
37.524	39.79167
41.769	32.45833
46.01	28.125
50.247	46.125
54.481	51.125
58.712	53.45833
62.939	37.45833
67.162	51.45833
71.382	47.45833
75.599	37.79167
79.812	41.45833
84.021	66.125
88.227	41.79167
92.429	52.125
96.628	42.45833
100.823	53.79167
105.015	52.79167
109.204	48.79167
113.388	55.79167
117.57	45.45833
121.748	63.125
125.922	50.79167
130.093	63.79167
134.261	63.125
138.425	52.125
142.585	82.45833
146.742	65.125
150.896	81.45833
155.046	75.79167
159.193	115.125
163.336	169.45833
167.476	281.45833
171.613	511.45833
175.746	822.79167
179.875	1207.79167
184.002	1556.79167
188.124	1837.125
192.244	1935.79167
196.36	1940.125
200.472	1940.45833
204.581	1914.125
208.687	1854.45833
212.79	1868.79167
216.889	1895.79167
220.984	1904.45833
225.077	1902.79167
229.165	1919.125
233.251	1911.45833
237.333	1923.125
241.412	1900.45833
245.487	1883.45833
249.559	1871.125
253.628	1871.79167
257.694	1832.79167
261.756	1834.125
265.814	1789.79167
269.87	1744.125
273.922	1706.125
277.97	1681.79167
282.016	1665.125
286.058	1634.125
290.097	1660.125
294.132	1665.79167
298.164	1646.79167
302.193	1601.45833
306.219	1505.45833
310.241	1419.125
314.26	1324.45833
318.276	1267.45833
322.288	1237.45833
326.297	1197.125
330.303	1176.45833
334.305	1165.79167
338.305	1162.125
342.301	1152.79167
346.294	1150.45833
350.283	1135.79167
354.269	1126.79167
358.252	1121.45833
362.232	1137.45833
366.209	1122.125
370.182	1112.45833
374.152	1131.45833
378.119	1121.79167
382.083	1124.45833
386.043	1139.45833
390	1116.45833
393.954	1121.79167
397.905	1127.125
401.852	1140.125
405.797	1118.45833
409.738	1110.79167
413.676	1139.79167
417.61	1136.79167
421.542	1113.125
425.47	1094.45833
429.396	1092.125
433.318	1077.79167
437.236	1075.45833
441.152	1113.45833
445.065	1061.125
448.974	1088.45833
452.88	1066.125
456.783	1060.79167
460.683	1059.45833
464.58	1064.125
468.473	1079.45833
472.364	1080.79167
476.251	1071.125
480.135	1067.79167
484.016	1096.79167
487.894	1087.79167
491.769	1093.79167
495.641	1080.45833
499.509	1080.79167
503.375	1085.79167
507.237	1083.125
511.096	1080.45833
514.952	1079.125
518.805	1084.125
522.655	1076.45833
526.502	1076.45833
530.346	1089.125
534.187	1079.45833
538.024	1074.45833
541.859	1064.45833
545.69	1089.45833
549.519	1076.125
553.344	1078.45833
557.166	1060.45833
560.985	1058.45833
564.802	1047.45833
568.615	1041.45833
572.425	1017.125
576.232	1014.125
580.036	1031.79167
583.836	1039.125
587.634	1046.125
591.429	1015.45833
595.221	1053.45833
599.01	1051.45833
602.796	1040.45833
606.578	1048.125
610.358	1053.125
614.135	1048.79167
617.909	1043.125
621.679	1040.45833
625.447	1025.79167
629.212	1041.45833
632.973	1046.45833
636.732	1036.79167
640.488	1032.79167
644.241	1022.45833
647.991	1002.79167
651.737	1036.79167
655.481	1005.45833
659.222	1025.45833
662.96	1016.45833
666.695	1025.45833
670.427	1017.125
674.156	1040.125
677.882	1033.45833
681.605	1023.125
685.325	1007.45833
689.043	1028.45833
692.757	1017.45833
696.468	1014.79167
700.177	1009.45833
703.882	1008.79167
707.585	986.45833
711.284	994.125
714.981	972.125
718.675	984.125
722.366	993.79167
726.054	965.45833
729.739	982.45833
733.421	967.79167
737.1	982.45833
740.777	1002.125
744.45	991.125
748.121	996.79167
751.789	1008.79167
755.453	1001.45833
759.115	1018.45833
762.774	1008.125
766.431	1004.79167
770.084	1022.79167
773.734	999.45833
777.382	1033.79167
781.027	1039.125
784.669	1020.125
788.308	1026.79167
791.944	1029.79167
795.577	1046.45833
799.208	1045.125
802.835	1039.125
806.46	1053.79167
810.082	1061.125
813.701	1060.125
817.317	1078.125
820.931	1076.45833
824.542	1073.125
828.149	1045.79167
831.754	1038.45833
835.357	1027.125
838.956	1032.125
842.553	1038.79167
846.146	1030.79167
849.737	1001.45833
853.326	1003.45833
856.911	982.79167
860.493	1025.125
864.073	1015.79167
867.65	1042.79167
871.225	1052.79167
874.796	1036.45833
878.365	1036.45833
881.931	1031.45833
885.494	1048.125
889.054	1029.79167
892.612	1038.125
896.166	1025.79167
899.719	1010.79167
903.268	991.79167
906.814	1002.125
910.358	999.45833
913.899	979.45833
917.438	987.79167
920.973	954.79167
924.506	977.45833
928.036	1006.79167
931.564	1017.79167
935.088	1028.125
938.61	1004.45833
942.129	1009.79167
945.646	1020.125
949.16	1029.125
952.671	1048.125
956.179	1048.45833
959.685	1045.79167
963.188	1081.79167
966.688	1045.79167
970.185	1025.45833
973.68	990.45833
977.173	985.79167
980.662	975.79167
984.149	989.45833
987.633	974.45833
991.114	1000.45833
994.593	1000.125
998.069	1006.45833
1001.542	1027.125
1005.013	1029.79167
1008.481	974.125
1011.947	950.79167
1015.409	941.79167
1018.869	957.125
1022.327	957.45833
1025.782	940.45833
1029.234	918.125
1032.683	926.45833
1036.13	901.125
1039.574	866.45833
1043.016	856.79167
1046.455	843.125
1049.891	833.79167
1053.325	844.79167
1056.756	828.79167
1060.184	842.125
1063.61	825.125
1067.033	841.125
1070.454	843.45833
1073.872	846.125
1077.287	833.125
1080.7	830.125
1084.11	846.45833
1087.517	833.125
1090.922	830.45833
1094.325	812.125
1097.724	804.45833
1101.122	793.45833
1104.516	804.79167
1107.908	780.125
1111.298	799.45833
1114.684	816.79167
1118.069	806.79167
1121.45	826.79167
1124.83	818.79167
1128.206	830.125
1131.58	833.45833
1134.951	863.125
1138.32	855.125
1141.687	889.79167
1145.05	899.79167
1148.412	911.125
1151.77	905.45833
1155.126	902.125
1158.48	888.125
1161.831	887.45833
1165.18	898.125
1168.525	910.79167
1171.869	924.45833
1175.21	915.125
1178.548	934.45833
1181.884	940.79167
1185.217	928.79167
1188.548	973.79167
1191.877	973.45833
1195.202	1028.125
1198.526	1032.79167
1201.846	1013.45833
1205.165	1030.79167
1208.48	1031.45833
1211.794	1032.125
1215.104	1041.79167
1218.413	1019.79167
1221.719	1023.125
1225.022	994.79167
1228.323	985.125
1231.621	984.125
1234.917	974.125
1238.21	995.45833
1241.501	987.45833
1244.79	976.125
1248.076	974.125
1251.359	985.45833
1254.64	1016.45833
1257.919	1003.79167
1261.195	1005.45833
1264.468	1029.79167
1267.74	1032.45833
1271.008	1028.125
1274.275	1031.125
1277.538	1023.125
1280.8	1029.79167
1284.059	1030.45833
1287.315	1035.125
1290.569	1025.45833
1293.821	1032.79167
1297.07	1046.125
1300.317	1039.45833
1303.562	1037.45833
1306.803	1046.79167
1310.043	1041.125
1313.28	1044.45833
1316.515	1022.79167
1319.747	1036.125
1322.977	1017.79167
1326.204	1019.79167
1329.429	998.79167
1332.652	1013.79167
1335.872	1006.79167
1339.09	994.125
1342.306	995.79167
1345.519	989.45833
1348.729	978.125
1351.938	978.45833
1355.144	969.79167
1358.347	960.79167
1361.548	964.45833
1364.747	958.125
1367.944	951.125
1371.138	946.79167
1374.329	940.79167
1377.518	945.79167
1380.705	949.125
1383.89	946.79167
1387.072	902.79167
1390.252	891.125
1393.429	866.79167
1396.605	849.79167
1399.777	802.79167
1402.948	813.125
1406.116	803.45833
1409.282	805.79167
1412.445	789.79167
1415.606	829.125
1418.765	807.45833
1421.921	835.125
1425.075	833.125
1428.227	849.45833
1431.376	882.79167
1434.524	922.79167
1437.668	940.125
1440.811	932.45833
1443.951	949.125
1447.089	957.45833
1450.224	947.45833
1453.357	940.79167
1456.488	938.125
1459.617	929.45833
1462.743	907.125
1465.867	877.79167
1468.989	895.125
1472.108	878.125
1475.225	853.79167
1478.34	854.125
1481.453	840.79167
1484.563	831.79167
1487.671	853.79167
1490.776	874.79167
1493.88	863.79167
1496.981	886.125
1500.08	894.125
1503.176	890.79167
1506.271	895.125
1509.363	910.45833
1512.452	922.45833
1515.54	927.45833
1518.625	926.125
1521.708	971.125
1524.789	1003.79167
1527.867	1026.125
1530.944	1059.45833
1534.018	1092.79167
1537.089	1134.125
1540.159	1137.79167
1543.226	1143.125
1546.291	1129.45833
1549.354	1097.79167
1552.415	1083.125
1555.473	1053.45833
1558.529	1052.125
1561.583	1034.79167
1564.634	1017.45833
1567.684	1017.79167
1570.731	1022.125
1573.776	1026.79167
1576.819	1037.45833
1579.859	1048.79167
1582.898	1067.45833
1585.934	1069.125
1588.968	1083.45833
1591.999	1049.79167
1595.029	1065.79167
1598.056	1069.125
1601.081	1083.45833
1604.104	1085.125
1607.125	1082.45833
1610.144	1056.79167
1613.16	1030.79167
1616.174	1005.125
1619.186	994.125
1622.196	980.125
1625.203	948.125
1628.209	957.45833
1631.212	944.79167
1634.213	955.45833
1637.212	978.45833
1640.209	974.125
1643.203	936.79167
1646.196	908.79167
1649.186	873.125
1652.174	855.45833
1655.16	830.45833
1658.144	812.45833
1661.125	776.125
1664.105	755.45833
1667.082	727.79167
1670.057	681.45833
1673.03	634.125
1676.001	603.125
1678.97	567.125
1681.937	543.79167
1684.901	519.79167
1687.863	514.45833
1690.824	482.79167
1693.782	497.79167
1696.738	462.45833
1699.692	462.125
1702.643	442.125
1705.593	438.45833
1708.54	435.45833
1711.486	452.45833
1714.429	431.125
1717.37	447.125
1720.309	423.79167
1723.246	432.79167
1726.181	413.79167
1729.113	412.125
1732.044	425.125
1734.972	407.79167
1737.899	417.125
1740.823	420.79167
1743.745	445.125
1746.665	394.79167
1749.583	395.45833
1752.499	393.79167
1755.413	390.79167
1758.325	370.125
1761.235	388.79167
1764.142	377.45833
1767.048	369.79167
1769.951	369.45833
1772.852	369.125
1775.752	370.45833
1778.649	375.45833
1781.544	380.79167
1784.437	366.45833
1787.328	369.45833
1790.217	358.45833
1793.104	342.79167
1795.989	342.125
1798.872	334.125
1801.753	363.125
1804.631	350.45833
1807.508	346.79167
1810.383	347.45833
1813.255	339.125
1816.126	339.125
1818.994	343.79167
1821.861	332.79167
1824.725	345.79167
1827.587	343.125
1830.448	340.125
1833.306	328.79167
1836.162	347.125
1839.017	340.125
1841.869	333.45833
1844.719	336.125
1847.567	320.79167
1850.414	316.79167
1853.258	318.79167
1856.1	336.79167
1858.94	338.125
1861.778	333.125
1864.614	317.45833
1867.448	326.125
1870.28	312.125
1873.111	326.45833
1875.939	316.45833
1878.765	326.79167
1881.589	319.125
1884.411	314.79167
1887.231	329.45833
1890.049	319.45833
1892.865	324.79167
1895.68	316.125
1898.492	323.45833
1901.302	308.125
1904.11	311.45833
1906.916	307.45833
1909.721	302.79167
1912.523	313.125
1915.323	306.45833
1918.122	303.125
1920.918	313.79167
1923.712	302.125
1926.505	302.79167
1929.295	287.125
1932.084	304.45833
1934.87	305.45833
1937.655	296.45833
1940.438	284.79167
1943.218	294.45833
1945.997	295.125
1948.774	302.125
1951.549	298.79167
1954.322	289.79167
1957.093	299.125
1959.862	289.79167
1962.629	288.125
1965.394	289.45833
1968.157	276.45833
1970.918	296.79167
1973.678	281.125
1976.435	294.125
1979.19	283.79167
1981.944	272.79167
1984.696	285.125
1987.445	266.45833
1990.193	273.45833
1992.939	298.125
1995.683	285.79167
1998.425	261.79167
2001.165	297.125
2003.903	262.45833
2006.639	269.45833
2009.374	277.125
2012.106	279.125
2014.837	256.79167
2017.566	273.45833
2020.292	276.45833
2023.017	267.125
2025.74	255.125
2028.461	255.125
2031.18	269.79167
2033.898	258.79167
2036.613	261.45833
2039.327	267.125
2042.038	256.45833
2044.748	257.79167
2047.456	274.125
2050.162	254.125
2052.866	259.125
2055.568	265.45833
2058.268	256.125
2060.967	273.125
2063.663	240.79167
2066.358	244.79167
2069.051	246.45833
2071.742	252.125
2074.431	252.79167
2077.118	249.45833
2079.804	245.79167
2082.487	250.45833
2085.169	256.79167
2087.849	275.125
2090.527	252.45833
2093.203	255.45833
2095.877	253.125
2098.55	258.45833
2101.22	261.125
2103.889	262.79167
2106.556	253.79167
2109.221	273.125
2111.884	259.79167
2114.546	287.125
2117.205	288.45833
2119.863	322.45833
2122.519	320.79167
2125.173	343.45833
2127.825	367.79167
2130.475	372.45833
2133.124	348.79167
2135.771	337.79167
2138.416	352.125
2141.059	320.45833
2143.7	315.45833
2146.339	289.79167
2148.977	265.45833
2151.613	281.79167
2154.247	276.45833
2156.879	259.125
2159.51	253.125
2162.138	254.45833
2164.765	249.79167
2167.39	239.45833
2170.013	264.125
2172.634	251.45833
2175.254	246.79167
2177.872	277.79167
2180.488	230.79167
2183.102	236.45833
2185.714	235.45833
2188.325	230.125
2190.934	233.79167
2193.541	242.125
2196.146	232.79167
2198.75	216.79167
2201.351	215.79167
2203.951	209.79167
2206.549	228.45833
2209.146	220.125
2211.74	214.45833
2214.333	220.79167
2216.924	202.79167
2219.514	217.125
2222.101	207.45833
2224.687	228.125
2227.271	200.125
2229.853	208.45833
2232.433	192.45833
2235.012	214.79167
2237.589	209.125
2240.164	221.79167
2242.738	202.125
2245.309	199.125
2247.879	213.45833
2250.448	212.45833
2253.014	196.125
2255.579	190.45833
2258.142	198.125
2260.703	196.125
2263.262	190.45833
2265.82	189.125
2268.376	207.45833
2270.93	192.79167
2273.483	180.79167
2276.033	202.45833
2278.583	186.125
2281.13	188.45833
2283.675	174.45833
2286.219	186.79167
2288.761	192.45833
2291.302	185.79167
2293.841	200.79167
2296.377	179.45833
2298.913	190.79167
2301.446	195.125
2303.978	190.125
2306.508	188.45833
2309.037	190.79167
2311.563	187.79167
2314.088	186.125
2316.612	169.45833
2319.133	179.125
2321.653	185.45833
2324.171	169.79167
2326.688	191.79167
2329.202	183.45833
2331.715	184.79167
2334.227	175.45833
2336.736	179.125
2339.244	177.79167
2341.751	165.45833
2344.255	176.79167
2346.758	174.79167
2349.259	164.45833
2351.759	176.79167
2354.257	168.79167
2356.753	166.79167
2359.247	163.45833
2361.74	172.79167
2364.231	163.125
2366.721	180.45833
2369.209	169.79167
2371.695	168.125
2374.179	157.79167
2376.662	156.125
2379.143	176.125
2381.622	164.79167
2384.1	174.45833
2386.576	160.125
2389.051	184.79167
2391.524	173.125
2393.995	170.45833
2396.464	160.45833
2398.932	165.79167
2401.398	164.125
2403.863	159.45833
2406.325	161.45833
2408.787	166.79167
2411.246	156.79167
2413.704	161.45833
2416.16	154.125
2418.615	156.79167
2421.068	164.45833
2423.519	157.79167
2425.969	150.79167
2428.417	171.45833
2430.863	178.45833
2433.308	167.45833
2435.751	169.125
2438.193	161.79167
2440.633	163.45833
2443.071	168.79167
2445.508	152.45833
2447.943	153.125
2450.376	149.45833
2452.808	156.79167
2455.238	150.125
2457.667	180.125
2460.093	152.79167
2462.519	139.79167
2464.942	142.45833
2467.365	152.79167
2469.785	159.125
2472.204	145.45833
2474.621	146.79167
2477.037	170.79167
2479.451	137.79167
2481.863	140.79167
2484.274	145.79167
2486.683	146.79167
2489.091	163.125
2491.497	150.125
2493.901	149.125
2496.304	144.45833
2498.705	157.45833
2501.105	147.45833
2503.503	166.79167
2505.899	142.45833
2508.294	163.125
2510.687	140.125
2513.079	145.125
2515.469	131.125
2517.858	142.79167
2520.245	160.45833
2522.63	140.45833
2525.014	141.45833
2527.396	140.79167
2529.776	138.79167
2532.156	149.125
2534.533	137.125
2536.909	134.125
2539.283	128.45833
2541.656	140.45833
2544.027	155.45833
2546.397	144.125
2548.765	133.125
2551.131	140.79167
2553.496	149.125
2555.86	143.79167
2558.221	143.79167
2560.582	135.125
2562.94	128.125
2565.298	136.45833
2567.653	146.125
2570.007	128.79167
2572.36	148.79167
2574.711	132.79167
2577.06	154.79167
2579.408	142.125
2581.754	138.125
2584.099	138.125
2586.442	137.125
2588.784	144.125
2591.124	140.79167
2593.463	135.79167
2595.8	144.125
2598.135	125.125
2600.469	126.79167
2602.802	143.125
2605.133	147.125
2607.462	122.79167
2609.79	127.45833
2612.116	139.79167
2614.441	133.79167
2616.764	138.45833
2619.086	136.45833
2621.406	132.45833
2623.725	145.45833
2626.042	133.79167
2628.358	130.79167
2630.672	140.79167
2632.985	138.45833
2635.296	137.125
2637.606	137.125
2639.914	126.125
2642.22	127.79167
2644.525	132.79167
2646.829	127.79167
2649.131	143.79167
2651.432	136.125
2653.731	128.125
2656.028	142.79167
2658.324	133.45833
2660.619	120.125
2662.912	138.45833
2665.204	122.45833
2667.494	134.79167
2669.782	132.125
2672.07	143.45833
2674.355	143.45833
2676.639	144.45833
2678.922	125.79167
2681.203	137.45833
2683.483	126.125
2685.761	117.45833
2688.038	141.125
2690.313	141.45833
2692.587	134.45833
2694.859	127.79167
2697.13	132.79167
2699.399	137.125
2701.667	135.79167
2703.933	137.79167
2706.198	145.45833
2708.461	141.45833
2710.723	142.79167
2712.984	134.125
2715.243	145.125
2717.5	134.125
2719.757	144.45833
2722.011	134.79167
2724.264	140.45833
2726.516	151.79167
2728.766	131.125
2731.015	136.125
2733.262	135.79167
2735.508	137.45833
2737.753	142.125
2739.996	121.125
2742.237	122.125
2744.477	142.45833
2746.716	144.79167
2748.953	143.79167
2751.189	140.45833
2753.423	140.125
2755.656	123.79167
2757.887	128.45833
2760.117	130.45833
2762.346	128.79167
2764.573	117.79167
2766.798	124.79167
2769.022	128.79167
2771.245	121.79167
2773.467	130.45833
2775.686	126.79167
2777.905	137.125
2780.122	129.79167
2782.337	134.79167
2784.552	127.45833
2786.764	126.125
2788.976	123.45833
2791.186	129.45833
2793.394	141.79167
2795.601	137.125
2797.807	142.125
2800.011	133.79167
2802.214	140.45833
2804.415	137.45833
2806.615	138.125
2808.814	133.125
2811.011	144.79167
2813.206	143.45833
2815.401	154.125
2817.594	147.125
2819.785	150.79167
2821.975	137.45833
2824.164	146.79167
2826.351	141.79167
2828.537	158.125
2830.722	153.79167
2832.905	155.79167
2835.086	158.125
2837.267	176.79167
2839.445	172.125
2841.623	170.125
2843.799	177.79167
2845.974	187.125
2848.147	181.45833
2850.319	199.45833
2852.489	206.79167
2854.659	204.79167
2856.826	200.125
2858.993	224.125
2861.158	203.45833
2863.321	217.45833
2865.483	224.45833
2867.644	215.45833
2869.804	218.125
2871.962	210.45833
2874.118	217.79167
2876.274	222.45833
2878.428	219.45833
2880.58	224.79167
2882.731	208.125
2884.881	217.45833
2887.03	221.45833
2889.177	218.45833
2891.322	225.125
2893.467	211.79167
2895.61	206.79167
2897.751	226.45833
2899.892	211.125
2902.03	222.79167
2904.168	214.45833
2906.304	219.45833
2908.439	237.125
2910.572	215.125
2912.704	222.45833
2914.835	222.125
2916.965	227.45833
2919.093	243.45833
2921.219	215.45833
2923.345	243.45833
2925.469	228.79167
2927.591	217.45833
2929.712	207.125
2931.832	218.45833
2933.951	211.79167
2936.068	212.45833
2938.184	201.125
2940.299	189.79167
2942.412	199.79167
2944.524	177.79167
2946.634	186.79167
2948.744	164.79167
2950.851	197.45833
2952.958	169.45833
2955.063	171.79167
2957.167	171.79167
2959.269	152.79167
2961.371	184.125
2963.471	155.125
2965.569	174.45833
2967.666	142.45833
2969.762	146.79167
2971.857	139.45833
2973.95	134.79167
2976.042	139.79167
2978.133	137.45833
2980.222	135.125
2982.31	126.79167
2984.396	108.125
2986.482	119.45833
2988.566	121.125
2990.648	126.79167
2992.73	120.79167
2994.81	107.79167
2996.889	123.79167
2998.966	113.79167
3001.042	126.125
3003.117	111.125
3005.191	122.45833
3007.263	125.45833
3009.334	115.79167
3011.403	118.125
3013.472	110.79167
3015.539	124.45833
3017.604	135.79167
3019.669	102.125
3021.732	110.45833
3023.794	111.79167
3025.854	99.125
3027.914	100.125
3029.971	99.125
3032.028	102.79167
3034.083	113.45833
3036.137	106.79167
3038.19	95.79167
3040.242	92.45833
3042.292	90.125
3044.341	98.79167
3046.388	108.45833
3048.435	88.125
3050.48	113.125
3052.524	94.125
3054.566	81.45833
3056.607	92.79167
3058.647	90.45833
3060.686	79.79167
3062.723	80.45833
3064.759	81.79167
3066.794	-0.20833
3068.828	1.125
3070.86	3.125
