-0.839	142.25
3.438	163.91667
7.711	68.58333
11.981	42.25
16.247	34.91667
20.509	38.25
24.768	39.25
29.024	46.58333
33.276	32.25
37.524	41.91667
41.769	31.58333
46.01	25.91667
50.247	45.58333
54.481	51.91667
58.712	57.58333
62.939	36.25
67.162	57.58333
71.382	45.25
75.599	40.58333
79.812	47.91667
84.021	64.25
88.227	43.58333
92.429	52.25
96.628	39.58333
100.823	49.58333
105.015	50.91667
109.204	45.58333
113.388	59.91667
117.57	42.91667
121.748	61.25
125.922	50.58333
130.093	66.58333
134.261	64.58333
138.425	52.25
142.585	86.25
146.742	69.91667
150.896	82.91667
155.046	75.58333
159.193	119.25
163.336	171.91667
167.476	305.25
171.613	528.58333
175.746	856.91667
179.875	1246.91667
184.002	1649.25
188.124	1934.58333
192.244	2046.58333
196.36	2067.25
200.472	2045.58333
204.581	2038.25
208.687	1987.91667
212.79	1974.58333
216.889	1996.58333
220.984	2004.91667
225.077	2009.25
229.165	2019.58333
233.251	2030.58333
237.333	2028.25
241.412	2024.25
245.487	2015.91667
249.559	2005.91667
253.628	1982.25
257.694	1951.25
261.756	1961.58333
265.814	1919.25
269.87	1888.25
273.922	1820.58333
277.97	1817.58333
282.016	1793.25
286.058	1745.91667
290.097	1762.25
294.132	1797.91667
298.164	1769.25
302.193	1736.58333
306.219	1641.91667
310.241	1551.91667
314.26	1460.91667
318.276	1388.58333
322.288	1352.25
326.297	1315.91667
330.303	1285.58333
334.305	1267.58333
338.305	1262.91667
342.301	1269.58333
346.294	1254.25
350.283	1255.25
354.269	1243.58333
358.252	1246.25
362.232	1246.91667
366.209	1249.25
370.182	1225.91667
374.152	1230.25
378.119	1251.58333
382.083	1224.25
386.043	1242.91667
390	1242.25
393.954	1242.91667
397.905	1234.25
401.852	1248.91667
405.797	1226.58333
409.738	1234.25
413.676	1255.58333
417.61	1272.25
421.542	1232.58333
425.47	1226.58333
429.396	1200.25
433.318	1202.91667
437.236	1210.25
441.152	1231.91667
445.065	1185.58333
448.974	1199.25
452.88	1185.91667
456.783	1182.25
460.683	1179.58333
464.58	1192.91667
468.473	1187.58333
472.364	1189.91667
476.251	1178.25
480.135	1197.58333
484.016	1193.91667
487.894	1211.25
491.769	1220.58333
495.641	1219.25
499.509	1217.91667
503.375	1214.58333
507.237	1198.58333
511.096	1206.58333
514.952	1216.91667
518.805	1214.58333
522.655	1218.91667
526.502	1209.91667
530.346	1210.25
534.187	1194.58333
538.024	1194.91667
541.859	1177.25
545.69	1207.91667
549.519	1193.58333
553.344	1185.25
557.166	1166.91667
560.985	1164.58333
564.802	1158.91667
568.615	1148.91667
572.425	1129.91667
576.232	1134.58333
580.036	1138.58333
583.836	1134.25
587.634	1148.25
591.429	1147.25
595.221	1162.25
599.01	1164.25
602.796	1160.25
606.578	1166.91667
610.358	1177.91667
614.135	1163.58333
617.909	1171.91667
621.679	1157.58333
625.447	1151.25
629.212	1146.58333
632.973	1155.58333
636.732	1141.25
640.488	1155.25
644.241	1136.58333
647.991	1128.91667
651.737	1149.58333
655.481	1128.91667
659.222	1132.91667
662.96	1133.58333
666.695	1154.91667
670.427	1148.91667
674.156	1142.25
677.882	1144.25
681.605	1125.58333
685.325	1128.25
689.043	1157.58333
692.757	1139.58333
696.468	1129.25
700.177	1109.58333
703.882	1093.25
707.585	1094.25
711.284	1100.58333
714.981	1091.91667
718.675	1098.91667
722.366	1107.25
726.054	1077.58333
729.739	1078.25
733.421	1084.25
737.1	1077.25
740.777	1098.91667
744.45	1084.91667
748.121	1096.25
751.789	1125.58333
755.453	1100.25
759.115	1104.58333
762.774	1112.25
766.431	1109.58333
770.084	1124.25
773.734	1112.25
777.382	1138.58333
781.027	1122.58333
784.669	1115.58333
788.308	1106.91667
791.944	1134.25
795.577	1150.25
799.208	1131.25
802.835	1145.91667
806.46	1155.58333
810.082	1149.58333
813.701	1152.58333
817.317	1180.25
820.931	1171.58333
824.542	1160.25
828.149	1150.58333
831.754	1122.25
835.357	1125.58333
838.956	1129.58333
842.553	1123.58333
846.146	1111.58333
849.737	1083.25
853.326	1100.25
856.911	1065.91667
860.493	1112.91667
864.073	1095.58333
867.65	1117.58333
871.225	1133.58333
874.796	1107.58333
878.365	1102.25
881.931	1117.91667
885.494	1124.25
889.054	1120.58333
892.612	1123.58333
896.166	1086.58333
899.719	1098.25
903.268	1077.58333
906.814	1071.58333
910.358	1058.58333
913.899	1056.58333
917.438	1052.58333
920.973	1034.58333
924.506	1047.58333
928.036	1078.58333
931.564	1098.58333
935.088	1105.25
938.61	1077.58333
942.129	1081.91667
945.646	1095.91667
949.16	1105.58333
952.671	1124.58333
956.179	1139.91667
959.685	1115.91667
963.188	1149.25
966.688	1139.58333
970.185	1094.91667
973.68	1067.25
977.173	1062.58333
980.662	1041.25
984.149	1044.25
987.633	1026.58333
991.114	1045.58333
994.593	1076.25
998.069	1089.58333
1001.542	1109.58333
1005.013	1094.91667
1008.481	1032.58333
1011.947	1020.25
1015.409	1010.25
1018.869	1019.91667
1022.327	1015.91667
1025.782	994.58333
1029.234	983.91667
1032.683	983.25
1036.13	961.91667
1039.574	930.58333
1043.016	924.25
1046.455	901.91667
1049.891	883.58333
1053.325	906.58333
1056.756	890.25
1060.184	906.58333
1063.61	888.58333
1067.033	892.91667
1070.454	903.91667
1073.872	921.91667
1077.287	887.91667
1080.7	897.58333
1084.11	897.25
1087.517	902.25
1090.922	888.58333
1094.325	873.91667
1097.724	858.91667
1101.122	870.58333
1104.516	856.58333
1107.908	850.91667
1111.298	849.91667
1114.684	873.91667
1118.069	862.58333
1121.45	883.91667
1124.83	877.91667
1128.206	883.58333
1131.58	888.58333
1134.951	903.25
1138.32	908.25
1141.687	957.91667
1145.05	955.91667
1148.412	965.25
1151.77	949.25
1155.126	958.25
1158.48	939.25
1161.831	952.91667
1165.18	952.91667
1168.525	967.58333
1171.869	966.58333
1175.21	975.58333
1178.548	981.58333
1181.884	981.91667
1185.217	985.91667
1188.548	1004.58333
1191.877	1014.91667
1195.202	1044.91667
1198.526	1072.25
1201.846	1069.58333
1205.165	1066.58333
1208.48	1081.91667
1211.794	1085.91667
1215.104	1065.91667
1218.413	1071.58333
1221.719	1052.91667
1225.022	1041.58333
1228.323	1012.58333
1231.621	1029.58333
1234.917	1012.91667
1238.21	1041.25
1241.501	1013.25
1244.79	1009.91667
1248.076	1001.25
1251.359	1020.25
1254.64	1063.25
1257.919	1036.91667
1261.195	1049.58333
1264.468	1065.91667
1267.74	1071.91667
1271.008	1066.91667
1274.275	1076.91667
1277.538	1064.58333
1280.8	1073.25
1284.059	1053.25
1287.315	1069.91667
1290.569	1071.58333
1293.821	1064.25
1297.07	1063.58333
1300.317	1067.25
1303.562	1066.25
1306.803	1056.91667
1310.043	1060.58333
1313.28	1060.25
1316.515	1047.91667
1319.747	1064.91667
1322.977	1049.58333
1326.204	1047.91667
1329.429	1035.91667
1332.652	1039.91667
1335.872	1037.25
1339.09	1031.91667
1342.306	1030.58333
1345.519	1025.25
1348.729	1027.91667
1351.938	1025.58333
1355.144	1001.58333
1358.347	990.25
1361.548	986.58333
1364.747	1006.91667
1367.944	962.91667
1371.138	975.91667
1374.329	964.91667
1377.518	969.91667
1380.705	972.25
1383.89	984.91667
1387.072	934.91667
1390.252	926.25
1393.429	905.58333
1396.605	875.58333
1399.777	838.58333
1402.948	845.58333
1406.116	834.25
1409.282	836.58333
1412.445	836.25
1415.606	847.25
1418.765	838.58333
1421.921	848.25
1425.075	854.58333
1428.227	879.58333
1431.376	914.91667
1434.524	930.58333
1437.668	952.25
1440.811	959.91667
1443.951	966.91667
1447.089	982.58333
1450.224	973.91667
1453.357	963.25
1456.488	967.58333
1459.617	960.25
1462.743	950.25
1465.867	911.91667
1468.989	919.91667
1472.108	904.58333
1475.225	893.25
1478.34	886.25
1481.453	879.58333
1484.563	868.58333
1487.671	884.58333
1490.776	890.91667
1493.88	900.25
1496.981	904.25
1500.08	904.58333
1503.176	905.91667
1506.271	920.25
1509.363	931.25
1512.452	943.25
1515.54	941.25
1518.625	953.91667
1521.708	986.91667
1524.789	1013.58333
1527.867	1030.25
1530.944	1064.25
1534.018	1087.25
1537.089	1139.91667
1540.159	1140.58333
1543.226	1149.58333
1546.291	1103.91667
1549.354	1113.58333
1552.415	1082.58333
1555.473	1058.91667
1558.529	1061.91667
1561.583	1044.91667
1564.634	1022.25
1567.684	1024.25
1570.731	1017.58333
1573.776	1042.25
1576.819	1048.25
1579.859	1052.58333
1582.898	1070.91667
1585.934	1082.25
1588.968	1081.25
1591.999	1067.25
1595.029	1077.25
1598.056	1068.25
1601.081	1084.91667
1604.104	1071.25
1607.125	1083.58333
1610.144	1047.25
1613.16	1034.58333
1616.174	1026.58333
1619.186	1012.25
1622.196	997.25
1625.203	971.58333
1628.209	972.58333
1631.212	964.91667
1634.213	982.91667
1637.212	989.58333
1640.209	994.58333
1643.203	955.25
1646.196	935.58333
1649.186	895.25
1652.174	859.91667
1655.16	837.58333
1658.144	840.25
1661.125	786.58333
1664.105	765.58333
1667.082	727.58333
1670.057	697.25
1673.03	661.91667
1676.001	628.91667
1678.97	595.91667
1681.937	578.58333
1684.901	551.25
1687.863	533.25
1690.824	507.58333
1693.782	515.25
1696.738	491.25
1699.692	489.25
1702.643	471.58333
1705.593	473.58333
1708.54	467.58333
1711.486	473.91667
1714.429	452.91667
1717.37	465.58333
1720.309	453.58333
1723.246	452.25
1726.181	436.58333
1729.113	450.58333
1732.044	446.91667
1734.972	438.58333
1737.899	448.91667
1740.823	449.58333
1743.745	463.58333
1746.665	422.58333
1749.583	424.91667
1752.499	409.91667
1755.413	409.25
1758.325	405.58333
1761.235	413.58333
1764.142	394.91667
1767.048	394.25
1769.951	392.91667
1772.852	400.58333
1775.752	402.58333
1778.649	402.58333
1781.544	408.91667
1784.437	374.25
1787.328	394.25
1790.217	389.25
1793.104	364.58333
1795.989	369.25
1798.872	358.91667
1801.753	394.25
1804.631	377.25
1807.508	379.58333
1810.383	373.91667
1813.255	372.25
1816.126	368.25
1818.994	367.58333
1821.861	360.58333
1824.725	372.91667
1827.587	369.91667
1830.448	358.25
1833.306	350.58333
1836.162	368.58333
1839.017	361.25
1841.869	353.25
1844.719	351.58333
1847.567	341.25
1850.414	345.58333
1853.258	337.91667
1856.1	359.91667
1858.94	350.25
1861.778	346.25
1864.614	327.91667
1867.448	344.25
1870.28	331.58333
1873.111	351.58333
1875.939	339.91667
1878.765	362.58333
1881.589	338.25
1884.411	340.25
1887.231	346.25
1890.049	335.58333
1892.865	347.91667
1895.68	330.58333
1898.492	335.25
1901.302	334.91667
1904.11	332.25
1906.916	333.25
1909.721	328.91667
1912.523	336.25
1915.323	318.91667
1918.122	319.25
1920.918	332.58333
1923.712	310.58333
1926.505	329.58333
1929.295	304.58333
1932.084	324.91667
1934.87	323.25
1937.655	315.58333
1940.438	307.25
1943.218	313.25
1945.997	311.91667
1948.774	323.91667
1951.549	324.58333
1954.322	315.58333
1957.093	308.58333
1959.862	308.25
1962.629	309.91667
1965.394	312.91667
1968.157	296.91667
1970.918	313.58333
1973.678	292.58333
1976.435	308.91667
1979.19	302.58333
1981.944	292.58333
1984.696	297.25
1987.445	283.58333
1990.193	291.25
1992.939	310.58333
1995.683	300.58333
1998.425	279.91667
2001.165	309.58333
2003.903	278.58333
2006.639	292.25
2009.374	289.91667
2012.106	294.25
2014.837	271.25
2017.566	297.91667
2020.292	284.25
2023.017	285.58333
2025.74	277.58333
2028.461	271.25
2031.18	280.58333
2033.898	277.25
2036.613	285.91667
2039.327	276.58333
2042.038	275.25
2044.748	270.25
2047.456	276.58333
2050.162	263.91667
2052.866	271.91667
2055.568	290.58333
2058.268	266.25
2060.967	279.91667
2063.663	262.25
2066.358	268.25
2069.051	258.58333
2071.742	265.58333
2074.431	283.58333
2077.118	262.25
2079.804	257.58333
2082.487	262.91667
2085.169	273.58333
2087.849	284.58333
2090.527	259.91667
2093.203	264.91667
2095.877	266.91667
2098.55	264.58333
2101.22	275.91667
2103.889	276.58333
2106.556	258.91667
2109.221	280.25
2111.884	266.91667
2114.546	291.25
2117.205	283.25
2119.863	315.58333
2122.519	300.91667
2125.173	316.58333
2127.825	345.25
2130.475	355.25
2133.124	338.25
2135.771	316.91667
2138.416	333.58333
2141.059	304.58333
2143.7	308.25
2146.339	283.25
2148.977	262.91667
2151.613	271.91667
2154.247	275.25
2156.879	262.91667
2159.51	251.91667
2162.138	256.58333
2164.765	252.25
2167.39	243.91667
2170.013	262.91667
2172.634	263.91667
2175.254	250.25
2177.872	285.58333
2180.488	247.58333
2183.102	246.58333
2185.714	242.91667
2188.325	235.91667
2190.934	245.91667
2193.541	251.25
2196.146	231.91667
2198.75	231.25
2201.351	231.25
2203.951	219.58333
2206.549	238.58333
2209.146	228.58333
2211.74	217.25
2214.333	235.25
2216.924	220.91667
2219.514	224.91667
2222.101	226.91667
2224.687	235.25
2227.271	216.91667
2229.853	222.91667
2232.433	202.91667
2235.012	225.91667
2237.589	223.91667
2240.164	237.58333
2242.738	215.91667
2245.309	212.58333
2247.879	231.58333
2250.448	223.91667
2253.014	207.91667
2255.579	205.25
2258.142	211.58333
2260.703	204.91667
2263.262	202.25
2265.82	195.91667
2268.376	218.91667
2270.93	201.58333
2273.483	195.91667
2276.033	210.25
2278.583	199.58333
2281.13	201.58333
2283.675	191.58333
2286.219	196.58333
2288.761	203.91667
2291.302	206.91667
2293.841	213.58333
2296.377	191.58333
2298.913	200.91667
2301.446	202.91667
2303.978	201.25
2306.508	199.25
2309.037	196.58333
2311.563	196.25
2314.088	192.91667
2316.612	181.58333
2319.133	201.25
2321.653	199.25
2324.171	182.91667
2326.688	200.58333
2329.202	189.58333
2331.715	193.58333
2334.227	193.91667
2336.736	186.25
2339.244	188.91667
2341.751	185.91667
2344.255	193.25
2346.758	189.91667
2349.259	177.25
2351.759	192.91667
2354.257	176.91667
2356.753	179.25
2359.247	186.25
2361.74	174.25
2364.231	181.58333
2366.721	193.25
2369.209	177.58333
2371.695	181.58333
2374.179	177.91667
2376.662	164.91667
2379.143	195.25
2381.622	177.25
2384.1	190.58333
2386.576	175.58333
2389.051	193.25
2391.524	192.25
2393.995	189.25
2396.464	173.58333
2398.932	176.25
2401.398	175.58333
2403.863	174.91667
2406.325	167.91667
2408.787	178.58333
2411.246	176.25
2413.704	181.25
2416.16	170.91667
2418.615	177.91667
2421.068	180.25
2423.519	172.58333
2425.969	164.25
2428.417	183.58333
2430.863	190.25
2433.308	182.91667
2435.751	180.91667
2438.193	173.91667
2440.633	181.25
2443.071	184.91667
2445.508	167.25
2447.943	169.25
2450.376	165.58333
2452.808	175.91667
2455.238	163.58333
2457.667	193.58333
2460.093	162.25
2462.519	157.25
2464.942	163.25
2467.365	164.91667
2469.785	167.25
2472.204	165.91667
2474.621	161.25
2477.037	185.91667
2479.451	154.91667
2481.863	150.91667
2484.274	166.91667
2486.683	160.58333
2489.091	171.91667
2491.497	169.91667
2493.901	164.25
2496.304	163.58333
2498.705	171.58333
2501.105	160.58333
2503.503	180.58333
2505.899	156.25
2508.294	178.58333
2510.687	156.58333
2513.079	161.91667
2515.469	156.91667
2517.858	162.25
2520.245	169.58333
2522.63	152.58333
2525.014	154.91667
2527.396	155.25
2529.776	156.58333
2532.156	171.58333
2534.533	151.58333
2536.909	149.91667
2539.283	140.58333
2541.656	154.25
2544.027	167.58333
2546.397	163.25
2548.765	157.58333
2551.131	155.25
2553.496	158.58333
2555.86	161.25
2558.221	164.58333
2560.582	152.91667
2562.94	144.91667
2565.298	154.58333
2567.653	163.25
2570.007	145.91667
2572.36	161.58333
2574.711	147.91667
2577.06	169.25
2579.408	155.91667
2581.754	153.58333
2584.099	156.58333
2586.442	151.25
2588.784	168.25
2591.124	155.58333
2593.463	149.91667
2595.8	162.25
2598.135	145.91667
2600.469	143.58333
2602.802	162.91667
2605.133	160.25
2607.462	146.91667
2609.79	140.91667
2612.116	161.58333
2614.441	152.58333
2616.764	152.25
2619.086	151.58333
2621.406	145.25
2623.725	161.25
2626.042	151.25
2628.358	143.25
2630.672	159.58333
2632.985	160.25
2635.296	156.91667
2637.606	151.58333
2639.914	148.25
2642.22	147.91667
2644.525	153.91667
2646.829	152.25
2649.131	162.25
2651.432	153.58333
2653.731	144.91667
2656.028	165.58333
2658.324	157.25
2660.619	147.25
2662.912	157.58333
2665.204	141.58333
2667.494	156.58333
2669.782	142.91667
2672.07	168.58333
2674.355	163.25
2676.639	156.58333
2678.922	153.25
2681.203	155.91667
2683.483	148.25
2685.761	141.91667
2688.038	156.91667
2690.313	168.25
2692.587	151.58333
2694.859	147.58333
2697.13	154.58333
2699.399	154.25
2701.667	160.58333
2703.933	151.91667
2706.198	166.25
2708.461	165.91667
2710.723	166.25
2712.984	156.25
2715.243	165.25
2717.5	159.25
2719.757	167.25
2722.011	157.91667
2724.264	168.91667
2726.516	169.91667
2728.766	147.91667
2731.015	158.58333
2733.262	150.25
2735.508	155.91667
2737.753	164.58333
2739.996	148.25
2742.237	148.58333
2744.477	164.58333
2746.716	169.58333
2748.953	164.25
2751.189	169.25
2753.423	160.25
2755.656	154.91667
2757.887	148.91667
2760.117	153.25
2762.346	151.91667
2764.573	138.58333
2766.798	147.58333
2769.022	154.91667
2771.245	141.25
2773.467	148.25
2775.686	152.91667
2777.905	154.25
2780.122	152.91667
2782.337	154.91667
2784.552	149.25
2786.764	155.91667
2788.976	145.58333
2791.186	151.91667
2793.394	150.91667
2795.601	164.91667
2797.807	166.91667
2800.011	159.91667
2802.214	163.58333
2804.415	161.58333
2806.615	159.25
2808.814	160.58333
2811.011	167.25
2813.206	167.25
2815.401	175.58333
2817.594	166.25
2819.785	175.25
2821.975	163.58333
2824.164	169.25
2826.351	164.25
2828.537	181.58333
2830.722	177.58333
2832.905	171.25
2835.086	184.25
2837.267	199.91667
2839.445	192.58333
2841.623	197.25
2843.799	197.91667
2845.974	198.91667
2848.147	209.25
2850.319	221.25
2852.489	227.58333
2854.659	229.25
2856.826	223.25
2858.993	238.25
2861.158	224.25
2863.321	235.58333
2865.483	243.25
2867.644	237.91667
2869.804	241.25
2871.962	239.25
2874.118	246.91667
2876.274	242.25
2878.428	241.91667
2880.58	240.58333
2882.731	227.25
2884.881	237.58333
2887.03	244.58333
2889.177	234.25
2891.322	252.91667
2893.467	237.58333
2895.61	234.58333
2897.751	253.25
2899.892	244.25
2902.03	239.91667
2904.168	233.58333
2906.304	236.58333
2908.439	260.58333
2910.572	247.25
2912.704	241.58333
2914.835	255.91667
2916.965	249.58333
2919.093	264.25
2921.219	239.58333
2923.345	257.58333
2925.469	248.91667
2927.591	245.25
2929.712	233.91667
2931.832	241.91667
2933.951	237.58333
2936.068	227.25
2938.184	234.58333
2940.299	222.58333
2942.412	213.58333
2944.524	201.91667
2946.634	215.25
2948.744	191.25
2950.851	227.58333
2952.958	192.25
2955.063	203.91667
2957.167	197.58333
2959.269	182.25
2961.371	218.25
2963.471	180.25
2965.569	197.91667
2967.666	174.25
2969.762	176.25
2971.857	177.25
2973.95	167.91667
2976.042	177.25
2978.133	170.58333
2980.222	170.58333
2982.31	153.58333
2984.396	140.58333
2986.482	150.58333
2988.566	154.91667
2990.648	151.91667
2992.73	152.25
2994.81	142.91667
2996.889	158.91667
2998.966	148.91667
3001.042	161.58333
3003.117	146.58333
3005.191	152.25
3007.263	154.91667
3009.334	150.91667
3011.403	150.58333
3013.472	147.25
3015.539	156.25
3017.604	164.25
3019.669	137.25
3021.732	142.91667
3023.794	143.91667
3025.854	139.91667
3027.914	130.58333
3029.971	129.91667
3032.028	134.58333
3034.083	148.58333
3036.137	135.91667
3038.19	127.58333
3040.242	121.58333
3042.292	119.58333
3044.341	128.58333
3046.388	147.91667
3048.435	118.91667
3050.48	135.58333
3052.524	130.25
3054.566	110.25
3056.607	124.91667
3058.647	119.91667
3060.686	110.91667
3062.723	104.25
3064.759	104.58333
3066.794	0.25
3068.828	2.25
3070.86	3.91667
