-0.839	143.95833
3.438	164.29167
7.711	68.29167
11.981	47.625
16.247	28.95833
20.509	35.95833
24.768	34.625
29.024	44.95833
33.276	32.625
37.524	40.95833
41.769	29.95833
46.01	27.29167
50.247	45.625
54.481	48.625
58.712	54.29167
62.939	36.29167
67.162	54.29167
71.382	45.625
75.599	41.625
79.812	43.625
84.021	64.95833
88.227	46.29167
92.429	51.29167
96.628	39.95833
100.823	55.95833
105.015	55.625
109.204	48.29167
113.388	59.625
117.57	45.95833
121.748	62.29167
125.922	52.29167
130.093	64.95833
134.261	62.95833
138.425	50.29167
142.585	86.95833
146.742	67.95833
150.896	76.625
155.046	78.29167
159.193	111.29167
163.336	165.29167
167.476	282.625
171.613	521.95833
175.746	827.625
179.875	1214.29167
184.002	1580.95833
188.124	1865.29167
192.244	1952.95833
196.36	1964.95833
200.472	1940.625
204.581	1936.29167
208.687	1861.95833
212.79	1893.625
216.889	1899.625
220.984	1916.95833
225.077	1920.29167
229.165	1937.95833
233.251	1933.625
237.333	1958.29167
241.412	1929.625
245.487	1919.29167
249.559	1885.29167
253.628	1858.625
257.694	1847.95833
261.756	1849.95833
265.814	1803.29167
269.87	1762.95833
273.922	1718.625
277.97	1680.625
282.016	1680.29167
286.058	1646.625
290.097	1679.29167
294.132	1675.95833
298.164	1669.29167
302.193	1612.625
306.219	1516.29167
310.241	1428.29167
314.26	1345.29167
318.276	1288.95833
322.288	1249.95833
326.297	1217.625
330.303	1187.625
334.305	1185.29167
338.305	1165.95833
342.301	1165.625
346.294	1160.95833
350.283	1155.29167
354.269	1160.29167
358.252	1148.95833
362.232	1143.95833
366.209	1147.625
370.182	1137.29167
374.152	1128.29167
378.119	1142.625
382.083	1134.95833
386.043	1135.625
390	1138.29167
393.954	1138.29167
397.905	1149.29167
401.852	1167.29167
405.797	1133.95833
409.738	1132.625
413.676	1160.29167
417.61	1155.625
421.542	1140.29167
425.47	1116.625
429.396	1102.29167
433.318	1101.95833
437.236	1109.29167
441.152	1136.29167
445.065	1078.95833
448.974	1100.95833
452.88	1090.29167
456.783	1076.29167
460.683	1065.29167
464.58	1091.29167
468.473	1082.29167
472.364	1084.95833
476.251	1087.625
480.135	1094.625
484.016	1114.95833
487.894	1119.625
491.769	1115.625
495.641	1111.625
499.509	1107.95833
503.375	1097.625
507.237	1089.625
511.096	1097.625
514.952	1094.625
518.805	1101.625
522.655	1109.625
526.502	1081.29167
530.346	1102.95833
534.187	1109.95833
538.024	1090.95833
541.859	1088.625
545.69	1115.29167
549.519	1095.625
553.344	1083.625
557.166	1066.625
560.985	1061.95833
564.802	1083.29167
568.615	1053.625
572.425	1047.29167
576.232	1050.625
580.036	1043.625
583.836	1047.625
587.634	1053.29167
591.429	1038.29167
595.221	1078.95833
599.01	1065.29167
602.796	1062.625
606.578	1067.29167
610.358	1067.625
614.135	1064.625
617.909	1068.625
621.679	1058.29167
625.447	1035.625
629.212	1054.95833
632.973	1063.95833
636.732	1060.95833
640.488	1043.95833
644.241	1033.29167
647.991	1039.29167
651.737	1068.95833
655.481	1013.29167
659.222	1036.29167
662.96	1031.95833
666.695	1039.625
670.427	1042.625
674.156	1051.29167
677.882	1050.625
681.605	1044.95833
685.325	1023.95833
689.043	1047.95833
692.757	1035.625
696.468	1035.29167
700.177	1025.625
703.882	1008.29167
707.585	998.29167
711.284	1000.29167
714.981	988.29167
718.675	994.625
722.366	1021.29167
726.054	992.29167
729.739	998.29167
733.421	996.29167
737.1	999.625
740.777	1008.95833
744.45	1003.625
748.121	1014.29167
751.789	1041.95833
755.453	1010.625
759.115	1026.625
762.774	1022.625
766.431	1017.625
770.084	1032.29167
773.734	1019.29167
777.382	1040.95833
781.027	1038.29167
784.669	1052.95833
788.308	1029.29167
791.944	1063.95833
795.577	1060.625
799.208	1060.625
802.835	1060.95833
806.46	1079.29167
810.082	1078.29167
813.701	1072.95833
817.317	1081.95833
820.931	1090.29167
824.542	1076.625
828.149	1051.95833
831.754	1051.95833
835.357	1039.29167
838.956	1051.29167
842.553	1053.29167
846.146	1035.95833
849.737	1003.29167
853.326	1024.29167
856.911	1002.95833
860.493	1023.95833
864.073	1049.29167
867.65	1048.625
871.225	1061.29167
874.796	1044.625
878.365	1051.95833
881.931	1057.625
885.494	1060.29167
889.054	1049.29167
892.612	1058.625
896.166	1040.29167
899.719	1014.95833
903.268	1016.625
906.814	1015.625
910.358	998.29167
913.899	1001.625
917.438	995.625
920.973	986.95833
924.506	1000.95833
928.036	1022.29167
931.564	1018.625
935.088	1037.95833
938.61	1027.95833
942.129	1031.29167
945.646	1047.29167
949.16	1052.625
952.671	1055.95833
956.179	1086.95833
959.685	1063.95833
963.188	1091.625
966.688	1048.29167
970.185	1033.625
973.68	1010.625
977.173	1000.95833
980.662	990.95833
984.149	992.95833
987.633	981.29167
991.114	998.29167
994.593	1018.29167
998.069	1037.29167
1001.542	1046.625
1005.013	1039.95833
1008.481	977.625
1011.947	982.95833
1015.409	955.625
1018.869	978.625
1022.327	966.29167
1025.782	951.625
1029.234	925.95833
1032.683	941.95833
1036.13	910.95833
1039.574	883.29167
1043.016	862.29167
1046.455	855.29167
1049.891	839.95833
1053.325	848.29167
1056.756	847.625
1060.184	857.29167
1063.61	841.29167
1067.033	860.625
1070.454	849.625
1073.872	867.625
1077.287	847.625
1080.7	852.95833
1084.11	851.29167
1087.517	849.29167
1090.922	851.625
1094.325	820.95833
1097.724	814.29167
1101.122	809.29167
1104.516	817.29167
1107.908	808.29167
1111.298	816.95833
1114.684	814.29167
1118.069	819.95833
1121.45	847.625
1124.83	839.625
1128.206	843.95833
1131.58	847.29167
1134.951	855.29167
1138.32	860.625
1141.687	907.29167
1145.05	910.29167
1148.412	924.29167
1151.77	908.625
1155.126	910.625
1158.48	901.29167
1161.831	895.625
1165.18	922.95833
1168.525	921.95833
1171.869	936.625
1175.21	923.625
1178.548	942.29167
1181.884	948.625
1185.217	948.29167
1188.548	963.625
1191.877	980.625
1195.202	1011.95833
1198.526	1040.625
1201.846	1032.95833
1205.165	1038.95833
1208.48	1043.95833
1211.794	1048.625
1215.104	1041.29167
1218.413	1026.625
1221.719	1024.29167
1225.022	1010.625
1228.323	984.625
1231.621	992.625
1234.917	986.29167
1238.21	1007.29167
1241.501	992.29167
1244.79	981.29167
1248.076	987.29167
1251.359	985.625
1254.64	1022.625
1257.919	1009.29167
1261.195	1033.29167
1264.468	1041.95833
1267.74	1034.625
1271.008	1051.95833
1274.275	1046.95833
1277.538	1043.29167
1280.8	1045.95833
1284.059	1035.625
1287.315	1048.29167
1290.569	1041.625
1293.821	1055.95833
1297.07	1054.625
1300.317	1055.625
1303.562	1069.625
1306.803	1052.95833
1310.043	1032.29167
1313.28	1031.625
1316.515	1032.95833
1319.747	1051.95833
1322.977	1037.95833
1326.204	1027.625
1329.429	1001.29167
1332.652	1012.29167
1335.872	1022.29167
1339.09	1001.95833
1342.306	998.625
1345.519	994.95833
1348.729	990.625
1351.938	986.95833
1355.144	982.29167
1358.347	974.95833
1361.548	972.95833
1364.747	973.95833
1367.944	956.95833
1371.138	959.29167
1374.329	945.625
1377.518	950.95833
1380.705	952.95833
1383.89	956.29167
1387.072	923.95833
1390.252	901.95833
1393.429	895.29167
1396.605	859.625
1399.777	823.95833
1402.948	833.95833
1406.116	803.95833
1409.282	811.29167
1412.445	816.95833
1415.606	808.625
1418.765	829.625
1421.921	839.95833
1425.075	844.29167
1428.227	867.95833
1431.376	904.625
1434.524	926.29167
1437.668	947.29167
1440.811	965.625
1443.951	954.95833
1447.089	957.95833
1450.224	949.95833
1453.357	945.95833
1456.488	947.95833
1459.617	949.29167
1462.743	917.95833
1465.867	887.95833
1468.989	900.625
1472.108	891.29167
1475.225	869.625
1478.34	854.95833
1481.453	846.95833
1484.563	852.95833
1487.671	857.29167
1490.776	867.625
1493.88	880.625
1496.981	893.29167
1500.08	897.29167
1503.176	902.625
1506.271	908.95833
1509.363	924.29167
1512.452	911.95833
1515.54	921.95833
1518.625	941.29167
1521.708	980.29167
1524.789	1009.95833
1527.867	1023.29167
1530.944	1077.95833
1534.018	1089.625
1537.089	1149.625
1540.159	1148.29167
1543.226	1148.29167
1546.291	1127.95833
1549.354	1121.625
1552.415	1091.625
1555.473	1059.29167
1558.529	1049.29167
1561.583	1046.625
1564.634	1017.625
1567.684	1019.625
1570.731	1029.625
1573.776	1034.29167
1576.819	1052.95833
1579.859	1063.625
1582.898	1071.95833
1585.934	1090.95833
1588.968	1092.29167
1591.999	1067.625
1595.029	1070.95833
1598.056	1075.95833
1601.081	1096.95833
1604.104	1093.95833
1607.125	1087.29167
1610.144	1064.29167
1613.16	1037.625
1616.174	1013.29167
1619.186	998.29167
1622.196	986.625
1625.203	962.95833
1628.209	967.95833
1631.212	953.625
1634.213	957.29167
1637.212	970.95833
1640.209	968.625
1643.203	950.95833
1646.196	927.29167
1649.186	885.625
1652.174	863.625
1655.16	832.95833
1658.144	832.29167
1661.125	785.95833
1664.105	752.29167
1667.082	726.29167
1670.057	681.29167
1673.03	651.625
1676.001	620.29167
1678.97	585.95833
1681.937	556.95833
1684.901	535.29167
1687.863	522.95833
1690.824	491.29167
1693.782	497.625
1696.738	468.29167
1699.692	467.625
1702.643	450.625
1705.593	455.95833
1708.54	451.625
1711.486	456.95833
1714.429	442.95833
1717.37	443.95833
1720.309	433.95833
1723.246	440.29167
1726.181	415.625
1729.113	420.29167
1732.044	422.29167
1734.972	425.29167
1737.899	435.29167
1740.823	431.29167
1743.745	449.95833
1746.665	397.29167
1749.583	404.29167
1752.499	399.29167
1755.413	395.29167
1758.325	374.625
1761.235	389.95833
1764.142	377.625
1767.048	376.625
1769.951	380.29167
1772.852	378.625
1775.752	380.625
1778.649	379.95833
1781.544	393.625
1784.437	354.625
1787.328	377.95833
1790.217	366.95833
1793.104	343.29167
1795.989	353.95833
1798.872	343.29167
1801.753	365.95833
1804.631	359.29167
1807.508	363.95833
1810.383	349.625
1813.255	359.625
1816.126	348.95833
1818.994	344.95833
1821.861	342.625
1824.725	354.95833
1827.587	353.29167
1830.448	343.95833
1833.306	333.95833
1836.162	349.29167
1839.017	349.29167
1841.869	339.95833
1844.719	333.95833
1847.567	328.29167
1850.414	312.95833
1853.258	318.29167
1856.1	337.625
1858.94	344.95833
1861.778	327.625
1864.614	319.625
1867.448	332.95833
1870.28	315.29167
1873.111	335.95833
1875.939	318.29167
1878.765	342.29167
1881.589	327.29167
1884.411	330.625
1887.231	336.95833
1890.049	317.625
1892.865	330.625
1895.68	308.29167
1898.492	321.625
1901.302	314.625
1904.11	309.29167
1906.916	314.29167
1909.721	320.625
1912.523	321.625
1915.323	301.95833
1918.122	304.95833
1920.918	320.29167
1923.712	297.625
1926.505	305.625
1929.295	292.625
1932.084	306.29167
1934.87	310.625
1937.655	299.95833
1940.438	292.625
1943.218	296.625
1945.997	301.95833
1948.774	306.95833
1951.549	309.625
1954.322	294.95833
1957.093	296.29167
1959.862	296.625
1962.629	291.95833
1965.394	296.29167
1968.157	285.625
1970.918	293.29167
1973.678	280.625
1976.435	286.625
1979.19	280.29167
1981.944	282.29167
1984.696	278.625
1987.445	276.625
1990.193	287.29167
1992.939	293.29167
1995.683	282.625
1998.425	264.29167
2001.165	305.29167
2003.903	263.625
2006.639	274.95833
2009.374	283.95833
2012.106	279.29167
2014.837	261.95833
2017.566	280.95833
2020.292	263.95833
2023.017	267.625
2025.74	260.95833
2028.461	262.625
2031.18	271.625
2033.898	254.29167
2036.613	267.95833
2039.327	276.95833
2042.038	259.95833
2044.748	263.95833
2047.456	277.95833
2050.162	256.95833
2052.866	254.625
2055.568	274.29167
2058.268	261.95833
2060.967	278.625
2063.663	249.625
2066.358	257.95833
2069.051	251.625
2071.742	255.95833
2074.431	268.95833
2077.118	251.625
2079.804	243.625
2082.487	253.95833
2085.169	267.625
2087.849	274.29167
2090.527	242.95833
2093.203	255.625
2095.877	258.29167
2098.55	257.95833
2101.22	267.625
2103.889	270.625
2106.556	254.625
2109.221	270.29167
2111.884	267.29167
2114.546	279.29167
2117.205	296.29167
2119.863	322.625
2122.519	316.29167
2125.173	345.95833
2127.825	374.95833
2130.475	375.29167
2133.124	350.29167
2135.771	344.95833
2138.416	356.29167
2141.059	329.625
2143.7	320.95833
2146.339	299.29167
2148.977	267.625
2151.613	287.29167
2154.247	278.95833
2156.879	275.29167
2159.51	257.95833
2162.138	258.29167
2164.765	256.29167
2167.39	243.625
2170.013	261.95833
2172.634	253.29167
2175.254	239.95833
2177.872	281.95833
2180.488	238.29167
2183.102	238.625
2185.714	239.625
2188.325	226.29167
2190.934	238.29167
2193.541	238.95833
2196.146	232.29167
2198.75	214.95833
2201.351	219.625
2203.951	216.29167
2206.549	227.95833
2209.146	210.625
2211.74	210.29167
2214.333	226.625
2216.924	201.29167
2219.514	215.29167
2222.101	205.95833
2224.687	228.625
2227.271	202.625
2229.853	209.29167
2232.433	196.625
2235.012	222.29167
2237.589	207.29167
2240.164	224.95833
2242.738	214.29167
2245.309	201.625
2247.879	222.625
2250.448	215.95833
2253.014	195.95833
2255.579	187.95833
2258.142	195.625
2260.703	194.29167
2263.262	189.29167
2265.82	181.29167
2268.376	207.95833
2270.93	189.95833
2273.483	183.95833
2276.033	198.625
2278.583	190.95833
2281.13	182.29167
2283.675	183.29167
2286.219	185.95833
2288.761	190.625
2291.302	193.95833
2293.841	200.95833
2296.377	179.29167
2298.913	193.625
2301.446	202.625
2303.978	187.95833
2306.508	182.95833
2309.037	186.625
2311.563	190.29167
2314.088	191.625
2316.612	165.625
2319.133	187.29167
2321.653	185.95833
2324.171	179.95833
2326.688	189.29167
2329.202	185.625
2331.715	188.95833
2334.227	180.29167
2336.736	179.625
2339.244	179.625
2341.751	167.29167
2344.255	184.625
2346.758	181.29167
2349.259	168.625
2351.759	181.95833
2354.257	168.95833
2356.753	167.95833
2359.247	171.95833
2361.74	172.29167
2364.231	163.625
2366.721	181.95833
2369.209	170.29167
2371.695	173.625
2374.179	157.95833
2376.662	158.29167
2379.143	181.95833
2381.622	165.95833
2384.1	173.625
2386.576	169.625
2389.051	179.95833
2391.524	177.625
2393.995	176.29167
2396.464	163.95833
2398.932	163.29167
2401.398	165.29167
2403.863	160.95833
2406.325	154.625
2408.787	166.29167
2411.246	166.29167
2413.704	164.29167
2416.16	160.95833
2418.615	158.29167
2421.068	167.29167
2423.519	156.29167
2425.969	154.625
2428.417	170.29167
2430.863	184.95833
2433.308	166.95833
2435.751	158.95833
2438.193	165.29167
2440.633	164.625
2443.071	162.29167
2445.508	156.95833
2447.943	154.95833
2450.376	154.29167
2452.808	162.29167
2455.238	147.625
2457.667	186.29167
2460.093	148.625
2462.519	143.625
2464.942	151.29167
2467.365	155.625
2469.785	156.625
2472.204	150.29167
2474.621	153.625
2477.037	172.95833
2479.451	142.29167
2481.863	143.95833
2484.274	143.95833
2486.683	146.625
2489.091	161.625
2491.497	153.95833
2493.901	154.95833
2496.304	152.625
2498.705	156.95833
2501.105	149.29167
2503.503	168.95833
2505.899	148.625
2508.294	164.95833
2510.687	145.29167
2513.079	145.95833
2515.469	135.29167
2517.858	144.95833
2520.245	158.625
2522.63	141.625
2525.014	146.95833
2527.396	135.625
2529.776	142.29167
2532.156	149.29167
2534.533	135.95833
2536.909	134.625
2539.283	127.29167
2541.656	141.29167
2544.027	153.625
2546.397	153.625
2548.765	139.95833
2551.131	144.95833
2553.496	146.95833
2555.86	143.95833
2558.221	152.29167
2560.582	136.95833
2562.94	127.29167
2565.298	144.95833
2567.653	153.95833
2570.007	128.95833
2572.36	141.95833
2574.711	129.625
2577.06	149.95833
2579.408	136.95833
2581.754	134.625
2584.099	136.625
2586.442	134.95833
2588.784	146.29167
2591.124	139.29167
2593.463	136.95833
2595.8	141.95833
2598.135	125.625
2600.469	128.29167
2602.802	146.95833
2605.133	141.95833
2607.462	125.95833
2609.79	125.95833
2612.116	149.625
2614.441	136.29167
2616.764	138.625
2619.086	133.29167
2621.406	131.29167
2623.725	141.95833
2626.042	130.625
2628.358	124.95833
2630.672	134.625
2632.985	143.625
2635.296	133.95833
2637.606	130.95833
2639.914	128.95833
2642.22	129.29167
2644.525	136.625
2646.829	133.95833
2649.131	143.29167
2651.432	141.625
2653.731	130.29167
2656.028	143.95833
2658.324	138.29167
2660.619	122.29167
2662.912	144.625
2665.204	124.29167
2667.494	137.95833
2669.782	121.95833
2672.07	144.29167
2674.355	143.29167
2676.639	137.625
2678.922	129.29167
2681.203	133.625
2683.483	125.95833
2685.761	119.95833
2688.038	145.625
2690.313	146.29167
2692.587	138.29167
2694.859	134.29167
2697.13	129.625
2699.399	137.29167
2701.667	141.625
2703.933	134.625
2706.198	144.29167
2708.461	146.95833
2710.723	140.625
2712.984	135.625
2715.243	143.95833
2717.5	135.625
2719.757	146.95833
2722.011	134.625
2724.264	146.95833
2726.516	149.29167
2728.766	131.29167
2731.015	135.625
2733.262	133.95833
2735.508	133.29167
2737.753	139.625
2739.996	122.95833
2742.237	129.625
2744.477	147.625
2746.716	152.625
2748.953	145.29167
2751.189	149.625
2753.423	140.29167
2755.656	130.29167
2757.887	123.625
2760.117	126.29167
2762.346	124.625
2764.573	116.29167
2766.798	122.29167
2769.022	130.29167
2771.245	124.29167
2773.467	132.29167
2775.686	122.95833
2777.905	131.625
2780.122	125.625
2782.337	133.625
2784.552	125.625
2786.764	130.29167
2788.976	125.29167
2791.186	131.95833
2793.394	127.95833
2795.601	139.29167
2797.807	140.29167
2800.011	131.29167
2802.214	143.95833
2804.415	135.95833
2806.615	137.95833
2808.814	144.95833
2811.011	146.625
2813.206	143.625
2815.401	149.29167
2817.594	150.625
2819.785	158.625
2821.975	143.95833
2824.164	146.29167
2826.351	147.625
2828.537	159.625
2830.722	157.625
2832.905	150.625
2835.086	153.625
2837.267	176.95833
2839.445	175.29167
2841.623	172.29167
2843.799	177.625
2845.974	177.29167
2848.147	185.625
2850.319	194.29167
2852.489	200.29167
2854.659	216.29167
2856.826	207.95833
2858.993	227.95833
2861.158	201.625
2863.321	216.625
2865.483	228.95833
2867.644	223.95833
2869.804	219.625
2871.962	213.95833
2874.118	215.625
2876.274	217.95833
2878.428	214.29167
2880.58	224.95833
2882.731	208.29167
2884.881	216.95833
2887.03	225.29167
2889.177	217.29167
2891.322	222.29167
2893.467	214.29167
2895.61	216.29167
2897.751	234.29167
2899.892	215.95833
2902.03	229.625
2904.168	220.95833
2906.304	218.625
2908.439	240.625
2910.572	219.625
2912.704	227.625
2914.835	231.29167
2916.965	235.29167
2919.093	243.625
2921.219	209.625
2923.345	244.29167
2925.469	226.95833
2927.591	221.625
2929.712	210.95833
2931.832	224.625
2933.951	212.625
2936.068	202.625
2938.184	198.29167
2940.299	197.29167
2942.412	191.625
2944.524	184.29167
2946.634	187.95833
2948.744	163.95833
2950.851	200.29167
2952.958	165.29167
2955.063	176.95833
2957.167	170.29167
2959.269	159.29167
2961.371	184.95833
2963.471	154.95833
2965.569	170.625
2967.666	142.625
2969.762	148.29167
2971.857	143.625
2973.95	132.95833
2976.042	146.625
2978.133	138.29167
2980.222	135.625
2982.31	125.29167
2984.396	112.625
2986.482	118.625
2988.566	118.95833
2990.648	120.625
2992.73	118.95833
2994.81	110.29167
2996.889	123.625
2998.966	112.29167
3001.042	130.625
3003.117	118.29167
3005.191	117.625
3007.263	128.29167
3009.334	114.625
3011.403	123.625
3013.472	112.29167
3015.539	123.29167
3017.604	130.625
3019.669	102.95833
3021.732	109.95833
3023.794	111.625
3025.854	98.95833
3027.914	99.95833
3029.971	103.29167
3032.028	99.95833
3034.083	110.29167
3036.137	109.625
3038.19	97.29167
3040.242	89.625
3042.292	94.625
3044.341	96.625
3046.388	112.95833
3048.435	91.29167
3050.48	107.625
3052.524	98.625
3054.566	82.625
3056.607	93.29167
3058.647	91.29167
3060.686	80.95833
3062.723	76.95833
3064.759	78.625
3066.794	0.29167
3068.828	0.625
3070.86	1.95833
