-0.839	144.125
3.438	164.125
7.711	68.125
11.981	41.79167
16.247	31.45833
20.509	42.125
24.768	36.79167
29.024	46.125
33.276	29.125
37.524	45.125
41.769	31.79167
46.01	24.45833
50.247	43.45833
54.481	48.45833
58.712	57.125
62.939	36.45833
67.162	53.79167
71.382	46.45833
75.599	37.79167
79.812	46.79167
84.021	62.45833
88.227	44.79167
92.429	51.45833
96.628	38.125
100.823	50.125
105.015	52.79167
109.204	46.125
113.388	57.125
117.57	41.79167
121.748	59.79167
125.922	48.45833
130.093	65.45833
134.261	65.45833
138.425	57.79167
142.585	88.79167
146.742	64.79167
150.896	76.79167
155.046	81.125
159.193	113.125
163.336	168.125
167.476	286.79167
171.613	518.79167
175.746	822.45833
179.875	1204.125
184.002	1556.125
188.124	1846.125
192.244	1926.79167
196.36	1920.79167
200.472	1921.125
204.581	1881.45833
208.687	1808.79167
212.79	1804.79167
216.889	1821.45833
220.984	1858.79167
225.077	1853.79167
229.165	1878.125
233.251	1874.45833
237.333	1877.45833
241.412	1860.45833
245.487	1844.125
249.559	1817.125
253.628	1818.79167
257.694	1781.125
261.756	1767.45833
265.814	1744.125
269.87	1700.125
273.922	1644.125
277.97	1588.125
282.016	1585.125
286.058	1541.125
290.097	1566.79167
294.132	1581.45833
298.164	1574.45833
302.193	1523.79167
306.219	1438.45833
310.241	1337.79167
314.26	1240.125
318.276	1168.45833
322.288	1132.45833
326.297	1082.45833
330.303	1063.45833
334.305	1037.79167
338.305	1026.79167
342.301	1030.125
346.294	1018.125
350.283	1011.125
354.269	1001.125
358.252	971.45833
362.232	997.45833
366.209	994.125
370.182	975.125
374.152	969.125
378.119	992.45833
382.083	974.45833
386.043	999.125
390	972.45833
393.954	986.45833
397.905	987.45833
401.852	995.79167
405.797	980.79167
409.738	963.79167
413.676	969.45833
417.61	974.125
421.542	962.125
425.47	933.125
429.396	937.45833
433.318	932.79167
437.236	952.79167
441.152	952.45833
445.065	908.79167
448.974	931.79167
452.88	908.125
456.783	898.79167
460.683	899.79167
464.58	910.45833
468.473	909.125
472.364	919.79167
476.251	901.45833
480.135	906.79167
484.016	909.79167
487.894	920.45833
491.769	927.45833
495.641	916.45833
499.509	917.125
503.375	940.79167
507.237	911.79167
511.096	921.79167
514.952	928.79167
518.805	910.79167
522.655	920.125
526.502	916.45833
530.346	925.79167
534.187	932.79167
538.024	935.45833
541.859	908.45833
545.69	935.79167
549.519	932.45833
553.344	929.45833
557.166	899.125
560.985	896.125
564.802	897.79167
568.615	882.45833
572.425	870.79167
576.232	856.125
580.036	868.125
583.836	875.125
587.634	867.79167
591.429	872.125
595.221	911.79167
599.01	894.45833
602.796	882.79167
606.578	904.79167
610.358	913.125
614.135	896.45833
617.909	909.45833
621.679	889.45833
625.447	866.45833
629.212	881.125
632.973	890.125
636.732	881.79167
640.488	889.79167
644.241	876.79167
647.991	877.45833
651.737	887.79167
655.481	871.45833
659.222	878.79167
662.96	877.125
666.695	896.125
670.427	899.79167
674.156	880.79167
677.882	889.45833
681.605	867.45833
685.325	866.79167
689.043	892.45833
692.757	861.45833
696.468	870.125
700.177	867.79167
703.882	853.125
707.585	851.125
711.284	851.45833
714.981	829.79167
718.675	842.125
722.366	859.125
726.054	833.79167
729.739	847.125
733.421	857.125
737.1	847.45833
740.777	864.79167
744.45	855.79167
748.121	850.79167
751.789	890.125
755.453	868.45833
759.115	877.45833
762.774	872.79167
766.431	867.45833
770.084	891.125
773.734	879.79167
777.382	909.45833
781.027	911.125
784.669	896.79167
788.308	915.79167
791.944	917.79167
795.577	920.79167
799.208	921.79167
802.835	936.45833
806.46	933.79167
810.082	945.45833
813.701	945.79167
817.317	948.125
820.931	955.45833
824.542	959.79167
828.149	951.79167
831.754	922.125
835.357	916.125
838.956	920.79167
842.553	915.125
846.146	912.79167
849.737	901.125
853.326	915.79167
856.911	901.79167
860.493	923.45833
864.073	912.125
867.65	949.45833
871.225	950.125
874.796	924.79167
878.365	915.125
881.931	937.79167
885.494	958.125
889.054	942.79167
892.612	935.125
896.166	928.45833
899.719	923.125
903.268	895.45833
906.814	909.79167
910.358	904.79167
913.899	888.79167
917.438	901.45833
920.973	880.45833
924.506	885.45833
928.036	918.45833
931.564	922.125
935.088	941.45833
938.61	924.45833
942.129	919.79167
945.646	957.125
949.16	956.45833
952.671	964.125
956.179	975.125
959.685	985.45833
963.188	985.79167
966.688	991.125
970.185	947.79167
973.68	927.45833
977.173	916.125
980.662	894.125
984.149	900.125
987.633	878.125
991.114	895.125
994.593	919.45833
998.069	927.79167
1001.542	957.79167
1005.013	939.79167
1008.481	884.45833
1011.947	876.125
1015.409	864.79167
1018.869	875.79167
1022.327	868.79167
1025.782	863.45833
1029.234	853.125
1032.683	856.45833
1036.13	829.45833
1039.574	802.45833
1043.016	775.125
1046.455	765.45833
1049.891	762.79167
1053.325	767.125
1056.756	769.79167
1060.184	766.79167
1063.61	753.125
1067.033	767.79167
1070.454	757.79167
1073.872	781.125
1077.287	758.79167
1080.7	766.79167
1084.11	764.45833
1087.517	768.79167
1090.922	753.79167
1094.325	742.125
1097.724	736.125
1101.122	748.125
1104.516	748.45833
1107.908	726.79167
1111.298	741.45833
1114.684	746.45833
1118.069	754.125
1121.45	778.79167
1124.83	754.125
1128.206	769.45833
1131.58	773.125
1134.951	799.45833
1138.32	802.79167
1141.687	835.125
1145.05	844.79167
1148.412	857.125
1151.77	856.125
1155.126	849.45833
1158.48	827.125
1161.831	859.45833
1165.18	854.125
1168.525	861.125
1171.869	875.45833
1175.21	868.45833
1178.548	898.125
1181.884	896.125
1185.217	902.79167
1188.548	921.45833
1191.877	925.45833
1195.202	981.45833
1198.526	994.125
1201.846	990.125
1205.165	982.79167
1208.48	998.125
1211.794	1003.79167
1215.104	984.45833
1218.413	977.79167
1221.719	973.45833
1225.022	944.125
1228.323	934.79167
1231.621	949.45833
1234.917	946.45833
1238.21	962.125
1241.501	935.79167
1244.79	933.79167
1248.076	922.79167
1251.359	933.45833
1254.64	988.79167
1257.919	947.45833
1261.195	965.125
1264.468	977.79167
1267.74	988.45833
1271.008	1004.125
1274.275	1014.45833
1277.538	994.45833
1280.8	979.79167
1284.059	987.125
1287.315	1005.125
1290.569	989.45833
1293.821	994.45833
1297.07	1011.79167
1300.317	1019.125
1303.562	1024.45833
1306.803	1010.79167
1310.043	1007.45833
1313.28	994.125
1316.515	1013.79167
1319.747	1010.79167
1322.977	1003.45833
1326.204	990.125
1329.429	993.79167
1332.652	970.79167
1335.872	983.125
1339.09	963.125
1342.306	957.45833
1345.519	940.79167
1348.729	943.45833
1351.938	961.45833
1355.144	923.125
1358.347	940.45833
1361.548	928.125
1364.747	927.125
1367.944	908.45833
1371.138	919.79167
1374.329	912.45833
1377.518	915.45833
1380.705	932.125
1383.89	919.79167
1387.072	888.79167
1390.252	863.79167
1393.429	831.79167
1396.605	822.45833
1399.777	775.45833
1402.948	769.45833
1406.116	775.79167
1409.282	767.79167
1412.445	770.45833
1415.606	772.125
1418.765	776.79167
1421.921	794.79167
1425.075	796.79167
1428.227	820.125
1431.376	869.45833
1434.524	877.125
1437.668	910.125
1440.811	919.45833
1443.951	920.45833
1447.089	942.79167
1450.224	919.45833
1453.357	917.79167
1456.488	913.45833
1459.617	915.79167
1462.743	896.125
1465.867	861.45833
1468.989	866.45833
1472.108	846.45833
1475.225	836.79167
1478.34	837.125
1481.453	821.79167
1484.563	815.45833
1487.671	830.79167
1490.776	862.79167
1493.88	849.79167
1496.981	867.125
1500.08	885.79167
1503.176	878.45833
1506.271	899.125
1509.363	905.45833
1512.452	908.45833
1515.54	911.125
1518.625	908.79167
1521.708	963.79167
1524.789	987.79167
1527.867	1015.125
1530.944	1052.45833
1534.018	1085.79167
1537.089	1148.125
1540.159	1138.125
1543.226	1133.45833
1546.291	1107.79167
1549.354	1076.79167
1552.415	1067.79167
1555.473	1035.45833
1558.529	1036.79167
1561.583	1018.45833
1564.634	1015.45833
1567.684	1025.79167
1570.731	1017.79167
1573.776	1040.125
1576.819	1046.79167
1579.859	1062.79167
1582.898	1076.125
1585.934	1088.79167
1588.968	1096.125
1591.999	1078.125
1595.029	1080.125
1598.056	1096.125
1601.081	1100.125
1604.104	1109.79167
1607.125	1082.125
1610.144	1079.125
1613.16	1039.45833
1616.174	1025.45833
1619.186	1005.79167
1622.196	982.45833
1625.203	965.79167
1628.209	969.125
1631.212	953.79167
1634.213	967.125
1637.212	972.45833
1640.209	968.125
1643.203	935.45833
1646.196	918.125
1649.186	880.79167
1652.174	852.45833
1655.16	813.45833
1658.144	804.79167
1661.125	761.45833
1664.105	714.45833
1667.082	695.79167
1670.057	657.45833
1673.03	617.79167
1676.001	598.125
1678.97	548.79167
1681.937	521.125
1684.901	493.45833
1687.863	491.45833
1690.824	463.125
1693.782	475.125
1696.738	436.45833
1699.692	438.45833
1702.643	421.45833
1705.593	406.45833
1708.54	419.125
1711.486	423.125
1714.429	402.79167
1717.37	408.79167
1720.309	390.125
1723.246	399.45833
1726.181	381.125
1729.113	387.125
1732.044	389.125
1734.972	377.125
1737.899	400.45833
1740.823	389.45833
1743.745	405.79167
1746.665	367.45833
1749.583	359.79167
1752.499	359.125
1755.413	360.125
1758.325	350.125
1761.235	347.79167
1764.142	335.79167
1767.048	332.45833
1769.951	336.45833
1772.852	340.79167
1775.752	342.125
1778.649	337.45833
1781.544	352.79167
1784.437	326.45833
1787.328	342.125
1790.217	332.45833
1793.104	309.79167
1795.989	320.45833
1798.872	316.125
1801.753	330.125
1804.631	317.125
1807.508	323.45833
1810.383	319.125
1813.255	316.79167
1816.126	309.45833
1818.994	308.45833
1821.861	312.45833
1824.725	318.45833
1827.587	316.79167
1830.448	307.79167
1833.306	303.79167
1836.162	316.79167
1839.017	308.45833
1841.869	301.125
1844.719	305.125
1847.567	296.125
1850.414	290.125
1853.258	287.45833
1856.1	307.125
1858.94	316.125
1861.778	306.125
1864.614	292.79167
1867.448	302.79167
1870.28	280.125
1873.111	302.45833
1875.939	288.45833
1878.765	310.45833
1881.589	283.79167
1884.411	293.45833
1887.231	299.45833
1890.049	295.45833
1892.865	302.125
1895.68	287.125
1898.492	291.125
1901.302	278.125
1904.11	292.79167
1906.916	284.125
1909.721	278.79167
1912.523	297.125
1915.323	274.45833
1918.122	269.79167
1920.918	281.125
1923.712	273.45833
1926.505	286.45833
1929.295	259.125
1932.084	285.125
1934.87	273.125
1937.655	272.45833
1940.438	264.45833
1943.218	270.79167
1945.997	276.45833
1948.774	277.45833
1951.549	281.45833
1954.322	265.45833
1957.093	272.45833
1959.862	267.125
1962.629	267.45833
1965.394	262.45833
1968.157	253.125
1970.918	271.79167
1973.678	259.125
1976.435	262.79167
1979.19	253.125
1981.944	247.45833
1984.696	257.125
1987.445	256.79167
1990.193	257.45833
1992.939	268.125
1995.683	255.79167
1998.425	240.45833
2001.165	274.79167
2003.903	232.125
2006.639	252.45833
2009.374	251.79167
2012.106	259.125
2014.837	239.125
2017.566	260.45833
2020.292	246.79167
2023.017	241.45833
2025.74	239.45833
2028.461	241.125
2031.18	241.45833
2033.898	237.125
2036.613	249.79167
2039.327	249.125
2042.038	233.45833
2044.748	239.45833
2047.456	251.45833
2050.162	225.79167
2052.866	236.125
2055.568	247.125
2058.268	233.125
2060.967	241.45833
2063.663	235.125
2066.358	228.79167
2069.051	233.79167
2071.742	229.79167
2074.431	242.45833
2077.118	234.125
2079.804	222.45833
2082.487	227.79167
2085.169	244.45833
2087.849	255.79167
2090.527	229.45833
2093.203	233.79167
2095.877	236.125
2098.55	232.45833
2101.22	246.45833
2103.889	243.125
2106.556	235.45833
2109.221	250.45833
2111.884	239.45833
2114.546	263.125
2117.205	266.125
2119.863	294.79167
2122.519	288.45833
2125.173	305.125
2127.825	355.45833
2130.475	350.45833
2133.124	332.45833
2135.771	317.45833
2138.416	331.79167
2141.059	294.79167
2143.7	299.79167
2146.339	272.45833
2148.977	248.45833
2151.613	256.125
2154.247	249.79167
2156.879	250.45833
2159.51	227.45833
2162.138	234.125
2164.765	232.125
2167.39	223.45833
2170.013	242.125
2172.634	243.125
2175.254	224.125
2177.872	255.79167
2180.488	215.79167
2183.102	221.79167
2185.714	220.79167
2188.325	214.125
2190.934	218.79167
2193.541	225.45833
2196.146	213.125
2198.75	209.45833
2201.351	204.79167
2203.951	195.125
2206.549	211.45833
2209.146	196.79167
2211.74	196.79167
2214.333	212.45833
2216.924	193.125
2219.514	204.79167
2222.101	199.45833
2224.687	212.125
2227.271	197.125
2229.853	194.45833
2232.433	176.45833
2235.012	196.45833
2237.589	190.79167
2240.164	209.125
2242.738	188.125
2245.309	188.45833
2247.879	204.79167
2250.448	193.45833
2253.014	181.45833
2255.579	184.45833
2258.142	185.45833
2260.703	189.125
2263.262	178.125
2265.82	173.125
2268.376	195.125
2270.93	179.79167
2273.483	173.45833
2276.033	181.45833
2278.583	173.45833
2281.13	170.45833
2283.675	167.79167
2286.219	174.45833
2288.761	178.125
2291.302	184.125
2293.841	183.45833
2296.377	167.45833
2298.913	178.45833
2301.446	185.45833
2303.978	171.79167
2306.508	171.45833
2309.037	176.45833
2311.563	172.45833
2314.088	178.79167
2316.612	163.125
2319.133	179.79167
2321.653	174.45833
2324.171	163.79167
2326.688	173.125
2329.202	174.125
2331.715	174.125
2334.227	169.125
2336.736	173.45833
2339.244	160.125
2341.751	156.45833
2344.255	171.79167
2346.758	169.125
2349.259	159.45833
2351.759	169.45833
2354.257	155.45833
2356.753	155.45833
2359.247	155.79167
2361.74	162.45833
2364.231	156.45833
2366.721	172.45833
2369.209	155.125
2371.695	158.125
2374.179	156.79167
2376.662	143.45833
2379.143	167.125
2381.622	158.45833
2384.1	169.45833
2386.576	157.45833
2389.051	166.79167
2391.524	171.125
2393.995	163.79167
2396.464	154.125
2398.932	151.79167
2401.398	160.79167
2403.863	144.79167
2406.325	151.79167
2408.787	161.125
2411.246	153.79167
2413.704	152.125
2416.16	149.45833
2418.615	152.125
2421.068	159.45833
2423.519	147.79167
2425.969	140.79167
2428.417	160.79167
2430.863	174.79167
2433.308	157.45833
2435.751	154.125
2438.193	149.79167
2440.633	155.45833
2443.071	156.125
2445.508	144.45833
2447.943	146.45833
2450.376	143.79167
2452.808	155.125
2455.238	144.45833
2457.667	173.45833
2460.093	143.79167
2462.519	138.45833
2464.942	137.125
2467.365	144.45833
2469.785	150.45833
2472.204	140.45833
2474.621	142.79167
2477.037	158.125
2479.451	135.125
2481.863	129.79167
2484.274	140.45833
2486.683	145.45833
2489.091	147.45833
2491.497	146.45833
2493.901	148.125
2496.304	142.125
2498.705	152.45833
2501.105	144.79167
2503.503	154.45833
2505.899	133.125
2508.294	158.45833
2510.687	135.79167
2513.079	131.79167
2515.469	127.79167
2517.858	140.125
2520.245	159.79167
2522.63	140.45833
2525.014	137.79167
2527.396	133.79167
2529.776	131.79167
2532.156	138.125
2534.533	129.125
2536.909	132.125
2539.283	120.45833
2541.656	128.125
2544.027	148.79167
2546.397	132.125
2548.765	125.79167
2551.131	133.45833
2553.496	137.45833
2555.86	143.45833
2558.221	143.45833
2560.582	125.125
2562.94	123.45833
2565.298	132.79167
2567.653	140.79167
2570.007	117.45833
2572.36	134.125
2574.711	126.79167
2577.06	143.125
2579.408	135.79167
2581.754	129.45833
2584.099	128.45833
2586.442	129.45833
2588.784	135.125
2591.124	129.45833
2593.463	128.45833
2595.8	130.45833
2598.135	118.125
2600.469	122.45833
2602.802	138.45833
2605.133	137.125
2607.462	123.45833
2609.79	120.79167
2612.116	135.125
2614.441	131.45833
2616.764	128.125
2619.086	128.45833
2621.406	127.79167
2623.725	134.125
2626.042	127.125
2628.358	116.45833
2630.672	126.125
2632.985	132.79167
2635.296	128.45833
2637.606	127.125
2639.914	120.45833
2642.22	119.45833
2644.525	123.125
2646.829	119.79167
2649.131	138.125
2651.432	132.125
2653.731	119.45833
2656.028	131.79167
2658.324	131.79167
2660.619	113.45833
2662.912	135.125
2665.204	119.45833
2667.494	123.45833
2669.782	119.125
2672.07	134.79167
2674.355	134.125
2676.639	129.79167
2678.922	124.45833
2681.203	134.125
2683.483	119.125
2685.761	109.45833
2688.038	135.79167
2690.313	139.79167
2692.587	127.45833
2694.859	123.45833
2697.13	122.45833
2699.399	128.45833
2701.667	131.45833
2703.933	128.45833
2706.198	141.125
2708.461	138.45833
2710.723	140.79167
2712.984	131.45833
2715.243	135.79167
2717.5	125.79167
2719.757	137.79167
2722.011	127.79167
2724.264	136.125
2726.516	144.79167
2728.766	124.45833
2731.015	131.45833
2733.262	129.45833
2735.508	126.45833
2737.753	133.125
2739.996	120.79167
2742.237	122.45833
2744.477	136.125
2746.716	141.125
2748.953	137.79167
2751.189	138.45833
2753.423	135.79167
2755.656	127.125
2757.887	119.45833
2760.117	121.45833
2762.346	111.79167
2764.573	103.125
2766.798	120.125
2769.022	123.125
2771.245	118.125
2773.467	121.45833
2775.686	122.125
2777.905	125.79167
2780.122	126.79167
2782.337	124.125
2784.552	117.45833
2786.764	118.79167
2788.976	110.79167
2791.186	127.45833
2793.394	122.79167
2795.601	133.45833
2797.807	136.45833
2800.011	122.79167
2802.214	128.125
2804.415	132.79167
2806.615	128.45833
2808.814	128.79167
2811.011	132.79167
2813.206	132.79167
2815.401	143.79167
2817.594	140.125
2819.785	147.125
2821.975	132.45833
2824.164	135.79167
2826.351	136.79167
2828.537	155.79167
2830.722	149.125
2832.905	146.79167
2835.086	150.125
2837.267	174.79167
2839.445	166.125
2841.623	172.125
2843.799	170.79167
2845.974	177.79167
2848.147	187.125
2850.319	191.45833
2852.489	207.125
2854.659	199.125
2856.826	207.125
2858.993	222.79167
2861.158	202.79167
2863.321	214.45833
2865.483	223.125
2867.644	219.45833
2869.804	217.79167
2871.962	219.79167
2874.118	215.79167
2876.274	219.79167
2878.428	213.79167
2880.58	226.125
2882.731	211.125
2884.881	215.79167
2887.03	219.45833
2889.177	219.79167
2891.322	228.79167
2893.467	211.45833
2895.61	212.79167
2897.751	235.125
2899.892	219.45833
2902.03	223.79167
2904.168	224.125
2906.304	226.125
2908.439	246.45833
2910.572	228.45833
2912.704	233.45833
2914.835	227.45833
2916.965	237.125
2919.093	248.79167
2921.219	216.79167
2923.345	242.79167
2925.469	230.79167
2927.591	222.79167
2929.712	217.125
2931.832	220.45833
2933.951	222.79167
2936.068	206.45833
2938.184	208.45833
2940.299	199.125
2942.412	196.45833
2944.524	177.79167
2946.634	191.79167
2948.744	160.45833
2950.851	197.45833
2952.958	165.45833
2955.063	175.79167
2957.167	170.125
2959.269	158.125
2961.371	182.79167
2963.471	157.125
2965.569	168.45833
2967.666	148.79167
2969.762	142.45833
2971.857	131.79167
2973.95	132.125
2976.042	141.45833
2978.133	131.125
2980.222	134.45833
2982.31	124.45833
2984.396	105.125
2986.482	118.125
2988.566	114.125
2990.648	115.45833
2992.73	115.79167
2994.81	102.125
2996.889	115.45833
2998.966	113.79167
3001.042	123.45833
3003.117	110.45833
3005.191	115.79167
3007.263	119.79167
3009.334	115.125
3011.403	114.79167
3013.472	110.125
3015.539	118.45833
3017.604	132.125
3019.669	95.79167
3021.732	106.45833
3023.794	104.125
3025.854	96.45833
3027.914	95.125
3029.971	100.45833
3032.028	98.79167
3034.083	106.79167
3036.137	103.45833
3038.19	92.45833
3040.242	84.125
3042.292	91.45833
3044.341	91.125
3046.388	107.45833
3048.435	90.125
3050.48	103.125
3052.524	90.125
3054.566	79.79167
3056.607	89.45833
3058.647	86.45833
3060.686	76.79167
3062.723	69.45833
3064.759	78.45833
3066.794	0.79167
3068.828	1.125
3070.86	2.45833
