-0.839	145.91667
3.438	166.58333
7.711	69.25
11.981	43.25
16.247	31.58333
20.509	40.91667
24.768	36.91667
29.024	44.58333
33.276	28.91667
37.524	42.58333
41.769	30.58333
46.01	28.58333
50.247	46.91667
54.481	52.25
58.712	51.25
62.939	39.25
67.162	50.58333
71.382	46.58333
75.599	37.91667
79.812	43.58333
84.021	68.25
88.227	42.91667
92.429	53.58333
96.628	37.58333
100.823	54.58333
105.015	54.25
109.204	48.25
113.388	57.91667
117.57	45.58333
121.748	62.91667
125.922	48.58333
130.093	68.58333
134.261	66.25
138.425	54.25
142.585	86.91667
146.742	64.25
150.896	80.25
155.046	81.91667
159.193	114.58333
163.336	169.58333
167.476	286.25
171.613	514.58333
175.746	842.58333
179.875	1215.58333
184.002	1572.91667
188.124	1856.91667
192.244	1954.25
196.36	1949.25
200.472	1958.58333
204.581	1912.58333
208.687	1860.58333
212.79	1855.58333
216.889	1877.25
220.984	1900.25
225.077	1926.25
229.165	1925.58333
233.251	1926.58333
237.333	1946.91667
241.412	1925.25
245.487	1909.25
249.559	1885.25
253.628	1887.91667
257.694	1840.25
261.756	1846.25
265.814	1823.58333
269.87	1765.25
273.922	1718.91667
277.97	1681.91667
282.016	1657.25
286.058	1618.58333
290.097	1656.91667
294.132	1658.91667
298.164	1639.91667
302.193	1610.58333
306.219	1516.91667
310.241	1444.25
314.26	1333.58333
318.276	1263.25
322.288	1229.25
326.297	1194.58333
330.303	1162.25
334.305	1164.25
338.305	1139.91667
342.301	1142.25
346.294	1139.25
350.283	1118.58333
354.269	1119.91667
358.252	1097.25
362.232	1121.25
366.209	1116.58333
370.182	1107.25
374.152	1092.91667
378.119	1107.91667
382.083	1077.58333
386.043	1113.58333
390	1111.58333
393.954	1111.25
397.905	1096.91667
401.852	1119.58333
405.797	1088.58333
409.738	1108.91667
413.676	1114.58333
417.61	1109.58333
421.542	1110.25
425.47	1089.91667
429.396	1062.58333
433.318	1051.91667
437.236	1069.58333
441.152	1108.25
445.065	1052.91667
448.974	1048.91667
452.88	1051.25
456.783	1037.91667
460.683	1045.91667
464.58	1054.91667
468.473	1063.58333
472.364	1055.91667
476.251	1065.25
480.135	1054.58333
484.016	1072.58333
487.894	1076.91667
491.769	1087.91667
495.641	1064.91667
499.509	1064.58333
503.375	1081.91667
507.237	1075.58333
511.096	1063.91667
514.952	1079.58333
518.805	1078.91667
522.655	1096.58333
526.502	1074.58333
530.346	1072.25
534.187	1068.91667
538.024	1051.91667
541.859	1057.58333
545.69	1073.58333
549.519	1064.25
553.344	1065.25
557.166	1031.25
560.985	1039.25
564.802	1041.91667
568.615	1016.25
572.425	1011.91667
576.232	1004.25
580.036	995.58333
583.836	1012.58333
587.634	1010.91667
591.429	1015.91667
595.221	1046.25
599.01	1049.91667
602.796	1029.25
606.578	1042.58333
610.358	1058.25
614.135	1024.91667
617.909	1038.25
621.679	1019.25
625.447	1008.91667
629.212	1019.25
632.973	1017.58333
636.732	1025.25
640.488	1031.91667
644.241	1002.58333
647.991	994.25
651.737	1032.91667
655.481	1004.58333
659.222	1025.58333
662.96	998.91667
666.695	1020.25
670.427	1015.91667
674.156	1022.91667
677.882	1021.25
681.605	1007.58333
685.325	1004.25
689.043	1030.91667
692.757	1007.91667
696.468	997.25
700.177	995.25
703.882	982.58333
707.585	964.25
711.284	984.91667
714.981	977.91667
718.675	974.91667
722.366	981.91667
726.054	970.58333
729.739	966.91667
733.421	982.58333
737.1	963.25
740.777	975.58333
744.45	983.58333
748.121	982.58333
751.789	1000.91667
755.453	987.58333
759.115	986.25
762.774	1000.58333
766.431	998.91667
770.084	1008.91667
773.734	990.58333
777.382	1020.91667
781.027	1006.25
784.669	1008.58333
788.308	1013.25
791.944	1036.91667
795.577	1022.58333
799.208	1023.25
802.835	1029.25
806.46	1037.58333
810.082	1038.91667
813.701	1051.58333
817.317	1061.25
820.931	1042.25
824.542	1055.58333
828.149	1024.91667
831.754	1024.58333
835.357	1021.58333
838.956	1025.91667
842.553	1024.25
846.146	999.58333
849.737	984.91667
853.326	975.58333
856.911	980.58333
860.493	1015.25
864.073	1000.25
867.65	1036.58333
871.225	1042.91667
874.796	1009.91667
878.365	1004.58333
881.931	1030.58333
885.494	1026.58333
889.054	1020.25
892.612	1023.58333
896.166	1009.91667
899.719	983.25
903.268	978.25
906.814	989.25
910.358	961.58333
913.899	975.25
917.438	961.25
920.973	953.58333
924.506	966.58333
928.036	989.58333
931.564	997.91667
935.088	1006.25
938.61	995.58333
942.129	994.58333
945.646	1006.91667
949.16	1012.25
952.671	1031.91667
956.179	1042.58333
959.685	1049.25
963.188	1053.58333
966.688	1044.91667
970.185	998.91667
973.68	977.25
977.173	979.91667
980.662	965.58333
984.149	982.25
987.633	961.91667
991.114	972.58333
994.593	977.91667
998.069	994.91667
1001.542	1020.25
1005.013	1005.58333
1008.481	944.91667
1011.947	933.91667
1015.409	941.58333
1018.869	937.58333
1022.327	943.58333
1025.782	915.25
1029.234	913.25
1032.683	903.25
1036.13	880.58333
1039.574	856.58333
1043.016	840.91667
1046.455	835.91667
1049.891	824.58333
1053.325	826.58333
1056.756	815.25
1060.184	827.58333
1063.61	810.25
1067.033	826.25
1070.454	817.58333
1073.872	835.91667
1077.287	829.58333
1080.7	832.25
1084.11	812.58333
1087.517	811.25
1090.922	820.58333
1094.325	792.58333
1097.724	789.58333
1101.122	781.91667
1104.516	786.25
1107.908	778.58333
1111.298	782.91667
1114.684	807.25
1118.069	799.25
1121.45	820.91667
1124.83	786.91667
1128.206	824.91667
1131.58	811.25
1134.951	832.91667
1138.32	850.25
1141.687	879.91667
1145.05	886.58333
1148.412	887.91667
1151.77	879.25
1155.126	888.58333
1158.48	887.58333
1161.831	877.91667
1165.18	900.25
1168.525	895.91667
1171.869	903.58333
1175.21	905.91667
1178.548	927.58333
1181.884	913.25
1185.217	920.91667
1188.548	936.58333
1191.877	954.58333
1195.202	995.91667
1198.526	1009.91667
1201.846	1007.58333
1205.165	1010.91667
1208.48	1003.58333
1211.794	1021.58333
1215.104	1016.25
1218.413	983.25
1221.719	997.58333
1225.022	979.91667
1228.323	965.58333
1231.621	964.91667
1234.917	966.25
1238.21	992.25
1241.501	951.58333
1244.79	952.91667
1248.076	947.58333
1251.359	962.58333
1254.64	1001.25
1257.919	985.25
1261.195	987.91667
1264.468	1009.25
1267.74	1010.25
1271.008	1011.91667
1274.275	1011.91667
1277.538	1002.25
1280.8	1009.91667
1284.059	998.58333
1287.315	1010.58333
1290.569	1006.58333
1293.821	1013.25
1297.07	1014.91667
1300.317	1020.25
1303.562	1032.91667
1306.803	1014.58333
1310.043	1006.58333
1313.28	993.91667
1316.515	1006.91667
1319.747	1004.58333
1322.977	998.58333
1326.204	986.25
1329.429	987.58333
1332.652	988.25
1335.872	974.91667
1339.09	969.25
1342.306	957.91667
1345.519	948.25
1348.729	948.58333
1351.938	948.58333
1355.144	946.58333
1358.347	925.25
1361.548	942.91667
1364.747	946.25
1367.944	920.91667
1371.138	928.91667
1374.329	912.58333
1377.518	919.91667
1380.705	909.91667
1383.89	921.58333
1387.072	887.25
1390.252	872.91667
1393.429	846.25
1396.605	816.91667
1399.777	788.58333
1402.948	786.91667
1406.116	775.58333
1409.282	764.91667
1412.445	780.91667
1415.606	782.91667
1418.765	783.58333
1421.921	807.25
1425.075	805.91667
1428.227	826.58333
1431.376	857.91667
1434.524	885.25
1437.668	903.58333
1440.811	914.25
1443.951	922.25
1447.089	921.91667
1450.224	926.25
1453.357	913.58333
1456.488	920.91667
1459.617	907.91667
1462.743	891.58333
1465.867	858.91667
1468.989	872.58333
1472.108	847.25
1475.225	838.91667
1478.34	843.25
1481.453	827.91667
1484.563	818.25
1487.671	830.25
1490.776	841.58333
1493.88	849.58333
1496.981	861.58333
1500.08	864.25
1503.176	865.25
1506.271	882.91667
1509.363	882.25
1512.452	894.25
1515.54	898.25
1518.625	898.25
1521.708	948.25
1524.789	960.58333
1527.867	990.25
1530.944	1033.25
1534.018	1061.91667
1537.089	1098.58333
1540.159	1107.58333
1543.226	1112.91667
1546.291	1093.25
1549.354	1068.58333
1552.415	1050.25
1555.473	1033.58333
1558.529	1017.58333
1561.583	993.91667
1564.634	986.25
1567.684	993.58333
1570.731	981.58333
1573.776	991.58333
1576.819	1017.25
1579.859	1009.91667
1582.898	1040.58333
1585.934	1046.91667
1588.968	1057.58333
1591.999	1030.58333
1595.029	1027.91667
1598.056	1051.58333
1601.081	1064.58333
1604.104	1058.91667
1607.125	1049.25
1610.144	1023.58333
1613.16	995.91667
1616.174	986.25
1619.186	963.25
1622.196	940.91667
1625.203	909.25
1628.209	917.25
1631.212	923.25
1634.213	930.25
1637.212	947.25
1640.209	940.58333
1643.203	909.25
1646.196	888.25
1649.186	838.58333
1652.174	841.91667
1655.16	790.91667
1658.144	794.58333
1661.125	754.25
1664.105	728.25
1667.082	699.25
1670.057	659.91667
1673.03	616.58333
1676.001	598.25
1678.97	554.58333
1681.937	529.25
1684.901	505.25
1687.863	506.25
1690.824	471.25
1693.782	488.91667
1696.738	456.58333
1699.692	458.58333
1702.643	436.25
1705.593	441.25
1708.54	431.91667
1711.486	439.91667
1714.429	423.58333
1717.37	429.91667
1720.309	418.91667
1723.246	419.91667
1726.181	404.25
1729.113	399.58333
1732.044	406.25
1734.972	397.25
1737.899	418.25
1740.823	415.25
1743.745	440.91667
1746.665	384.91667
1749.583	379.91667
1752.499	377.58333
1755.413	379.91667
1758.325	367.58333
1761.235	379.25
1764.142	358.25
1767.048	357.58333
1769.951	360.91667
1772.852	357.58333
1775.752	370.25
1778.649	363.25
1781.544	380.25
1784.437	349.58333
1787.328	353.58333
1790.217	350.91667
1793.104	332.25
1795.989	341.58333
1798.872	337.91667
1801.753	348.58333
1804.631	342.25
1807.508	355.25
1810.383	342.91667
1813.255	337.58333
1816.126	337.58333
1818.994	333.25
1821.861	328.58333
1824.725	338.58333
1827.587	339.91667
1830.448	337.58333
1833.306	321.58333
1836.162	339.91667
1839.017	323.25
1841.869	323.25
1844.719	329.91667
1847.567	315.58333
1850.414	303.25
1853.258	309.25
1856.1	326.25
1858.94	324.58333
1861.778	322.58333
1864.614	306.58333
1867.448	321.58333
1870.28	301.58333
1873.111	322.91667
1875.939	307.25
1878.765	326.91667
1881.589	313.58333
1884.411	307.91667
1887.231	316.58333
1890.049	314.25
1892.865	321.25
1895.68	301.58333
1898.492	313.91667
1901.302	295.25
1904.11	306.58333
1906.916	297.58333
1909.721	298.58333
1912.523	306.25
1915.323	288.58333
1918.122	295.58333
1920.918	303.25
1923.712	287.58333
1926.505	297.91667
1929.295	276.58333
1932.084	292.25
1934.87	298.58333
1937.655	286.91667
1940.438	273.91667
1943.218	292.25
1945.997	291.25
1948.774	295.91667
1951.549	294.91667
1954.322	279.25
1957.093	282.91667
1959.862	281.91667
1962.629	284.25
1965.394	280.25
1968.157	268.91667
1970.918	286.91667
1973.678	276.91667
1976.435	290.58333
1979.19	273.58333
1981.944	267.91667
1984.696	267.91667
1987.445	265.91667
1990.193	283.25
1992.939	287.58333
1995.683	278.58333
1998.425	263.25
2001.165	287.91667
2003.903	253.91667
2006.639	260.25
2009.374	275.25
2012.106	267.91667
2014.837	247.58333
2017.566	272.91667
2020.292	265.58333
2023.017	260.91667
2025.74	248.91667
2028.461	245.91667
2031.18	263.58333
2033.898	252.91667
2036.613	256.25
2039.327	259.91667
2042.038	244.58333
2044.748	260.58333
2047.456	258.25
2050.162	241.91667
2052.866	251.58333
2055.568	261.58333
2058.268	249.91667
2060.967	267.25
2063.663	241.58333
2066.358	249.58333
2069.051	244.58333
2071.742	252.25
2074.431	256.25
2077.118	247.58333
2079.804	242.91667
2082.487	241.58333
2085.169	250.25
2087.849	264.91667
2090.527	240.25
2093.203	243.91667
2095.877	252.25
2098.55	249.91667
2101.22	262.58333
2103.889	257.91667
2106.556	249.25
2109.221	258.58333
2111.884	246.91667
2114.546	275.91667
2117.205	264.25
2119.863	298.25
2122.519	281.91667
2125.173	303.91667
2127.825	338.25
2130.475	334.58333
2133.124	315.91667
2135.771	308.25
2138.416	316.58333
2141.059	285.58333
2143.7	292.91667
2146.339	276.58333
2148.977	244.91667
2151.613	261.25
2154.247	250.91667
2156.879	251.58333
2159.51	236.58333
2162.138	239.25
2164.765	234.58333
2167.39	225.58333
2170.013	250.58333
2172.634	245.91667
2175.254	230.91667
2177.872	265.91667
2180.488	224.91667
2183.102	231.25
2185.714	226.91667
2188.325	215.58333
2190.934	233.58333
2193.541	232.91667
2196.146	219.58333
2198.75	211.58333
2201.351	215.58333
2203.951	204.25
2206.549	218.91667
2209.146	216.91667
2211.74	206.25
2214.333	222.58333
2216.924	205.58333
2219.514	212.58333
2222.101	206.91667
2224.687	216.91667
2227.271	197.58333
2229.853	201.25
2232.433	187.58333
2235.012	213.91667
2237.589	201.25
2240.164	218.58333
2242.738	202.25
2245.309	193.58333
2247.879	215.58333
2250.448	208.25
2253.014	190.58333
2255.579	186.25
2258.142	198.58333
2260.703	190.58333
2263.262	192.58333
2265.82	186.25
2268.376	201.58333
2270.93	193.91667
2273.483	180.58333
2276.033	197.58333
2278.583	192.25
2281.13	191.25
2283.675	175.91667
2286.219	184.25
2288.761	197.25
2291.302	185.25
2293.841	199.58333
2296.377	177.58333
2298.913	191.91667
2301.446	200.25
2303.978	188.91667
2306.508	186.91667
2309.037	184.91667
2311.563	188.25
2314.088	184.58333
2316.612	172.58333
2319.133	186.25
2321.653	189.91667
2324.171	178.58333
2326.688	189.58333
2329.202	183.25
2331.715	185.58333
2334.227	190.25
2336.736	178.91667
2339.244	171.58333
2341.751	166.58333
2344.255	191.25
2346.758	181.25
2349.259	165.91667
2351.759	176.91667
2354.257	168.91667
2356.753	169.58333
2359.247	168.58333
2361.74	176.91667
2364.231	173.58333
2366.721	174.91667
2369.209	170.91667
2371.695	169.91667
2374.179	166.58333
2376.662	154.91667
2379.143	184.58333
2381.622	173.58333
2384.1	179.91667
2386.576	164.58333
2389.051	178.25
2391.524	176.91667
2393.995	174.91667
2396.464	165.58333
2398.932	165.91667
2401.398	174.58333
2403.863	161.58333
2406.325	161.58333
2408.787	169.25
2411.246	168.58333
2413.704	167.58333
2416.16	163.25
2418.615	163.91667
2421.068	166.25
2423.519	159.25
2425.969	158.58333
2428.417	178.58333
2430.863	185.91667
2433.308	178.25
2435.751	164.25
2438.193	166.91667
2440.633	167.91667
2443.071	174.91667
2445.508	161.91667
2447.943	161.91667
2450.376	159.91667
2452.808	163.58333
2455.238	161.91667
2457.667	193.25
2460.093	149.58333
2462.519	144.25
2464.942	157.25
2467.365	159.58333
2469.785	162.25
2472.204	158.58333
2474.621	153.25
2477.037	171.91667
2479.451	149.25
2481.863	149.91667
2484.274	152.91667
2486.683	154.91667
2489.091	172.25
2491.497	161.58333
2493.901	155.91667
2496.304	153.58333
2498.705	167.25
2501.105	160.58333
2503.503	174.58333
2505.899	143.25
2508.294	170.25
2510.687	146.91667
2513.079	152.58333
2515.469	151.58333
2517.858	149.58333
2520.245	169.25
2522.63	153.58333
2525.014	149.25
2527.396	148.25
2529.776	150.25
2532.156	156.25
2534.533	146.91667
2536.909	143.91667
2539.283	134.91667
2541.656	142.25
2544.027	162.58333
2546.397	154.58333
2548.765	145.25
2551.131	152.25
2553.496	146.91667
2555.86	154.25
2558.221	158.25
2560.582	140.58333
2562.94	136.58333
2565.298	152.25
2567.653	156.58333
2570.007	136.91667
2572.36	152.25
2574.711	143.91667
2577.06	160.91667
2579.408	147.25
2581.754	149.25
2584.099	147.91667
2586.442	144.91667
2588.784	158.58333
2591.124	146.25
2593.463	149.25
2595.8	153.58333
2598.135	139.91667
2600.469	139.91667
2602.802	150.91667
2605.133	158.91667
2607.462	140.25
2609.79	135.91667
2612.116	155.58333
2614.441	142.58333
2616.764	149.25
2619.086	147.25
2621.406	141.91667
2623.725	159.25
2626.042	145.25
2628.358	133.91667
2630.672	145.25
2632.985	152.58333
2635.296	152.91667
2637.606	146.91667
2639.914	142.58333
2642.22	146.25
2644.525	141.91667
2646.829	141.91667
2649.131	161.91667
2651.432	155.91667
2653.731	140.91667
2656.028	159.58333
2658.324	147.25
2660.619	137.58333
2662.912	154.58333
2665.204	134.25
2667.494	150.25
2669.782	146.58333
2672.07	153.91667
2674.355	157.58333
2676.639	153.58333
2678.922	141.91667
2681.203	152.91667
2683.483	142.25
2685.761	136.91667
2688.038	154.25
2690.313	164.25
2692.587	155.25
2694.859	144.58333
2697.13	147.91667
2699.399	151.91667
2701.667	155.58333
2703.933	154.58333
2706.198	159.25
2708.461	161.25
2710.723	153.58333
2712.984	153.25
2715.243	160.25
2717.5	149.25
2719.757	164.58333
2722.011	150.91667
2724.264	160.58333
2726.516	172.91667
2728.766	152.58333
2731.015	159.91667
2733.262	159.25
2735.508	156.25
2737.753	162.25
2739.996	148.25
2742.237	146.25
2744.477	161.25
2746.716	167.25
2748.953	164.58333
2751.189	163.58333
2753.423	156.25
2755.656	150.58333
2757.887	142.91667
2760.117	149.25
2762.346	142.58333
2764.573	135.91667
2766.798	143.91667
2769.022	145.91667
2771.245	140.25
2773.467	145.58333
2775.686	141.91667
2777.905	152.25
2780.122	148.91667
2782.337	157.25
2784.552	149.25
2786.764	148.91667
2788.976	150.25
2791.186	148.91667
2793.394	152.58333
2795.601	158.91667
2797.807	163.58333
2800.011	156.91667
2802.214	160.25
2804.415	159.25
2806.615	159.25
2808.814	161.91667
2811.011	167.58333
2813.206	160.58333
2815.401	170.91667
2817.594	165.91667
2819.785	173.25
2821.975	162.25
2824.164	161.25
2826.351	172.25
2828.537	185.25
2830.722	177.25
2832.905	170.58333
2835.086	183.91667
2837.267	196.58333
2839.445	190.58333
2841.623	190.25
2843.799	195.58333
2845.974	205.25
2848.147	198.58333
2850.319	218.58333
2852.489	225.25
2854.659	223.25
2856.826	228.58333
2858.993	240.25
2861.158	221.25
2863.321	235.25
2865.483	243.91667
2867.644	235.58333
2869.804	240.58333
2871.962	227.91667
2874.118	244.58333
2876.274	242.58333
2878.428	237.58333
2880.58	237.58333
2882.731	230.58333
2884.881	240.91667
2887.03	244.58333
2889.177	241.91667
2891.322	248.91667
2893.467	231.25
2895.61	233.91667
2897.751	253.91667
2899.892	245.25
2902.03	248.58333
2904.168	238.25
2906.304	241.91667
2908.439	256.91667
2910.572	235.25
2912.704	248.25
2914.835	257.58333
2916.965	251.91667
2919.093	266.91667
2921.219	231.58333
2923.345	267.58333
2925.469	246.25
2927.591	246.58333
2929.712	232.58333
2931.832	243.58333
2933.951	242.91667
2936.068	230.91667
2938.184	231.91667
2940.299	223.25
2942.412	220.58333
2944.524	205.91667
2946.634	219.91667
2948.744	186.91667
2950.851	228.58333
2952.958	197.58333
2955.063	204.91667
2957.167	198.25
2959.269	178.91667
2961.371	213.91667
2963.471	186.25
2965.569	201.91667
2967.666	177.25
2969.762	175.25
2971.857	168.25
2973.95	165.25
2976.042	178.91667
2978.133	169.91667
2980.222	158.91667
2982.31	157.58333
2984.396	140.58333
2986.482	150.91667
2988.566	158.58333
2990.648	152.25
2992.73	156.58333
2994.81	140.91667
2996.889	152.58333
2998.966	146.58333
3001.042	157.25
3003.117	145.91667
3005.191	152.58333
3007.263	156.58333
3009.334	148.25
3011.403	150.25
3013.472	145.25
3015.539	158.58333
3017.604	165.58333
3019.669	132.91667
3021.732	136.91667
3023.794	147.25
3025.854	132.91667
3027.914	136.91667
3029.971	131.91667
3032.028	138.25
3034.083	147.25
3036.137	144.58333
3038.19	122.25
3040.242	123.91667
3042.292	118.91667
3044.341	123.25
3046.388	141.25
3048.435	123.58333
3050.48	135.25
3052.524	122.58333
3054.566	109.58333
3056.607	132.25
3058.647	116.91667
3060.686	109.91667
3062.723	102.25
3064.759	106.58333
3066.794	-1.08333
3068.828	0.25
3070.86	1.91667
