-0.839	140.375
3.438	158.04167
7.711	67.375
11.981	44.04167
16.247	33.375
20.509	38.70833
24.768	36.375
29.024	44.04167
33.276	30.70833
37.524	43.04167
41.769	33.375
46.01	28.04167
50.247	44.375
54.481	51.375
58.712	56.375
62.939	40.70833
67.162	53.70833
71.382	43.70833
75.599	39.70833
79.812	46.375
84.021	59.375
88.227	43.375
92.429	53.04167
96.628	38.04167
100.823	49.70833
105.015	51.70833
109.204	49.375
113.388	60.375
117.57	47.04167
121.748	62.70833
125.922	51.375
130.093	63.70833
134.261	66.375
138.425	56.375
142.585	87.04167
146.742	66.04167
150.896	83.70833
155.046	81.70833
159.193	121.375
163.336	177.04167
167.476	305.375
171.613	546.375
175.746	885.375
179.875	1292.04167
184.002	1687.70833
188.124	2009.04167
192.244	2119.70833
196.36	2159.375
200.472	2142.04167
204.581	2109.04167
208.687	2066.70833
212.79	2073.70833
216.889	2097.375
220.984	2110.04167
225.077	2124.375
229.165	2132.70833
233.251	2163.04167
237.333	2148.70833
241.412	2149.375
245.487	2147.04167
249.559	2115.04167
253.628	2128.04167
257.694	2098.70833
261.756	2131.70833
265.814	2076.04167
269.87	1999.375
273.922	1937.375
277.97	1933.04167
282.016	1903.70833
286.058	1883.04167
290.097	1874.04167
294.132	1909.04167
298.164	1890.375
302.193	1852.70833
306.219	1750.04167
310.241	1674.375
314.26	1568.375
318.276	1508.04167
322.288	1469.04167
326.297	1419.375
330.303	1408.04167
334.305	1386.04167
338.305	1392.375
342.301	1391.04167
346.294	1378.375
350.283	1377.70833
354.269	1357.375
358.252	1360.375
362.232	1345.04167
366.209	1358.04167
370.182	1343.70833
374.152	1347.70833
378.119	1342.375
382.083	1340.70833
386.043	1353.04167
390	1363.375
393.954	1387.04167
397.905	1385.70833
401.852	1416.04167
405.797	1384.375
409.738	1441.70833
413.676	1486.04167
417.61	1556.70833
421.542	1421.70833
425.47	1352.375
429.396	1326.70833
433.318	1319.04167
437.236	1322.04167
441.152	1350.375
445.065	1314.04167
448.974	1307.375
452.88	1296.375
456.783	1302.375
460.683	1283.70833
464.58	1305.04167
468.473	1308.70833
472.364	1299.70833
476.251	1287.04167
480.135	1313.04167
484.016	1321.375
487.894	1328.70833
491.769	1328.375
495.641	1314.375
499.509	1328.375
503.375	1326.375
507.237	1330.70833
511.096	1320.375
514.952	1336.375
518.805	1355.375
522.655	1328.375
526.502	1323.375
530.346	1327.375
534.187	1316.70833
538.024	1318.375
541.859	1305.04167
545.69	1334.375
549.519	1301.375
553.344	1311.375
557.166	1284.70833
560.985	1282.375
564.802	1297.375
568.615	1251.70833
572.425	1253.375
576.232	1258.70833
580.036	1247.70833
583.836	1234.375
587.634	1250.04167
591.429	1247.375
595.221	1288.375
599.01	1273.70833
602.796	1271.375
606.578	1285.375
610.358	1277.04167
614.135	1284.375
617.909	1282.70833
621.679	1256.04167
625.447	1271.375
629.212	1269.04167
632.973	1269.375
636.732	1273.04167
640.488	1272.375
644.241	1236.04167
647.991	1242.70833
651.737	1260.70833
655.481	1227.04167
659.222	1244.375
662.96	1237.04167
666.695	1249.375
670.427	1251.375
674.156	1253.375
677.882	1257.70833
681.605	1251.70833
685.325	1241.04167
689.043	1257.04167
692.757	1233.04167
696.468	1224.04167
700.177	1221.70833
703.882	1200.375
707.585	1205.04167
711.284	1201.04167
714.981	1204.70833
718.675	1195.04167
722.366	1199.70833
726.054	1181.70833
729.739	1185.04167
733.421	1194.375
737.1	1171.70833
740.777	1198.04167
744.45	1194.375
748.121	1191.375
751.789	1223.375
755.453	1207.375
759.115	1216.70833
762.774	1201.375
766.431	1207.04167
770.084	1202.04167
773.734	1209.70833
777.382	1226.375
781.027	1215.70833
784.669	1217.375
788.308	1206.70833
791.944	1228.04167
795.577	1224.70833
799.208	1229.04167
802.835	1230.375
806.46	1239.04167
810.082	1245.70833
813.701	1248.375
817.317	1255.70833
820.931	1253.375
824.542	1253.04167
828.149	1233.375
831.754	1224.04167
835.357	1211.375
838.956	1223.375
842.553	1232.375
846.146	1246.70833
849.737	1197.70833
853.326	1196.375
856.911	1175.70833
860.493	1197.375
864.073	1213.375
867.65	1303.375
871.225	1292.04167
874.796	1209.375
878.365	1197.375
881.931	1214.375
885.494	1207.70833
889.054	1198.04167
892.612	1206.375
896.166	1185.375
899.719	1166.04167
903.268	1150.375
906.814	1153.70833
910.358	1150.70833
913.899	1137.70833
917.438	1132.04167
920.973	1106.04167
924.506	1118.70833
928.036	1161.70833
931.564	1162.04167
935.088	1186.04167
938.61	1165.375
942.129	1147.70833
945.646	1167.04167
949.16	1178.375
952.671	1195.04167
956.179	1221.04167
959.685	1204.375
963.188	1222.04167
966.688	1212.04167
970.185	1171.375
973.68	1145.70833
977.173	1133.375
980.662	1115.375
984.149	1135.70833
987.633	1108.375
991.114	1125.70833
994.593	1142.70833
998.069	1167.04167
1001.542	1204.70833
1005.013	1207.04167
1008.481	1127.04167
1011.947	1115.04167
1015.409	1082.04167
1018.869	1083.375
1022.327	1094.70833
1025.782	1077.04167
1029.234	1061.70833
1032.683	1041.375
1036.13	1033.04167
1039.574	986.70833
1043.016	979.70833
1046.455	978.04167
1049.891	960.375
1053.325	959.375
1056.756	957.70833
1060.184	959.375
1063.61	951.70833
1067.033	976.04167
1070.454	964.04167
1073.872	978.375
1077.287	972.70833
1080.7	964.70833
1084.11	971.375
1087.517	970.04167
1090.922	963.70833
1094.325	938.04167
1097.724	923.375
1101.122	923.70833
1104.516	922.70833
1107.908	918.04167
1111.298	927.70833
1114.684	925.70833
1118.069	932.04167
1121.45	951.70833
1124.83	918.375
1128.206	938.375
1131.58	960.04167
1134.951	962.375
1138.32	984.04167
1141.687	1013.375
1145.05	1024.375
1148.412	1029.04167
1151.77	1031.375
1155.126	1016.375
1158.48	1006.375
1161.831	1020.375
1165.18	1015.04167
1168.525	1017.375
1171.869	1031.375
1175.21	1022.70833
1178.548	1049.70833
1181.884	1056.70833
1185.217	1048.70833
1188.548	1071.375
1191.877	1082.04167
1195.202	1122.04167
1198.526	1147.04167
1201.846	1142.04167
1205.165	1139.70833
1208.48	1123.70833
1211.794	1122.04167
1215.104	1131.70833
1218.413	1116.04167
1221.719	1116.04167
1225.022	1085.70833
1228.323	1087.70833
1231.621	1088.375
1234.917	1081.04167
1238.21	1111.70833
1241.501	1082.04167
1244.79	1067.70833
1248.076	1058.04167
1251.359	1080.375
1254.64	1125.375
1257.919	1101.04167
1261.195	1126.70833
1264.468	1119.70833
1267.74	1145.04167
1271.008	1142.70833
1274.275	1143.04167
1277.538	1136.70833
1280.8	1142.375
1284.059	1109.70833
1287.315	1133.375
1290.569	1130.04167
1293.821	1126.375
1297.07	1132.375
1300.317	1128.70833
1303.562	1130.04167
1306.803	1123.04167
1310.043	1126.04167
1313.28	1119.70833
1316.515	1108.375
1319.747	1117.70833
1322.977	1103.375
1326.204	1096.70833
1329.429	1086.04167
1332.652	1082.04167
1335.872	1087.70833
1339.09	1072.70833
1342.306	1083.375
1345.519	1072.375
1348.729	1069.04167
1351.938	1069.70833
1355.144	1051.375
1358.347	1049.375
1361.548	1051.375
1364.747	1043.04167
1367.944	1034.70833
1371.138	1019.375
1374.329	1029.04167
1377.518	1019.375
1380.705	1019.375
1383.89	1030.04167
1387.072	994.375
1390.252	975.375
1393.429	957.375
1396.605	929.375
1399.777	905.04167
1402.948	893.70833
1406.116	893.375
1409.282	882.375
1412.445	874.375
1415.606	892.375
1418.765	889.375
1421.921	908.375
1425.075	903.375
1428.227	918.70833
1431.376	961.375
1434.524	985.70833
1437.668	1002.375
1440.811	999.70833
1443.951	1010.70833
1447.089	1032.04167
1450.224	1009.04167
1453.357	1010.04167
1456.488	1012.04167
1459.617	1017.04167
1462.743	983.375
1465.867	961.70833
1468.989	966.375
1472.108	941.04167
1475.225	940.375
1478.34	919.04167
1481.453	918.375
1484.563	926.70833
1487.671	940.04167
1490.776	944.70833
1493.88	934.04167
1496.981	960.375
1500.08	949.70833
1503.176	969.375
1506.271	984.70833
1509.363	995.70833
1512.452	989.375
1515.54	990.70833
1518.625	997.04167
1521.708	1034.375
1524.789	1058.04167
1527.867	1080.04167
1530.944	1128.70833
1534.018	1165.70833
1537.089	1196.375
1540.159	1204.375
1543.226	1207.70833
1546.291	1170.04167
1549.354	1156.04167
1552.415	1140.70833
1555.473	1121.04167
1558.529	1104.70833
1561.583	1100.70833
1564.634	1087.70833
1567.684	1080.375
1570.731	1084.375
1573.776	1093.70833
1576.819	1091.375
1579.859	1107.70833
1582.898	1133.04167
1585.934	1130.04167
1588.968	1136.375
1591.999	1127.375
1595.029	1121.375
1598.056	1133.375
1601.081	1147.04167
1604.104	1134.70833
1607.125	1113.70833
1610.144	1106.70833
1613.16	1076.04167
1616.174	1070.04167
1619.186	1045.70833
1622.196	1047.04167
1625.203	1003.70833
1628.209	1008.04167
1631.212	1008.375
1634.213	1003.70833
1637.212	1007.70833
1640.209	1013.375
1643.203	969.70833
1646.196	952.04167
1649.186	918.70833
1652.174	902.375
1655.16	858.04167
1658.144	859.70833
1661.125	825.375
1664.105	799.04167
1667.082	770.375
1670.057	709.70833
1673.03	684.04167
1676.001	656.70833
1678.97	627.375
1681.937	606.70833
1684.901	571.04167
1687.863	564.375
1690.824	539.70833
1693.782	552.04167
1696.738	512.70833
1699.692	517.70833
1702.643	493.04167
1705.593	497.375
1708.54	494.04167
1711.486	521.70833
1714.429	480.375
1717.37	494.375
1720.309	474.04167
1723.246	483.70833
1726.181	467.04167
1729.113	467.375
1732.044	466.375
1734.972	460.375
1737.899	475.04167
1740.823	469.375
1743.745	492.375
1746.665	443.70833
1749.583	438.04167
1752.499	442.375
1755.413	438.04167
1758.325	419.375
1761.235	432.70833
1764.142	421.375
1767.048	424.375
1769.951	413.375
1772.852	419.04167
1775.752	462.70833
1778.649	505.70833
1781.544	459.04167
1784.437	407.375
1787.328	414.04167
1790.217	411.375
1793.104	382.70833
1795.989	392.375
1798.872	389.04167
1801.753	395.04167
1804.631	389.04167
1807.508	399.70833
1810.383	390.375
1813.255	387.04167
1816.126	385.04167
1818.994	389.70833
1821.861	383.70833
1824.725	395.375
1827.587	387.70833
1830.448	380.04167
1833.306	373.70833
1836.162	394.04167
1839.017	374.70833
1841.869	374.04167
1844.719	383.04167
1847.567	363.375
1850.414	364.70833
1853.258	366.375
1856.1	369.70833
1858.94	379.70833
1861.778	372.375
1864.614	352.375
1867.448	371.70833
1870.28	349.70833
1873.111	380.70833
1875.939	360.375
1878.765	375.04167
1881.589	359.04167
1884.411	366.70833
1887.231	374.70833
1890.049	353.70833
1892.865	373.04167
1895.68	351.375
1898.492	374.70833
1901.302	363.70833
1904.11	347.04167
1906.916	349.375
1909.721	344.375
1912.523	351.04167
1915.323	330.70833
1918.122	335.375
1920.918	346.04167
1923.712	335.375
1926.505	343.375
1929.295	318.04167
1932.084	341.04167
1934.87	340.375
1937.655	319.375
1940.438	331.375
1943.218	331.04167
1945.997	337.375
1948.774	346.70833
1951.549	340.375
1954.322	327.375
1957.093	324.04167
1959.862	325.70833
1962.629	320.375
1965.394	324.04167
1968.157	314.375
1970.918	331.375
1973.678	313.70833
1976.435	330.375
1979.19	317.375
1981.944	308.04167
1984.696	311.04167
1987.445	303.70833
1990.193	313.70833
1992.939	318.375
1995.683	318.375
1998.425	289.375
2001.165	327.04167
2003.903	292.70833
2006.639	306.375
2009.374	309.375
2012.106	310.375
2014.837	290.70833
2017.566	311.70833
2020.292	299.04167
2023.017	296.375
2025.74	294.70833
2028.461	290.70833
2031.18	302.04167
2033.898	289.04167
2036.613	298.375
2039.327	301.70833
2042.038	282.70833
2044.748	291.04167
2047.456	291.70833
2050.162	281.04167
2052.866	285.04167
2055.568	291.04167
2058.268	286.04167
2060.967	297.70833
2063.663	276.04167
2066.358	278.70833
2069.051	277.04167
2071.742	277.04167
2074.431	288.70833
2077.118	277.375
2079.804	269.375
2082.487	278.375
2085.169	289.70833
2087.849	303.375
2090.527	279.70833
2093.203	280.375
2095.877	278.04167
2098.55	286.04167
2101.22	290.04167
2103.889	285.70833
2106.556	273.70833
2109.221	293.70833
2111.884	284.375
2114.546	305.04167
2117.205	302.70833
2119.863	331.70833
2122.519	328.70833
2125.173	345.375
2127.825	367.70833
2130.475	363.375
2133.124	359.04167
2135.771	351.70833
2138.416	359.375
2141.059	329.375
2143.7	332.04167
2146.339	302.70833
2148.977	284.04167
2151.613	301.04167
2154.247	295.375
2156.879	286.375
2159.51	275.70833
2162.138	268.70833
2164.765	270.375
2167.39	253.375
2170.013	281.04167
2172.634	275.04167
2175.254	259.375
2177.872	295.375
2180.488	254.04167
2183.102	259.375
2185.714	259.375
2188.325	246.04167
2190.934	252.04167
2193.541	259.04167
2196.146	251.04167
2198.75	237.04167
2201.351	241.04167
2203.951	227.70833
2206.549	247.04167
2209.146	235.375
2211.74	233.04167
2214.333	240.375
2216.924	232.375
2219.514	241.04167
2222.101	233.70833
2224.687	245.70833
2227.271	225.04167
2229.853	224.70833
2232.433	216.375
2235.012	240.70833
2237.589	232.04167
2240.164	244.70833
2242.738	223.375
2245.309	221.04167
2247.879	236.70833
2250.448	236.375
2253.014	214.375
2255.579	208.70833
2258.142	217.375
2260.703	217.375
2263.262	210.70833
2265.82	202.70833
2268.376	221.375
2270.93	209.70833
2273.483	205.04167
2276.033	214.70833
2278.583	206.70833
2281.13	205.375
2283.675	198.70833
2286.219	210.04167
2288.761	213.04167
2291.302	213.375
2293.841	221.04167
2296.377	195.375
2298.913	212.375
2301.446	213.375
2303.978	208.04167
2306.508	205.375
2309.037	207.70833
2311.563	208.04167
2314.088	209.375
2316.612	186.375
2319.133	203.70833
2321.653	207.70833
2324.171	191.70833
2326.688	215.70833
2329.202	205.70833
2331.715	207.70833
2334.227	197.375
2336.736	196.70833
2339.244	191.375
2341.751	188.375
2344.255	198.70833
2346.758	198.70833
2349.259	186.375
2351.759	194.04167
2354.257	181.70833
2356.753	186.04167
2359.247	191.04167
2361.74	192.04167
2364.231	189.375
2366.721	202.70833
2369.209	186.375
2371.695	188.375
2374.179	182.375
2376.662	176.04167
2379.143	202.375
2381.622	185.70833
2384.1	203.375
2386.576	188.70833
2389.051	192.70833
2391.524	203.375
2393.995	196.04167
2396.464	185.70833
2398.932	186.04167
2401.398	185.375
2403.863	181.70833
2406.325	178.04167
2408.787	185.04167
2411.246	181.04167
2413.704	185.04167
2416.16	177.70833
2418.615	179.70833
2421.068	183.375
2423.519	177.04167
2425.969	170.70833
2428.417	191.04167
2430.863	205.70833
2433.308	188.70833
2435.751	188.375
2438.193	183.375
2440.633	183.04167
2443.071	191.70833
2445.508	175.04167
2447.943	178.70833
2450.376	168.70833
2452.808	182.04167
2455.238	165.375
2457.667	200.375
2460.093	167.04167
2462.519	165.70833
2464.942	169.04167
2467.365	175.375
2469.785	178.375
2472.204	165.375
2474.621	164.375
2477.037	191.70833
2479.451	163.375
2481.863	157.04167
2484.274	165.375
2486.683	167.70833
2489.091	175.04167
2491.497	174.375
2493.901	176.04167
2496.304	173.375
2498.705	179.70833
2501.105	168.70833
2503.503	190.04167
2505.899	161.70833
2508.294	182.04167
2510.687	166.70833
2513.079	171.04167
2515.469	164.70833
2517.858	170.70833
2520.245	178.70833
2522.63	169.04167
2525.014	160.375
2527.396	160.04167
2529.776	163.04167
2532.156	169.70833
2534.533	153.375
2536.909	155.375
2539.283	148.70833
2541.656	155.375
2544.027	173.70833
2546.397	170.70833
2548.765	162.70833
2551.131	158.70833
2553.496	165.04167
2555.86	167.70833
2558.221	163.70833
2560.582	156.375
2562.94	150.375
2565.298	164.70833
2567.653	170.04167
2570.007	149.04167
2572.36	166.04167
2574.711	156.375
2577.06	178.04167
2579.408	159.70833
2581.754	157.70833
2584.099	155.04167
2586.442	153.70833
2588.784	170.04167
2591.124	160.04167
2593.463	158.04167
2595.8	159.375
2598.135	148.04167
2600.469	149.04167
2602.802	162.04167
2605.133	169.04167
2607.462	147.375
2609.79	143.375
2612.116	161.375
2614.441	152.375
2616.764	158.70833
2619.086	158.04167
2621.406	155.70833
2623.725	164.375
2626.042	154.04167
2628.358	152.04167
2630.672	157.70833
2632.985	164.375
2635.296	158.70833
2637.606	155.04167
2639.914	154.04167
2642.22	153.375
2644.525	157.04167
2646.829	151.375
2649.131	161.375
2651.432	164.04167
2653.731	151.70833
2656.028	169.70833
2658.324	162.375
2660.619	149.70833
2662.912	157.70833
2665.204	145.70833
2667.494	163.70833
2669.782	148.04167
2672.07	165.70833
2674.355	164.70833
2676.639	158.70833
2678.922	151.04167
2681.203	163.375
2683.483	151.04167
2685.761	145.04167
2688.038	163.04167
2690.313	169.04167
2692.587	154.375
2694.859	151.04167
2697.13	150.375
2699.399	162.70833
2701.667	165.04167
2703.933	153.70833
2706.198	174.04167
2708.461	164.04167
2710.723	167.70833
2712.984	162.375
2715.243	160.04167
2717.5	161.04167
2719.757	170.375
2722.011	154.70833
2724.264	175.04167
2726.516	175.70833
2728.766	157.375
2731.015	169.04167
2733.262	162.375
2735.508	162.04167
2737.753	169.70833
2739.996	151.04167
2742.237	157.70833
2744.477	168.375
2746.716	169.375
2748.953	164.70833
2751.189	167.375
2753.423	162.04167
2755.656	149.70833
2757.887	147.04167
2760.117	156.375
2762.346	152.70833
2764.573	144.375
2766.798	153.375
2769.022	154.04167
2771.245	148.04167
2773.467	157.70833
2775.686	150.375
2777.905	162.70833
2780.122	158.04167
2782.337	158.375
2784.552	150.70833
2786.764	153.04167
2788.976	151.04167
2791.186	161.70833
2793.394	154.375
2795.601	162.04167
2797.807	162.375
2800.011	158.375
2802.214	170.375
2804.415	162.375
2806.615	163.70833
2808.814	165.04167
2811.011	166.375
2813.206	170.04167
2815.401	174.04167
2817.594	174.375
2819.785	182.70833
2821.975	168.70833
2824.164	174.375
2826.351	167.70833
2828.537	189.375
2830.722	185.04167
2832.905	175.375
2835.086	188.70833
2837.267	205.70833
2839.445	199.375
2841.623	196.04167
2843.799	194.375
2845.974	203.70833
2848.147	214.70833
2850.319	219.04167
2852.489	232.04167
2854.659	240.04167
2856.826	229.04167
2858.993	250.70833
2861.158	238.04167
2863.321	240.04167
2865.483	260.04167
2867.644	249.04167
2869.804	250.04167
2871.962	250.04167
2874.118	257.04167
2876.274	275.70833
2878.428	281.04167
2880.58	264.04167
2882.731	246.70833
2884.881	248.04167
2887.03	257.04167
2889.177	242.04167
2891.322	252.70833
2893.467	242.04167
2895.61	241.375
2897.751	255.70833
2899.892	245.70833
2902.03	247.04167
2904.168	252.04167
2906.304	248.04167
2908.439	265.70833
2910.572	249.70833
2912.704	252.375
2914.835	262.04167
2916.965	259.375
2919.093	270.375
2921.219	235.04167
2923.345	272.70833
2925.469	252.375
2927.591	254.375
2929.712	243.375
2931.832	249.70833
2933.951	243.04167
2936.068	233.04167
2938.184	226.375
2940.299	224.375
2942.412	223.375
2944.524	205.375
2946.634	220.04167
2948.744	198.04167
2950.851	227.70833
2952.958	189.70833
2955.063	203.04167
2957.167	198.70833
2959.269	182.70833
2961.371	213.70833
2963.471	191.375
2965.569	197.375
2967.666	179.375
2969.762	177.70833
2971.857	171.70833
2973.95	163.70833
2976.042	175.70833
2978.133	162.70833
2980.222	161.70833
2982.31	158.70833
2984.396	137.375
2986.482	153.70833
2988.566	152.70833
2990.648	156.375
2992.73	151.375
2994.81	136.375
2996.889	157.375
2998.966	150.04167
3001.042	164.04167
3003.117	148.04167
3005.191	153.375
3007.263	155.375
3009.334	148.04167
3011.403	148.70833
3013.472	140.70833
3015.539	156.70833
3017.604	165.04167
3019.669	136.04167
3021.732	145.04167
3023.794	140.70833
3025.854	134.375
3027.914	128.375
3029.971	133.04167
3032.028	141.04167
3034.083	138.04167
3036.137	140.04167
3038.19	131.04167
3040.242	124.70833
3042.292	120.375
3044.341	125.70833
3046.388	140.375
3048.435	114.70833
3050.48	137.04167
3052.524	121.70833
3054.566	109.375
3056.607	126.375
3058.647	121.375
3060.686	101.375
3062.723	103.375
3064.759	103.375
3066.794	0.70833
3068.828	-0.625
3070.86	2.04167
