-0.839	144.04167
3.438	162.375
7.711	63.375
11.981	43.70833
16.247	32.04167
20.509	38.04167
24.768	38.04167
29.024	43.70833
33.276	34.375
37.524	42.70833
41.769	30.375
46.01	26.375
50.247	42.375
54.481	52.375
58.712	53.04167
62.939	38.375
67.162	53.375
71.382	45.375
75.599	34.375
79.812	42.70833
84.021	59.04167
88.227	41.70833
92.429	52.375
96.628	38.04167
100.823	53.375
105.015	52.375
109.204	45.375
113.388	56.04167
117.57	45.70833
121.748	59.375
125.922	52.04167
130.093	66.375
134.261	62.375
138.425	54.04167
142.585	89.04167
146.742	67.04167
150.896	77.70833
155.046	75.04167
159.193	111.04167
163.336	164.375
167.476	282.375
171.613	511.04167
175.746	812.04167
179.875	1200.04167
184.002	1537.70833
188.124	1805.375
192.244	1919.375
196.36	1924.70833
200.472	1908.70833
204.581	1900.375
208.687	1839.70833
212.79	1828.70833
216.889	1873.70833
220.984	1874.375
225.077	1880.70833
229.165	1891.375
233.251	1891.375
237.333	1914.04167
241.412	1896.375
245.487	1883.04167
249.559	1848.70833
253.628	1840.70833
257.694	1804.70833
261.756	1828.70833
265.814	1776.375
269.87	1733.375
273.922	1683.70833
277.97	1637.375
282.016	1640.04167
286.058	1623.04167
290.097	1649.04167
294.132	1650.375
298.164	1654.375
302.193	1567.375
306.219	1495.375
310.241	1411.70833
314.26	1303.375
318.276	1256.04167
322.288	1214.04167
326.297	1196.375
330.303	1186.375
334.305	1159.375
338.305	1142.70833
342.301	1142.375
346.294	1129.375
350.283	1116.375
354.269	1123.375
358.252	1103.70833
362.232	1118.04167
366.209	1121.375
370.182	1116.375
374.152	1093.04167
378.119	1108.375
382.083	1100.70833
386.043	1127.375
390	1080.375
393.954	1110.04167
397.905	1088.70833
401.852	1122.375
405.797	1109.375
409.738	1094.04167
413.676	1118.04167
417.61	1117.04167
421.542	1097.375
425.47	1081.375
429.396	1081.375
433.318	1063.70833
437.236	1075.04167
441.152	1104.04167
445.065	1041.70833
448.974	1055.70833
452.88	1058.375
456.783	1045.375
460.683	1041.04167
464.58	1047.375
468.473	1060.70833
472.364	1057.04167
476.251	1063.375
480.135	1057.70833
484.016	1080.04167
487.894	1077.70833
491.769	1081.70833
495.641	1069.04167
499.509	1089.375
503.375	1070.04167
507.237	1062.70833
511.096	1070.04167
514.952	1068.375
518.805	1057.70833
522.655	1073.375
526.502	1063.70833
530.346	1073.04167
534.187	1061.04167
538.024	1048.375
541.859	1045.04167
545.69	1075.70833
549.519	1057.375
553.344	1058.375
557.166	1045.375
560.985	1034.70833
564.802	1042.375
568.615	1020.70833
572.425	997.70833
576.232	1005.375
580.036	1001.70833
583.836	1016.70833
587.634	1016.04167
591.429	1009.375
595.221	1034.70833
599.01	1026.04167
602.796	1035.04167
606.578	1033.70833
610.358	1045.375
614.135	1025.70833
617.909	1040.375
621.679	1028.70833
625.447	1007.70833
629.212	1020.70833
632.973	1019.04167
636.732	1013.70833
640.488	1016.04167
644.241	1001.70833
647.991	997.70833
651.737	1019.04167
655.481	990.70833
659.222	995.70833
662.96	1012.04167
666.695	1008.04167
670.427	1007.70833
674.156	1024.70833
677.882	1018.375
681.605	1002.04167
685.325	994.70833
689.043	1025.375
692.757	1012.375
696.468	1003.04167
700.177	990.375
703.882	979.70833
707.585	963.70833
711.284	976.04167
714.981	965.04167
718.675	957.70833
722.366	988.04167
726.054	956.375
729.739	957.70833
733.421	975.04167
737.1	956.375
740.777	981.04167
744.45	972.04167
748.121	970.375
751.789	1006.70833
755.453	978.70833
759.115	1004.04167
762.774	996.70833
766.431	1004.375
770.084	995.04167
773.734	993.04167
777.382	1017.375
781.027	1003.70833
784.669	1003.375
788.308	1008.04167
791.944	1022.375
795.577	1037.70833
799.208	1029.70833
802.835	1039.375
806.46	1033.375
810.082	1051.70833
813.701	1052.70833
817.317	1051.375
820.931	1052.375
824.542	1053.70833
828.149	1042.375
831.754	1014.375
835.357	1009.375
838.956	1037.375
842.553	1017.70833
846.146	1008.375
849.737	981.70833
853.326	998.375
856.911	990.375
860.493	1015.04167
864.073	1008.375
867.65	1027.375
871.225	1034.375
874.796	1022.04167
878.365	1022.70833
881.931	1029.375
885.494	1041.04167
889.054	1023.70833
892.612	1030.70833
896.166	1006.375
899.719	986.375
903.268	977.04167
906.814	986.70833
910.358	977.70833
913.899	972.70833
917.438	982.04167
920.973	953.04167
924.506	968.70833
928.036	987.70833
931.564	1000.375
935.088	1031.375
938.61	1007.70833
942.129	1001.70833
945.646	1017.04167
949.16	1022.375
952.671	1028.04167
956.179	1048.04167
959.685	1057.375
963.188	1047.375
966.688	1034.375
970.185	1003.70833
973.68	982.375
977.173	995.04167
980.662	964.70833
984.149	968.375
987.633	962.04167
991.114	969.70833
994.593	985.04167
998.069	995.375
1001.542	1025.70833
1005.013	1011.70833
1008.481	957.70833
1011.947	949.04167
1015.409	932.04167
1018.869	940.04167
1022.327	936.70833
1025.782	927.375
1029.234	921.04167
1032.683	906.70833
1036.13	890.04167
1039.574	864.375
1043.016	851.70833
1046.455	841.375
1049.891	818.375
1053.325	836.04167
1056.756	827.70833
1060.184	828.04167
1063.61	806.375
1067.033	832.70833
1070.454	828.375
1073.872	858.70833
1077.287	819.70833
1080.7	835.375
1084.11	831.375
1087.517	830.04167
1090.922	826.70833
1094.325	800.70833
1097.724	797.70833
1101.122	793.375
1104.516	797.70833
1107.908	778.04167
1111.298	781.70833
1114.684	802.70833
1118.069	796.375
1121.45	832.04167
1124.83	800.04167
1128.206	821.70833
1131.58	819.70833
1134.951	840.375
1138.32	841.04167
1141.687	888.04167
1145.05	894.70833
1148.412	905.70833
1151.77	889.70833
1155.126	891.70833
1158.48	888.375
1161.831	881.70833
1165.18	883.70833
1168.525	898.70833
1171.869	906.375
1175.21	901.375
1178.548	921.04167
1181.884	922.375
1185.217	933.70833
1188.548	952.70833
1191.877	953.375
1195.202	1009.04167
1198.526	1019.70833
1201.846	1010.70833
1205.165	1016.70833
1208.48	1026.375
1211.794	1024.04167
1215.104	1019.04167
1218.413	1006.04167
1221.719	1001.70833
1225.022	989.375
1228.323	969.70833
1231.621	989.375
1234.917	974.04167
1238.21	992.375
1241.501	978.375
1244.79	965.375
1248.076	960.375
1251.359	978.04167
1254.64	1012.375
1257.919	985.70833
1261.195	1003.70833
1264.468	1012.04167
1267.74	1021.375
1271.008	1012.70833
1274.275	1027.04167
1277.538	1019.375
1280.8	1009.375
1284.059	1006.375
1287.315	1023.04167
1290.569	1029.70833
1293.821	1033.04167
1297.07	1036.70833
1300.317	1037.70833
1303.562	1040.70833
1306.803	1034.375
1310.043	1028.04167
1313.28	1023.04167
1316.515	1017.375
1319.747	1016.375
1322.977	1017.70833
1326.204	987.04167
1329.429	992.70833
1332.652	995.04167
1335.872	999.04167
1339.09	973.375
1342.306	986.04167
1345.519	985.70833
1348.729	969.70833
1351.938	984.70833
1355.144	963.375
1358.347	937.70833
1361.548	957.04167
1364.747	958.70833
1367.944	928.70833
1371.138	952.375
1374.329	927.375
1377.518	947.04167
1380.705	934.04167
1383.89	941.04167
1387.072	899.70833
1390.252	885.70833
1393.429	860.04167
1396.605	837.375
1399.777	812.375
1402.948	798.70833
1406.116	800.70833
1409.282	788.70833
1412.445	803.70833
1415.606	805.375
1418.765	818.375
1421.921	827.04167
1425.075	835.70833
1428.227	845.375
1431.376	879.70833
1434.524	899.375
1437.668	920.04167
1440.811	932.04167
1443.951	947.04167
1447.089	933.375
1450.224	945.04167
1453.357	931.04167
1456.488	932.70833
1459.617	918.04167
1462.743	901.70833
1465.867	887.70833
1468.989	884.04167
1472.108	857.04167
1475.225	849.70833
1478.34	839.04167
1481.453	833.04167
1484.563	832.04167
1487.671	853.375
1490.776	865.04167
1493.88	853.04167
1496.981	869.70833
1500.08	878.70833
1503.176	882.70833
1506.271	883.375
1509.363	902.375
1512.452	914.04167
1515.54	920.70833
1518.625	930.375
1521.708	956.375
1524.789	980.70833
1527.867	1014.04167
1530.944	1055.04167
1534.018	1069.375
1537.089	1126.04167
1540.159	1142.70833
1543.226	1132.70833
1546.291	1101.375
1549.354	1088.70833
1552.415	1068.70833
1555.473	1049.04167
1558.529	1037.70833
1561.583	1030.375
1564.634	1001.04167
1567.684	1017.70833
1570.731	1017.70833
1573.776	1021.04167
1576.819	1031.375
1579.859	1040.70833
1582.898	1040.04167
1585.934	1062.04167
1588.968	1075.70833
1591.999	1063.375
1595.029	1054.70833
1598.056	1072.70833
1601.081	1078.04167
1604.104	1078.70833
1607.125	1050.375
1610.144	1038.04167
1613.16	999.70833
1616.174	992.04167
1619.186	1006.375
1622.196	965.04167
1625.203	944.70833
1628.209	933.04167
1631.212	940.70833
1634.213	942.70833
1637.212	950.70833
1640.209	960.04167
1643.203	917.375
1646.196	909.04167
1649.186	864.375
1652.174	852.04167
1655.16	817.04167
1658.144	807.70833
1661.125	763.04167
1664.105	746.04167
1667.082	713.70833
1670.057	678.375
1673.03	638.70833
1676.001	614.375
1678.97	572.375
1681.937	544.70833
1684.901	523.375
1687.863	516.70833
1690.824	477.375
1693.782	490.70833
1696.738	453.70833
1699.692	465.04167
1702.643	443.70833
1705.593	446.04167
1708.54	438.04167
1711.486	451.70833
1714.429	424.375
1717.37	436.375
1720.309	420.04167
1723.246	439.04167
1726.181	412.04167
1729.113	413.70833
1732.044	415.375
1734.972	405.70833
1737.899	419.70833
1740.823	419.70833
1743.745	428.04167
1746.665	391.70833
1749.583	388.375
1752.499	386.70833
1755.413	385.375
1758.325	373.375
1761.235	387.375
1764.142	365.375
1767.048	371.375
1769.951	359.375
1772.852	367.04167
1775.752	371.375
1778.649	362.70833
1781.544	375.04167
1784.437	352.375
1787.328	366.04167
1790.217	359.375
1793.104	334.70833
1795.989	343.70833
1798.872	337.04167
1801.753	354.70833
1804.631	339.04167
1807.508	353.04167
1810.383	349.70833
1813.255	344.375
1816.126	340.375
1818.994	333.70833
1821.861	343.04167
1824.725	340.70833
1827.587	346.375
1830.448	329.04167
1833.306	336.375
1836.162	344.04167
1839.017	329.04167
1841.869	331.04167
1844.719	317.04167
1847.567	307.70833
1850.414	312.04167
1853.258	313.375
1856.1	318.04167
1858.94	330.70833
1861.778	320.375
1864.614	315.70833
1867.448	326.70833
1870.28	310.70833
1873.111	334.70833
1875.939	310.04167
1878.765	330.04167
1881.589	318.70833
1884.411	319.70833
1887.231	323.70833
1890.049	317.70833
1892.865	319.70833
1895.68	309.375
1898.492	310.04167
1901.302	315.70833
1904.11	305.70833
1906.916	303.375
1909.721	306.375
1912.523	311.70833
1915.323	304.375
1918.122	292.375
1920.918	315.04167
1923.712	288.70833
1926.505	295.375
1929.295	283.375
1932.084	301.04167
1934.87	303.04167
1937.655	288.375
1940.438	283.04167
1943.218	293.375
1945.997	292.375
1948.774	295.375
1951.549	294.04167
1954.322	286.04167
1957.093	287.70833
1959.862	280.375
1962.629	290.375
1965.394	286.04167
1968.157	268.70833
1970.918	296.70833
1973.678	274.375
1976.435	289.375
1979.19	276.70833
1981.944	267.70833
1984.696	286.375
1987.445	269.04167
1990.193	274.04167
1992.939	290.04167
1995.683	286.70833
1998.425	253.70833
2001.165	297.375
2003.903	263.04167
2006.639	264.04167
2009.374	274.04167
2012.106	275.70833
2014.837	248.04167
2017.566	270.04167
2020.292	261.375
2023.017	267.04167
2025.74	257.70833
2028.461	254.70833
2031.18	269.04167
2033.898	254.04167
2036.613	261.375
2039.327	260.04167
2042.038	252.375
2044.748	255.70833
2047.456	267.04167
2050.162	239.375
2052.866	252.375
2055.568	268.70833
2058.268	250.375
2060.967	262.04167
2063.663	244.04167
2066.358	250.70833
2069.051	243.04167
2071.742	246.04167
2074.431	260.70833
2077.118	243.04167
2079.804	233.70833
2082.487	241.375
2085.169	254.70833
2087.849	275.04167
2090.527	245.04167
2093.203	252.375
2095.877	250.04167
2098.55	249.70833
2101.22	261.70833
2103.889	265.70833
2106.556	251.04167
2109.221	272.04167
2111.884	257.375
2114.546	287.375
2117.205	280.375
2119.863	317.04167
2122.519	308.04167
2125.173	340.04167
2127.825	370.70833
2130.475	367.70833
2133.124	349.04167
2135.771	338.375
2138.416	348.375
2141.059	316.375
2143.7	316.375
2146.339	295.04167
2148.977	263.375
2151.613	274.375
2154.247	268.04167
2156.879	260.04167
2159.51	247.04167
2162.138	256.04167
2164.765	249.04167
2167.39	233.70833
2170.013	259.375
2172.634	252.70833
2175.254	240.375
2177.872	277.375
2180.488	229.70833
2183.102	230.375
2185.714	234.04167
2188.325	223.70833
2190.934	233.375
2193.541	234.70833
2196.146	226.04167
2198.75	220.70833
2201.351	212.375
2203.951	202.70833
2206.549	227.375
2209.146	210.375
2211.74	205.375
2214.333	223.375
2216.924	207.04167
2219.514	204.70833
2222.101	208.04167
2224.687	221.375
2227.271	203.04167
2229.853	206.70833
2232.433	187.375
2235.012	214.70833
2237.589	213.375
2240.164	217.375
2242.738	204.04167
2245.309	197.70833
2247.879	214.70833
2250.448	214.04167
2253.014	192.375
2255.579	188.70833
2258.142	192.375
2260.703	192.70833
2263.262	195.04167
2265.82	181.04167
2268.376	198.70833
2270.93	191.04167
2273.483	184.04167
2276.033	197.04167
2278.583	181.375
2281.13	179.375
2283.675	177.375
2286.219	186.70833
2288.761	187.04167
2291.302	196.04167
2293.841	198.375
2296.377	172.375
2298.913	190.70833
2301.446	196.04167
2303.978	182.04167
2306.508	181.70833
2309.037	186.70833
2311.563	182.375
2314.088	180.70833
2316.612	173.04167
2319.133	180.375
2321.653	176.70833
2324.171	171.04167
2326.688	189.04167
2329.202	179.70833
2331.715	183.70833
2334.227	180.04167
2336.736	179.04167
2339.244	172.70833
2341.751	158.70833
2344.255	182.70833
2346.758	174.04167
2349.259	165.375
2351.759	177.375
2354.257	169.375
2356.753	158.375
2359.247	167.70833
2361.74	164.70833
2364.231	163.375
2366.721	172.70833
2369.209	164.70833
2371.695	164.375
2374.179	154.70833
2376.662	151.70833
2379.143	175.70833
2381.622	165.375
2384.1	167.70833
2386.576	161.04167
2389.051	182.375
2391.524	177.70833
2393.995	170.04167
2396.464	164.70833
2398.932	160.375
2401.398	165.04167
2403.863	160.375
2406.325	158.04167
2408.787	169.375
2411.246	162.04167
2413.704	168.70833
2416.16	157.04167
2418.615	158.70833
2421.068	166.375
2423.519	153.70833
2425.969	144.04167
2428.417	168.375
2430.863	182.04167
2433.308	159.70833
2435.751	161.04167
2438.193	159.70833
2440.633	161.375
2443.071	165.375
2445.508	155.375
2447.943	155.04167
2450.376	150.04167
2452.808	158.375
2455.238	148.375
2457.667	180.04167
2460.093	149.04167
2462.519	142.04167
2464.942	148.04167
2467.365	151.375
2469.785	160.70833
2472.204	146.04167
2474.621	151.70833
2477.037	164.375
2479.451	143.70833
2481.863	138.70833
2484.274	145.04167
2486.683	149.70833
2489.091	160.375
2491.497	151.04167
2493.901	151.04167
2496.304	142.70833
2498.705	156.70833
2501.105	145.70833
2503.503	165.375
2505.899	140.375
2508.294	163.04167
2510.687	142.375
2513.079	145.04167
2515.469	134.70833
2517.858	140.375
2520.245	156.04167
2522.63	143.70833
2525.014	136.375
2527.396	138.04167
2529.776	138.375
2532.156	146.70833
2534.533	136.70833
2536.909	134.70833
2539.283	123.70833
2541.656	140.375
2544.027	152.70833
2546.397	141.70833
2548.765	134.70833
2551.131	141.04167
2553.496	145.70833
2555.86	147.70833
2558.221	147.375
2560.582	133.375
2562.94	122.70833
2565.298	142.375
2567.653	148.04167
2570.007	126.04167
2572.36	145.70833
2574.711	129.04167
2577.06	147.04167
2579.408	138.04167
2581.754	134.70833
2584.099	130.04167
2586.442	135.70833
2588.784	139.04167
2591.124	131.04167
2593.463	136.04167
2595.8	135.04167
2598.135	121.70833
2600.469	127.375
2602.802	143.70833
2605.133	143.04167
2607.462	123.04167
2609.79	124.04167
2612.116	141.04167
2614.441	131.70833
2616.764	135.04167
2619.086	129.04167
2621.406	128.375
2623.725	147.375
2626.042	131.70833
2628.358	125.375
2630.672	132.375
2632.985	140.04167
2635.296	137.375
2637.606	135.375
2639.914	129.70833
2642.22	124.375
2644.525	131.04167
2646.829	135.375
2649.131	143.04167
2651.432	134.04167
2653.731	126.375
2656.028	142.375
2658.324	135.04167
2660.619	119.375
2662.912	138.375
2665.204	120.70833
2667.494	143.04167
2669.782	119.375
2672.07	138.04167
2674.355	144.375
2676.639	134.04167
2678.922	126.04167
2681.203	137.70833
2683.483	124.70833
2685.761	118.70833
2688.038	143.375
2690.313	142.70833
2692.587	130.70833
2694.859	128.04167
2697.13	128.04167
2699.399	132.04167
2701.667	137.375
2703.933	131.70833
2706.198	143.375
2708.461	140.04167
2710.723	144.70833
2712.984	133.375
2715.243	144.04167
2717.5	135.375
2719.757	144.375
2722.011	130.375
2724.264	140.375
2726.516	152.04167
2728.766	131.70833
2731.015	141.04167
2733.262	134.375
2735.508	134.375
2737.753	141.04167
2739.996	118.375
2742.237	127.04167
2744.477	139.375
2746.716	147.04167
2748.953	143.375
2751.189	146.70833
2753.423	139.70833
2755.656	132.04167
2757.887	125.375
2760.117	132.375
2762.346	123.04167
2764.573	113.375
2766.798	119.04167
2769.022	126.70833
2771.245	125.70833
2773.467	132.04167
2775.686	120.70833
2777.905	134.04167
2780.122	126.04167
2782.337	137.04167
2784.552	127.70833
2786.764	130.70833
2788.976	125.70833
2791.186	128.375
2793.394	129.70833
2795.601	138.375
2797.807	140.375
2800.011	134.375
2802.214	139.375
2804.415	131.04167
2806.615	134.375
2808.814	136.04167
2811.011	140.70833
2813.206	146.70833
2815.401	150.04167
2817.594	151.04167
2819.785	148.70833
2821.975	133.70833
2824.164	137.70833
2826.351	144.04167
2828.537	157.375
2830.722	156.375
2832.905	152.04167
2835.086	161.70833
2837.267	182.70833
2839.445	171.70833
2841.623	163.70833
2843.799	176.04167
2845.974	186.375
2848.147	183.70833
2850.319	194.375
2852.489	199.70833
2854.659	210.04167
2856.826	208.375
2858.993	222.04167
2861.158	202.04167
2863.321	208.70833
2865.483	222.70833
2867.644	220.04167
2869.804	217.70833
2871.962	208.70833
2874.118	213.375
2876.274	214.375
2878.428	214.70833
2880.58	218.70833
2882.731	200.04167
2884.881	215.04167
2887.03	220.375
2889.177	220.70833
2891.322	225.04167
2893.467	216.70833
2895.61	212.70833
2897.751	224.70833
2899.892	214.70833
2902.03	220.04167
2904.168	211.04167
2906.304	220.04167
2908.439	236.04167
2910.572	221.375
2912.704	224.04167
2914.835	230.70833
2916.965	225.04167
2919.093	241.375
2921.219	208.04167
2923.345	242.70833
2925.469	225.04167
2927.591	220.70833
2929.712	209.04167
2931.832	215.04167
2933.951	209.70833
2936.068	206.04167
2938.184	201.70833
2940.299	199.375
2942.412	188.04167
2944.524	174.04167
2946.634	192.70833
2948.744	160.04167
2950.851	196.70833
2952.958	165.375
2955.063	175.375
2957.167	166.70833
2959.269	151.04167
2961.371	181.70833
2963.471	154.375
2965.569	173.375
2967.666	143.70833
2969.762	148.04167
2971.857	144.04167
2973.95	132.70833
2976.042	147.04167
2978.133	131.04167
2980.222	137.375
2982.31	120.70833
2984.396	114.375
2986.482	118.375
2988.566	122.04167
2990.648	120.04167
2992.73	116.70833
2994.81	107.70833
2996.889	124.375
2998.966	116.70833
3001.042	130.70833
3003.117	114.04167
3005.191	116.375
3007.263	118.375
3009.334	114.375
3011.403	121.04167
3013.472	108.375
3015.539	126.375
3017.604	129.375
3019.669	105.70833
3021.732	107.375
3023.794	109.70833
3025.854	101.04167
3027.914	95.70833
3029.971	97.70833
3032.028	103.04167
3034.083	112.375
3036.137	106.04167
3038.19	95.375
3040.242	88.375
3042.292	94.375
3044.341	96.375
3046.388	112.375
3048.435	87.04167
3050.48	102.04167
3052.524	97.70833
3054.566	80.70833
3056.607	97.375
3058.647	93.70833
3060.686	80.04167
3062.723	74.375
3064.759	77.70833
3066.794	-0.95833
3068.828	0.375
3070.86	2.375
