-0.839	138.66667
3.438	160.66667
7.711	66.33333
11.981	46.66667
16.247	29.33333
20.509	41.66667
24.768	35
29.024	41.66667
33.276	31
37.524	40
41.769	31
46.01	28.33333
50.247	45.33333
54.481	49.66667
58.712	56
62.939	36.33333
67.162	55
71.382	45.33333
75.599	36
79.812	39.33333
84.021	61
88.227	42.33333
92.429	52
96.628	37.33333
100.823	54.66667
105.015	54
109.204	48.66667
113.388	52.66667
117.57	43.66667
121.748	57.33333
125.922	50.33333
130.093	62.66667
134.261	63.66667
138.425	53
142.585	80.33333
146.742	59.66667
150.896	82
155.046	76.33333
159.193	116
163.336	163.33333
167.476	277.66667
171.613	511.66667
175.746	809.66667
179.875	1176
184.002	1527.33333
188.124	1799.66667
192.244	1879
196.36	1867.66667
200.472	1853
204.581	1818
208.687	1764
212.79	1755
216.889	1793.33333
220.984	1794.66667
225.077	1799
229.165	1802
233.251	1818.66667
237.333	1806.66667
241.412	1780
245.487	1793
249.559	1757.33333
253.628	1756.33333
257.694	1727.66667
261.756	1710.66667
265.814	1695.33333
269.87	1637.66667
273.922	1594.33333
277.97	1540.66667
282.016	1535
286.058	1483.66667
290.097	1512.66667
294.132	1531.33333
298.164	1525.33333
302.193	1474.66667
306.219	1376
310.241	1278
314.26	1185
318.276	1129.33333
322.288	1094.33333
326.297	1033.66667
330.303	1025.66667
334.305	1001.66667
338.305	980
342.301	980.66667
346.294	979.33333
350.283	968.33333
354.269	959
358.252	951.66667
362.232	941
366.209	967.66667
370.182	944
374.152	923
378.119	939.33333
382.083	930.33333
386.043	941
390	929.33333
393.954	937.66667
397.905	937.33333
401.852	954.33333
405.797	928.33333
409.738	927
413.676	928.33333
417.61	934.33333
421.542	920
425.47	905.33333
429.396	884
433.318	878.66667
437.236	885.66667
441.152	910.66667
445.065	861
448.974	873.33333
452.88	866
456.783	863
460.683	848.33333
464.58	858
468.473	873.33333
472.364	875.33333
476.251	844.33333
480.135	865.66667
484.016	877.66667
487.894	876
491.769	871
495.641	875
499.509	876.66667
503.375	876.66667
507.237	865.33333
511.096	871
514.952	880
518.805	867
522.655	857
526.502	875
530.346	881.66667
534.187	880
538.024	876.66667
541.859	867.66667
545.69	892
549.519	883.66667
553.344	883
557.166	855.66667
560.985	848.66667
564.802	863.66667
568.615	840.66667
572.425	814.66667
576.232	833.33333
580.036	815
583.836	832.33333
587.634	818
591.429	823
595.221	866.33333
599.01	855
602.796	844.33333
606.578	853.66667
610.358	858.33333
614.135	848
617.909	849.33333
621.679	841
625.447	835
629.212	844.66667
632.973	834.33333
636.732	837.66667
640.488	833
644.241	823
647.991	817.33333
651.737	849.66667
655.481	820.33333
659.222	823.66667
662.96	824.66667
666.695	837.66667
670.427	839.66667
674.156	836.33333
677.882	852
681.605	845.66667
685.325	814.33333
689.043	848
692.757	821
696.468	830.66667
700.177	825.66667
703.882	802.66667
707.585	807.66667
711.284	802
714.981	804
718.675	813.66667
722.366	829.33333
726.054	813.66667
729.739	807.66667
733.421	807.33333
737.1	807
740.777	816.33333
744.45	815.33333
748.121	801.66667
751.789	853
755.453	818.33333
759.115	833.33333
762.774	840
766.431	842.66667
770.084	835
773.734	845.66667
777.382	873
781.027	865.33333
784.669	863.66667
788.308	867
791.944	871.33333
795.577	875
799.208	890.66667
802.835	890.33333
806.46	897.33333
810.082	898
813.701	897.66667
817.317	919.33333
820.931	904.33333
824.542	920
828.149	896.66667
831.754	885
835.357	872.33333
838.956	899.33333
842.553	884
846.146	857.33333
849.737	854.33333
853.326	872
856.911	846.66667
860.493	879.33333
864.073	876
867.65	887.66667
871.225	908.33333
874.796	891.66667
878.365	882.66667
881.931	911.66667
885.494	908.66667
889.054	902.66667
892.612	898.66667
896.166	890.33333
899.719	869.33333
903.268	851
906.814	879
910.358	863.33333
913.899	856.33333
917.438	853.66667
920.973	841.33333
924.506	861.66667
928.036	875.33333
931.564	881.66667
935.088	907.66667
938.61	895.66667
942.129	884.33333
945.646	905
949.16	914
952.671	922.33333
956.179	947.66667
959.685	938
963.188	973.33333
966.688	942.66667
970.185	895
973.68	872.33333
977.173	873.33333
980.662	852.66667
984.149	868.33333
987.633	838
991.114	854
994.593	869.33333
998.069	873.33333
1001.542	916.66667
1005.013	903.33333
1008.481	839.66667
1011.947	838.33333
1015.409	826
1018.869	840
1022.327	839.66667
1025.782	831
1029.234	826.66667
1032.683	816.66667
1036.13	787.33333
1039.574	769
1043.016	749
1046.455	739
1049.891	729.66667
1053.325	736.66667
1056.756	732.33333
1060.184	735
1063.61	718.33333
1067.033	746
1070.454	719
1073.872	751
1077.287	727.66667
1080.7	728.33333
1084.11	735.33333
1087.517	728.33333
1090.922	733
1094.325	708.66667
1097.724	705.66667
1101.122	712.66667
1104.516	727
1107.908	697.66667
1111.298	708.66667
1114.684	725
1118.069	712
1121.45	738.66667
1124.83	716.66667
1128.206	731.33333
1131.58	749.66667
1134.951	758.33333
1138.32	766
1141.687	802.33333
1145.05	820.33333
1148.412	832.33333
1151.77	823
1155.126	814.66667
1158.48	810
1161.831	813.33333
1165.18	819.33333
1168.525	836.33333
1171.869	853.66667
1175.21	830
1178.548	854.66667
1181.884	864.66667
1185.217	864
1188.548	888.33333
1191.877	896.66667
1195.202	948.66667
1198.526	953.33333
1201.846	961.33333
1205.165	956
1208.48	972.33333
1211.794	973.33333
1215.104	962
1218.413	949.33333
1221.719	944.66667
1225.022	925.66667
1228.323	909
1231.621	917.33333
1234.917	906.66667
1238.21	932.33333
1241.501	912.33333
1244.79	891.66667
1248.076	882.66667
1251.359	913.33333
1254.64	954.66667
1257.919	921
1261.195	928
1264.468	952.66667
1267.74	955.66667
1271.008	966.66667
1274.275	963.33333
1277.538	965.66667
1280.8	962
1284.059	956
1287.315	973.33333
1290.569	968.33333
1293.821	983.66667
1297.07	976.33333
1300.317	981
1303.562	1002.66667
1306.803	984.66667
1310.043	979.33333
1313.28	968.66667
1316.515	975.33333
1319.747	990.33333
1322.977	963.33333
1326.204	960.66667
1329.429	941
1332.652	937.66667
1335.872	941.33333
1339.09	930.33333
1342.306	928.66667
1345.519	911.33333
1348.729	908
1351.938	915.33333
1355.144	898.66667
1358.347	888.33333
1361.548	883
1364.747	891.66667
1367.944	874
1371.138	880
1374.329	879.33333
1377.518	874.66667
1380.705	885.33333
1383.89	884.33333
1387.072	847
1390.252	841.66667
1393.429	801.33333
1396.605	780
1399.777	759.33333
1402.948	739.33333
1406.116	732
1409.282	742.33333
1412.445	746.66667
1415.606	741
1418.765	745.66667
1421.921	765
1425.075	767
1428.227	792
1431.376	829.66667
1434.524	853
1437.668	883
1440.811	889
1443.951	887
1447.089	904.66667
1450.224	893
1453.357	890
1456.488	890
1459.617	880
1462.743	865
1465.867	843
1468.989	849
1472.108	816.66667
1475.225	807
1478.34	797.33333
1481.453	804.33333
1484.563	784
1487.671	809.33333
1490.776	831
1493.88	825.33333
1496.981	843.33333
1500.08	864.66667
1503.176	861.33333
1506.271	859.33333
1509.363	883.33333
1512.452	887
1515.54	883.33333
1518.625	891.33333
1521.708	936.66667
1524.789	953.33333
1527.867	977.66667
1530.944	1023
1534.018	1054.66667
1537.089	1097
1540.159	1096.66667
1543.226	1112.66667
1546.291	1071.33333
1549.354	1055.66667
1552.415	1025.33333
1555.473	1019.66667
1558.529	1019
1561.583	1001.33333
1564.634	980
1567.684	989.33333
1570.731	990
1573.776	1005
1576.819	1027.66667
1579.859	1028.66667
1582.898	1049.66667
1585.934	1067.33333
1588.968	1078.66667
1591.999	1053.33333
1595.029	1062.33333
1598.056	1047.66667
1601.081	1081
1604.104	1082
1607.125	1054
1610.144	1032.33333
1613.16	1000.33333
1616.174	990
1619.186	983.66667
1622.196	962.33333
1625.203	923.33333
1628.209	927.33333
1631.212	911.33333
1634.213	915.66667
1637.212	938.66667
1640.209	932
1643.203	906.66667
1646.196	882.33333
1649.186	820
1652.174	818.33333
1655.16	773.33333
1658.144	775
1661.125	731
1664.105	690.66667
1667.082	668
1670.057	627.33333
1673.03	587.66667
1676.001	574.66667
1678.97	530
1681.937	510.66667
1684.901	482.66667
1687.863	476
1690.824	441
1693.782	447
1696.738	410
1699.692	426.66667
1702.643	405.66667
1705.593	404.33333
1708.54	401
1711.486	408.66667
1714.429	383
1717.37	392.66667
1720.309	378
1723.246	379.66667
1726.181	372
1729.113	367
1732.044	377
1734.972	361.66667
1737.899	379
1740.823	376
1743.745	389
1746.665	351
1749.583	341.66667
1752.499	340.33333
1755.413	345.33333
1758.325	336
1761.235	343.66667
1764.142	321
1767.048	324
1769.951	323.33333
1772.852	322
1775.752	329
1778.649	336
1781.544	341
1784.437	310
1787.328	330.66667
1790.217	313.33333
1793.104	297.66667
1795.989	303.33333
1798.872	296.66667
1801.753	320
1804.631	305.66667
1807.508	308
1810.383	311
1813.255	306.66667
1816.126	295.66667
1818.994	302
1821.861	293.33333
1824.725	309.33333
1827.587	310
1830.448	302.66667
1833.306	285.33333
1836.162	300
1839.017	297
1841.869	298.33333
1844.719	295.33333
1847.567	278
1850.414	275.66667
1853.258	274.33333
1856.1	292.66667
1858.94	303.33333
1861.778	289.33333
1864.614	280
1867.448	287.66667
1870.28	261.33333
1873.111	295.66667
1875.939	279.66667
1878.765	299.66667
1881.589	272
1884.411	286.66667
1887.231	293.66667
1890.049	278
1892.865	286.66667
1895.68	276
1898.492	286.66667
1901.302	280.66667
1904.11	272.66667
1906.916	272.33333
1909.721	268.66667
1912.523	271.33333
1915.323	261
1918.122	261.33333
1920.918	279.66667
1923.712	258.33333
1926.505	269.66667
1929.295	249.66667
1932.084	268
1934.87	264.66667
1937.655	264
1940.438	254
1943.218	256
1945.997	258
1948.774	264
1951.549	270
1954.322	257
1957.093	261.33333
1959.862	256
1962.629	256.66667
1965.394	254
1968.157	243
1970.918	255
1973.678	245
1976.435	248.33333
1979.19	250.66667
1981.944	239
1984.696	248
1987.445	242.66667
1990.193	244.66667
1992.939	255
1995.683	248.33333
1998.425	227
2001.165	265
2003.903	235.33333
2006.639	236.66667
2009.374	247.66667
2012.106	247.66667
2014.837	224.66667
2017.566	242.33333
2020.292	239.33333
2023.017	238.66667
2025.74	228
2028.461	228
2031.18	238.33333
2033.898	230.66667
2036.613	234.33333
2039.327	238.33333
2042.038	228.66667
2044.748	236
2047.456	237
2050.162	221.33333
2052.866	223
2055.568	238.33333
2058.268	226.33333
2060.967	232.66667
2063.663	211.66667
2066.358	223.66667
2069.051	220.33333
2071.742	226.33333
2074.431	238.66667
2077.118	226.66667
2079.804	210.66667
2082.487	218.33333
2085.169	228
2087.849	241
2090.527	216
2093.203	221.66667
2095.877	224.66667
2098.55	227
2101.22	233.66667
2103.889	236
2106.556	221.33333
2109.221	238.66667
2111.884	227.33333
2114.546	251.33333
2117.205	252
2119.863	284.66667
2122.519	283.66667
2125.173	303.66667
2127.825	335.66667
2130.475	336.66667
2133.124	322.66667
2135.771	308.33333
2138.416	323.66667
2141.059	281.33333
2143.7	285.33333
2146.339	260
2148.977	236.33333
2151.613	244.33333
2154.247	239.66667
2156.879	234
2159.51	220.66667
2162.138	224
2164.765	222.66667
2167.39	207.33333
2170.013	232.66667
2172.634	226.33333
2175.254	218
2177.872	257.33333
2180.488	209.66667
2183.102	211.66667
2185.714	214
2188.325	198.66667
2190.934	211.66667
2193.541	214.33333
2196.146	205.33333
2198.75	195.33333
2201.351	202.33333
2203.951	187
2206.549	203
2209.146	197.66667
2211.74	188.66667
2214.333	199.33333
2216.924	181.33333
2219.514	197
2222.101	190.66667
2224.687	203.66667
2227.271	179.66667
2229.853	183.66667
2232.433	174.33333
2235.012	197.66667
2237.589	190
2240.164	200
2242.738	186
2245.309	175
2247.879	200.66667
2250.448	191.33333
2253.014	168.33333
2255.579	170.33333
2258.142	171.66667
2260.703	173.33333
2263.262	173.33333
2265.82	166
2268.376	180
2270.93	173.33333
2273.483	165.66667
2276.033	179.66667
2278.583	168.33333
2281.13	167
2283.675	158.66667
2286.219	168.66667
2288.761	174
2291.302	174.33333
2293.841	179.66667
2296.377	159.33333
2298.913	169
2301.446	181.33333
2303.978	172.66667
2306.508	168
2309.037	170.33333
2311.563	170.66667
2314.088	167
2316.612	150.33333
2319.133	163.66667
2321.653	169
2324.171	162.33333
2326.688	171
2329.202	164
2331.715	169.33333
2334.227	168.33333
2336.736	159
2339.244	152
2341.751	145.33333
2344.255	165
2346.758	159.33333
2349.259	151
2351.759	161
2354.257	150
2356.753	154.66667
2359.247	151.33333
2361.74	153.33333
2364.231	153
2366.721	160.66667
2369.209	150
2371.695	157.33333
2374.179	147.33333
2376.662	136.66667
2379.143	168
2381.622	150.33333
2384.1	160
2386.576	149.33333
2389.051	164
2391.524	162.33333
2393.995	158.66667
2396.464	153
2398.932	150.33333
2401.398	155.33333
2403.863	141.66667
2406.325	147.33333
2408.787	150.33333
2411.246	155
2413.704	150.66667
2416.16	145.66667
2418.615	148.33333
2421.068	152.66667
2423.519	140
2425.969	135
2428.417	155
2430.863	172
2433.308	157.33333
2435.751	150
2438.193	148.33333
2440.633	151
2443.071	154.66667
2445.508	149
2447.943	143
2450.376	138.33333
2452.808	146.66667
2455.238	135.66667
2457.667	172.66667
2460.093	137
2462.519	130.33333
2464.942	135.33333
2467.365	145
2469.785	146
2472.204	132.66667
2474.621	138
2477.037	150.33333
2479.451	125.33333
2481.863	126.66667
2484.274	127.33333
2486.683	139.66667
2489.091	152
2491.497	143
2493.901	133.33333
2496.304	139.33333
2498.705	145.33333
2501.105	136.33333
2503.503	159.33333
2505.899	130.66667
2508.294	147.33333
2510.687	127
2513.079	128.66667
2515.469	128
2517.858	131.66667
2520.245	147
2522.63	133.66667
2525.014	130.66667
2527.396	127
2529.776	128.66667
2532.156	133.66667
2534.533	123.33333
2536.909	123
2539.283	115.33333
2541.656	128.33333
2544.027	136.33333
2546.397	136.66667
2548.765	122
2551.131	129.66667
2553.496	134.33333
2555.86	137
2558.221	136.33333
2560.582	126.33333
2562.94	116
2565.298	134.66667
2567.653	141.33333
2570.007	117.33333
2572.36	136
2574.711	119.66667
2577.06	141
2579.408	135
2581.754	127
2584.099	128.33333
2586.442	119.33333
2588.784	133.33333
2591.124	126
2593.463	122.66667
2595.8	131
2598.135	114.66667
2600.469	116.66667
2602.802	134
2605.133	137
2607.462	115
2609.79	114.66667
2612.116	134.66667
2614.441	122
2616.764	126
2619.086	121.33333
2621.406	121
2623.725	131
2626.042	121.66667
2628.358	112
2630.672	129.33333
2632.985	128
2635.296	125
2637.606	124.66667
2639.914	118.33333
2642.22	120.33333
2644.525	124.66667
2646.829	118.66667
2649.131	133.66667
2651.432	128.66667
2653.731	119.33333
2656.028	129.66667
2658.324	124
2660.619	113.33333
2662.912	132.66667
2665.204	116
2667.494	129
2669.782	115.33333
2672.07	135.66667
2674.355	130.66667
2676.639	123
2678.922	117.66667
2681.203	125.33333
2683.483	118.66667
2685.761	107.33333
2688.038	129.66667
2690.313	133.66667
2692.587	124.66667
2694.859	122.66667
2697.13	116.33333
2699.399	127.33333
2701.667	129.66667
2703.933	124.66667
2706.198	131.33333
2708.461	131.66667
2710.723	128.66667
2712.984	124.33333
2715.243	135.66667
2717.5	124.33333
2719.757	130.33333
2722.011	127.66667
2724.264	138
2726.516	140.33333
2728.766	122.66667
2731.015	128.66667
2733.262	125
2735.508	126.33333
2737.753	129
2739.996	114.66667
2742.237	121
2744.477	132
2746.716	139.33333
2748.953	126.66667
2751.189	139
2753.423	126
2755.656	120.66667
2757.887	117.66667
2760.117	122.33333
2762.346	112.33333
2764.573	107
2766.798	115.66667
2769.022	123
2771.245	112.66667
2773.467	119
2775.686	116.66667
2777.905	126.66667
2780.122	118.66667
2782.337	127.66667
2784.552	114.66667
2786.764	118
2788.976	105.33333
2791.186	118
2793.394	115.66667
2795.601	126.33333
2797.807	130.33333
2800.011	126.33333
2802.214	128.66667
2804.415	127.66667
2806.615	126.33333
2808.814	128
2811.011	133.33333
2813.206	128.66667
2815.401	143.66667
2817.594	139.33333
2819.785	141.33333
2821.975	125.66667
2824.164	135.33333
2826.351	135
2828.537	148.33333
2830.722	151
2832.905	141.66667
2835.086	143.33333
2837.267	169.33333
2839.445	163.66667
2841.623	169.33333
2843.799	169.66667
2845.974	178.33333
2848.147	178.33333
2850.319	195
2852.489	200
2854.659	199
2856.826	200
2858.993	220
2861.158	198
2863.321	203.66667
2865.483	221
2867.644	218.33333
2869.804	207
2871.962	208.66667
2874.118	215.66667
2876.274	215
2878.428	213.66667
2880.58	219.66667
2882.731	203.33333
2884.881	215
2887.03	216.33333
2889.177	218
2891.322	220
2893.467	212.66667
2895.61	206
2897.751	229
2899.892	210
2902.03	216.33333
2904.168	214
2906.304	219
2908.439	236.33333
2910.572	214
2912.704	227.66667
2914.835	228.33333
2916.965	228.33333
2919.093	240
2921.219	211.66667
2923.345	239.66667
2925.469	225.33333
2927.591	215.33333
2929.712	208
2931.832	217.33333
2933.951	214.66667
2936.068	205.66667
2938.184	200
2940.299	202
2942.412	192.66667
2944.524	180.33333
2946.634	189.33333
2948.744	157
2950.851	198
2952.958	161.66667
2955.063	175.33333
2957.167	162.33333
2959.269	150.66667
2961.371	176.66667
2963.471	144.33333
2965.569	168.33333
2967.666	136.66667
2969.762	138.66667
2971.857	138.66667
2973.95	129.33333
2976.042	135
2978.133	128.66667
2980.222	132.33333
2982.31	115.33333
2984.396	101.66667
2986.482	112
2988.566	113
2990.648	109.66667
2992.73	116
2994.81	104
2996.889	118
2998.966	106.66667
3001.042	124.33333
3003.117	107.33333
3005.191	111.33333
3007.263	115
3009.334	110
3011.403	111.66667
3013.472	107.33333
3015.539	117.66667
3017.604	126.66667
3019.669	98
3021.732	102
3023.794	102
3025.854	91
3027.914	94
3029.971	99
3032.028	103
3034.083	100
3036.137	100.66667
3038.19	83.66667
3040.242	84
3042.292	82
3044.341	94
3046.388	105.66667
3048.435	83.66667
3050.48	99.33333
3052.524	85
3054.566	77
3056.607	89
3058.647	86.66667
3060.686	73.66667
3062.723	72.33333
3064.759	75
3066.794	0.66667
3068.828	0.33333
3070.86	1
