-0.839	140.83333
3.438	163.16667
7.711	66.16667
11.981	42.16667
16.247	29.5
20.509	36.83333
24.768	34.83333
29.024	42.83333
33.276	30.5
37.524	42.16667
41.769	27.5
46.01	25.5
50.247	42.83333
54.481	48.5
58.712	54.83333
62.939	31.5
67.162	50.5
71.382	45.5
75.599	36.83333
79.812	42.83333
84.021	62.16667
88.227	37.83333
92.429	50.16667
96.628	39.16667
100.823	53.5
105.015	53.16667
109.204	47.16667
113.388	56.16667
117.57	41.16667
121.748	58.83333
125.922	47.5
130.093	64.83333
134.261	64.83333
138.425	55.5
142.585	85.16667
146.742	61.5
150.896	77.83333
155.046	70.5
159.193	108.5
163.336	165.16667
167.476	282.16667
171.613	507.16667
175.746	818.5
179.875	1185.16667
184.002	1530.83333
188.124	1797.16667
192.244	1890.5
196.36	1892.16667
200.472	1871.5
204.581	1839.16667
208.687	1774.83333
212.79	1797.16667
216.889	1794.83333
220.984	1822.16667
225.077	1821.5
229.165	1829.16667
233.251	1845.5
237.333	1844.83333
241.412	1823.5
245.487	1807.16667
249.559	1780.16667
253.628	1780.83333
257.694	1746.5
261.756	1743.83333
265.814	1698.16667
269.87	1652.83333
273.922	1590.83333
277.97	1575.5
282.016	1540.5
286.058	1517.16667
290.097	1514.16667
294.132	1560.83333
298.164	1540.5
302.193	1489.5
306.219	1399.16667
310.241	1302.16667
314.26	1201.16667
318.276	1142.5
322.288	1116.16667
326.297	1055.83333
330.303	1029.5
334.305	1022.16667
338.305	995.16667
342.301	988.5
346.294	994.16667
350.283	973.16667
354.269	959.83333
358.252	962.16667
362.232	965.16667
366.209	966.16667
370.182	956.83333
374.152	940.5
378.119	958.16667
382.083	935.16667
386.043	964.5
390	937.5
393.954	953.16667
397.905	946.83333
401.852	968.83333
405.797	945.5
409.738	922.5
413.676	945.16667
417.61	942.83333
421.542	936.16667
425.47	910.5
429.396	905.16667
433.318	884.5
437.236	894.5
441.152	935.16667
445.065	890.5
448.974	892.16667
452.88	880.16667
456.783	884.83333
460.683	866.16667
464.58	881.16667
468.473	884.5
472.364	871.5
476.251	864.5
480.135	874.5
484.016	894.83333
487.894	895.83333
491.769	893.16667
495.641	882.83333
499.509	889.5
503.375	884.5
507.237	895.16667
511.096	891.83333
514.952	886.16667
518.805	889.5
522.655	876.83333
526.502	878.5
530.346	886.83333
534.187	889.16667
538.024	885.16667
541.859	882.83333
545.69	890.83333
549.519	882.5
553.344	889.83333
557.166	867.5
560.985	863.16667
564.802	864.83333
568.615	846.16667
572.425	842.5
576.232	829.5
580.036	836.16667
583.836	847.16667
587.634	847.16667
591.429	835.16667
595.221	869.5
599.01	865.83333
602.796	858.5
606.578	871.83333
610.358	872.83333
614.135	870.83333
617.909	871.5
621.679	861.83333
625.447	849.5
629.212	845.83333
632.973	861.83333
636.732	852.83333
640.488	858.16667
644.241	848.5
647.991	840.5
651.737	867.83333
655.481	840.83333
659.222	847.16667
662.96	836.5
666.695	849.16667
670.427	854.5
674.156	862.5
677.882	850.16667
681.605	863.83333
685.325	820.16667
689.043	858.5
692.757	833.83333
696.468	844.83333
700.177	839.16667
703.882	815.5
707.585	824.5
711.284	828.16667
714.981	826.16667
718.675	815.83333
722.366	830.5
726.054	808.83333
729.739	828.5
733.421	820.83333
737.1	817.5
740.777	822.83333
744.45	816.83333
748.121	836.83333
751.789	856.5
755.453	848.5
759.115	844.16667
762.774	844.16667
766.431	848.16667
770.084	863.83333
773.734	853.83333
777.382	881.16667
781.027	885.5
784.669	871.5
788.308	878.16667
791.944	900.83333
795.577	910.16667
799.208	894.5
802.835	879.5
806.46	908.5
810.082	912.83333
813.701	909.5
817.317	911.5
820.931	925.16667
824.542	933.83333
828.149	906.5
831.754	898.83333
835.357	885.16667
838.956	903.16667
842.553	898.5
846.146	873.83333
849.737	856.16667
853.326	881.83333
856.911	869.5
860.493	879.5
864.073	896.83333
867.65	904.83333
871.225	913.83333
874.796	915.83333
878.365	891.5
881.931	902.83333
885.494	924.16667
889.054	906.5
892.612	922.83333
896.166	906.16667
899.719	886.16667
903.268	884.5
906.814	887.83333
910.358	885.83333
913.899	875.16667
917.438	867.83333
920.973	855.5
924.506	871.5
928.036	898.83333
931.564	894.16667
935.088	907.83333
938.61	895.83333
942.129	900.16667
945.646	920.83333
949.16	922.83333
952.671	945.83333
956.179	957.16667
959.685	952.5
963.188	962.83333
966.688	958.5
970.185	913.83333
973.68	898.5
977.173	876.16667
980.662	857.83333
984.149	876.16667
987.633	858.5
991.114	877.5
994.593	882.5
998.069	896.5
1001.542	920.5
1005.013	912.5
1008.481	854.83333
1011.947	841.5
1015.409	835.16667
1018.869	843.16667
1022.327	839.16667
1025.782	838.5
1029.234	837.16667
1032.683	832.83333
1036.13	811.83333
1039.574	765.83333
1043.016	755.16667
1046.455	761.5
1049.891	732.5
1053.325	762.5
1056.756	734.5
1060.184	739.16667
1063.61	732.16667
1067.033	749.5
1070.454	738.5
1073.872	767.83333
1077.287	744.83333
1080.7	744.16667
1084.11	750.16667
1087.517	741.83333
1090.922	746.16667
1094.325	725.16667
1097.724	718.5
1101.122	722.16667
1104.516	722.83333
1107.908	711.5
1111.298	721.5
1114.684	743.16667
1118.069	738.5
1121.45	747.83333
1124.83	729.16667
1128.206	747.5
1131.58	752.5
1134.951	770.16667
1138.32	783.16667
1141.687	815.16667
1145.05	817.83333
1148.412	842.83333
1151.77	837.83333
1155.126	825.5
1158.48	819.5
1161.831	823.16667
1165.18	831.5
1168.525	842.83333
1171.869	854.5
1175.21	851.5
1178.548	864.83333
1181.884	881.83333
1185.217	865.5
1188.548	890.83333
1191.877	920.5
1195.202	948.83333
1198.526	975.83333
1201.846	972.83333
1205.165	966.83333
1208.48	970.83333
1211.794	963.16667
1215.104	967.5
1218.413	944.5
1221.719	954.83333
1225.022	934.16667
1228.323	932.5
1231.621	939.16667
1234.917	919.83333
1238.21	935.5
1241.501	910.83333
1244.79	914.83333
1248.076	901.83333
1251.359	914.16667
1254.64	964.5
1257.919	936.16667
1261.195	930.83333
1264.468	956.83333
1267.74	975.16667
1271.008	977.16667
1274.275	987.5
1277.538	954.83333
1280.8	979.83333
1284.059	966.5
1287.315	978.16667
1290.569	978.83333
1293.821	992.83333
1297.07	994.5
1300.317	996.83333
1303.562	999.16667
1306.803	989.83333
1310.043	992.83333
1313.28	991.16667
1316.515	967.83333
1319.747	988.16667
1322.977	970.83333
1326.204	974.83333
1329.429	954.16667
1332.652	959.16667
1335.872	950.5
1339.09	933.16667
1342.306	940.83333
1345.519	925.16667
1348.729	918.16667
1351.938	922.83333
1355.144	902.16667
1358.347	903.83333
1361.548	907.16667
1364.747	909.16667
1367.944	884.16667
1371.138	897.83333
1374.329	878.5
1377.518	889.16667
1380.705	884.16667
1383.89	904.83333
1387.072	860.83333
1390.252	847.5
1393.429	820.5
1396.605	781.16667
1399.777	756.5
1402.948	752.5
1406.116	743.16667
1409.282	739.5
1412.445	746.5
1415.606	765.16667
1418.765	752.16667
1421.921	766.5
1425.075	785.83333
1428.227	795.83333
1431.376	838.16667
1434.524	874.16667
1437.668	890.5
1440.811	896.5
1443.951	894.16667
1447.089	908.5
1450.224	893.5
1453.357	885.83333
1456.488	903.5
1459.617	880.5
1462.743	880.16667
1465.867	840.16667
1468.989	836.83333
1472.108	825.5
1475.225	827.5
1478.34	808.5
1481.453	804.83333
1484.563	802.5
1487.671	808.83333
1490.776	840.83333
1493.88	828.16667
1496.981	850.16667
1500.08	857.83333
1503.176	859.5
1506.271	872.5
1509.363	898.5
1512.452	880.16667
1515.54	893.83333
1518.625	898.16667
1521.708	945.5
1524.789	965.83333
1527.867	1000.16667
1530.944	1045.5
1534.018	1068.83333
1537.089	1120.83333
1540.159	1112.5
1543.226	1099.83333
1546.291	1082.83333
1549.354	1057.5
1552.415	1050.83333
1555.473	1031.5
1558.529	1007.83333
1561.583	1005.16667
1564.634	992.5
1567.684	999.16667
1570.731	1003.16667
1573.776	1019.83333
1576.819	1036.83333
1579.859	1039.5
1582.898	1055.83333
1585.934	1069.16667
1588.968	1079.83333
1591.999	1060.16667
1595.029	1060.16667
1598.056	1080.83333
1601.081	1089.5
1604.104	1072.5
1607.125	1052.83333
1610.144	1052.83333
1613.16	1023.5
1616.174	1003.16667
1619.186	988.16667
1622.196	965.5
1625.203	949.5
1628.209	930.83333
1631.212	932.16667
1634.213	937.5
1637.212	949.16667
1640.209	939.83333
1643.203	931.16667
1646.196	877.5
1649.186	844.5
1652.174	832.83333
1655.16	797.83333
1658.144	774.83333
1661.125	741.5
1664.105	705.16667
1667.082	681.16667
1670.057	629.16667
1673.03	602.83333
1676.001	578.5
1678.97	533.5
1681.937	519.83333
1684.901	485.5
1687.863	477.16667
1690.824	446.83333
1693.782	453.83333
1696.738	420.16667
1699.692	420.83333
1702.643	406.5
1705.593	405.5
1708.54	400.16667
1711.486	410.16667
1714.429	387.5
1717.37	391.83333
1720.309	380.5
1723.246	387.5
1726.181	369.83333
1729.113	371.5
1732.044	379.83333
1734.972	366.5
1737.899	381.83333
1740.823	380.16667
1743.745	395.83333
1746.665	351.5
1749.583	349.16667
1752.499	342.5
1755.413	342.83333
1758.325	336.5
1761.235	344.16667
1764.142	330.83333
1767.048	330.16667
1769.951	332.83333
1772.852	329.5
1775.752	339.83333
1778.649	333.83333
1781.544	344.16667
1784.437	314.5
1787.328	320.83333
1790.217	322.5
1793.104	301.83333
1795.989	297.83333
1798.872	305.16667
1801.753	321.16667
1804.631	310.16667
1807.508	319.83333
1810.383	303.5
1813.255	307.83333
1816.126	305.16667
1818.994	305.83333
1821.861	299.83333
1824.725	307.16667
1827.587	314.83333
1830.448	298.16667
1833.306	294.16667
1836.162	302.83333
1839.017	295.16667
1841.869	293.83333
1844.719	301.16667
1847.567	282.5
1850.414	274.16667
1853.258	276.83333
1856.1	295.83333
1858.94	293.5
1861.778	285.83333
1864.614	280.16667
1867.448	288.83333
1870.28	277.83333
1873.111	291.5
1875.939	284.16667
1878.765	295.16667
1881.589	285.5
1884.411	284.5
1887.231	289.83333
1890.049	277.83333
1892.865	288.83333
1895.68	277.5
1898.492	290.5
1901.302	281.5
1904.11	273.16667
1906.916	273.83333
1909.721	266.5
1912.523	280.5
1915.323	263.16667
1918.122	265.16667
1920.918	273.83333
1923.712	256.83333
1926.505	266.5
1929.295	254.83333
1932.084	281.16667
1934.87	269.16667
1937.655	255.16667
1940.438	256.5
1943.218	259.16667
1945.997	266.5
1948.774	271.83333
1951.549	265.83333
1954.322	263.5
1957.093	264.83333
1959.862	260.5
1962.629	258.83333
1965.394	258.16667
1968.157	248.5
1970.918	263.5
1973.678	247.16667
1976.435	262.16667
1979.19	247.16667
1981.944	241.5
1984.696	244.5
1987.445	241.5
1990.193	248.83333
1992.939	258.83333
1995.683	252.83333
1998.425	236.83333
2001.165	265.5
2003.903	235.5
2006.639	248.16667
2009.374	248.16667
2012.106	252.5
2014.837	222.83333
2017.566	253.5
2020.292	241.83333
2023.017	231.5
2025.74	236.83333
2028.461	228.5
2031.18	241.16667
2033.898	224.83333
2036.613	234.5
2039.327	238.16667
2042.038	222.83333
2044.748	231.83333
2047.456	245.16667
2050.162	222.16667
2052.866	223.83333
2055.568	240.83333
2058.268	228.16667
2060.967	237.16667
2063.663	223.16667
2066.358	221.83333
2069.051	226.5
2071.742	228.5
2074.431	239.16667
2077.118	224.5
2079.804	217.83333
2082.487	224.16667
2085.169	237.83333
2087.849	248.83333
2090.527	219.83333
2093.203	219.16667
2095.877	225.83333
2098.55	226.5
2101.22	231.5
2103.889	239.5
2106.556	223.83333
2109.221	238.16667
2111.884	233.83333
2114.546	250.83333
2117.205	256.5
2119.863	283.16667
2122.519	290.5
2125.173	303.5
2127.825	337.83333
2130.475	342.83333
2133.124	318.5
2135.771	314.5
2138.416	326.5
2141.059	290.5
2143.7	289.5
2146.339	263.5
2148.977	240.16667
2151.613	247.5
2154.247	231.5
2156.879	236.16667
2159.51	226.16667
2162.138	231.16667
2164.765	224.83333
2167.39	213.83333
2170.013	241.5
2172.634	236.5
2175.254	217.5
2177.872	255.5
2180.488	214.83333
2183.102	211.83333
2185.714	213.83333
2188.325	210.16667
2190.934	212.83333
2193.541	221.5
2196.146	206.5
2198.75	198.16667
2201.351	198.16667
2203.951	187.83333
2206.549	199.5
2209.146	200.83333
2211.74	196.83333
2214.333	201.5
2216.924	194.16667
2219.514	201.16667
2222.101	191.5
2224.687	210.5
2227.271	187.16667
2229.853	187.5
2232.433	176.16667
2235.012	199.16667
2237.589	185.83333
2240.164	205.16667
2242.738	185.16667
2245.309	179.83333
2247.879	203.16667
2250.448	197.16667
2253.014	173.83333
2255.579	170.5
2258.142	178.16667
2260.703	182.5
2263.262	177.16667
2265.82	166.83333
2268.376	185.83333
2270.93	174.83333
2273.483	164.83333
2276.033	182.83333
2278.583	166.16667
2281.13	169.83333
2283.675	169.5
2286.219	168.83333
2288.761	177.5
2291.302	180.83333
2293.841	190.16667
2296.377	162.5
2298.913	170.83333
2301.446	181.83333
2303.978	167.83333
2306.508	168.5
2309.037	178.83333
2311.563	172.83333
2314.088	170.5
2316.612	156.16667
2319.133	169.83333
2321.653	164.5
2324.171	162.83333
2326.688	171.5
2329.202	165.16667
2331.715	171.16667
2334.227	163.5
2336.736	169.16667
2339.244	157.16667
2341.751	151.5
2344.255	164.16667
2346.758	167.5
2349.259	153.83333
2351.759	169.5
2354.257	150.16667
2356.753	149.5
2359.247	155.83333
2361.74	152.83333
2364.231	153.16667
2366.721	162.5
2369.209	151.16667
2371.695	150.83333
2374.179	148.5
2376.662	138.16667
2379.143	164.5
2381.622	152.16667
2384.1	160.5
2386.576	152.5
2389.051	160.5
2391.524	166.16667
2393.995	159.83333
2396.464	147.83333
2398.932	148.5
2401.398	148.5
2403.863	144.83333
2406.325	145.16667
2408.787	151.5
2411.246	148.5
2413.704	152.5
2416.16	144.16667
2418.615	141.5
2421.068	147.83333
2423.519	145.83333
2425.969	137.83333
2428.417	158.5
2430.863	168.16667
2433.308	157.83333
2435.751	148.16667
2438.193	153.83333
2440.633	152.16667
2443.071	152.16667
2445.508	152.5
2447.943	147.83333
2450.376	139.83333
2452.808	153.16667
2455.238	137.5
2457.667	169.16667
2460.093	135.5
2462.519	128.83333
2464.942	137.83333
2467.365	152.5
2469.785	149.5
2472.204	133.5
2474.621	136.16667
2477.037	159.5
2479.451	127.5
2481.863	130.83333
2484.274	132.16667
2486.683	137.83333
2489.091	148.5
2491.497	144.5
2493.901	139.16667
2496.304	134.5
2498.705	147.5
2501.105	138.5
2503.503	154.16667
2505.899	130.5
2508.294	154.16667
2510.687	129.16667
2513.079	138.16667
2515.469	129.5
2517.858	129.16667
2520.245	147.5
2522.63	133.16667
2525.014	131.5
2527.396	128.5
2529.776	133.16667
2532.156	135.16667
2534.533	124.83333
2536.909	123.16667
2539.283	116.16667
2541.656	127.16667
2544.027	145.16667
2546.397	128.16667
2548.765	128.83333
2551.131	132.5
2553.496	133.83333
2555.86	137.16667
2558.221	141.83333
2560.582	127.16667
2562.94	119.16667
2565.298	133.5
2567.653	138.5
2570.007	116.16667
2572.36	135.5
2574.711	120.16667
2577.06	139.5
2579.408	133.16667
2581.754	124.5
2584.099	122.5
2586.442	129.5
2588.784	132.83333
2591.124	125.16667
2593.463	126.16667
2595.8	130.83333
2598.135	115.83333
2600.469	115.83333
2602.802	127.16667
2605.133	132.16667
2607.462	122.5
2609.79	114.5
2612.116	131.83333
2614.441	122.16667
2616.764	126.16667
2619.086	124.83333
2621.406	117.16667
2623.725	134.5
2626.042	122.83333
2628.358	117.83333
2630.672	126.16667
2632.985	133.83333
2635.296	126.5
2637.606	127.5
2639.914	116.83333
2642.22	123.83333
2644.525	122.83333
2646.829	124.16667
2649.131	132.16667
2651.432	129.83333
2653.731	120.5
2656.028	130.5
2658.324	124.83333
2660.619	116.5
2662.912	136.83333
2665.204	112.83333
2667.494	125.5
2669.782	114.16667
2672.07	135.5
2674.355	132.16667
2676.639	124.5
2678.922	118.5
2681.203	122.5
2683.483	117.5
2685.761	108.5
2688.038	133.83333
2690.313	137.16667
2692.587	123.16667
2694.859	120.5
2697.13	123.16667
2699.399	129.16667
2701.667	128.5
2703.933	123.16667
2706.198	133.16667
2708.461	128.16667
2710.723	132.16667
2712.984	128.5
2715.243	136.83333
2717.5	126.16667
2719.757	130.83333
2722.011	122.16667
2724.264	135.16667
2726.516	138.83333
2728.766	122.16667
2731.015	132.5
2733.262	132.83333
2735.508	126.16667
2737.753	131.16667
2739.996	112.5
2742.237	120.5
2744.477	133.5
2746.716	144.83333
2748.953	134.83333
2751.189	138.16667
2753.423	130.16667
2755.656	117.83333
2757.887	118.16667
2760.117	120.5
2762.346	113.16667
2764.573	101.16667
2766.798	117.5
2769.022	117.83333
2771.245	109.83333
2773.467	117.83333
2775.686	113.5
2777.905	124.16667
2780.122	114.83333
2782.337	129.16667
2784.552	118.16667
2786.764	117.83333
2788.976	112.16667
2791.186	120.83333
2793.394	117.16667
2795.601	127.5
2797.807	135.16667
2800.011	129.16667
2802.214	134.83333
2804.415	126.83333
2806.615	126.16667
2808.814	127.83333
2811.011	127.5
2813.206	130.16667
2815.401	140.5
2817.594	133.5
2819.785	145.83333
2821.975	128.83333
2824.164	130.16667
2826.351	133.5
2828.537	148.16667
2830.722	150.16667
2832.905	146.16667
2835.086	151.16667
2837.267	169.16667
2839.445	160.83333
2841.623	166.16667
2843.799	168.5
2845.974	178.83333
2848.147	182.16667
2850.319	190.83333
2852.489	200.83333
2854.659	207.83333
2856.826	201.5
2858.993	220.16667
2861.158	198.83333
2863.321	201.83333
2865.483	220.16667
2867.644	212.16667
2869.804	213.16667
2871.962	209.16667
2874.118	214.83333
2876.274	221.16667
2878.428	210.16667
2880.58	213.5
2882.731	203.16667
2884.881	214.83333
2887.03	218.5
2889.177	211.83333
2891.322	224.16667
2893.467	213.83333
2895.61	215.16667
2897.751	231.83333
2899.892	213.83333
2902.03	224.16667
2904.168	223.83333
2906.304	218.83333
2908.439	241.5
2910.572	216.16667
2912.704	230.83333
2914.835	231.5
2916.965	228.83333
2919.093	243.5
2921.219	214.5
2923.345	246.16667
2925.469	228.83333
2927.591	217.83333
2929.712	208.83333
2931.832	226.83333
2933.951	211.83333
2936.068	207.83333
2938.184	206.5
2940.299	199.16667
2942.412	187.83333
2944.524	177.83333
2946.634	184.5
2948.744	163.83333
2950.851	197.5
2952.958	162.5
2955.063	170.16667
2957.167	163.83333
2959.269	149.16667
2961.371	180.5
2963.471	147.16667
2965.569	165.16667
2967.666	143.5
2969.762	141.83333
2971.857	135.16667
2973.95	130.83333
2976.042	134.83333
2978.133	124.5
2980.222	127.16667
2982.31	119.83333
2984.396	107.16667
2986.482	116.16667
2988.566	117.5
2990.648	112.16667
2992.73	117.5
2994.81	102.16667
2996.889	118.5
2998.966	110.83333
3001.042	125.16667
3003.117	103.83333
3005.191	110.16667
3007.263	115.83333
3009.334	106.83333
3011.403	114.83333
3013.472	106.5
3015.539	118.5
3017.604	125.83333
3019.669	96.5
3021.732	104.5
3023.794	101.83333
3025.854	90.83333
3027.914	89.16667
3029.971	96.5
3032.028	93.5
3034.083	103.5
3036.137	102.5
3038.19	86.5
3040.242	82.83333
3042.292	84.83333
3044.341	89.5
3046.388	100.5
3048.435	84.5
3050.48	98.83333
3052.524	93.16667
3054.566	76.16667
3056.607	93.16667
3058.647	85.5
3060.686	77.83333
3062.723	72.83333
3064.759	76.16667
3066.794	0.83333
3068.828	-1.83333
3070.86	4.16667
