-0.839	144.29167
3.438	166.95833
7.711	68.95833
11.981	41.625
16.247	31.625
20.509	38.625
24.768	36.29167
29.024	44.95833
33.276	30.29167
37.524	42.625
41.769	29.95833
46.01	27.29167
50.247	46.95833
54.481	50.95833
58.712	54.95833
62.939	36.95833
67.162	55.95833
71.382	45.625
75.599	34.95833
79.812	44.95833
84.021	65.625
88.227	42.95833
92.429	51.29167
96.628	35.625
100.823	53.625
105.015	48.95833
109.204	43.625
113.388	55.625
117.57	42.95833
121.748	58.625
125.922	47.625
130.093	65.29167
134.261	68.29167
138.425	57.29167
142.585	85.95833
146.742	66.29167
150.896	81.625
155.046	79.625
159.193	120.29167
163.336	175.95833
167.476	303.95833
171.613	553.625
175.746	887.95833
179.875	1299.625
184.002	1707.29167
188.124	2004.95833
192.244	2122.29167
196.36	2127.29167
200.472	2134.625
204.581	2101.95833
208.687	2035.625
212.79	2041.29167
216.889	2080.29167
220.984	2089.29167
225.077	2117.29167
229.165	2115.625
233.251	2108.625
237.333	2139.95833
241.412	2113.625
245.487	2109.95833
249.559	2074.29167
253.628	2052.625
257.694	2053.95833
261.756	2029.95833
265.814	2013.95833
269.87	1963.29167
273.922	1925.29167
277.97	1889.29167
282.016	1877.625
286.058	1837.625
290.097	1852.29167
294.132	1876.29167
298.164	1874.625
302.193	1821.29167
306.219	1730.29167
310.241	1639.625
314.26	1548.95833
318.276	1476.95833
322.288	1448.625
326.297	1397.625
330.303	1370.95833
334.305	1370.95833
338.305	1361.29167
342.301	1350.29167
346.294	1359.625
350.283	1344.95833
354.269	1333.95833
358.252	1326.95833
362.232	1328.95833
366.209	1337.625
370.182	1316.95833
374.152	1324.625
378.119	1330.29167
382.083	1331.29167
386.043	1341.95833
390	1315.625
393.954	1336.625
397.905	1319.95833
401.852	1349.95833
405.797	1327.625
409.738	1332.625
413.676	1345.95833
417.61	1357.625
421.542	1330.29167
425.47	1297.95833
429.396	1311.625
433.318	1297.29167
437.236	1300.29167
441.152	1338.29167
445.065	1297.95833
448.974	1282.625
452.88	1286.95833
456.783	1278.29167
460.683	1279.95833
464.58	1282.625
468.473	1298.29167
472.364	1300.29167
476.251	1292.29167
480.135	1299.95833
484.016	1295.95833
487.894	1321.95833
491.769	1302.95833
495.641	1315.95833
499.509	1310.625
503.375	1309.29167
507.237	1295.625
511.096	1310.29167
514.952	1302.29167
518.805	1302.95833
522.655	1323.95833
526.502	1299.95833
530.346	1293.95833
534.187	1296.29167
538.024	1290.95833
541.859	1281.95833
545.69	1300.95833
549.519	1294.29167
553.344	1279.95833
557.166	1274.29167
560.985	1259.95833
564.802	1250.625
568.615	1251.95833
572.425	1225.625
576.232	1222.29167
580.036	1227.29167
583.836	1237.95833
587.634	1233.29167
591.429	1228.29167
595.221	1250.625
599.01	1255.95833
602.796	1244.29167
606.578	1261.29167
610.358	1268.29167
614.135	1258.95833
617.909	1254.29167
621.679	1245.625
625.447	1244.29167
629.212	1235.625
632.973	1241.625
636.732	1238.95833
640.488	1237.625
644.241	1232.95833
647.991	1216.95833
651.737	1248.29167
655.481	1217.29167
659.222	1229.29167
662.96	1241.29167
666.695	1232.625
670.427	1236.95833
674.156	1256.95833
677.882	1240.95833
681.605	1230.95833
685.325	1220.29167
689.043	1238.625
692.757	1224.625
696.468	1217.95833
700.177	1210.29167
703.882	1191.625
707.585	1177.625
711.284	1182.29167
714.981	1159.95833
718.675	1173.29167
722.366	1188.625
726.054	1174.29167
729.739	1174.29167
733.421	1172.95833
737.1	1157.95833
740.777	1172.95833
744.45	1177.625
748.121	1162.95833
751.789	1214.625
755.453	1184.95833
759.115	1189.95833
762.774	1188.625
766.431	1194.625
770.084	1201.625
773.734	1193.29167
777.382	1206.95833
781.027	1191.95833
784.669	1196.29167
788.308	1183.625
791.944	1207.29167
795.577	1205.625
799.208	1221.29167
802.835	1214.625
806.46	1234.95833
810.082	1218.625
813.701	1220.625
817.317	1255.625
820.931	1236.95833
824.542	1241.95833
828.149	1222.95833
831.754	1193.29167
835.357	1190.95833
838.956	1205.29167
842.553	1193.625
846.146	1179.625
849.737	1171.95833
853.326	1173.29167
856.911	1143.625
860.493	1171.625
864.073	1159.625
867.65	1167.625
871.225	1200.29167
874.796	1165.29167
878.365	1170.29167
881.931	1179.625
885.494	1198.625
889.054	1179.625
892.612	1181.95833
896.166	1161.625
899.719	1157.625
903.268	1129.29167
906.814	1149.625
910.358	1127.29167
913.899	1129.625
917.438	1119.29167
920.973	1104.625
924.506	1113.29167
928.036	1130.95833
931.564	1158.29167
935.088	1154.95833
938.61	1140.95833
942.129	1141.625
945.646	1152.29167
949.16	1169.29167
952.671	1180.95833
956.179	1184.29167
959.685	1187.625
963.188	1214.95833
966.688	1203.95833
970.185	1155.95833
973.68	1154.625
977.173	1137.95833
980.662	1103.95833
984.149	1125.29167
987.633	1114.29167
991.114	1120.29167
994.593	1141.95833
998.069	1161.29167
1001.542	1170.95833
1005.013	1158.29167
1008.481	1094.29167
1011.947	1092.29167
1015.409	1067.95833
1018.869	1073.29167
1022.327	1079.29167
1025.782	1060.95833
1029.234	1047.95833
1032.683	1040.95833
1036.13	1018.95833
1039.574	973.625
1043.016	970.625
1046.455	964.29167
1049.891	949.625
1053.325	962.29167
1056.756	944.29167
1060.184	964.95833
1063.61	946.29167
1067.033	955.625
1070.454	945.625
1073.872	971.95833
1077.287	949.625
1080.7	956.95833
1084.11	943.625
1087.517	949.95833
1090.922	943.29167
1094.325	917.625
1097.724	915.625
1101.122	920.29167
1104.516	907.625
1107.908	883.95833
1111.298	909.625
1114.684	913.625
1118.069	921.625
1121.45	924.95833
1124.83	920.29167
1128.206	933.95833
1131.58	936.625
1134.951	958.95833
1138.32	954.29167
1141.687	1004.625
1145.05	1004.95833
1148.412	1006.29167
1151.77	1010.95833
1155.126	997.625
1158.48	987.625
1161.831	983.625
1165.18	993.95833
1168.525	1014.625
1171.869	1008.95833
1175.21	1006.95833
1178.548	1017.29167
1181.884	1037.625
1185.217	1034.625
1188.548	1038.29167
1191.877	1061.95833
1195.202	1108.29167
1198.526	1113.29167
1201.846	1111.29167
1205.165	1106.95833
1208.48	1112.29167
1211.794	1109.625
1215.104	1123.625
1218.413	1105.29167
1221.719	1090.95833
1225.022	1080.95833
1228.323	1072.625
1231.621	1070.625
1234.917	1045.29167
1238.21	1082.29167
1241.501	1065.625
1244.79	1054.29167
1248.076	1052.29167
1251.359	1063.95833
1254.64	1110.95833
1257.919	1073.95833
1261.195	1093.95833
1264.468	1102.95833
1267.74	1119.625
1271.008	1112.625
1274.275	1136.29167
1277.538	1100.29167
1280.8	1114.95833
1284.059	1102.29167
1287.315	1108.29167
1290.569	1105.95833
1293.821	1107.95833
1297.07	1121.29167
1300.317	1107.29167
1303.562	1113.95833
1306.803	1113.29167
1310.043	1097.625
1313.28	1095.29167
1316.515	1085.625
1319.747	1102.29167
1322.977	1088.95833
1326.204	1078.29167
1329.429	1079.29167
1332.652	1082.625
1335.872	1092.625
1339.09	1078.95833
1342.306	1089.625
1345.519	1058.95833
1348.729	1065.95833
1351.938	1072.625
1355.144	1044.29167
1358.347	1033.95833
1361.548	1045.625
1364.747	1042.95833
1367.944	1007.625
1371.138	1020.95833
1374.329	1009.29167
1377.518	1011.29167
1380.705	1018.29167
1383.89	1007.29167
1387.072	988.29167
1390.252	953.95833
1393.429	930.29167
1396.605	907.29167
1399.777	894.95833
1402.948	897.29167
1406.116	866.29167
1409.282	869.29167
1412.445	874.29167
1415.606	876.29167
1418.765	870.625
1421.921	886.29167
1425.075	881.95833
1428.227	921.625
1431.376	935.95833
1434.524	973.625
1437.668	1003.625
1440.811	994.95833
1443.951	1006.625
1447.089	999.29167
1450.224	1008.95833
1453.357	1010.625
1456.488	1001.29167
1459.617	987.95833
1462.743	975.625
1465.867	937.625
1468.989	960.95833
1472.108	935.95833
1475.225	947.95833
1478.34	904.29167
1481.453	909.95833
1484.563	915.95833
1487.671	915.625
1490.776	922.29167
1493.88	922.625
1496.981	957.29167
1500.08	954.29167
1503.176	943.95833
1506.271	955.29167
1509.363	974.95833
1512.452	959.95833
1515.54	977.29167
1518.625	983.95833
1521.708	1021.95833
1524.789	1047.29167
1527.867	1068.29167
1530.944	1104.29167
1534.018	1134.625
1537.089	1173.29167
1540.159	1177.29167
1543.226	1185.29167
1546.291	1142.625
1549.354	1134.625
1552.415	1099.95833
1555.473	1103.625
1558.529	1091.95833
1561.583	1059.29167
1564.634	1060.29167
1567.684	1050.95833
1570.731	1053.625
1573.776	1067.95833
1576.819	1088.95833
1579.859	1083.29167
1582.898	1081.625
1585.934	1114.29167
1588.968	1112.95833
1591.999	1101.625
1595.029	1077.625
1598.056	1103.29167
1601.081	1115.29167
1604.104	1116.29167
1607.125	1091.29167
1610.144	1074.95833
1613.16	1058.95833
1616.174	1041.95833
1619.186	1041.29167
1622.196	1019.625
1625.203	995.29167
1628.209	988.625
1631.212	998.625
1634.213	1004.625
1637.212	1033.625
1640.209	1018.625
1643.203	987.29167
1646.196	957.29167
1649.186	917.625
1652.174	897.95833
1655.16	873.95833
1658.144	861.625
1661.125	824.625
1664.105	781.95833
1667.082	758.625
1670.057	720.625
1673.03	680.29167
1676.001	662.29167
1678.97	616.625
1681.937	590.29167
1684.901	568.95833
1687.863	559.95833
1690.824	532.95833
1693.782	549.95833
1696.738	502.29167
1699.692	514.29167
1702.643	495.29167
1705.593	502.625
1708.54	488.29167
1711.486	495.29167
1714.429	483.29167
1717.37	480.625
1720.309	472.95833
1723.246	482.29167
1726.181	465.29167
1729.113	464.625
1732.044	471.29167
1734.972	451.29167
1737.899	471.95833
1740.823	482.95833
1743.745	488.29167
1746.665	445.625
1749.583	437.625
1752.499	448.625
1755.413	444.95833
1758.325	418.29167
1761.235	435.625
1764.142	415.625
1767.048	416.95833
1769.951	420.29167
1772.852	419.95833
1775.752	425.95833
1778.649	421.29167
1781.544	430.95833
1784.437	401.29167
1787.328	413.29167
1790.217	412.625
1793.104	385.95833
1795.989	395.29167
1798.872	391.625
1801.753	401.29167
1804.631	386.95833
1807.508	397.625
1810.383	390.29167
1813.255	395.29167
1816.126	384.625
1818.994	389.29167
1821.861	387.29167
1824.725	390.29167
1827.587	387.95833
1830.448	386.625
1833.306	375.29167
1836.162	380.95833
1839.017	376.29167
1841.869	373.625
1844.719	378.29167
1847.567	359.625
1850.414	350.95833
1853.258	355.625
1856.1	375.95833
1858.94	380.95833
1861.778	363.95833
1864.614	358.95833
1867.448	362.95833
1870.28	340.95833
1873.111	371.29167
1875.939	362.625
1878.765	375.625
1881.589	349.29167
1884.411	359.625
1887.231	368.29167
1890.049	353.95833
1892.865	362.95833
1895.68	346.29167
1898.492	360.29167
1901.302	349.29167
1904.11	342.29167
1906.916	353.95833
1909.721	348.625
1912.523	349.95833
1915.323	337.625
1918.122	332.625
1920.918	344.625
1923.712	334.625
1926.505	339.95833
1929.295	323.625
1932.084	336.625
1934.87	332.625
1937.655	329.29167
1940.438	315.95833
1943.218	331.29167
1945.997	332.95833
1948.774	334.625
1951.549	338.625
1954.322	325.625
1957.093	328.625
1959.862	323.625
1962.629	324.95833
1965.394	327.625
1968.157	314.95833
1970.918	330.625
1973.678	313.625
1976.435	316.95833
1979.19	321.95833
1981.944	305.95833
1984.696	313.29167
1987.445	305.95833
1990.193	322.95833
1992.939	320.29167
1995.683	312.625
1998.425	286.95833
2001.165	325.29167
2003.903	295.625
2006.639	305.29167
2009.374	309.29167
2012.106	310.29167
2014.837	285.625
2017.566	313.625
2020.292	302.625
2023.017	298.95833
2025.74	292.29167
2028.461	283.29167
2031.18	291.29167
2033.898	286.29167
2036.613	285.29167
2039.327	302.625
2042.038	283.29167
2044.748	288.95833
2047.456	300.625
2050.162	273.95833
2052.866	284.95833
2055.568	293.29167
2058.268	280.29167
2060.967	286.29167
2063.663	280.95833
2066.358	276.95833
2069.051	272.95833
2071.742	285.625
2074.431	290.625
2077.118	274.95833
2079.804	265.95833
2082.487	274.625
2085.169	286.95833
2087.849	294.29167
2090.527	271.625
2093.203	275.29167
2095.877	282.29167
2098.55	286.29167
2101.22	281.625
2103.889	280.95833
2106.556	270.29167
2109.221	289.29167
2111.884	281.29167
2114.546	304.625
2117.205	291.95833
2119.863	322.29167
2122.519	313.625
2125.173	329.625
2127.825	359.95833
2130.475	366.95833
2133.124	349.95833
2135.771	330.625
2138.416	345.29167
2141.059	314.95833
2143.7	321.29167
2146.339	289.625
2148.977	271.95833
2151.613	288.95833
2154.247	284.95833
2156.879	275.29167
2159.51	265.95833
2162.138	265.95833
2164.765	258.29167
2167.39	257.95833
2170.013	276.29167
2172.634	273.29167
2175.254	260.29167
2177.872	292.95833
2180.488	247.95833
2183.102	258.95833
2185.714	254.625
2188.325	242.29167
2190.934	253.29167
2193.541	250.625
2196.146	245.95833
2198.75	231.95833
2201.351	237.625
2203.951	224.95833
2206.549	242.95833
2209.146	235.625
2211.74	234.625
2214.333	243.625
2216.924	219.95833
2219.514	230.625
2222.101	229.625
2224.687	242.29167
2227.271	220.29167
2229.853	224.29167
2232.433	209.95833
2235.012	231.625
2237.589	226.625
2240.164	235.29167
2242.738	228.95833
2245.309	213.95833
2247.879	237.95833
2250.448	231.95833
2253.014	215.95833
2255.579	211.29167
2258.142	216.95833
2260.703	218.95833
2263.262	210.29167
2265.82	202.95833
2268.376	224.29167
2270.93	209.625
2273.483	206.625
2276.033	212.95833
2278.583	207.95833
2281.13	206.625
2283.675	196.95833
2286.219	197.625
2288.761	212.29167
2291.302	213.625
2293.841	220.625
2296.377	198.29167
2298.913	207.95833
2301.446	215.625
2303.978	202.95833
2306.508	196.95833
2309.037	210.29167
2311.563	199.625
2314.088	205.29167
2316.612	188.29167
2319.133	207.625
2321.653	204.95833
2324.171	193.625
2326.688	201.625
2329.202	196.625
2331.715	194.29167
2334.227	197.29167
2336.736	199.625
2339.244	191.29167
2341.751	185.29167
2344.255	200.95833
2346.758	197.95833
2349.259	184.95833
2351.759	196.625
2354.257	184.95833
2356.753	184.95833
2359.247	182.625
2361.74	189.625
2364.231	186.95833
2366.721	196.29167
2369.209	185.95833
2371.695	191.625
2374.179	182.95833
2376.662	177.95833
2379.143	196.625
2381.622	187.29167
2384.1	187.625
2386.576	182.29167
2389.051	189.625
2391.524	196.625
2393.995	192.29167
2396.464	177.95833
2398.932	180.95833
2401.398	180.625
2403.863	176.625
2406.325	176.625
2408.787	188.29167
2411.246	178.29167
2413.704	179.625
2416.16	181.29167
2418.615	177.625
2421.068	181.29167
2423.519	177.95833
2425.969	170.625
2428.417	190.29167
2430.863	198.95833
2433.308	179.29167
2435.751	180.95833
2438.193	173.625
2440.633	183.29167
2443.071	183.95833
2445.508	169.625
2447.943	170.95833
2450.376	169.625
2452.808	182.95833
2455.238	166.29167
2457.667	197.95833
2460.093	166.29167
2462.519	163.95833
2464.942	168.29167
2467.365	174.29167
2469.785	178.95833
2472.204	166.625
2474.621	167.625
2477.037	186.95833
2479.451	161.95833
2481.863	161.29167
2484.274	160.29167
2486.683	168.625
2489.091	178.95833
2491.497	172.625
2493.901	169.29167
2496.304	171.625
2498.705	174.95833
2501.105	167.625
2503.503	186.29167
2505.899	159.95833
2508.294	183.625
2510.687	161.95833
2513.079	165.625
2515.469	159.625
2517.858	158.29167
2520.245	175.95833
2522.63	161.95833
2525.014	158.29167
2527.396	157.625
2529.776	168.29167
2532.156	166.29167
2534.533	153.95833
2536.909	155.29167
2539.283	142.95833
2541.656	156.29167
2544.027	171.625
2546.397	165.95833
2548.765	156.95833
2551.131	158.625
2553.496	165.29167
2555.86	169.29167
2558.221	166.29167
2560.582	158.29167
2562.94	148.625
2565.298	163.95833
2567.653	172.625
2570.007	147.29167
2572.36	167.625
2574.711	152.95833
2577.06	174.95833
2579.408	161.29167
2581.754	151.95833
2584.099	152.625
2586.442	160.625
2588.784	163.95833
2591.124	161.95833
2593.463	159.625
2595.8	158.29167
2598.135	147.95833
2600.469	156.29167
2602.802	162.625
2605.133	163.625
2607.462	153.29167
2609.79	140.625
2612.116	161.95833
2614.441	155.625
2616.764	158.95833
2619.086	156.29167
2621.406	151.625
2623.725	165.625
2626.042	158.29167
2628.358	149.95833
2630.672	150.95833
2632.985	163.29167
2635.296	158.95833
2637.606	149.95833
2639.914	147.95833
2642.22	154.95833
2644.525	156.95833
2646.829	153.625
2649.131	163.29167
2651.432	160.625
2653.731	149.625
2656.028	166.29167
2658.324	159.95833
2660.619	146.625
2662.912	160.625
2665.204	143.29167
2667.494	154.95833
2669.782	144.29167
2672.07	161.95833
2674.355	164.625
2676.639	158.29167
2678.922	148.29167
2681.203	163.29167
2683.483	151.95833
2685.761	145.29167
2688.038	163.95833
2690.313	176.95833
2692.587	154.29167
2694.859	152.95833
2697.13	156.95833
2699.399	157.95833
2701.667	163.29167
2703.933	162.95833
2706.198	171.29167
2708.461	167.29167
2710.723	163.625
2712.984	164.625
2715.243	161.29167
2717.5	157.95833
2719.757	167.625
2722.011	157.95833
2724.264	167.95833
2726.516	175.29167
2728.766	155.29167
2731.015	161.95833
2733.262	159.29167
2735.508	157.95833
2737.753	160.625
2739.996	147.95833
2742.237	150.625
2744.477	170.95833
2746.716	172.29167
2748.953	168.95833
2751.189	166.95833
2753.423	161.29167
2755.656	151.95833
2757.887	149.29167
2760.117	152.625
2762.346	144.29167
2764.573	142.95833
2766.798	153.29167
2769.022	146.29167
2771.245	145.625
2773.467	154.625
2775.686	153.625
2777.905	155.625
2780.122	159.95833
2782.337	158.95833
2784.552	151.29167
2786.764	155.95833
2788.976	146.95833
2791.186	157.625
2793.394	154.625
2795.601	166.95833
2797.807	163.95833
2800.011	162.625
2802.214	164.29167
2804.415	166.29167
2806.615	161.625
2808.814	162.625
2811.011	167.95833
2813.206	164.625
2815.401	175.95833
2817.594	174.95833
2819.785	175.95833
2821.975	161.29167
2824.164	168.29167
2826.351	165.29167
2828.537	183.625
2830.722	178.625
2832.905	178.95833
2835.086	182.625
2837.267	197.625
2839.445	189.95833
2841.623	199.29167
2843.799	196.95833
2845.974	206.625
2848.147	210.625
2850.319	216.95833
2852.489	229.29167
2854.659	230.95833
2856.826	228.29167
2858.993	250.625
2861.158	227.95833
2863.321	229.95833
2865.483	250.625
2867.644	241.29167
2869.804	237.95833
2871.962	230.95833
2874.118	239.29167
2876.274	243.29167
2878.428	236.625
2880.58	244.29167
2882.731	235.625
2884.881	239.625
2887.03	245.625
2889.177	238.625
2891.322	245.95833
2893.467	239.95833
2895.61	236.29167
2897.751	253.95833
2899.892	239.29167
2902.03	246.625
2904.168	244.95833
2906.304	246.29167
2908.439	259.29167
2910.572	238.625
2912.704	242.95833
2914.835	254.95833
2916.965	250.29167
2919.093	268.625
2921.219	248.29167
2923.345	261.625
2925.469	252.95833
2927.591	249.29167
2929.712	235.625
2931.832	251.625
2933.951	235.625
2936.068	231.625
2938.184	228.95833
2940.299	228.625
2942.412	221.625
2944.524	203.95833
2946.634	226.625
2948.744	190.29167
2950.851	226.95833
2952.958	194.625
2955.063	205.95833
2957.167	196.29167
2959.269	183.95833
2961.371	215.29167
2963.471	185.95833
2965.569	200.29167
2967.666	174.625
2969.762	178.95833
2971.857	169.95833
2973.95	172.625
2976.042	176.625
2978.133	171.29167
2980.222	169.625
2982.31	159.29167
2984.396	146.95833
2986.482	151.95833
2988.566	151.625
2990.648	154.625
2992.73	151.625
2994.81	143.95833
2996.889	158.95833
2998.966	149.29167
3001.042	160.625
3003.117	144.95833
3005.191	154.95833
3007.263	158.29167
3009.334	150.625
3011.403	151.625
3013.472	144.29167
3015.539	158.625
3017.604	163.625
3019.669	134.95833
3021.732	141.29167
3023.794	141.625
3025.854	131.95833
3027.914	135.95833
3029.971	133.95833
3032.028	140.625
3034.083	148.625
3036.137	144.29167
3038.19	132.95833
3040.242	125.625
3042.292	118.625
3044.341	127.95833
3046.388	141.625
3048.435	121.625
3050.48	137.95833
3052.524	134.29167
3054.566	114.29167
3056.607	126.95833
3058.647	122.95833
3060.686	107.625
3062.723	101.95833
3064.759	103.95833
3066.794	0.625
3068.828	0.625
3070.86	2.95833
