-0.839	140.5
3.438	169.5
7.711	71.16667
11.981	40.16667
16.247	30.16667
20.509	35.5
24.768	36.16667
29.024	45.5
33.276	28.5
37.524	43.5
41.769	29.5
46.01	24.83333
50.247	43.16667
54.481	52.16667
58.712	53.5
62.939	36.5
67.162	55.16667
71.382	45.16667
75.599	34.16667
79.812	43.16667
84.021	60.5
88.227	42.83333
92.429	52.83333
96.628	40.5
100.823	48.16667
105.015	56.5
109.204	43.16667
113.388	56.83333
117.57	42.83333
121.748	60.5
125.922	50.16667
130.093	66.5
134.261	63.5
138.425	55.16667
142.585	86.16667
146.742	67.16667
150.896	83.16667
155.046	78.16667
159.193	115.83333
163.336	173.5
167.476	299.16667
171.613	530.83333
175.746	850.5
179.875	1220.83333
184.002	1598.83333
188.124	1891.5
192.244	1969.83333
196.36	1999.16667
200.472	1982.83333
204.581	1953.83333
208.687	1888.16667
212.79	1890.16667
216.889	1925.5
220.984	1949.83333
225.077	1948.83333
229.165	1944.83333
233.251	1956.16667
237.333	1968.16667
241.412	1947.83333
245.487	1958.83333
249.559	1906.83333
253.628	1901.5
257.694	1900.5
261.756	1890.83333
265.814	1853.16667
269.87	1803.83333
273.922	1758.5
277.97	1725.5
282.016	1708.83333
286.058	1654.5
290.097	1701.83333
294.132	1713.83333
298.164	1682.16667
302.193	1634.5
306.219	1554.83333
310.241	1469.16667
314.26	1381.83333
318.276	1305.16667
322.288	1271.16667
326.297	1232.83333
330.303	1207.16667
334.305	1193.16667
338.305	1175.83333
342.301	1187.5
346.294	1174.83333
350.283	1170.83333
354.269	1139.83333
358.252	1145.5
362.232	1140.83333
366.209	1155.16667
370.182	1150.83333
374.152	1137.16667
378.119	1150.83333
382.083	1130.5
386.043	1161.5
390	1132.16667
393.954	1143.16667
397.905	1145.16667
401.852	1162.16667
405.797	1154.16667
409.738	1143.16667
413.676	1155.5
417.61	1164.5
421.542	1155.16667
425.47	1123.16667
429.396	1111.16667
433.318	1110.83333
437.236	1114.5
441.152	1138.83333
445.065	1086.83333
448.974	1097.16667
452.88	1098.16667
456.783	1085.16667
460.683	1086.5
464.58	1085.83333
468.473	1111.16667
472.364	1096.83333
476.251	1094.5
480.135	1095.5
484.016	1111.16667
487.894	1120.5
491.769	1118.83333
495.641	1104.5
499.509	1118.5
503.375	1125.5
507.237	1116.16667
511.096	1103.83333
514.952	1115.16667
518.805	1127.5
522.655	1132.83333
526.502	1114.5
530.346	1108.16667
534.187	1110.83333
538.024	1103.16667
541.859	1092.5
545.69	1119.83333
549.519	1107.5
553.344	1091.83333
557.166	1079.83333
560.985	1073.16667
564.802	1073.83333
568.615	1058.5
572.425	1050.16667
576.232	1044.83333
580.036	1038.5
583.836	1042.16667
587.634	1044.16667
591.429	1045.16667
595.221	1077.5
599.01	1074.5
602.796	1070.5
606.578	1078.16667
610.358	1088.5
614.135	1064.5
617.909	1062.5
621.679	1050.16667
625.447	1054.83333
629.212	1057.16667
632.973	1063.16667
636.732	1050.83333
640.488	1054.5
644.241	1043.5
647.991	1041.83333
651.737	1052.16667
655.481	1027.83333
659.222	1037.83333
662.96	1047.16667
666.695	1057.5
670.427	1046.83333
674.156	1058.83333
677.882	1066.16667
681.605	1052.83333
685.325	1036.16667
689.043	1065.16667
692.757	1032.5
696.468	1037.16667
700.177	1021.5
703.882	1024.16667
707.585	1022.16667
711.284	1021.16667
714.981	998.83333
718.675	1006.5
722.366	1016.83333
726.054	997.5
729.739	1013.16667
733.421	1011.83333
737.1	1011.5
740.777	1021.5
744.45	1006.16667
748.121	999.16667
751.789	1045.16667
755.453	1009.5
759.115	1021.5
762.774	1033.16667
766.431	1022.5
770.084	1026.5
773.734	1024.16667
777.382	1041.5
781.027	1048.83333
784.669	1045.16667
788.308	1032.5
791.944	1053.83333
795.577	1062.16667
799.208	1045.83333
802.835	1063.83333
806.46	1075.83333
810.082	1069.83333
813.701	1080.16667
817.317	1100.5
820.931	1082.16667
824.542	1096.83333
828.149	1068.83333
831.754	1049.5
835.357	1041.5
838.956	1058.83333
842.553	1057.16667
846.146	1026.5
849.737	1022.16667
853.326	1030.5
856.911	1011.16667
860.493	1048.5
864.073	1027.5
867.65	1065.5
871.225	1059.5
874.796	1034.16667
878.365	1041.16667
881.931	1048.16667
885.494	1069.83333
889.054	1052.5
892.612	1048.5
896.166	1035.16667
899.719	1023.83333
903.268	1009.83333
906.814	1012.16667
910.358	998.16667
913.899	993.83333
917.438	1004.5
920.973	972.83333
924.506	979.16667
928.036	1018.83333
931.564	1031.16667
935.088	1040.16667
938.61	1034.83333
942.129	1011.16667
945.646	1029.16667
949.16	1042.16667
952.671	1071.83333
956.179	1065.83333
959.685	1078.16667
963.188	1092.16667
966.688	1065.16667
970.185	1036.5
973.68	1010.5
977.173	1010.5
980.662	985.83333
984.149	1008.5
987.633	987.5
991.114	995.5
994.593	1012.16667
998.069	1024.83333
1001.542	1063.83333
1005.013	1037.16667
1008.481	989.5
1011.947	968.16667
1015.409	945.83333
1018.869	961.16667
1022.327	967.83333
1025.782	939.83333
1029.234	942.16667
1032.683	936.5
1036.13	905.83333
1039.574	884.83333
1043.016	873.83333
1046.455	854.16667
1049.891	857.83333
1053.325	848.83333
1056.756	844.83333
1060.184	848.16667
1063.61	845.16667
1067.033	848.5
1070.454	844.16667
1073.872	868.16667
1077.287	850.83333
1080.7	852.83333
1084.11	834.5
1087.517	848.83333
1090.922	838.83333
1094.325	828.83333
1097.724	815.5
1101.122	826.83333
1104.516	810.83333
1107.908	809.83333
1111.298	813.83333
1114.684	827.5
1118.069	833.16667
1121.45	834.16667
1124.83	824.16667
1128.206	835.83333
1131.58	846.5
1134.951	854.16667
1138.32	857.16667
1141.687	901.16667
1145.05	927.16667
1148.412	910.83333
1151.77	906.5
1155.126	909.5
1158.48	901.16667
1161.831	895.5
1165.18	893.16667
1168.525	918.5
1171.869	923.5
1175.21	916.5
1178.548	946.5
1181.884	931.83333
1185.217	948.83333
1188.548	956.83333
1191.877	978.16667
1195.202	1021.16667
1198.526	1036.83333
1201.846	1028.16667
1205.165	1024.83333
1208.48	1037.16667
1211.794	1039.16667
1215.104	1026.83333
1218.413	1016.5
1221.719	1007.83333
1225.022	998.83333
1228.323	988.16667
1231.621	995.16667
1234.917	976.16667
1238.21	990.83333
1241.501	984.16667
1244.79	967.83333
1248.076	953.5
1251.359	975.83333
1254.64	1026.5
1257.919	997.16667
1261.195	993.5
1264.468	1013.83333
1267.74	1031.5
1271.008	1026.83333
1274.275	1036.83333
1277.538	1037.83333
1280.8	1026.5
1284.059	1020.16667
1287.315	1020.16667
1290.569	1022.16667
1293.821	1019.83333
1297.07	1043.16667
1300.317	1040.16667
1303.562	1034.83333
1306.803	1029.16667
1310.043	1025.5
1313.28	1011.5
1316.515	1006.16667
1319.747	1034.5
1322.977	1008.5
1326.204	1003.83333
1329.429	994.83333
1332.652	1008.83333
1335.872	1007.16667
1339.09	978.16667
1342.306	986.83333
1345.519	985.83333
1348.729	973.83333
1351.938	966.83333
1355.144	965.16667
1358.347	943.83333
1361.548	949.16667
1364.747	959.83333
1367.944	924.16667
1371.138	925.5
1374.329	937.16667
1377.518	938.83333
1380.705	928.16667
1383.89	935.16667
1387.072	905.5
1390.252	885.5
1393.429	854.16667
1396.605	845.16667
1399.777	796.83333
1402.948	810.83333
1406.116	791.5
1409.282	797.5
1412.445	792.16667
1415.606	811.83333
1418.765	807.83333
1421.921	822.83333
1425.075	820.83333
1428.227	852.83333
1431.376	869.5
1434.524	909.83333
1437.668	937.5
1440.811	931.16667
1443.951	934.83333
1447.089	933.83333
1450.224	935.16667
1453.357	928.83333
1456.488	925.83333
1459.617	918.16667
1462.743	915.16667
1465.867	874.5
1468.989	878.16667
1472.108	871.83333
1475.225	864.5
1478.34	841.83333
1481.453	846.16667
1484.563	838.83333
1487.671	839.83333
1490.776	861.5
1493.88	867.83333
1496.981	874.83333
1500.08	886.5
1503.176	878.16667
1506.271	889.16667
1509.363	914.83333
1512.452	898.5
1515.54	903.16667
1518.625	923.5
1521.708	962.5
1524.789	976.16667
1527.867	997.83333
1530.944	1048.83333
1534.018	1082.16667
1537.089	1122.5
1540.159	1124.83333
1543.226	1138.83333
1546.291	1098.16667
1549.354	1086.83333
1552.415	1056.16667
1555.473	1030.16667
1558.529	1035.5
1561.583	1014.83333
1564.634	1013.16667
1567.684	999.16667
1570.731	994.83333
1573.776	1011.83333
1576.819	1025.16667
1579.859	1021.5
1582.898	1038.83333
1585.934	1059.83333
1588.968	1051.5
1591.999	1039.83333
1595.029	1051.5
1598.056	1039.83333
1601.081	1069.5
1604.104	1067.16667
1607.125	1040.16667
1610.144	1027.83333
1613.16	1007.83333
1616.174	977.5
1619.186	981.16667
1622.196	966.16667
1625.203	941.16667
1628.209	942.5
1631.212	927.5
1634.213	958.5
1637.212	970.5
1640.209	966.16667
1643.203	927.5
1646.196	906.16667
1649.186	864.83333
1652.174	842.16667
1655.16	797.16667
1658.144	801.16667
1661.125	761.83333
1664.105	728.5
1667.082	709.83333
1670.057	671.83333
1673.03	638.16667
1676.001	611.5
1678.97	575.16667
1681.937	551.83333
1684.901	516.16667
1687.863	511.16667
1690.824	488.83333
1693.782	491.83333
1696.738	456.83333
1699.692	466.5
1702.643	453.16667
1705.593	448.83333
1708.54	442.83333
1711.486	449.5
1714.429	429.5
1717.37	440.83333
1720.309	422.16667
1723.246	438.16667
1726.181	412.83333
1729.113	418.5
1732.044	414.83333
1734.972	407.5
1737.899	429.83333
1740.823	425.83333
1743.745	436.5
1746.665	393.16667
1749.583	397.16667
1752.499	385.83333
1755.413	393.16667
1758.325	371.5
1761.235	381.83333
1764.142	376.5
1767.048	369.5
1769.951	367.16667
1772.852	368.5
1775.752	378.16667
1778.649	377.83333
1781.544	384.16667
1784.437	354.5
1787.328	369.83333
1790.217	361.83333
1793.104	346.83333
1795.989	350.5
1798.872	341.83333
1801.753	359.16667
1804.631	343.5
1807.508	355.16667
1810.383	352.83333
1813.255	346.83333
1816.126	354.5
1818.994	343.16667
1821.861	344.5
1824.725	350.5
1827.587	344.83333
1830.448	344.5
1833.306	332.5
1836.162	350.16667
1839.017	336.16667
1841.869	331.16667
1844.719	335.16667
1847.567	319.16667
1850.414	313.83333
1853.258	317.83333
1856.1	330.16667
1858.94	334.83333
1861.778	319.16667
1864.614	316.5
1867.448	317.83333
1870.28	309.83333
1873.111	335.83333
1875.939	324.16667
1878.765	333.16667
1881.589	322.5
1884.411	324.16667
1887.231	325.5
1890.049	330.16667
1892.865	329.83333
1895.68	312.16667
1898.492	313.16667
1901.302	318.5
1904.11	311.5
1906.916	304.5
1909.721	306.16667
1912.523	315.5
1915.323	300.16667
1918.122	304.5
1920.918	318.16667
1923.712	297.83333
1926.505	304.83333
1929.295	290.5
1932.084	316.16667
1934.87	297.5
1937.655	295.5
1940.438	290.5
1943.218	293.5
1945.997	301.16667
1948.774	308.5
1951.549	303.5
1954.322	291.16667
1957.093	298.83333
1959.862	287.16667
1962.629	293.5
1965.394	295.16667
1968.157	276.83333
1970.918	295.16667
1973.678	275.83333
1976.435	291.5
1979.19	285.16667
1981.944	273.16667
1984.696	280.83333
1987.445	278.83333
1990.193	279.83333
1992.939	288.83333
1995.683	278.5
1998.425	263.16667
2001.165	292.5
2003.903	262.83333
2006.639	274.83333
2009.374	277.83333
2012.106	280.5
2014.837	250.83333
2017.566	281.5
2020.292	266.16667
2023.017	261.83333
2025.74	263.16667
2028.461	257.16667
2031.18	268.16667
2033.898	258.16667
2036.613	269.5
2039.327	264.16667
2042.038	254.16667
2044.748	267.16667
2047.456	265.16667
2050.162	247.5
2052.866	252.16667
2055.568	265.5
2058.268	258.16667
2060.967	268.16667
2063.663	243.16667
2066.358	257.5
2069.051	249.16667
2071.742	249.5
2074.431	262.16667
2077.118	255.16667
2079.804	237.5
2082.487	254.16667
2085.169	260.5
2087.849	275.16667
2090.527	246.5
2093.203	251.16667
2095.877	249.83333
2098.55	253.83333
2101.22	256.5
2103.889	261.16667
2106.556	247.5
2109.221	261.83333
2111.884	254.16667
2114.546	277.5
2117.205	274.16667
2119.863	303.16667
2122.519	293.5
2125.173	310.83333
2127.825	342.83333
2130.475	340.5
2133.124	319.83333
2135.771	300.16667
2138.416	322.16667
2141.059	299.5
2143.7	301.16667
2146.339	284.5
2148.977	251.16667
2151.613	270.16667
2154.247	262.83333
2156.879	249.5
2159.51	241.5
2162.138	245.5
2164.765	241.83333
2167.39	231.16667
2170.013	252.5
2172.634	250.16667
2175.254	235.83333
2177.872	273.83333
2180.488	227.83333
2183.102	236.5
2185.714	234.5
2188.325	223.16667
2190.934	229.83333
2193.541	230.83333
2196.146	229.83333
2198.75	220.16667
2201.351	217.5
2203.951	202.5
2206.549	227.5
2209.146	223.83333
2211.74	211.16667
2214.333	221.5
2216.924	205.16667
2219.514	212.5
2222.101	209.5
2224.687	221.83333
2227.271	205.83333
2229.853	200.5
2232.433	198.83333
2235.012	222.83333
2237.589	206.16667
2240.164	225.16667
2242.738	203.5
2245.309	196.83333
2247.879	214.16667
2250.448	214.16667
2253.014	194.5
2255.579	191.5
2258.142	191.83333
2260.703	194.83333
2263.262	194.16667
2265.82	189.5
2268.376	206.83333
2270.93	193.5
2273.483	191.83333
2276.033	206.5
2278.583	194.83333
2281.13	191.16667
2283.675	183.83333
2286.219	191.83333
2288.761	197.5
2291.302	199.5
2293.841	209.83333
2296.377	181.5
2298.913	189.5
2301.446	200.83333
2303.978	183.5
2306.508	191.83333
2309.037	188.16667
2311.563	187.16667
2314.088	189.83333
2316.612	178.16667
2319.133	193.5
2321.653	186.5
2324.171	183.16667
2326.688	193.16667
2329.202	185.16667
2331.715	188.16667
2334.227	190.16667
2336.736	178.5
2339.244	176.83333
2341.751	175.16667
2344.255	185.83333
2346.758	181.16667
2349.259	168.83333
2351.759	182.16667
2354.257	173.5
2356.753	169.5
2359.247	174.5
2361.74	175.16667
2364.231	174.16667
2366.721	182.16667
2369.209	171.5
2371.695	178.16667
2374.179	168.83333
2376.662	161.5
2379.143	187.16667
2381.622	172.5
2384.1	180.83333
2386.576	167.5
2389.051	185.83333
2391.524	179.16667
2393.995	176.16667
2396.464	165.5
2398.932	162.83333
2401.398	172.83333
2403.863	164.16667
2406.325	162.16667
2408.787	175.16667
2411.246	169.5
2413.704	166.83333
2416.16	166.83333
2418.615	166.16667
2421.068	174.5
2423.519	162.16667
2425.969	152.83333
2428.417	174.83333
2430.863	192.83333
2433.308	175.5
2435.751	173.5
2438.193	168.16667
2440.633	171.83333
2443.071	173.5
2445.508	160.83333
2447.943	167.83333
2450.376	162.16667
2452.808	166.16667
2455.238	157.83333
2457.667	188.16667
2460.093	159.83333
2462.519	149.16667
2464.942	157.5
2467.365	164.16667
2469.785	167.5
2472.204	160.83333
2474.621	157.83333
2477.037	178.5
2479.451	145.83333
2481.863	152.16667
2484.274	160.16667
2486.683	155.16667
2489.091	168.5
2491.497	165.83333
2493.901	160.83333
2496.304	154.16667
2498.705	162.83333
2501.105	154.83333
2503.503	179.83333
2505.899	145.83333
2508.294	173.16667
2510.687	153.16667
2513.079	155.16667
2515.469	153.16667
2517.858	154.83333
2520.245	168.16667
2522.63	161.5
2525.014	150.83333
2527.396	148.5
2529.776	149.5
2532.156	160.83333
2534.533	144.83333
2536.909	145.16667
2539.283	141.16667
2541.656	145.5
2544.027	163.83333
2546.397	155.83333
2548.765	145.83333
2551.131	156.5
2553.496	157.5
2555.86	157.83333
2558.221	160.5
2560.582	151.16667
2562.94	139.16667
2565.298	150.5
2567.653	159.83333
2570.007	138.5
2572.36	155.5
2574.711	146.16667
2577.06	163.83333
2579.408	153.83333
2581.754	147.83333
2584.099	148.83333
2586.442	146.5
2588.784	153.5
2591.124	147.16667
2593.463	145.5
2595.8	158.83333
2598.135	140.5
2600.469	140.5
2602.802	156.16667
2605.133	163.16667
2607.462	139.83333
2609.79	136.5
2612.116	155.83333
2614.441	149.16667
2616.764	152.83333
2619.086	147.16667
2621.406	144.5
2623.725	158.16667
2626.042	147.16667
2628.358	146.83333
2630.672	146.5
2632.985	157.16667
2635.296	150.16667
2637.606	138.83333
2639.914	143.5
2642.22	144.83333
2644.525	148.5
2646.829	147.16667
2649.131	161.83333
2651.432	152.5
2653.731	145.16667
2656.028	162.5
2658.324	148.16667
2660.619	142.16667
2662.912	159.83333
2665.204	136.16667
2667.494	153.16667
2669.782	146.83333
2672.07	159.16667
2674.355	156.5
2676.639	155.16667
2678.922	146.83333
2681.203	156.83333
2683.483	145.5
2685.761	142.83333
2688.038	157.5
2690.313	156.83333
2692.587	150.16667
2694.859	144.83333
2697.13	147.83333
2699.399	150.5
2701.667	159.5
2703.933	153.83333
2706.198	161.16667
2708.461	155.16667
2710.723	160.83333
2712.984	152.5
2715.243	160.83333
2717.5	152.16667
2719.757	160.83333
2722.011	152.83333
2724.264	166.83333
2726.516	172.5
2728.766	146.83333
2731.015	155.5
2733.262	158.5
2735.508	156.5
2737.753	165.5
2739.996	147.16667
2742.237	151.16667
2744.477	161.5
2746.716	168.16667
2748.953	166.5
2751.189	166.5
2753.423	158.16667
2755.656	148.83333
2757.887	145.16667
2760.117	148.83333
2762.346	148.16667
2764.573	136.16667
2766.798	145.16667
2769.022	144.83333
2771.245	145.5
2773.467	150.16667
2775.686	140.16667
2777.905	153.5
2780.122	155.16667
2782.337	156.16667
2784.552	150.16667
2786.764	150.16667
2788.976	147.16667
2791.186	151.16667
2793.394	153.16667
2795.601	159.83333
2797.807	161.16667
2800.011	150.83333
2802.214	166.16667
2804.415	157.16667
2806.615	160.16667
2808.814	161.83333
2811.011	164.16667
2813.206	164.16667
2815.401	173.83333
2817.594	169.83333
2819.785	170.16667
2821.975	157.5
2824.164	168.83333
2826.351	163.83333
2828.537	178.83333
2830.722	175.83333
2832.905	172.83333
2835.086	174.16667
2837.267	197.83333
2839.445	195.16667
2841.623	197.16667
2843.799	201.5
2845.974	202.83333
2848.147	213.5
2850.319	220.16667
2852.489	231.83333
2854.659	225.16667
2856.826	226.16667
2858.993	246.16667
2861.158	230.16667
2863.321	228.16667
2865.483	246.83333
2867.644	241.5
2869.804	241.83333
2871.962	230.16667
2874.118	241.83333
2876.274	241.16667
2878.428	239.83333
2880.58	242.83333
2882.731	226.83333
2884.881	237.83333
2887.03	246.5
2889.177	237.16667
2891.322	248.83333
2893.467	234.5
2895.61	233.83333
2897.751	244.5
2899.892	240.16667
2902.03	247.16667
2904.168	238.16667
2906.304	239.83333
2908.439	261.16667
2910.572	233.16667
2912.704	245.83333
2914.835	251.5
2916.965	251.5
2919.093	267.83333
2921.219	234.16667
2923.345	264.83333
2925.469	251.83333
2927.591	240.83333
2929.712	231.5
2931.832	239.16667
2933.951	246.16667
2936.068	230.16667
2938.184	224.5
2940.299	222.83333
2942.412	222.83333
2944.524	206.16667
2946.634	210.16667
2948.744	190.16667
2950.851	229.5
2952.958	194.83333
2955.063	203.5
2957.167	196.5
2959.269	183.5
2961.371	211.16667
2963.471	184.16667
2965.569	202.16667
2967.666	168.16667
2969.762	178.16667
2971.857	164.83333
2973.95	168.5
2976.042	173.5
2978.133	170.16667
2980.222	167.5
2982.31	154.16667
2984.396	146.16667
2986.482	152.5
2988.566	156.5
2990.648	154.83333
2992.73	152.83333
2994.81	138.16667
2996.889	158.16667
2998.966	148.5
3001.042	157.83333
3003.117	151.16667
3005.191	153.16667
3007.263	151.5
3009.334	144.16667
3011.403	152.83333
3013.472	144.16667
3015.539	160.5
3017.604	164.16667
3019.669	137.5
3021.732	141.5
3023.794	145.83333
3025.854	134.16667
3027.914	130.16667
3029.971	137.5
3032.028	136.5
3034.083	142.83333
3036.137	137.16667
3038.19	129.5
3040.242	119.5
3042.292	120.83333
3044.341	131.16667
3046.388	143.83333
3048.435	119.83333
3050.48	136.83333
3052.524	125.5
3054.566	115.5
3056.607	125.83333
3058.647	118.16667
3060.686	106.16667
3062.723	106.5
3064.759	100.5
3066.794	-0.83333
3068.828	2.5
3070.86	4.16667
