-0.839	144.29167
3.438	166.625
7.711	69.625
11.981	41.95833
16.247	30.625
20.509	39.29167
24.768	39.29167
29.024	42.95833
33.276	32.625
37.524	42.625
41.769	30.95833
46.01	25.625
50.247	43.95833
54.481	47.29167
58.712	55.625
62.939	38.95833
67.162	52.625
71.382	45.95833
75.599	37.625
79.812	44.29167
84.021	63.625
88.227	40.625
92.429	51.29167
96.628	41.29167
100.823	51.95833
105.015	47.625
109.204	45.625
113.388	55.625
117.57	42.625
121.748	60.625
125.922	46.625
130.093	65.95833
134.261	65.29167
138.425	54.625
142.585	85.625
146.742	66.625
150.896	80.625
155.046	72.95833
159.193	113.625
163.336	166.95833
167.476	285.625
171.613	517.625
175.746	841.95833
179.875	1226.625
184.002	1572.29167
188.124	1888.29167
192.244	1959.29167
196.36	1948.625
200.472	1946.625
204.581	1924.95833
208.687	1828.625
212.79	1841.29167
216.889	1860.625
220.984	1884.95833
225.077	1893.625
229.165	1900.95833
233.251	1902.95833
237.333	1908.29167
241.412	1879.29167
245.487	1880.625
249.559	1854.625
253.628	1854.29167
257.694	1821.29167
261.756	1817.95833
265.814	1768.625
269.87	1716.29167
273.922	1678.29167
277.97	1637.625
282.016	1601.95833
286.058	1567.95833
290.097	1579.29167
294.132	1607.625
298.164	1618.625
302.193	1536.29167
306.219	1467.29167
310.241	1373.95833
314.26	1278.95833
318.276	1201.625
322.288	1156.625
326.297	1116.29167
330.303	1083.625
334.305	1062.29167
338.305	1057.625
342.301	1055.95833
346.294	1026.29167
350.283	1028.625
354.269	1027.625
358.252	1012.95833
362.232	1019.625
366.209	1017.95833
370.182	1023.95833
374.152	1009.29167
378.119	1015.625
382.083	1003.625
386.043	1031.95833
390	1012.625
393.954	1019.29167
397.905	1020.29167
401.852	1026.29167
405.797	989.625
409.738	989.95833
413.676	1012.625
417.61	1010.29167
421.542	989.95833
425.47	963.625
429.396	962.625
433.318	942.95833
437.236	952.625
441.152	993.95833
445.065	946.95833
448.974	947.29167
452.88	931.29167
456.783	935.95833
460.683	927.29167
464.58	932.95833
468.473	938.95833
472.364	937.29167
476.251	937.625
480.135	943.29167
484.016	958.29167
487.894	960.95833
491.769	961.625
495.641	946.625
499.509	951.625
503.375	966.29167
507.237	961.95833
511.096	937.29167
514.952	938.625
518.805	945.625
522.655	943.95833
526.502	939.29167
530.346	958.95833
534.187	965.625
538.024	956.29167
541.859	935.95833
545.69	970.29167
549.519	953.29167
553.344	940.95833
557.166	931.625
560.985	935.625
564.802	923.625
568.615	907.29167
572.425	888.29167
576.232	881.625
580.036	880.625
583.836	893.625
587.634	906.95833
591.429	894.95833
595.221	916.625
599.01	914.29167
602.796	917.625
606.578	932.625
610.358	929.625
614.135	919.625
617.909	931.95833
621.679	902.29167
625.447	899.29167
629.212	919.95833
632.973	908.29167
636.732	899.29167
640.488	913.95833
644.241	897.95833
647.991	895.29167
651.737	922.29167
655.481	891.29167
659.222	910.29167
662.96	900.625
666.695	912.625
670.427	918.29167
674.156	922.625
677.882	912.95833
681.605	920.625
685.325	892.95833
689.043	907.29167
692.757	896.95833
696.468	891.29167
700.177	894.29167
703.882	880.625
707.585	877.29167
711.284	870.625
714.981	861.29167
718.675	865.625
722.366	891.625
726.054	870.625
729.739	869.29167
733.421	874.625
737.1	867.625
740.777	881.625
744.45	883.95833
748.121	881.625
751.789	906.95833
755.453	889.29167
759.115	907.95833
762.774	894.95833
766.431	908.95833
770.084	918.625
773.734	911.29167
777.382	945.95833
781.027	941.29167
784.669	927.95833
788.308	928.95833
791.944	953.625
795.577	944.95833
799.208	959.29167
802.835	946.29167
806.46	967.29167
810.082	964.625
813.701	972.95833
817.317	987.29167
820.931	987.625
824.542	983.29167
828.149	974.29167
831.754	956.625
835.357	946.29167
838.956	942.95833
842.553	955.29167
846.146	944.29167
849.737	918.29167
853.326	931.95833
856.911	921.625
860.493	949.29167
864.073	933.29167
867.65	966.95833
871.225	968.625
874.796	948.29167
878.365	938.95833
881.931	953.625
885.494	976.95833
889.054	959.29167
892.612	959.625
896.166	947.29167
899.719	939.95833
903.268	918.625
906.814	936.29167
910.358	929.625
913.899	915.625
917.438	932.95833
920.973	893.95833
924.506	917.625
928.036	942.625
931.564	962.625
935.088	968.95833
938.61	955.625
942.129	945.625
945.646	969.95833
949.16	967.29167
952.671	981.625
956.179	1010.95833
959.685	1009.625
963.188	1008.625
966.688	996.95833
970.185	970.625
973.68	944.95833
977.173	931.625
980.662	902.625
984.149	933.95833
987.633	903.625
991.114	916.95833
994.593	932.95833
998.069	950.95833
1001.542	989.29167
1005.013	964.625
1008.481	905.625
1011.947	898.95833
1015.409	891.95833
1018.869	902.625
1022.327	887.625
1025.782	890.29167
1029.234	881.95833
1032.683	878.625
1036.13	851.29167
1039.574	814.29167
1043.016	804.29167
1046.455	795.95833
1049.891	773.625
1053.325	788.29167
1056.756	774.95833
1060.184	789.29167
1063.61	774.625
1067.033	793.29167
1070.454	776.625
1073.872	797.29167
1077.287	789.625
1080.7	785.95833
1084.11	797.625
1087.517	785.95833
1090.922	782.29167
1094.325	757.625
1097.724	765.29167
1101.122	754.29167
1104.516	768.625
1107.908	740.625
1111.298	766.29167
1114.684	763.95833
1118.069	764.29167
1121.45	791.29167
1124.83	770.625
1128.206	782.625
1131.58	788.29167
1134.951	816.95833
1138.32	818.625
1141.687	851.29167
1145.05	871.625
1148.412	886.625
1151.77	876.625
1155.126	870.29167
1158.48	863.625
1161.831	861.29167
1165.18	860.625
1168.525	888.95833
1171.869	884.29167
1175.21	893.625
1178.548	907.29167
1181.884	909.625
1185.217	908.95833
1188.548	943.625
1191.877	950.95833
1195.202	1001.625
1198.526	1014.29167
1201.846	1016.29167
1205.165	1007.625
1208.48	1018.625
1211.794	1022.95833
1215.104	1015.625
1218.413	1003.95833
1221.719	982.29167
1225.022	966.95833
1228.323	961.625
1231.621	965.95833
1234.917	965.95833
1238.21	992.29167
1241.501	951.95833
1244.79	937.95833
1248.076	942.625
1251.359	947.29167
1254.64	998.625
1257.919	969.29167
1261.195	999.29167
1264.468	998.625
1267.74	1009.625
1271.008	1024.29167
1274.275	1013.625
1277.538	1009.29167
1280.8	1005.625
1284.059	1006.29167
1287.315	1025.625
1290.569	1022.625
1293.821	1012.29167
1297.07	1028.29167
1300.317	1033.29167
1303.562	1035.625
1306.803	1027.29167
1310.043	1029.29167
1313.28	1021.95833
1316.515	1015.95833
1319.747	1034.29167
1322.977	1019.29167
1326.204	1015.625
1329.429	1002.625
1332.652	1003.95833
1335.872	994.29167
1339.09	978.95833
1342.306	979.95833
1345.519	960.625
1348.729	966.29167
1351.938	972.29167
1355.144	948.95833
1358.347	941.29167
1361.548	941.95833
1364.747	947.29167
1367.944	934.95833
1371.138	943.95833
1374.329	914.29167
1377.518	929.95833
1380.705	928.29167
1383.89	931.625
1387.072	900.29167
1390.252	880.625
1393.429	864.95833
1396.605	833.29167
1399.777	785.29167
1402.948	788.625
1406.116	772.29167
1409.282	767.29167
1412.445	767.95833
1415.606	779.625
1418.765	795.625
1421.921	800.29167
1425.075	814.625
1428.227	840.29167
1431.376	872.29167
1434.524	901.625
1437.668	934.95833
1440.811	934.29167
1443.951	928.95833
1447.089	945.625
1450.224	928.29167
1453.357	950.625
1456.488	942.95833
1459.617	929.29167
1462.743	913.95833
1465.867	877.29167
1468.989	885.625
1472.108	862.95833
1475.225	865.29167
1478.34	845.29167
1481.453	831.29167
1484.563	831.29167
1487.671	855.625
1490.776	861.29167
1493.88	866.95833
1496.981	898.29167
1500.08	897.29167
1503.176	885.29167
1506.271	907.95833
1509.363	931.29167
1512.452	921.95833
1515.54	933.29167
1518.625	935.95833
1521.708	977.95833
1524.789	1013.29167
1527.867	1028.625
1530.944	1080.95833
1534.018	1100.29167
1537.089	1162.95833
1540.159	1154.625
1543.226	1158.625
1546.291	1112.95833
1549.354	1094.625
1552.415	1074.95833
1555.473	1060.625
1558.529	1043.95833
1561.583	1042.625
1564.634	1016.95833
1567.684	1048.95833
1570.731	1034.29167
1573.776	1059.95833
1576.819	1060.29167
1579.859	1067.625
1582.898	1099.625
1585.934	1114.29167
1588.968	1116.95833
1591.999	1105.29167
1595.029	1102.95833
1598.056	1110.29167
1601.081	1131.625
1604.104	1113.29167
1607.125	1107.95833
1610.144	1083.29167
1613.16	1062.29167
1616.174	1038.95833
1619.186	1017.29167
1622.196	1009.625
1625.203	968.625
1628.209	965.29167
1631.212	977.95833
1634.213	974.95833
1637.212	990.95833
1640.209	989.95833
1643.203	971.625
1646.196	933.95833
1649.186	880.95833
1652.174	868.29167
1655.16	819.625
1658.144	805.95833
1661.125	769.95833
1664.105	738.625
1667.082	702.95833
1670.057	666.29167
1673.03	628.95833
1676.001	603.625
1678.97	564.95833
1681.937	534.29167
1684.901	515.95833
1687.863	495.95833
1690.824	467.29167
1693.782	480.29167
1696.738	445.95833
1699.692	442.95833
1702.643	436.29167
1705.593	431.29167
1708.54	426.29167
1711.486	429.95833
1714.429	414.95833
1717.37	422.29167
1720.309	405.625
1723.246	414.95833
1726.181	395.95833
1729.113	394.29167
1732.044	389.29167
1734.972	386.95833
1737.899	398.29167
1740.823	398.95833
1743.745	419.95833
1746.665	373.625
1749.583	374.95833
1752.499	364.95833
1755.413	367.625
1758.325	357.29167
1761.235	355.95833
1764.142	338.625
1767.048	354.29167
1769.951	346.625
1772.852	357.29167
1775.752	359.95833
1778.649	354.625
1781.544	362.625
1784.437	331.625
1787.328	346.95833
1790.217	336.95833
1793.104	323.625
1795.989	322.29167
1798.872	319.29167
1801.753	339.29167
1804.631	329.95833
1807.508	338.95833
1810.383	327.625
1813.255	322.625
1816.126	324.29167
1818.994	320.625
1821.861	316.95833
1824.725	322.625
1827.587	321.625
1830.448	317.625
1833.306	310.95833
1836.162	323.29167
1839.017	322.625
1841.869	311.625
1844.719	309.625
1847.567	299.29167
1850.414	295.95833
1853.258	304.95833
1856.1	307.29167
1858.94	315.625
1861.778	304.95833
1864.614	298.625
1867.448	305.29167
1870.28	288.625
1873.111	305.625
1875.939	289.95833
1878.765	318.625
1881.589	294.29167
1884.411	293.29167
1887.231	304.625
1890.049	299.95833
1892.865	303.95833
1895.68	295.95833
1898.492	303.29167
1901.302	288.29167
1904.11	294.95833
1906.916	294.95833
1909.721	290.95833
1912.523	294.625
1915.323	277.625
1918.122	276.95833
1920.918	298.625
1923.712	272.625
1926.505	289.625
1929.295	267.29167
1932.084	295.625
1934.87	281.95833
1937.655	284.625
1940.438	273.29167
1943.218	274.95833
1945.997	273.95833
1948.774	287.29167
1951.549	289.95833
1954.322	272.29167
1957.093	272.29167
1959.862	266.29167
1962.629	272.625
1965.394	275.29167
1968.157	255.95833
1970.918	275.625
1973.678	260.29167
1976.435	273.95833
1979.19	258.95833
1981.944	258.29167
1984.696	265.95833
1987.445	269.29167
1990.193	265.95833
1992.939	270.95833
1995.683	262.29167
1998.425	238.95833
2001.165	281.29167
2003.903	239.625
2006.639	253.625
2009.374	261.625
2012.106	256.625
2014.837	238.625
2017.566	267.625
2020.292	254.95833
2023.017	251.625
2025.74	247.625
2028.461	249.95833
2031.18	250.625
2033.898	245.95833
2036.613	251.95833
2039.327	255.29167
2042.038	240.29167
2044.748	252.95833
2047.456	252.29167
2050.162	238.29167
2052.866	247.625
2055.568	251.29167
2058.268	241.95833
2060.967	249.625
2063.663	234.625
2066.358	236.95833
2069.051	230.95833
2071.742	234.95833
2074.431	243.625
2077.118	241.625
2079.804	231.625
2082.487	231.625
2085.169	257.95833
2087.849	259.625
2090.527	230.95833
2093.203	238.29167
2095.877	238.29167
2098.55	236.625
2101.22	248.95833
2103.889	253.625
2106.556	244.29167
2109.221	253.29167
2111.884	243.95833
2114.546	269.29167
2117.205	267.95833
2119.863	302.95833
2122.519	302.625
2125.173	318.625
2127.825	349.29167
2130.475	356.625
2133.124	335.29167
2135.771	320.29167
2138.416	335.29167
2141.059	309.29167
2143.7	306.625
2146.339	271.95833
2148.977	251.29167
2151.613	264.29167
2154.247	257.625
2156.879	249.95833
2159.51	237.625
2162.138	243.95833
2164.765	239.625
2167.39	226.29167
2170.013	251.625
2172.634	241.95833
2175.254	228.95833
2177.872	268.29167
2180.488	220.95833
2183.102	228.29167
2185.714	224.625
2188.325	223.29167
2190.934	229.95833
2193.541	227.95833
2196.146	221.95833
2198.75	210.95833
2201.351	217.625
2203.951	195.95833
2206.549	214.625
2209.146	203.29167
2211.74	205.95833
2214.333	216.95833
2216.924	197.29167
2219.514	204.95833
2222.101	200.95833
2224.687	217.29167
2227.271	191.95833
2229.853	198.95833
2232.433	186.29167
2235.012	200.95833
2237.589	202.95833
2240.164	217.625
2242.738	198.625
2245.309	192.95833
2247.879	206.95833
2250.448	205.29167
2253.014	183.95833
2255.579	179.29167
2258.142	190.625
2260.703	186.29167
2263.262	177.625
2265.82	180.29167
2268.376	197.29167
2270.93	185.29167
2273.483	171.95833
2276.033	189.95833
2278.583	183.29167
2281.13	177.95833
2283.675	172.95833
2286.219	181.625
2288.761	186.95833
2291.302	187.625
2293.841	196.95833
2296.377	168.95833
2298.913	176.95833
2301.446	192.29167
2303.978	174.625
2306.508	178.95833
2309.037	180.95833
2311.563	176.625
2314.088	188.625
2316.612	159.29167
2319.133	176.95833
2321.653	179.95833
2324.171	169.29167
2326.688	181.625
2329.202	167.625
2331.715	177.29167
2334.227	173.625
2336.736	175.29167
2339.244	166.625
2341.751	163.95833
2344.255	174.95833
2346.758	168.95833
2349.259	161.29167
2351.759	166.29167
2354.257	155.625
2356.753	157.625
2359.247	169.625
2361.74	162.29167
2364.231	156.95833
2366.721	172.625
2369.209	162.29167
2371.695	162.625
2374.179	159.29167
2376.662	152.95833
2379.143	172.625
2381.622	159.95833
2384.1	168.29167
2386.576	158.625
2389.051	173.29167
2391.524	173.625
2393.995	163.29167
2396.464	153.95833
2398.932	155.29167
2401.398	159.95833
2403.863	149.95833
2406.325	157.29167
2408.787	158.29167
2411.246	150.625
2413.704	156.625
2416.16	150.29167
2418.615	148.95833
2421.068	158.625
2423.519	150.625
2425.969	150.95833
2428.417	171.29167
2430.863	176.95833
2433.308	161.29167
2435.751	169.625
2438.193	154.29167
2440.633	158.625
2443.071	158.625
2445.508	147.29167
2447.943	153.625
2450.376	149.625
2452.808	156.625
2455.238	144.95833
2457.667	175.29167
2460.093	143.625
2462.519	137.95833
2464.942	146.625
2467.365	147.625
2469.785	148.95833
2472.204	143.95833
2474.621	144.95833
2477.037	160.625
2479.451	139.625
2481.863	136.29167
2484.274	140.95833
2486.683	148.95833
2489.091	158.625
2491.497	144.625
2493.901	149.29167
2496.304	137.95833
2498.705	150.95833
2501.105	147.95833
2503.503	158.95833
2505.899	139.29167
2508.294	161.29167
2510.687	137.625
2513.079	141.29167
2515.469	129.29167
2517.858	137.29167
2520.245	148.625
2522.63	140.625
2525.014	133.29167
2527.396	131.29167
2529.776	135.29167
2532.156	141.29167
2534.533	131.95833
2536.909	127.95833
2539.283	124.95833
2541.656	133.625
2544.027	152.29167
2546.397	140.95833
2548.765	136.625
2551.131	134.29167
2553.496	143.29167
2555.86	139.29167
2558.221	140.625
2560.582	130.625
2562.94	124.625
2565.298	130.29167
2567.653	145.95833
2570.007	120.95833
2572.36	140.625
2574.711	124.625
2577.06	142.95833
2579.408	134.625
2581.754	131.95833
2584.099	132.625
2586.442	130.625
2588.784	138.95833
2591.124	136.95833
2593.463	138.29167
2595.8	130.95833
2598.135	118.95833
2600.469	125.95833
2602.802	140.29167
2605.133	142.29167
2607.462	123.625
2609.79	113.29167
2612.116	138.95833
2614.441	126.95833
2616.764	131.29167
2619.086	127.625
2621.406	123.95833
2623.725	137.95833
2626.042	120.625
2628.358	122.29167
2630.672	130.29167
2632.985	141.29167
2635.296	130.625
2637.606	130.29167
2639.914	123.29167
2642.22	127.625
2644.525	128.625
2646.829	127.29167
2649.131	137.95833
2651.432	136.29167
2653.731	125.29167
2656.028	135.625
2658.324	132.95833
2660.619	119.29167
2662.912	137.95833
2665.204	115.625
2667.494	130.95833
2669.782	120.625
2672.07	140.625
2674.355	140.95833
2676.639	132.95833
2678.922	121.95833
2681.203	134.29167
2683.483	123.95833
2685.761	115.29167
2688.038	134.95833
2690.313	139.95833
2692.587	126.95833
2694.859	122.29167
2697.13	126.625
2699.399	129.625
2701.667	138.95833
2703.933	137.95833
2706.198	141.625
2708.461	140.29167
2710.723	138.29167
2712.984	135.625
2715.243	143.29167
2717.5	131.625
2719.757	134.625
2722.011	135.29167
2724.264	142.95833
2726.516	145.625
2728.766	131.625
2731.015	132.95833
2733.262	128.625
2735.508	126.625
2737.753	133.625
2739.996	121.29167
2742.237	120.95833
2744.477	131.29167
2746.716	142.95833
2748.953	138.29167
2751.189	138.95833
2753.423	132.95833
2755.656	127.625
2757.887	120.95833
2760.117	126.95833
2762.346	115.29167
2764.573	113.29167
2766.798	120.29167
2769.022	126.95833
2771.245	115.29167
2773.467	125.29167
2775.686	120.625
2777.905	129.625
2780.122	123.625
2782.337	132.95833
2784.552	120.625
2786.764	122.95833
2788.976	117.625
2791.186	127.95833
2793.394	122.29167
2795.601	133.625
2797.807	130.625
2800.011	127.625
2802.214	138.625
2804.415	129.625
2806.615	131.625
2808.814	131.29167
2811.011	135.625
2813.206	134.625
2815.401	140.95833
2817.594	140.625
2819.785	152.29167
2821.975	130.625
2824.164	138.625
2826.351	140.29167
2828.537	147.95833
2830.722	151.95833
2832.905	146.625
2835.086	156.95833
2837.267	172.29167
2839.445	170.95833
2841.623	172.625
2843.799	176.29167
2845.974	179.29167
2848.147	188.95833
2850.319	205.95833
2852.489	210.625
2854.659	202.95833
2856.826	207.625
2858.993	225.29167
2861.158	202.625
2863.321	210.625
2865.483	227.625
2867.644	221.95833
2869.804	221.95833
2871.962	215.625
2874.118	219.625
2876.274	222.29167
2878.428	215.625
2880.58	218.29167
2882.731	208.625
2884.881	219.95833
2887.03	229.95833
2889.177	221.29167
2891.322	223.625
2893.467	216.95833
2895.61	217.95833
2897.751	236.625
2899.892	221.625
2902.03	226.625
2904.168	220.29167
2906.304	227.625
2908.439	237.625
2910.572	223.625
2912.704	229.625
2914.835	241.625
2916.965	232.95833
2919.093	251.29167
2921.219	222.95833
2923.345	252.95833
2925.469	229.29167
2927.591	227.29167
2929.712	211.95833
2931.832	220.95833
2933.951	224.95833
2936.068	217.29167
2938.184	208.29167
2940.299	206.29167
2942.412	200.95833
2944.524	178.29167
2946.634	194.95833
2948.744	170.29167
2950.851	206.95833
2952.958	167.625
2955.063	175.29167
2957.167	170.625
2959.269	149.625
2961.371	179.29167
2963.471	159.95833
2965.569	169.625
2967.666	144.29167
2969.762	142.625
2971.857	136.625
2973.95	131.95833
2976.042	148.625
2978.133	138.29167
2980.222	130.29167
2982.31	123.625
2984.396	110.625
2986.482	115.95833
2988.566	125.625
2990.648	120.95833
2992.73	119.29167
2994.81	105.625
2996.889	120.625
2998.966	113.95833
3001.042	130.625
3003.117	111.29167
3005.191	115.95833
3007.263	122.29167
3009.334	114.625
3011.403	113.95833
3013.472	106.625
3015.539	127.29167
3017.604	131.625
3019.669	99.95833
3021.732	102.625
3023.794	106.625
3025.854	98.95833
3027.914	95.625
3029.971	95.95833
3032.028	101.95833
3034.083	105.29167
3036.137	100.95833
3038.19	87.95833
3040.242	82.95833
3042.292	85.625
3044.341	94.625
3046.388	105.95833
3048.435	83.29167
3050.48	103.29167
3052.524	94.95833
3054.566	78.625
3056.607	90.625
3058.647	85.95833
3060.686	76.625
3062.723	74.625
3064.759	76.29167
3066.794	-0.04167
3068.828	0.95833
3070.86	2.95833
