-0.839	140.79167
3.438	160.79167
7.711	68.125
11.981	44.45833
16.247	32.125
20.509	35.79167
24.768	36.45833
29.024	38.125
33.276	31.79167
37.524	36.45833
41.769	30.45833
46.01	29.45833
50.247	43.45833
54.481	44.79167
58.712	50.125
62.939	38.125
67.162	52.79167
71.382	46.45833
75.599	38.125
79.812	46.79167
84.021	63.79167
88.227	39.125
92.429	47.125
96.628	38.45833
100.823	51.79167
105.015	54.79167
109.204	47.125
113.388	55.45833
117.57	42.125
121.748	61.45833
125.922	49.45833
130.093	61.125
134.261	61.45833
138.425	56.125
142.585	83.79167
146.742	66.45833
150.896	83.125
155.046	74.125
159.193	119.125
163.336	160.79167
167.476	285.125
171.613	509.125
175.746	810.79167
179.875	1195.79167
184.002	1539.125
188.124	1804.45833
192.244	1907.45833
196.36	1895.45833
200.472	1870.125
204.581	1853.79167
208.687	1797.79167
212.79	1785.45833
216.889	1802.45833
220.984	1826.79167
225.077	1832.79167
229.165	1841.125
233.251	1854.79167
237.333	1858.79167
241.412	1830.45833
245.487	1806.125
249.559	1785.125
253.628	1771.125
257.694	1749.79167
261.756	1758.79167
265.814	1718.79167
269.87	1665.45833
273.922	1592.125
277.97	1593.125
282.016	1549.125
286.058	1520.45833
290.097	1545.125
294.132	1544.125
298.164	1550.125
302.193	1497.125
306.219	1402.125
310.241	1304.125
314.26	1224.125
318.276	1161.125
322.288	1116.79167
326.297	1067.125
330.303	1041.125
334.305	1029.79167
338.305	1006.125
342.301	1006.125
346.294	988.45833
350.283	974.79167
354.269	969.79167
358.252	967.79167
362.232	972.79167
366.209	970.125
370.182	946.79167
374.152	956.45833
378.119	960.45833
382.083	944.79167
386.043	968.45833
390	942.125
393.954	963.79167
397.905	956.45833
401.852	945.45833
405.797	950.45833
409.738	941.45833
413.676	963.45833
417.61	962.125
421.542	935.79167
425.47	902.125
429.396	907.45833
433.318	891.45833
437.236	898.79167
441.152	934.45833
445.065	889.125
448.974	896.79167
452.88	884.125
456.783	875.79167
460.683	878.79167
464.58	882.125
468.473	892.125
472.364	881.79167
476.251	883.125
480.135	888.125
484.016	893.79167
487.894	900.45833
491.769	906.45833
495.641	891.45833
499.509	902.125
503.375	895.45833
507.237	888.45833
511.096	895.79167
514.952	896.79167
518.805	882.45833
522.655	888.125
526.502	880.79167
530.346	891.79167
534.187	901.125
538.024	898.45833
541.859	883.45833
545.69	903.79167
549.519	903.45833
553.344	877.125
557.166	872.79167
560.985	865.79167
564.802	876.125
568.615	857.45833
572.425	834.125
576.232	828.79167
580.036	843.79167
583.836	843.79167
587.634	844.79167
591.429	847.79167
595.221	870.79167
599.01	881.45833
602.796	870.45833
606.578	879.45833
610.358	873.79167
614.135	871.79167
617.909	888.45833
621.679	857.79167
625.447	851.45833
629.212	867.45833
632.973	869.45833
636.732	855.125
640.488	865.45833
644.241	846.45833
647.991	839.45833
651.737	860.125
655.481	837.79167
659.222	854.79167
662.96	847.125
666.695	867.125
670.427	865.45833
674.156	863.79167
677.882	869.45833
681.605	855.125
685.325	832.45833
689.043	872.79167
692.757	843.45833
696.468	852.125
700.177	845.45833
703.882	826.125
707.585	830.125
711.284	837.79167
714.981	832.45833
718.675	830.79167
722.366	851.79167
726.054	816.125
729.739	806.125
733.421	835.125
737.1	827.125
740.777	840.45833
744.45	828.125
748.121	842.45833
751.789	868.79167
755.453	833.45833
759.115	847.45833
762.774	867.79167
766.431	851.79167
770.084	870.125
773.734	859.125
777.382	880.125
781.027	900.125
784.669	876.125
788.308	897.79167
791.944	895.45833
795.577	902.45833
799.208	904.125
802.835	903.125
806.46	909.45833
810.082	933.79167
813.701	909.79167
817.317	934.79167
820.931	938.79167
824.542	936.45833
828.149	910.45833
831.754	892.45833
835.357	905.125
838.956	910.125
842.553	907.125
846.146	892.79167
849.737	869.45833
853.326	876.45833
856.911	869.45833
860.493	896.45833
864.073	905.79167
867.65	913.125
871.225	914.125
874.796	902.45833
878.365	909.125
881.931	919.79167
885.494	929.45833
889.054	915.45833
892.612	924.79167
896.166	919.125
899.719	902.125
903.268	883.79167
906.814	893.45833
910.358	883.45833
913.899	871.79167
917.438	864.45833
920.973	865.45833
924.506	874.79167
928.036	904.45833
931.564	902.79167
935.088	926.79167
938.61	901.45833
942.129	907.79167
945.646	917.125
949.16	941.79167
952.671	958.45833
956.179	954.125
959.685	963.79167
963.188	971.125
966.688	966.79167
970.185	922.45833
973.68	897.79167
977.173	888.79167
980.662	875.125
984.149	872.125
987.633	858.125
991.114	875.125
994.593	896.45833
998.069	902.45833
1001.542	927.125
1005.013	914.79167
1008.481	857.79167
1011.947	852.79167
1015.409	847.125
1018.869	857.125
1022.327	859.79167
1025.782	844.45833
1029.234	830.79167
1032.683	835.125
1036.13	808.45833
1039.574	787.45833
1043.016	759.79167
1046.455	748.125
1049.891	733.125
1053.325	747.45833
1056.756	747.45833
1060.184	748.125
1063.61	735.125
1067.033	753.45833
1070.454	747.125
1073.872	767.45833
1077.287	733.79167
1080.7	756.125
1084.11	756.125
1087.517	752.45833
1090.922	747.125
1094.325	739.125
1097.724	730.79167
1101.122	725.79167
1104.516	724.45833
1107.908	720.125
1111.298	725.79167
1114.684	731.79167
1118.069	736.79167
1121.45	755.45833
1124.83	730.125
1128.206	745.45833
1131.58	757.79167
1134.951	776.79167
1138.32	797.79167
1141.687	821.125
1145.05	830.45833
1148.412	849.125
1151.77	832.45833
1155.126	833.45833
1158.48	824.125
1161.831	835.45833
1165.18	839.125
1168.525	854.79167
1171.869	841.45833
1175.21	844.79167
1178.548	879.79167
1181.884	882.125
1185.217	885.125
1188.548	904.125
1191.877	904.125
1195.202	953.79167
1198.526	969.125
1201.846	966.125
1205.165	979.79167
1208.48	984.125
1211.794	971.79167
1215.104	974.125
1218.413	959.79167
1221.719	959.45833
1225.022	935.79167
1228.323	924.125
1231.621	934.45833
1234.917	925.45833
1238.21	948.45833
1241.501	930.79167
1244.79	919.125
1248.076	895.45833
1251.359	930.45833
1254.64	962.45833
1257.919	940.45833
1261.195	961.79167
1264.468	971.45833
1267.74	980.45833
1271.008	987.79167
1274.275	974.79167
1277.538	968.79167
1280.8	978.125
1284.059	971.125
1287.315	989.45833
1290.569	974.79167
1293.821	983.45833
1297.07	999.79167
1300.317	1000.45833
1303.562	1009.125
1306.803	1004.125
1310.043	995.125
1313.28	989.45833
1316.515	984.79167
1319.747	1003.125
1322.977	984.45833
1326.204	963.125
1329.429	955.79167
1332.652	969.79167
1335.872	958.45833
1339.09	943.79167
1342.306	953.79167
1345.519	926.125
1348.729	936.79167
1351.938	930.79167
1355.144	913.125
1358.347	900.125
1361.548	909.45833
1364.747	909.125
1367.944	891.79167
1371.138	887.45833
1374.329	886.79167
1377.518	896.45833
1380.705	900.125
1383.89	903.79167
1387.072	866.45833
1390.252	834.45833
1393.429	820.45833
1396.605	798.79167
1399.777	765.45833
1402.948	763.45833
1406.116	739.45833
1409.282	742.125
1412.445	749.45833
1415.606	762.125
1418.765	761.45833
1421.921	772.125
1425.075	777.125
1428.227	807.45833
1431.376	842.125
1434.524	872.45833
1437.668	899.45833
1440.811	891.45833
1443.951	896.79167
1447.089	915.45833
1450.224	906.125
1453.357	896.79167
1456.488	902.45833
1459.617	886.125
1462.743	876.45833
1465.867	849.125
1468.989	850.79167
1472.108	827.79167
1475.225	817.79167
1478.34	802.79167
1481.453	819.79167
1484.563	800.79167
1487.671	820.79167
1490.776	829.45833
1493.88	838.125
1496.981	861.79167
1500.08	869.125
1503.176	856.79167
1506.271	874.125
1509.363	908.125
1512.452	892.125
1515.54	895.79167
1518.625	902.45833
1521.708	931.125
1524.789	971.45833
1527.867	993.45833
1530.944	1048.125
1534.018	1082.45833
1537.089	1119.45833
1540.159	1111.79167
1543.226	1114.45833
1546.291	1099.125
1549.354	1070.45833
1552.415	1047.45833
1555.473	1030.45833
1558.529	1015.125
1561.583	1003.45833
1564.634	1006.79167
1567.684	1009.125
1570.731	1008.45833
1573.776	1027.45833
1576.819	1029.45833
1579.859	1035.45833
1582.898	1063.45833
1585.934	1073.79167
1588.968	1088.125
1591.999	1070.79167
1595.029	1069.45833
1598.056	1072.45833
1601.081	1093.45833
1604.104	1081.125
1607.125	1069.125
1610.144	1058.45833
1613.16	1012.79167
1616.174	1000.125
1619.186	992.125
1622.196	966.45833
1625.203	941.125
1628.209	942.45833
1631.212	923.45833
1634.213	932.125
1637.212	946.79167
1640.209	942.45833
1643.203	922.125
1646.196	889.125
1649.186	857.125
1652.174	828.125
1655.16	787.45833
1658.144	779.125
1661.125	745.125
1664.105	707.45833
1667.082	685.79167
1670.057	640.125
1673.03	609.45833
1676.001	577.125
1678.97	533.125
1681.937	524.79167
1684.901	480.125
1687.863	477.79167
1690.824	456.45833
1693.782	457.125
1696.738	432.45833
1699.692	427.79167
1702.643	415.45833
1705.593	406.125
1708.54	400.79167
1711.486	421.79167
1714.429	394.45833
1717.37	402.79167
1720.309	380.45833
1723.246	397.125
1726.181	373.79167
1729.113	376.79167
1732.044	379.45833
1734.972	372.45833
1737.899	380.45833
1740.823	381.125
1743.745	403.125
1746.665	356.79167
1749.583	348.79167
1752.499	355.45833
1755.413	348.79167
1758.325	334.125
1761.235	346.45833
1764.142	331.125
1767.048	326.79167
1769.951	327.125
1772.852	330.79167
1775.752	343.45833
1778.649	342.125
1781.544	347.79167
1784.437	316.125
1787.328	327.79167
1790.217	322.125
1793.104	305.79167
1795.989	309.45833
1798.872	306.125
1801.753	329.79167
1804.631	311.125
1807.508	317.125
1810.383	309.45833
1813.255	317.79167
1816.126	314.45833
1818.994	300.79167
1821.861	298.125
1824.725	313.79167
1827.587	307.79167
1830.448	301.45833
1833.306	296.125
1836.162	306.79167
1839.017	289.79167
1841.869	296.79167
1844.719	293.45833
1847.567	285.45833
1850.414	276.79167
1853.258	278.125
1856.1	290.79167
1858.94	302.79167
1861.778	287.79167
1864.614	276.45833
1867.448	289.45833
1870.28	272.79167
1873.111	298.45833
1875.939	286.45833
1878.765	304.125
1881.589	278.45833
1884.411	283.45833
1887.231	290.45833
1890.049	284.79167
1892.865	288.125
1895.68	275.79167
1898.492	285.79167
1901.302	276.45833
1904.11	279.79167
1906.916	278.79167
1909.721	279.45833
1912.523	278.125
1915.323	259.125
1918.122	269.45833
1920.918	281.79167
1923.712	258.79167
1926.505	276.45833
1929.295	249.79167
1932.084	277.45833
1934.87	277.79167
1937.655	267.45833
1940.438	261.125
1943.218	266.45833
1945.997	270.45833
1948.774	270.45833
1951.549	279.125
1954.322	257.45833
1957.093	264.79167
1959.862	258.125
1962.629	257.125
1965.394	255.45833
1968.157	247.125
1970.918	267.45833
1973.678	244.79167
1976.435	258.45833
1979.19	255.125
1981.944	243.125
1984.696	249.45833
1987.445	244.45833
1990.193	252.45833
1992.939	264.125
1995.683	253.125
1998.425	231.125
2001.165	271.45833
2003.903	238.79167
2006.639	247.79167
2009.374	257.45833
2012.106	247.45833
2014.837	225.125
2017.566	253.125
2020.292	242.125
2023.017	241.125
2025.74	234.79167
2028.461	236.45833
2031.18	246.45833
2033.898	233.125
2036.613	239.125
2039.327	241.125
2042.038	231.45833
2044.748	234.79167
2047.456	237.125
2050.162	225.79167
2052.866	229.125
2055.568	245.125
2058.268	227.79167
2060.967	245.45833
2063.663	222.79167
2066.358	224.45833
2069.051	221.125
2071.742	228.45833
2074.431	233.125
2077.118	222.45833
2079.804	213.45833
2082.487	224.79167
2085.169	233.45833
2087.849	249.45833
2090.527	221.45833
2093.203	231.79167
2095.877	230.125
2098.55	230.45833
2101.22	235.45833
2103.889	241.125
2106.556	225.45833
2109.221	242.79167
2111.884	241.125
2114.546	254.45833
2117.205	254.79167
2119.863	290.79167
2122.519	290.125
2125.173	308.79167
2127.825	339.125
2130.475	350.79167
2133.124	329.125
2135.771	312.125
2138.416	321.79167
2141.059	293.125
2143.7	294.125
2146.339	270.45833
2148.977	238.79167
2151.613	252.79167
2154.247	246.45833
2156.879	235.79167
2159.51	225.45833
2162.138	232.45833
2164.765	222.45833
2167.39	221.45833
2170.013	240.79167
2172.634	233.45833
2175.254	227.125
2177.872	255.125
2180.488	212.45833
2183.102	218.45833
2185.714	209.45833
2188.325	206.125
2190.934	220.79167
2193.541	221.125
2196.146	217.79167
2198.75	199.79167
2201.351	203.125
2203.951	189.79167
2206.549	212.45833
2209.146	197.45833
2211.74	196.79167
2214.333	206.45833
2216.924	187.125
2219.514	207.79167
2222.101	189.79167
2224.687	205.45833
2227.271	185.45833
2229.853	189.125
2232.433	167.125
2235.012	203.79167
2237.589	190.79167
2240.164	202.79167
2242.738	182.79167
2245.309	180.79167
2247.879	197.79167
2250.448	196.79167
2253.014	181.45833
2255.579	174.45833
2258.142	186.125
2260.703	171.125
2263.262	175.125
2265.82	170.125
2268.376	181.45833
2270.93	171.45833
2273.483	169.45833
2276.033	184.45833
2278.583	174.45833
2281.13	176.125
2283.675	167.125
2286.219	167.45833
2288.761	170.79167
2291.302	178.125
2293.841	184.125
2296.377	163.125
2298.913	170.45833
2301.446	186.125
2303.978	172.45833
2306.508	171.125
2309.037	173.79167
2311.563	174.79167
2314.088	174.79167
2316.612	157.79167
2319.133	171.125
2321.653	177.125
2324.171	159.125
2326.688	175.79167
2329.202	162.45833
2331.715	170.79167
2334.227	169.125
2336.736	163.125
2339.244	158.79167
2341.751	152.45833
2344.255	169.45833
2346.758	165.79167
2349.259	157.79167
2351.759	164.125
2354.257	157.45833
2356.753	154.45833
2359.247	149.79167
2361.74	159.45833
2364.231	160.45833
2366.721	169.45833
2369.209	153.45833
2371.695	155.125
2374.179	143.125
2376.662	145.79167
2379.143	170.125
2381.622	155.125
2384.1	160.45833
2386.576	154.79167
2389.051	168.45833
2391.524	156.125
2393.995	160.79167
2396.464	148.125
2398.932	155.79167
2401.398	159.45833
2403.863	150.125
2406.325	152.45833
2408.787	153.45833
2411.246	156.125
2413.704	150.79167
2416.16	147.79167
2418.615	147.45833
2421.068	147.79167
2423.519	144.45833
2425.969	138.45833
2428.417	154.45833
2430.863	163.45833
2433.308	156.79167
2435.751	150.45833
2438.193	149.45833
2440.633	153.45833
2443.071	157.125
2445.508	145.45833
2447.943	147.45833
2450.376	141.125
2452.808	152.79167
2455.238	134.45833
2457.667	168.125
2460.093	135.45833
2462.519	130.45833
2464.942	138.125
2467.365	143.125
2469.785	147.45833
2472.204	140.125
2474.621	138.45833
2477.037	156.45833
2479.451	131.45833
2481.863	129.45833
2484.274	128.79167
2486.683	141.45833
2489.091	156.125
2491.497	152.79167
2493.901	144.79167
2496.304	136.125
2498.705	150.125
2501.105	143.45833
2503.503	154.79167
2505.899	133.45833
2508.294	152.79167
2510.687	127.125
2513.079	136.125
2515.469	132.45833
2517.858	131.79167
2520.245	150.79167
2522.63	136.79167
2525.014	129.45833
2527.396	129.125
2529.776	128.125
2532.156	137.45833
2534.533	127.45833
2536.909	121.79167
2539.283	119.45833
2541.656	126.45833
2544.027	140.79167
2546.397	136.79167
2548.765	131.125
2551.131	131.45833
2553.496	137.125
2555.86	138.45833
2558.221	135.79167
2560.582	129.45833
2562.94	121.125
2565.298	132.45833
2567.653	141.79167
2570.007	119.79167
2572.36	134.79167
2574.711	126.45833
2577.06	138.79167
2579.408	131.79167
2581.754	126.45833
2584.099	127.79167
2586.442	127.45833
2588.784	133.79167
2591.124	127.45833
2593.463	127.79167
2595.8	129.45833
2598.135	113.45833
2600.469	120.45833
2602.802	133.45833
2605.133	133.79167
2607.462	124.45833
2609.79	115.79167
2612.116	131.45833
2614.441	123.45833
2616.764	125.79167
2619.086	124.79167
2621.406	124.45833
2623.725	131.45833
2626.042	119.79167
2628.358	115.45833
2630.672	127.79167
2632.985	132.125
2635.296	125.125
2637.606	123.45833
2639.914	120.79167
2642.22	120.79167
2644.525	121.79167
2646.829	122.125
2649.131	134.79167
2651.432	131.125
2653.731	123.79167
2656.028	133.45833
2658.324	129.45833
2660.619	114.125
2662.912	129.79167
2665.204	114.125
2667.494	124.45833
2669.782	117.45833
2672.07	137.125
2674.355	133.125
2676.639	131.45833
2678.922	123.125
2681.203	125.125
2683.483	122.79167
2685.761	112.79167
2688.038	129.45833
2690.313	136.45833
2692.587	123.125
2694.859	120.125
2697.13	120.125
2699.399	124.125
2701.667	130.45833
2703.933	127.79167
2706.198	140.45833
2708.461	133.79167
2710.723	131.45833
2712.984	125.125
2715.243	133.45833
2717.5	129.45833
2719.757	129.79167
2722.011	130.125
2724.264	140.79167
2726.516	140.45833
2728.766	122.45833
2731.015	126.125
2733.262	126.79167
2735.508	131.45833
2737.753	135.45833
2739.996	122.79167
2742.237	120.125
2744.477	129.45833
2746.716	141.79167
2748.953	133.45833
2751.189	134.125
2753.423	126.125
2755.656	122.125
2757.887	114.45833
2760.117	118.45833
2762.346	115.79167
2764.573	114.45833
2766.798	117.45833
2769.022	120.79167
2771.245	115.79167
2773.467	117.79167
2775.686	116.79167
2777.905	123.125
2780.122	121.125
2782.337	123.45833
2784.552	115.79167
2786.764	116.125
2788.976	113.79167
2791.186	126.45833
2793.394	118.79167
2795.601	129.45833
2797.807	127.125
2800.011	126.45833
2802.214	136.125
2804.415	126.79167
2806.615	131.79167
2808.814	130.45833
2811.011	133.125
2813.206	139.45833
2815.401	145.79167
2817.594	139.45833
2819.785	146.79167
2821.975	134.45833
2824.164	141.125
2826.351	137.125
2828.537	151.45833
2830.722	146.125
2832.905	143.79167
2835.086	152.45833
2837.267	171.79167
2839.445	163.45833
2841.623	165.45833
2843.799	165.45833
2845.974	177.45833
2848.147	178.45833
2850.319	191.79167
2852.489	197.125
2854.659	195.125
2856.826	204.125
2858.993	215.45833
2861.158	195.45833
2863.321	206.79167
2865.483	228.45833
2867.644	219.125
2869.804	213.45833
2871.962	211.79167
2874.118	217.125
2876.274	219.125
2878.428	207.45833
2880.58	216.45833
2882.731	204.79167
2884.881	208.45833
2887.03	222.79167
2889.177	215.45833
2891.322	231.45833
2893.467	211.79167
2895.61	210.125
2897.751	228.125
2899.892	208.45833
2902.03	224.125
2904.168	216.79167
2906.304	224.79167
2908.439	237.79167
2910.572	214.79167
2912.704	230.79167
2914.835	234.45833
2916.965	231.125
2919.093	246.45833
2921.219	214.45833
2923.345	246.45833
2925.469	229.45833
2927.591	224.45833
2929.712	210.125
2931.832	218.79167
2933.951	213.125
2936.068	206.45833
2938.184	213.125
2940.299	193.125
2942.412	204.125
2944.524	181.79167
2946.634	189.125
2948.744	162.125
2950.851	197.79167
2952.958	164.79167
2955.063	177.125
2957.167	160.125
2959.269	152.79167
2961.371	176.79167
2963.471	150.79167
2965.569	170.79167
2967.666	142.79167
2969.762	142.45833
2971.857	138.45833
2973.95	130.79167
2976.042	139.125
2978.133	134.45833
2980.222	132.45833
2982.31	121.125
2984.396	109.45833
2986.482	113.45833
2988.566	114.125
2990.648	118.45833
2992.73	120.125
2994.81	103.45833
2996.889	119.45833
2998.966	111.79167
3001.042	120.79167
3003.117	106.125
3005.191	109.45833
3007.263	118.125
3009.334	107.79167
3011.403	107.79167
3013.472	105.125
3015.539	125.125
3017.604	129.125
3019.669	96.79167
3021.732	103.79167
3023.794	101.45833
3025.854	94.45833
3027.914	89.79167
3029.971	95.45833
3032.028	101.45833
3034.083	108.79167
3036.137	104.45833
3038.19	85.125
3040.242	88.125
3042.292	84.79167
3044.341	92.125
3046.388	106.45833
3048.435	80.45833
3050.48	105.79167
3052.524	88.79167
3054.566	75.125
3056.607	93.125
3058.647	89.45833
3060.686	74.45833
3062.723	69.45833
3064.759	76.125
3066.794	-0.875
3068.828	1.45833
3070.86	1.45833
