-0.839	147.20833
3.438	158.875
7.711	66.20833
11.981	42.875
16.247	28.875
20.509	38.20833
24.768	33.875
29.024	41.20833
33.276	28.54167
37.524	39.54167
41.769	33.875
46.01	26.875
50.247	45.20833
54.481	46.20833
58.712	53.20833
62.939	35.20833
67.162	54.54167
71.382	43.875
75.599	36.54167
79.812	46.20833
84.021	63.875
88.227	42.875
92.429	52.20833
96.628	37.875
100.823	51.54167
105.015	55.20833
109.204	44.54167
113.388	59.20833
117.57	42.54167
121.748	61.54167
125.922	45.875
130.093	66.54167
134.261	66.54167
138.425	56.54167
142.585	82.54167
146.742	62.875
150.896	80.875
155.046	78.20833
159.193	114.20833
163.336	169.20833
167.476	292.54167
171.613	516.875
175.746	838.54167
179.875	1226.875
184.002	1580.20833
188.124	1866.875
192.244	1969.20833
196.36	1984.54167
200.472	1966.875
204.581	1962.875
208.687	1903.20833
212.79	1904.54167
216.889	1920.54167
220.984	1945.20833
225.077	1968.20833
229.165	1969.54167
233.251	1960.20833
237.333	1976.875
241.412	1954.875
245.487	1930.20833
249.559	1908.54167
253.628	1919.875
257.694	1873.875
261.756	1876.54167
265.814	1852.54167
269.87	1778.875
273.922	1742.54167
277.97	1705.54167
282.016	1706.875
286.058	1661.875
290.097	1684.20833
294.132	1708.54167
298.164	1716.54167
302.193	1651.54167
306.219	1538.54167
310.241	1452.20833
314.26	1365.54167
318.276	1310.54167
322.288	1279.875
326.297	1232.20833
330.303	1212.20833
334.305	1196.54167
338.305	1183.54167
342.301	1182.20833
346.294	1172.875
350.283	1181.54167
354.269	1171.20833
358.252	1175.20833
362.232	1181.875
366.209	1182.20833
370.182	1165.20833
374.152	1143.20833
378.119	1164.54167
382.083	1151.20833
386.043	1181.875
390	1140.20833
393.954	1174.20833
397.905	1168.54167
401.852	1181.20833
405.797	1154.875
409.738	1162.54167
413.676	1173.875
417.61	1170.875
421.542	1154.54167
425.47	1137.20833
429.396	1132.20833
433.318	1117.54167
437.236	1127.875
441.152	1168.54167
445.065	1101.54167
448.974	1106.20833
452.88	1099.54167
456.783	1090.875
460.683	1092.20833
464.58	1100.54167
468.473	1107.20833
472.364	1105.20833
476.251	1111.54167
480.135	1101.54167
484.016	1124.54167
487.894	1130.875
491.769	1131.54167
495.641	1128.54167
499.509	1127.20833
503.375	1134.20833
507.237	1119.54167
511.096	1132.20833
514.952	1135.54167
518.805	1113.54167
522.655	1119.875
526.502	1098.875
530.346	1119.20833
534.187	1126.54167
538.024	1112.20833
541.859	1103.20833
545.69	1122.875
549.519	1117.20833
553.344	1117.54167
557.166	1093.20833
560.985	1083.875
564.802	1092.54167
568.615	1073.20833
572.425	1045.54167
576.232	1056.54167
580.036	1050.54167
583.836	1051.875
587.634	1072.20833
591.429	1066.20833
595.221	1084.875
599.01	1072.54167
602.796	1076.875
606.578	1093.20833
610.358	1092.875
614.135	1081.875
617.909	1087.875
621.679	1082.20833
625.447	1065.20833
629.212	1077.54167
632.973	1068.20833
636.732	1070.54167
640.488	1071.875
644.241	1058.875
647.991	1041.20833
651.737	1072.875
655.481	1046.20833
659.222	1064.875
662.96	1040.20833
666.695	1071.54167
670.427	1069.875
674.156	1077.54167
677.882	1065.875
681.605	1065.54167
685.325	1048.875
689.043	1075.20833
692.757	1037.20833
696.468	1054.875
700.177	1056.20833
703.882	1024.54167
707.585	1024.20833
711.284	1014.54167
714.981	1017.54167
718.675	1015.875
722.366	1031.875
726.054	1013.54167
729.739	1014.54167
733.421	1017.20833
737.1	1008.20833
740.777	1029.54167
744.45	1023.875
748.121	1028.875
751.789	1051.54167
755.453	1024.875
759.115	1044.20833
762.774	1031.875
766.431	1038.54167
770.084	1038.54167
773.734	1033.54167
777.382	1061.20833
781.027	1072.875
784.669	1068.20833
788.308	1059.20833
791.944	1070.20833
795.577	1074.875
799.208	1081.54167
802.835	1075.20833
806.46	1083.54167
810.082	1092.875
813.701	1094.20833
817.317	1113.54167
820.931	1116.20833
824.542	1109.54167
828.149	1081.54167
831.754	1058.54167
835.357	1059.20833
838.956	1076.20833
842.553	1072.54167
846.146	1047.20833
849.737	1028.20833
853.326	1042.875
856.911	1015.54167
860.493	1054.20833
864.073	1050.54167
867.65	1065.54167
871.225	1073.875
874.796	1059.54167
878.365	1054.875
881.931	1062.54167
885.494	1079.875
889.054	1060.20833
892.612	1058.54167
896.166	1048.20833
899.719	1036.54167
903.268	1022.54167
906.814	1031.54167
910.358	1015.54167
913.899	1005.20833
917.438	1022.875
920.973	994.54167
924.506	1007.54167
928.036	1040.875
931.564	1048.875
935.088	1050.54167
938.61	1041.875
942.129	1036.20833
945.646	1052.54167
949.16	1064.54167
952.671	1073.54167
956.179	1092.875
959.685	1084.54167
963.188	1090.875
966.688	1079.20833
970.185	1047.54167
973.68	1011.54167
977.173	1038.54167
980.662	1011.54167
984.149	1020.54167
987.633	998.20833
991.114	1015.20833
994.593	1009.20833
998.069	1048.875
1001.542	1048.875
1005.013	1051.54167
1008.481	990.875
1011.947	995.875
1015.409	966.875
1018.869	978.875
1022.327	985.20833
1025.782	967.875
1029.234	953.20833
1032.683	954.875
1036.13	933.20833
1039.574	894.54167
1043.016	875.20833
1046.455	876.54167
1049.891	852.20833
1053.325	869.20833
1056.756	862.875
1060.184	864.20833
1063.61	845.20833
1067.033	854.54167
1070.454	852.875
1073.872	891.875
1077.287	856.20833
1080.7	870.20833
1084.11	855.20833
1087.517	868.20833
1090.922	847.875
1094.325	839.54167
1097.724	833.875
1101.122	830.20833
1104.516	832.20833
1107.908	813.875
1111.298	833.20833
1114.684	830.54167
1118.069	831.54167
1121.45	856.875
1124.83	840.20833
1128.206	843.20833
1131.58	865.54167
1134.951	883.54167
1138.32	884.54167
1141.687	902.20833
1145.05	922.54167
1148.412	914.54167
1151.77	928.54167
1155.126	921.54167
1158.48	909.20833
1161.831	916.54167
1165.18	921.875
1168.525	931.54167
1171.869	942.875
1175.21	932.20833
1178.548	944.875
1181.884	955.20833
1185.217	968.875
1188.548	979.20833
1191.877	1000.54167
1195.202	1034.20833
1198.526	1055.875
1201.846	1034.20833
1205.165	1047.20833
1208.48	1052.54167
1211.794	1044.20833
1215.104	1053.875
1218.413	1028.875
1221.719	1049.20833
1225.022	1016.54167
1228.323	999.875
1231.621	1011.875
1234.917	1003.54167
1238.21	1022.875
1241.501	1003.20833
1244.79	998.54167
1248.076	988.54167
1251.359	1009.20833
1254.64	1041.20833
1257.919	1010.875
1261.195	1022.875
1264.468	1037.20833
1267.74	1047.54167
1271.008	1059.54167
1274.275	1044.54167
1277.538	1054.20833
1280.8	1034.875
1284.059	1046.20833
1287.315	1070.20833
1290.569	1049.20833
1293.821	1048.875
1297.07	1063.54167
1300.317	1064.875
1303.562	1083.875
1306.803	1055.20833
1310.043	1068.875
1313.28	1048.20833
1316.515	1061.875
1319.747	1045.54167
1322.977	1045.54167
1326.204	1048.20833
1329.429	1024.875
1332.652	1023.20833
1335.872	1017.875
1339.09	1024.54167
1342.306	1016.875
1345.519	1016.54167
1348.729	1002.20833
1351.938	1012.20833
1355.144	985.20833
1358.347	978.20833
1361.548	993.54167
1364.747	979.20833
1367.944	966.20833
1371.138	973.875
1374.329	961.54167
1377.518	955.875
1380.705	967.20833
1383.89	969.20833
1387.072	943.20833
1390.252	911.20833
1393.429	881.20833
1396.605	860.875
1399.777	836.20833
1402.948	838.54167
1406.116	818.875
1409.282	828.54167
1412.445	826.20833
1415.606	831.54167
1418.765	830.54167
1421.921	861.20833
1425.075	852.54167
1428.227	866.20833
1431.376	903.54167
1434.524	933.875
1437.668	960.20833
1440.811	957.54167
1443.951	961.20833
1447.089	966.875
1450.224	971.54167
1453.357	964.20833
1456.488	956.875
1459.617	942.54167
1462.743	925.875
1465.867	895.875
1468.989	909.875
1472.108	886.20833
1475.225	871.54167
1478.34	882.20833
1481.453	861.54167
1484.563	857.20833
1487.671	865.875
1490.776	883.54167
1493.88	896.20833
1496.981	892.54167
1500.08	910.875
1503.176	907.20833
1506.271	917.875
1509.363	926.20833
1512.452	927.54167
1515.54	940.54167
1518.625	949.54167
1521.708	971.20833
1524.789	1008.875
1527.867	1036.20833
1530.944	1081.20833
1534.018	1112.20833
1537.089	1167.54167
1540.159	1152.875
1543.226	1152.875
1546.291	1141.54167
1549.354	1124.875
1552.415	1109.20833
1555.473	1089.54167
1558.529	1072.54167
1561.583	1047.20833
1564.634	1036.20833
1567.684	1033.875
1570.731	1037.54167
1573.776	1048.875
1576.819	1060.875
1579.859	1052.54167
1582.898	1091.875
1585.934	1108.54167
1588.968	1100.54167
1591.999	1085.54167
1595.029	1068.875
1598.056	1083.20833
1601.081	1111.875
1604.104	1099.875
1607.125	1080.875
1610.144	1062.875
1613.16	1043.875
1616.174	1026.54167
1619.186	1026.875
1622.196	1000.20833
1625.203	968.20833
1628.209	974.54167
1631.212	966.875
1634.213	963.875
1637.212	974.20833
1640.209	974.875
1643.203	959.875
1646.196	929.54167
1649.186	891.875
1652.174	880.875
1655.16	848.875
1658.144	834.20833
1661.125	795.54167
1664.105	760.54167
1667.082	732.54167
1670.057	692.875
1673.03	660.875
1676.001	629.54167
1678.97	582.54167
1681.937	567.20833
1684.901	544.54167
1687.863	527.20833
1690.824	502.54167
1693.782	500.20833
1696.738	465.875
1699.692	471.54167
1702.643	461.54167
1705.593	460.875
1708.54	450.54167
1711.486	462.54167
1714.429	435.54167
1717.37	454.875
1720.309	433.20833
1723.246	437.20833
1726.181	428.875
1729.113	426.54167
1732.044	433.875
1734.972	417.20833
1737.899	433.875
1740.823	427.875
1743.745	447.20833
1746.665	409.54167
1749.583	402.875
1752.499	405.20833
1755.413	402.20833
1758.325	376.20833
1761.235	397.54167
1764.142	381.875
1767.048	378.875
1769.951	380.54167
1772.852	381.54167
1775.752	382.875
1778.649	378.54167
1781.544	394.54167
1784.437	363.20833
1787.328	376.54167
1790.217	367.20833
1793.104	351.54167
1795.989	362.875
1798.872	351.20833
1801.753	369.875
1804.631	360.20833
1807.508	360.54167
1810.383	358.54167
1813.255	352.20833
1816.126	348.20833
1818.994	349.20833
1821.861	349.54167
1824.725	361.20833
1827.587	359.875
1830.448	347.875
1833.306	343.875
1836.162	359.54167
1839.017	348.20833
1841.869	337.54167
1844.719	342.875
1847.567	330.20833
1850.414	320.875
1853.258	322.54167
1856.1	338.54167
1858.94	344.54167
1861.778	337.20833
1864.614	322.875
1867.448	335.875
1870.28	317.54167
1873.111	349.20833
1875.939	330.54167
1878.765	347.20833
1881.589	323.54167
1884.411	331.20833
1887.231	333.54167
1890.049	319.875
1892.865	331.54167
1895.68	322.875
1898.492	321.54167
1901.302	320.20833
1904.11	316.20833
1906.916	319.54167
1909.721	310.20833
1912.523	325.54167
1915.323	311.20833
1918.122	308.54167
1920.918	315.54167
1923.712	303.875
1926.505	312.54167
1929.295	296.875
1932.084	312.20833
1934.87	311.20833
1937.655	299.54167
1940.438	294.20833
1943.218	306.875
1945.997	298.20833
1948.774	316.54167
1951.549	312.54167
1954.322	298.875
1957.093	301.20833
1959.862	296.875
1962.629	295.875
1965.394	301.20833
1968.157	285.54167
1970.918	306.20833
1973.678	286.20833
1976.435	298.54167
1979.19	291.20833
1981.944	275.875
1984.696	285.875
1987.445	278.20833
1990.193	283.875
1992.939	301.20833
1995.683	287.54167
1998.425	261.875
2001.165	307.875
2003.903	269.875
2006.639	275.20833
2009.374	281.20833
2012.106	286.20833
2014.837	268.20833
2017.566	282.54167
2020.292	280.20833
2023.017	269.54167
2025.74	273.20833
2028.461	265.20833
2031.18	271.20833
2033.898	261.20833
2036.613	269.20833
2039.327	277.875
2042.038	262.875
2044.748	265.54167
2047.456	270.20833
2050.162	253.54167
2052.866	268.20833
2055.568	282.875
2058.268	264.875
2060.967	273.54167
2063.663	253.20833
2066.358	255.54167
2069.051	253.54167
2071.742	255.875
2074.431	270.875
2077.118	257.20833
2079.804	241.54167
2082.487	257.54167
2085.169	265.54167
2087.849	277.54167
2090.527	248.54167
2093.203	261.875
2095.877	258.54167
2098.55	255.875
2101.22	267.20833
2103.889	269.875
2106.556	258.20833
2109.221	275.54167
2111.884	265.20833
2114.546	289.20833
2117.205	296.20833
2119.863	320.875
2122.519	323.20833
2125.173	343.54167
2127.825	382.54167
2130.475	374.875
2133.124	364.20833
2135.771	331.875
2138.416	354.54167
2141.059	326.20833
2143.7	318.54167
2146.339	301.54167
2148.977	277.20833
2151.613	287.54167
2154.247	275.54167
2156.879	262.54167
2159.51	252.875
2162.138	256.54167
2164.765	255.875
2167.39	239.875
2170.013	271.20833
2172.634	263.875
2175.254	249.875
2177.872	282.54167
2180.488	235.54167
2183.102	243.20833
2185.714	244.54167
2188.325	232.54167
2190.934	236.875
2193.541	242.54167
2196.146	225.54167
2198.75	220.54167
2201.351	224.20833
2203.951	211.20833
2206.549	230.54167
2209.146	219.54167
2211.74	218.20833
2214.333	225.875
2216.924	219.20833
2219.514	224.20833
2222.101	213.20833
2224.687	228.875
2227.271	204.54167
2229.853	207.875
2232.433	193.20833
2235.012	217.54167
2237.589	218.20833
2240.164	225.20833
2242.738	209.20833
2245.309	203.54167
2247.879	224.20833
2250.448	216.54167
2253.014	203.54167
2255.579	184.875
2258.142	199.20833
2260.703	199.20833
2263.262	196.875
2265.82	189.54167
2268.376	202.20833
2270.93	190.875
2273.483	188.875
2276.033	203.54167
2278.583	194.20833
2281.13	186.875
2283.675	185.54167
2286.219	193.875
2288.761	197.20833
2291.302	198.20833
2293.841	209.54167
2296.377	177.54167
2298.913	193.54167
2301.446	199.54167
2303.978	183.54167
2306.508	186.54167
2309.037	188.54167
2311.563	189.875
2314.088	190.20833
2316.612	170.20833
2319.133	185.54167
2321.653	191.20833
2324.171	177.54167
2326.688	192.875
2329.202	183.20833
2331.715	191.20833
2334.227	185.875
2336.736	188.20833
2339.244	173.875
2341.751	168.20833
2344.255	181.875
2346.758	181.54167
2349.259	172.54167
2351.759	181.875
2354.257	173.54167
2356.753	172.875
2359.247	170.875
2361.74	177.20833
2364.231	176.875
2366.721	182.20833
2369.209	169.54167
2371.695	172.54167
2374.179	162.875
2376.662	161.875
2379.143	181.875
2381.622	168.20833
2384.1	176.875
2386.576	167.875
2389.051	186.20833
2391.524	179.875
2393.995	175.54167
2396.464	165.875
2398.932	159.54167
2401.398	170.875
2403.863	164.875
2406.325	161.875
2408.787	168.54167
2411.246	166.875
2413.704	157.875
2416.16	156.54167
2418.615	154.875
2421.068	168.20833
2423.519	158.54167
2425.969	152.20833
2428.417	171.54167
2430.863	182.20833
2433.308	177.54167
2435.751	165.54167
2438.193	168.20833
2440.633	160.875
2443.071	168.54167
2445.508	152.54167
2447.943	157.54167
2450.376	154.20833
2452.808	164.20833
2455.238	147.54167
2457.667	179.875
2460.093	152.20833
2462.519	145.875
2464.942	151.875
2467.365	162.875
2469.785	161.54167
2472.204	150.54167
2474.621	151.54167
2477.037	173.20833
2479.451	147.54167
2481.863	148.54167
2484.274	146.54167
2486.683	149.54167
2489.091	168.54167
2491.497	159.875
2493.901	151.54167
2496.304	149.875
2498.705	159.20833
2501.105	152.875
2503.503	170.54167
2505.899	142.875
2508.294	162.875
2510.687	140.20833
2513.079	150.20833
2515.469	140.875
2517.858	145.54167
2520.245	155.54167
2522.63	148.875
2525.014	145.20833
2527.396	142.20833
2529.776	146.54167
2532.156	144.875
2534.533	134.20833
2536.909	138.875
2539.283	126.54167
2541.656	139.54167
2544.027	158.20833
2546.397	143.54167
2548.765	142.54167
2551.131	146.20833
2553.496	141.20833
2555.86	149.875
2558.221	149.20833
2560.582	139.875
2562.94	127.20833
2565.298	139.20833
2567.653	150.54167
2570.007	128.875
2572.36	148.54167
2574.711	134.54167
2577.06	153.875
2579.408	139.875
2581.754	135.20833
2584.099	139.20833
2586.442	134.54167
2588.784	139.54167
2591.124	141.54167
2593.463	134.20833
2595.8	143.875
2598.135	125.875
2600.469	132.875
2602.802	143.54167
2605.133	149.54167
2607.462	127.54167
2609.79	126.54167
2612.116	140.54167
2614.441	135.875
2616.764	135.54167
2619.086	134.54167
2621.406	129.54167
2623.725	145.54167
2626.042	139.875
2628.358	126.54167
2630.672	139.20833
2632.985	146.20833
2635.296	135.20833
2637.606	132.54167
2639.914	130.875
2642.22	129.20833
2644.525	127.20833
2646.829	132.875
2649.131	149.54167
2651.432	146.20833
2653.731	129.875
2656.028	143.20833
2658.324	136.875
2660.619	127.54167
2662.912	142.54167
2665.204	122.20833
2667.494	140.20833
2669.782	125.875
2672.07	138.20833
2674.355	141.20833
2676.639	137.875
2678.922	127.875
2681.203	134.54167
2683.483	127.20833
2685.761	125.875
2688.038	145.54167
2690.313	147.20833
2692.587	131.54167
2694.859	129.875
2697.13	132.875
2699.399	140.20833
2701.667	141.20833
2703.933	138.875
2706.198	151.875
2708.461	137.54167
2710.723	139.20833
2712.984	139.875
2715.243	143.54167
2717.5	137.20833
2719.757	141.875
2722.011	133.54167
2724.264	146.875
2726.516	150.20833
2728.766	130.20833
2731.015	141.20833
2733.262	140.875
2735.508	138.54167
2737.753	143.20833
2739.996	129.875
2742.237	126.875
2744.477	142.54167
2746.716	145.20833
2748.953	146.20833
2751.189	141.20833
2753.423	132.54167
2755.656	130.875
2757.887	129.20833
2760.117	125.875
2762.346	126.20833
2764.573	116.20833
2766.798	134.20833
2769.022	129.20833
2771.245	122.54167
2773.467	126.20833
2775.686	125.875
2777.905	136.20833
2780.122	125.875
2782.337	129.875
2784.552	127.20833
2786.764	130.54167
2788.976	124.875
2791.186	134.875
2793.394	129.875
2795.601	137.54167
2797.807	144.54167
2800.011	138.875
2802.214	140.20833
2804.415	134.54167
2806.615	137.54167
2808.814	135.875
2811.011	145.54167
2813.206	143.54167
2815.401	149.54167
2817.594	150.20833
2819.785	153.20833
2821.975	140.20833
2824.164	150.20833
2826.351	144.875
2828.537	156.54167
2830.722	159.875
2832.905	154.875
2835.086	157.20833
2837.267	174.20833
2839.445	173.20833
2841.623	173.54167
2843.799	173.875
2845.974	184.54167
2848.147	182.54167
2850.319	197.54167
2852.489	197.875
2854.659	206.20833
2856.826	208.20833
2858.993	224.875
2861.158	204.875
2863.321	217.20833
2865.483	225.20833
2867.644	215.20833
2869.804	215.54167
2871.962	219.20833
2874.118	221.54167
2876.274	221.875
2878.428	218.875
2880.58	225.20833
2882.731	208.20833
2884.881	219.875
2887.03	224.54167
2889.177	216.20833
2891.322	222.54167
2893.467	219.875
2895.61	211.20833
2897.751	223.875
2899.892	216.20833
2902.03	221.20833
2904.168	219.875
2906.304	226.875
2908.439	242.875
2910.572	221.875
2912.704	222.54167
2914.835	232.54167
2916.965	229.20833
2919.093	235.54167
2921.219	219.20833
2923.345	243.20833
2925.469	225.20833
2927.591	219.54167
2929.712	208.54167
2931.832	218.875
2933.951	213.54167
2936.068	202.54167
2938.184	209.54167
2940.299	193.20833
2942.412	197.875
2944.524	176.875
2946.634	186.20833
2948.744	164.20833
2950.851	199.54167
2952.958	164.54167
2955.063	172.54167
2957.167	167.875
2959.269	156.54167
2961.371	182.54167
2963.471	157.54167
2965.569	174.875
2967.666	144.875
2969.762	144.54167
2971.857	139.875
2973.95	134.20833
2976.042	143.875
2978.133	135.54167
2980.222	135.54167
2982.31	126.54167
2984.396	113.875
2986.482	118.54167
2988.566	125.20833
2990.648	121.875
2992.73	126.20833
2994.81	113.20833
2996.889	122.875
2998.966	118.54167
3001.042	128.875
3003.117	117.20833
3005.191	119.20833
3007.263	125.20833
3009.334	108.875
3011.403	117.20833
3013.472	114.875
3015.539	127.20833
3017.604	131.54167
3019.669	101.54167
3021.732	108.54167
3023.794	116.54167
3025.854	105.20833
3027.914	98.875
3029.971	101.875
3032.028	103.875
3034.083	110.54167
3036.137	103.20833
3038.19	94.20833
3040.242	89.875
3042.292	92.54167
3044.341	97.54167
3046.388	114.20833
3048.435	94.54167
3050.48	104.54167
3052.524	93.875
3054.566	84.54167
3056.607	95.875
3058.647	92.54167
3060.686	77.20833
3062.723	76.20833
3064.759	79.54167
3066.794	1.875
3068.828	-1.45833
3070.86	3.54167
