-0.839	143.375
3.438	165.04167
7.711	69.70833
11.981	45.375
16.247	31.70833
20.509	38.70833
24.768	36.70833
29.024	41.70833
33.276	31.375
37.524	42.70833
41.769	30.04167
46.01	27.04167
50.247	44.375
54.481	48.375
58.712	55.70833
62.939	37.375
67.162	52.04167
71.382	43.375
75.599	35.04167
79.812	45.70833
84.021	65.70833
88.227	41.375
92.429	47.375
96.628	36.70833
100.823	51.375
105.015	47.70833
109.204	44.70833
113.388	62.04167
117.57	45.04167
121.748	62.375
125.922	49.375
130.093	65.04167
134.261	65.375
138.425	52.375
142.585	84.70833
146.742	63.70833
150.896	80.04167
155.046	77.375
159.193	116.375
163.336	167.04167
167.476	288.375
171.613	503.04167
175.746	826.70833
179.875	1196.70833
184.002	1543.70833
188.124	1823.04167
192.244	1937.375
196.36	1944.04167
200.472	1907.375
204.581	1880.375
208.687	1827.70833
212.79	1824.375
216.889	1858.70833
220.984	1867.70833
225.077	1885.375
229.165	1899.04167
233.251	1896.375
237.333	1886.04167
241.412	1869.04167
245.487	1871.04167
249.559	1841.70833
253.628	1836.04167
257.694	1820.70833
261.756	1833.375
265.814	1793.04167
269.87	1731.375
273.922	1662.04167
277.97	1648.70833
282.016	1628.70833
286.058	1603.375
290.097	1621.04167
294.132	1633.375
298.164	1626.04167
302.193	1568.04167
306.219	1501.04167
310.241	1388.375
314.26	1306.375
318.276	1238.04167
322.288	1193.70833
326.297	1159.375
330.303	1143.70833
334.305	1126.04167
338.305	1112.375
342.301	1093.04167
346.294	1098.70833
350.283	1095.375
354.269	1096.04167
358.252	1069.70833
362.232	1080.04167
366.209	1089.375
370.182	1074.70833
374.152	1065.375
378.119	1067.375
382.083	1076.375
386.043	1095.70833
390	1060.375
393.954	1055.04167
397.905	1078.04167
401.852	1096.04167
405.797	1068.04167
409.738	1068.375
413.676	1097.70833
417.61	1083.04167
421.542	1070.70833
425.47	1054.375
429.396	1054.04167
433.318	1037.70833
437.236	1037.375
441.152	1069.04167
445.065	1013.375
448.974	1035.70833
452.88	1016.70833
456.783	1024.375
460.683	1009.375
464.58	1025.04167
468.473	1025.70833
472.364	1020.70833
476.251	1020.04167
480.135	1017.04167
484.016	1045.70833
487.894	1043.375
491.769	1034.70833
495.641	1039.375
499.509	1044.375
503.375	1054.04167
507.237	1038.70833
511.096	1039.375
514.952	1048.375
518.805	1064.70833
522.655	1062.70833
526.502	1035.04167
530.346	1045.375
534.187	1056.375
538.024	1040.375
541.859	1022.04167
545.69	1044.70833
549.519	1040.70833
553.344	1034.375
557.166	1024.04167
560.985	1010.70833
564.802	1000.375
568.615	994.70833
572.425	977.375
576.232	965.70833
580.036	975.70833
583.836	1002.04167
587.634	986.04167
591.429	984.70833
595.221	1013.04167
599.01	1007.375
602.796	1010.375
606.578	1013.375
610.358	1014.375
614.135	998.375
617.909	1008.375
621.679	982.04167
625.447	999.04167
629.212	995.04167
632.973	973.375
636.732	995.375
640.488	992.04167
644.241	970.375
647.991	973.04167
651.737	999.70833
655.481	966.375
659.222	980.375
662.96	972.04167
666.695	988.375
670.427	987.375
674.156	996.70833
677.882	988.375
681.605	999.70833
685.325	981.70833
689.043	1004.70833
692.757	969.04167
696.468	975.70833
700.177	957.04167
703.882	953.375
707.585	953.04167
711.284	958.375
714.981	931.375
718.675	941.70833
722.366	962.04167
726.054	930.70833
729.739	963.375
733.421	948.70833
737.1	939.04167
740.777	951.70833
744.45	945.70833
748.121	948.04167
751.789	984.375
755.453	960.375
759.115	961.04167
762.774	959.04167
766.431	980.04167
770.084	985.04167
773.734	969.375
777.382	1000.04167
781.027	980.375
784.669	985.04167
788.308	989.375
791.944	1007.70833
795.577	1004.70833
799.208	988.70833
802.835	1009.04167
806.46	1023.04167
810.082	1018.04167
813.701	1011.70833
817.317	1034.375
820.931	1015.70833
824.542	1040.70833
828.149	1010.375
831.754	996.70833
835.357	985.70833
838.956	1011.70833
842.553	987.375
846.146	986.70833
849.737	971.04167
853.326	975.70833
856.911	964.375
860.493	972.04167
864.073	982.70833
867.65	1005.04167
871.225	1009.375
874.796	1000.70833
878.365	986.70833
881.931	1010.70833
885.494	1019.04167
889.054	1014.375
892.612	994.375
896.166	985.04167
899.719	967.70833
903.268	937.70833
906.814	965.375
910.358	961.70833
913.899	939.04167
917.438	948.70833
920.973	919.04167
924.506	934.375
928.036	957.70833
931.564	972.04167
935.088	994.04167
938.61	963.04167
942.129	967.375
945.646	993.375
949.16	1000.70833
952.671	1007.70833
956.179	1024.375
959.685	1036.04167
963.188	1017.04167
966.688	1023.375
970.185	991.04167
973.68	966.04167
977.173	947.04167
980.662	945.04167
984.149	956.375
987.633	935.04167
991.114	947.375
994.593	963.375
998.069	965.04167
1001.542	997.70833
1005.013	993.04167
1008.481	934.04167
1011.947	923.375
1015.409	901.04167
1018.869	910.70833
1022.327	918.04167
1025.782	902.375
1029.234	900.04167
1032.683	886.70833
1036.13	869.375
1039.574	838.375
1043.016	820.04167
1046.455	817.04167
1049.891	798.04167
1053.325	809.375
1056.756	817.70833
1060.184	802.375
1063.61	794.04167
1067.033	813.04167
1070.454	812.375
1073.872	827.375
1077.287	801.70833
1080.7	818.70833
1084.11	805.04167
1087.517	812.04167
1090.922	804.04167
1094.325	773.375
1097.724	771.04167
1101.122	769.04167
1104.516	773.70833
1107.908	773.70833
1111.298	784.375
1114.684	784.70833
1118.069	782.375
1121.45	812.04167
1124.83	785.04167
1128.206	798.375
1131.58	812.375
1134.951	823.70833
1138.32	823.70833
1141.687	866.375
1145.05	878.70833
1148.412	884.04167
1151.77	883.04167
1155.126	865.375
1158.48	867.70833
1161.831	856.04167
1165.18	861.04167
1168.525	889.375
1171.869	886.70833
1175.21	885.375
1178.548	908.04167
1181.884	906.04167
1185.217	905.04167
1188.548	936.04167
1191.877	942.375
1195.202	972.375
1198.526	986.70833
1201.846	993.04167
1205.165	1003.70833
1208.48	1008.04167
1211.794	1003.375
1215.104	987.70833
1218.413	983.04167
1221.719	980.04167
1225.022	957.04167
1228.323	947.375
1231.621	953.04167
1234.917	953.375
1238.21	961.375
1241.501	946.375
1244.79	933.70833
1248.076	920.04167
1251.359	941.70833
1254.64	988.04167
1257.919	958.375
1261.195	975.04167
1264.468	979.70833
1267.74	995.375
1271.008	990.70833
1274.275	989.04167
1277.538	990.70833
1280.8	976.04167
1284.059	982.04167
1287.315	1001.375
1290.569	978.70833
1293.821	1000.04167
1297.07	1002.375
1300.317	1006.70833
1303.562	1005.375
1306.803	993.70833
1310.043	996.375
1313.28	988.375
1316.515	979.04167
1319.747	985.375
1322.977	982.375
1326.204	966.04167
1329.429	963.375
1332.652	954.375
1335.872	969.375
1339.09	948.04167
1342.306	959.04167
1345.519	936.375
1348.729	934.375
1351.938	941.04167
1355.144	925.375
1358.347	914.70833
1361.548	928.04167
1364.747	914.70833
1367.944	892.70833
1371.138	898.04167
1374.329	889.375
1377.518	904.04167
1380.705	888.70833
1383.89	905.375
1387.072	871.04167
1390.252	852.375
1393.429	840.375
1396.605	813.04167
1399.777	781.375
1402.948	776.04167
1406.116	767.04167
1409.282	761.70833
1412.445	760.70833
1415.606	776.04167
1418.765	773.04167
1421.921	790.70833
1425.075	784.70833
1428.227	815.375
1431.376	840.70833
1434.524	867.375
1437.668	888.04167
1440.811	897.375
1443.951	909.04167
1447.089	920.70833
1450.224	905.375
1453.357	904.70833
1456.488	898.375
1459.617	893.70833
1462.743	875.375
1465.867	853.375
1468.989	846.375
1472.108	832.04167
1475.225	829.375
1478.34	811.70833
1481.453	823.04167
1484.563	813.375
1487.671	823.70833
1490.776	828.04167
1493.88	830.375
1496.981	833.70833
1500.08	864.70833
1503.176	860.70833
1506.271	860.375
1509.363	864.375
1512.452	868.04167
1515.54	884.70833
1518.625	877.70833
1521.708	922.375
1524.789	941.70833
1527.867	979.375
1530.944	1021.70833
1534.018	1043.04167
1537.089	1097.70833
1540.159	1109.70833
1543.226	1114.375
1546.291	1074.375
1549.354	1058.04167
1552.415	1025.70833
1555.473	1013.04167
1558.529	997.70833
1561.583	991.70833
1564.634	964.04167
1567.684	970.04167
1570.731	971.04167
1573.776	985.70833
1576.819	998.70833
1579.859	1000.04167
1582.898	1034.375
1585.934	1042.70833
1588.968	1041.70833
1591.999	1034.375
1595.029	1009.70833
1598.056	1033.70833
1601.081	1043.70833
1604.104	1047.375
1607.125	1029.04167
1610.144	1009.375
1613.16	980.04167
1616.174	974.70833
1619.186	957.375
1622.196	940.04167
1625.203	905.04167
1628.209	911.375
1631.212	908.375
1634.213	910.375
1637.212	931.70833
1640.209	920.375
1643.203	877.70833
1646.196	872.375
1649.186	832.70833
1652.174	818.375
1655.16	774.375
1658.144	772.04167
1661.125	729.70833
1664.105	711.70833
1667.082	673.70833
1670.057	645.04167
1673.03	613.04167
1676.001	578.70833
1678.97	554.04167
1681.937	529.04167
1684.901	498.04167
1687.863	494.375
1690.824	464.70833
1693.782	472.375
1696.738	439.04167
1699.692	446.375
1702.643	430.70833
1705.593	421.70833
1708.54	427.04167
1711.486	429.70833
1714.429	404.04167
1717.37	412.70833
1720.309	407.70833
1723.246	412.04167
1726.181	393.04167
1729.113	392.70833
1732.044	403.375
1734.972	386.04167
1737.899	411.04167
1740.823	409.04167
1743.745	424.375
1746.665	379.375
1749.583	383.375
1752.499	371.70833
1755.413	380.70833
1758.325	354.70833
1761.235	365.04167
1764.142	353.70833
1767.048	347.375
1769.951	357.04167
1772.852	349.70833
1775.752	368.70833
1778.649	361.375
1781.544	368.70833
1784.437	341.04167
1787.328	354.04167
1790.217	357.70833
1793.104	319.375
1795.989	335.375
1798.872	329.70833
1801.753	348.375
1804.631	333.70833
1807.508	345.70833
1810.383	325.375
1813.255	334.04167
1816.126	338.04167
1818.994	329.04167
1821.861	327.375
1824.725	331.70833
1827.587	339.375
1830.448	325.70833
1833.306	314.375
1836.162	329.70833
1839.017	317.375
1841.869	311.70833
1844.719	318.70833
1847.567	308.04167
1850.414	295.375
1853.258	301.70833
1856.1	312.04167
1858.94	323.04167
1861.778	313.04167
1864.614	302.04167
1867.448	310.375
1870.28	293.375
1873.111	317.375
1875.939	305.70833
1878.765	320.04167
1881.589	302.375
1884.411	301.375
1887.231	312.04167
1890.049	311.375
1892.865	310.375
1895.68	291.375
1898.492	306.375
1901.302	296.70833
1904.11	296.04167
1906.916	299.375
1909.721	295.04167
1912.523	301.70833
1915.323	286.70833
1918.122	285.04167
1920.918	304.04167
1923.712	287.375
1926.505	287.375
1929.295	273.70833
1932.084	295.04167
1934.87	285.04167
1937.655	282.375
1940.438	273.375
1943.218	275.04167
1945.997	286.70833
1948.774	289.04167
1951.549	296.70833
1954.322	282.70833
1957.093	280.375
1959.862	275.04167
1962.629	267.04167
1965.394	276.04167
1968.157	261.04167
1970.918	282.375
1973.678	264.375
1976.435	270.70833
1979.19	266.375
1981.944	260.375
1984.696	270.375
1987.445	260.70833
1990.193	273.375
1992.939	276.04167
1995.683	270.04167
1998.425	255.04167
2001.165	283.04167
2003.903	253.70833
2006.639	260.70833
2009.374	258.375
2012.106	261.04167
2014.837	245.04167
2017.566	271.375
2020.292	261.04167
2023.017	258.04167
2025.74	252.04167
2028.461	249.375
2031.18	261.375
2033.898	247.04167
2036.613	247.70833
2039.327	256.04167
2042.038	247.70833
2044.748	256.04167
2047.456	260.70833
2050.162	239.04167
2052.866	241.04167
2055.568	252.70833
2058.268	247.04167
2060.967	254.375
2063.663	240.375
2066.358	241.70833
2069.051	233.375
2071.742	244.375
2074.431	252.375
2077.118	244.70833
2079.804	230.70833
2082.487	239.70833
2085.169	247.04167
2087.849	258.375
2090.527	237.04167
2093.203	243.70833
2095.877	237.70833
2098.55	242.04167
2101.22	239.70833
2103.889	260.375
2106.556	242.70833
2109.221	253.04167
2111.884	246.04167
2114.546	266.70833
2117.205	262.375
2119.863	299.375
2122.519	287.04167
2125.173	301.70833
2127.825	332.04167
2130.475	323.04167
2133.124	312.70833
2135.771	306.375
2138.416	315.70833
2141.059	290.70833
2143.7	295.375
2146.339	270.70833
2148.977	241.375
2151.613	248.04167
2154.247	247.70833
2156.879	247.375
2159.51	234.375
2162.138	238.04167
2164.765	237.04167
2167.39	222.375
2170.013	244.04167
2172.634	246.70833
2175.254	227.375
2177.872	261.04167
2180.488	218.70833
2183.102	225.04167
2185.714	227.04167
2188.325	216.375
2190.934	225.70833
2193.541	228.70833
2196.146	221.04167
2198.75	204.70833
2201.351	210.375
2203.951	199.375
2206.549	215.70833
2209.146	211.375
2211.74	202.375
2214.333	220.70833
2216.924	197.70833
2219.514	201.70833
2222.101	198.04167
2224.687	221.375
2227.271	198.70833
2229.853	201.04167
2232.433	186.04167
2235.012	206.375
2237.589	205.04167
2240.164	221.70833
2242.738	197.04167
2245.309	183.375
2247.879	211.70833
2250.448	205.04167
2253.014	195.375
2255.579	182.375
2258.142	193.04167
2260.703	190.70833
2263.262	183.04167
2265.82	181.04167
2268.376	199.04167
2270.93	185.04167
2273.483	177.70833
2276.033	193.70833
2278.583	183.04167
2281.13	180.04167
2283.675	179.04167
2286.219	183.04167
2288.761	187.04167
2291.302	192.04167
2293.841	193.04167
2296.377	178.375
2298.913	192.04167
2301.446	200.04167
2303.978	184.375
2306.508	182.70833
2309.037	186.70833
2311.563	182.375
2314.088	181.70833
2316.612	165.70833
2319.133	183.70833
2321.653	189.04167
2324.171	175.04167
2326.688	189.375
2329.202	184.375
2331.715	184.04167
2334.227	173.375
2336.736	180.375
2339.244	168.375
2341.751	163.375
2344.255	184.375
2346.758	177.70833
2349.259	165.70833
2351.759	182.04167
2354.257	165.375
2356.753	165.375
2359.247	167.375
2361.74	174.04167
2364.231	167.04167
2366.721	176.375
2369.209	163.70833
2371.695	164.70833
2374.179	164.70833
2376.662	152.70833
2379.143	187.375
2381.622	170.375
2384.1	174.375
2386.576	166.04167
2389.051	179.70833
2391.524	180.04167
2393.995	169.375
2396.464	167.04167
2398.932	166.70833
2401.398	168.70833
2403.863	161.70833
2406.325	159.70833
2408.787	168.04167
2411.246	160.04167
2413.704	161.04167
2416.16	155.04167
2418.615	159.04167
2421.068	167.375
2423.519	162.04167
2425.969	152.375
2428.417	171.70833
2430.863	184.70833
2433.308	172.375
2435.751	169.70833
2438.193	167.70833
2440.633	166.375
2443.071	172.04167
2445.508	154.375
2447.943	164.70833
2450.376	154.04167
2452.808	164.375
2455.238	159.04167
2457.667	180.04167
2460.093	150.70833
2462.519	147.70833
2464.942	156.375
2467.365	160.04167
2469.785	163.375
2472.204	151.04167
2474.621	154.70833
2477.037	170.04167
2479.451	146.04167
2481.863	143.04167
2484.274	152.04167
2486.683	151.70833
2489.091	157.04167
2491.497	158.70833
2493.901	150.375
2496.304	152.70833
2498.705	164.375
2501.105	152.04167
2503.503	176.375
2505.899	145.70833
2508.294	168.70833
2510.687	147.375
2513.079	154.375
2515.469	145.375
2517.858	144.04167
2520.245	161.04167
2522.63	151.375
2525.014	145.375
2527.396	146.04167
2529.776	145.70833
2532.156	155.04167
2534.533	144.70833
2536.909	139.70833
2539.283	132.04167
2541.656	145.375
2544.027	157.04167
2546.397	153.04167
2548.765	144.70833
2551.131	146.375
2553.496	153.04167
2555.86	151.70833
2558.221	153.375
2560.582	143.375
2562.94	135.70833
2565.298	146.70833
2567.653	161.375
2570.007	135.70833
2572.36	153.375
2574.711	140.375
2577.06	163.04167
2579.408	145.70833
2581.754	144.70833
2584.099	142.375
2586.442	141.70833
2588.784	152.70833
2591.124	145.375
2593.463	145.375
2595.8	147.04167
2598.135	138.375
2600.469	140.70833
2602.802	152.375
2605.133	158.375
2607.462	138.70833
2609.79	132.375
2612.116	151.04167
2614.441	144.70833
2616.764	144.375
2619.086	146.375
2621.406	141.04167
2623.725	155.70833
2626.042	144.375
2628.358	141.70833
2630.672	149.70833
2632.985	152.04167
2635.296	147.375
2637.606	143.375
2639.914	136.04167
2642.22	144.04167
2644.525	144.70833
2646.829	144.70833
2649.131	159.70833
2651.432	152.375
2653.731	137.04167
2656.028	155.70833
2658.324	157.375
2660.619	133.04167
2662.912	152.04167
2665.204	134.70833
2667.494	152.04167
2669.782	132.375
2672.07	165.375
2674.355	154.04167
2676.639	147.70833
2678.922	144.04167
2681.203	152.04167
2683.483	144.04167
2685.761	131.04167
2688.038	150.70833
2690.313	153.70833
2692.587	145.375
2694.859	143.70833
2697.13	141.04167
2699.399	149.70833
2701.667	157.70833
2703.933	151.04167
2706.198	157.04167
2708.461	158.375
2710.723	156.70833
2712.984	151.04167
2715.243	160.375
2717.5	152.375
2719.757	154.70833
2722.011	152.70833
2724.264	156.04167
2726.516	170.70833
2728.766	150.04167
2731.015	153.375
2733.262	157.04167
2735.508	146.04167
2737.753	156.70833
2739.996	142.04167
2742.237	147.04167
2744.477	156.04167
2746.716	168.375
2748.953	158.70833
2751.189	162.70833
2753.423	153.04167
2755.656	143.375
2757.887	141.70833
2760.117	153.04167
2762.346	135.04167
2764.573	136.04167
2766.798	148.375
2769.022	142.70833
2771.245	144.375
2773.467	142.70833
2775.686	147.70833
2777.905	151.70833
2780.122	149.04167
2782.337	151.04167
2784.552	148.70833
2786.764	150.375
2788.976	145.04167
2791.186	151.70833
2793.394	150.04167
2795.601	160.04167
2797.807	155.375
2800.011	158.70833
2802.214	162.375
2804.415	153.375
2806.615	155.70833
2808.814	152.04167
2811.011	161.375
2813.206	166.70833
2815.401	169.04167
2817.594	169.04167
2819.785	174.375
2821.975	157.375
2824.164	161.70833
2826.351	162.04167
2828.537	180.375
2830.722	176.04167
2832.905	175.04167
2835.086	181.04167
2837.267	190.04167
2839.445	198.04167
2841.623	186.70833
2843.799	193.04167
2845.974	201.70833
2848.147	211.04167
2850.319	215.70833
2852.489	222.04167
2854.659	229.375
2856.826	229.375
2858.993	240.04167
2861.158	217.375
2863.321	233.375
2865.483	245.04167
2867.644	236.375
2869.804	241.04167
2871.962	237.04167
2874.118	235.70833
2876.274	238.375
2878.428	242.04167
2880.58	236.04167
2882.731	227.04167
2884.881	233.375
2887.03	241.70833
2889.177	240.70833
2891.322	251.375
2893.467	231.04167
2895.61	235.375
2897.751	245.375
2899.892	233.04167
2902.03	239.70833
2904.168	239.04167
2906.304	241.04167
2908.439	261.70833
2910.572	233.04167
2912.704	248.04167
2914.835	245.375
2916.965	244.70833
2919.093	267.70833
2921.219	234.375
2923.345	260.375
2925.469	249.375
2927.591	240.375
2929.712	234.04167
2931.832	243.70833
2933.951	240.375
2936.068	225.70833
2938.184	224.04167
2940.299	223.375
2942.412	221.04167
2944.524	201.04167
2946.634	209.375
2948.744	187.375
2950.851	226.04167
2952.958	192.70833
2955.063	198.375
2957.167	189.70833
2959.269	183.375
2961.371	212.70833
2963.471	184.04167
2965.569	198.04167
2967.666	173.375
2969.762	175.04167
2971.857	170.375
2973.95	162.04167
2976.042	173.70833
2978.133	166.375
2980.222	168.04167
2982.31	150.375
2984.396	148.375
2986.482	152.70833
2988.566	155.375
2990.648	153.375
2992.73	146.375
2994.81	136.04167
2996.889	161.70833
2998.966	151.04167
3001.042	162.375
3003.117	147.70833
3005.191	150.04167
3007.263	155.375
3009.334	145.04167
3011.403	157.04167
3013.472	140.375
3015.539	159.70833
3017.604	168.04167
3019.669	135.375
3021.732	137.70833
3023.794	142.375
3025.854	132.375
3027.914	128.04167
3029.971	133.70833
3032.028	132.70833
3034.083	150.04167
3036.137	135.04167
3038.19	127.70833
3040.242	122.375
3042.292	122.04167
3044.341	124.04167
3046.388	144.70833
3048.435	123.375
3050.48	133.04167
3052.524	122.375
3054.566	113.70833
3056.607	126.375
3058.647	117.70833
3060.686	109.04167
3062.723	107.70833
3064.759	106.04167
3066.794	0.70833
3068.828	0.04167
3070.86	4.375
