-0.839	143.625
3.438	161.95833
7.711	65.625
11.981	40.95833
16.247	31.625
20.509	39.95833
24.768	35.95833
29.024	42.95833
33.276	28.625
37.524	38.29167
41.769	31.625
46.01	29.95833
50.247	44.625
54.481	48.625
58.712	53.625
62.939	35.95833
67.162	55.29167
71.382	42.29167
75.599	37.625
79.812	44.29167
84.021	59.625
88.227	41.29167
92.429	51.625
96.628	35.95833
100.823	51.625
105.015	51.95833
109.204	47.29167
113.388	54.95833
117.57	41.95833
121.748	58.95833
125.922	47.95833
130.093	61.95833
134.261	63.625
138.425	55.29167
142.585	84.625
146.742	66.625
150.896	77.95833
155.046	77.625
159.193	114.625
163.336	167.95833
167.476	288.29167
171.613	508.625
175.746	808.95833
179.875	1187.625
184.002	1516.625
188.124	1795.95833
192.244	1880.625
196.36	1874.29167
200.472	1847.95833
204.581	1829.29167
208.687	1766.95833
212.79	1774.95833
216.889	1791.29167
220.984	1801.29167
225.077	1798.625
229.165	1816.95833
233.251	1818.95833
237.333	1802.625
241.412	1795.625
245.487	1788.625
249.559	1757.625
253.628	1750.29167
257.694	1722.625
261.756	1721.625
265.814	1674.29167
269.87	1636.95833
273.922	1577.95833
277.97	1552.95833
282.016	1531.29167
286.058	1493.29167
290.097	1519.95833
294.132	1551.29167
298.164	1524.625
302.193	1474.625
306.219	1386.95833
310.241	1299.29167
314.26	1184.625
318.276	1126.625
322.288	1095.95833
326.297	1033.95833
330.303	1027.625
334.305	996.625
338.305	991.95833
342.301	967.625
346.294	973.29167
350.283	970.625
354.269	961.95833
358.252	940.29167
362.232	945.625
366.209	965.625
370.182	939.95833
374.152	928.95833
378.119	937.29167
382.083	938.95833
386.043	947.625
390	933.29167
393.954	945.625
397.905	943.29167
401.852	933.29167
405.797	938.29167
409.738	916.95833
413.676	943.29167
417.61	937.29167
421.542	908.95833
425.47	883.29167
429.396	893.95833
433.318	883.95833
437.236	891.29167
441.152	916.625
445.065	873.29167
448.974	883.625
452.88	867.29167
456.783	858.29167
460.683	849.29167
464.58	867.625
468.473	875.29167
472.364	883.625
476.251	859.29167
480.135	863.95833
484.016	873.29167
487.894	886.625
491.769	895.95833
495.641	867.625
499.509	889.625
503.375	881.29167
507.237	877.625
511.096	872.29167
514.952	882.95833
518.805	862.95833
522.655	869.95833
526.502	879.625
530.346	882.29167
534.187	893.95833
538.024	863.95833
541.859	864.95833
545.69	899.29167
549.519	873.95833
553.344	884.95833
557.166	860.29167
560.985	864.625
564.802	864.29167
568.615	835.625
572.425	817.29167
576.232	827.95833
580.036	822.95833
583.836	841.625
587.634	837.625
591.429	823.95833
595.221	869.625
599.01	859.625
602.796	853.29167
606.578	859.29167
610.358	863.625
614.135	857.95833
617.909	861.625
621.679	842.625
625.447	828.625
629.212	842.625
632.973	847.625
636.732	842.625
640.488	848.95833
644.241	835.625
647.991	832.95833
651.737	859.625
655.481	821.29167
659.222	823.29167
662.96	827.95833
666.695	851.95833
670.427	846.625
674.156	845.95833
677.882	856.95833
681.605	844.95833
685.325	822.625
689.043	847.95833
692.757	831.95833
696.468	832.29167
700.177	823.625
703.882	818.95833
707.585	809.29167
711.284	809.625
714.981	823.625
718.675	810.625
722.366	817.625
726.054	791.95833
729.739	815.95833
733.421	802.29167
737.1	801.625
740.777	819.625
744.45	814.625
748.121	817.95833
751.789	846.95833
755.453	824.625
759.115	843.29167
762.774	841.29167
766.431	825.95833
770.084	849.29167
773.734	851.625
777.382	872.29167
781.027	877.95833
784.669	874.95833
788.308	875.29167
791.944	877.95833
795.577	893.95833
799.208	875.625
802.835	893.95833
806.46	902.625
810.082	895.95833
813.701	893.95833
817.317	916.29167
820.931	912.625
824.542	921.95833
828.149	902.625
831.754	895.95833
835.357	878.95833
838.956	895.95833
842.553	893.625
846.146	865.625
849.737	853.95833
853.326	871.95833
856.911	849.625
860.493	877.29167
864.073	889.95833
867.65	911.95833
871.225	910.95833
874.796	890.95833
878.365	882.29167
881.931	907.625
885.494	916.95833
889.054	907.29167
892.612	903.625
896.166	898.625
899.719	883.625
903.268	868.625
906.814	872.29167
910.358	870.625
913.899	870.95833
917.438	864.29167
920.973	840.95833
924.506	859.95833
928.036	884.95833
931.564	906.29167
935.088	912.29167
938.61	904.95833
942.129	887.95833
945.646	909.95833
949.16	920.625
952.671	926.95833
956.179	955.625
959.685	934.29167
963.188	969.625
966.688	954.625
970.185	914.625
973.68	885.625
977.173	871.29167
980.662	861.95833
984.149	879.29167
987.633	855.29167
991.114	874.95833
994.593	870.29167
998.069	890.625
1001.542	922.95833
1005.013	909.29167
1008.481	853.95833
1011.947	846.95833
1015.409	823.95833
1018.869	848.625
1022.327	841.95833
1025.782	821.29167
1029.234	824.95833
1032.683	821.29167
1036.13	793.29167
1039.574	752.29167
1043.016	759.625
1046.455	741.29167
1049.891	726.625
1053.325	752.625
1056.756	732.29167
1060.184	736.29167
1063.61	724.625
1067.033	734.625
1070.454	732.95833
1073.872	751.95833
1077.287	721.625
1080.7	742.95833
1084.11	738.625
1087.517	735.95833
1090.922	745.29167
1094.325	717.29167
1097.724	714.95833
1101.122	712.29167
1104.516	725.625
1107.908	701.29167
1111.298	714.29167
1114.684	728.625
1118.069	724.625
1121.45	738.95833
1124.83	720.95833
1128.206	739.625
1131.58	744.95833
1134.951	776.95833
1138.32	768.95833
1141.687	809.29167
1145.05	831.625
1148.412	833.29167
1151.77	824.625
1155.126	822.625
1158.48	830.625
1161.831	826.625
1165.18	822.95833
1168.525	846.95833
1171.869	842.95833
1175.21	843.95833
1178.548	850.95833
1181.884	871.625
1185.217	865.95833
1188.548	884.29167
1191.877	908.625
1195.202	944.625
1198.526	961.625
1201.846	962.625
1205.165	955.625
1208.48	958.95833
1211.794	962.95833
1215.104	964.95833
1218.413	957.29167
1221.719	950.625
1225.022	936.29167
1228.323	911.625
1231.621	916.29167
1234.917	913.29167
1238.21	940.625
1241.501	907.95833
1244.79	896.625
1248.076	881.29167
1251.359	915.29167
1254.64	944.29167
1257.919	916.625
1261.195	944.29167
1264.468	958.29167
1267.74	974.95833
1271.008	982.29167
1274.275	966.29167
1277.538	959.29167
1280.8	968.95833
1284.059	959.95833
1287.315	967.95833
1290.569	968.95833
1293.821	971.625
1297.07	986.95833
1300.317	975.95833
1303.562	995.29167
1306.803	977.625
1310.043	978.625
1313.28	982.625
1316.515	977.29167
1319.747	989.29167
1322.977	963.29167
1326.204	955.95833
1329.429	946.625
1332.652	950.29167
1335.872	947.625
1339.09	917.29167
1342.306	918.29167
1345.519	913.95833
1348.729	916.625
1351.938	920.29167
1355.144	889.95833
1358.347	898.29167
1361.548	912.95833
1364.747	912.29167
1367.944	882.95833
1371.138	888.625
1374.329	882.95833
1377.518	889.625
1380.705	891.95833
1383.89	889.625
1387.072	861.625
1390.252	833.95833
1393.429	812.95833
1396.605	787.95833
1399.777	747.625
1402.948	764.29167
1406.116	734.29167
1409.282	726.95833
1412.445	730.95833
1415.606	742.95833
1418.765	744.95833
1421.921	771.29167
1425.075	766.95833
1428.227	795.95833
1431.376	835.95833
1434.524	856.29167
1437.668	879.29167
1440.811	876.29167
1443.951	895.95833
1447.089	894.29167
1450.224	890.625
1453.357	888.95833
1456.488	878.95833
1459.617	889.29167
1462.743	866.29167
1465.867	838.95833
1468.989	849.29167
1472.108	823.29167
1475.225	807.29167
1478.34	810.29167
1481.453	796.625
1484.563	793.625
1487.671	803.29167
1490.776	828.95833
1493.88	826.29167
1496.981	848.29167
1500.08	851.95833
1503.176	858.29167
1506.271	869.29167
1509.363	885.95833
1512.452	878.625
1515.54	886.95833
1518.625	894.95833
1521.708	936.625
1524.789	956.625
1527.867	988.95833
1530.944	1042.29167
1534.018	1078.29167
1537.089	1120.95833
1540.159	1100.625
1543.226	1111.625
1546.291	1075.95833
1549.354	1054.29167
1552.415	1044.29167
1555.473	1012.29167
1558.529	1004.625
1561.583	1004.29167
1564.634	989.29167
1567.684	981.95833
1570.731	992.95833
1573.776	1011.95833
1576.819	1027.625
1579.859	1030.95833
1582.898	1042.95833
1585.934	1059.29167
1588.968	1060.625
1591.999	1044.29167
1595.029	1058.95833
1598.056	1074.95833
1601.081	1074.95833
1604.104	1078.29167
1607.125	1056.95833
1610.144	1041.95833
1613.16	1014.95833
1616.174	983.95833
1619.186	989.95833
1622.196	960.625
1625.203	929.29167
1628.209	933.625
1631.212	918.95833
1634.213	932.95833
1637.212	941.95833
1640.209	931.625
1643.203	891.29167
1646.196	878.95833
1649.186	827.95833
1652.174	814.625
1655.16	782.95833
1658.144	764.95833
1661.125	735.29167
1664.105	702.625
1667.082	670.95833
1670.057	631.95833
1673.03	598.95833
1676.001	576.95833
1678.97	528.29167
1681.937	505.29167
1684.901	482.625
1687.863	483.29167
1690.824	437.29167
1693.782	450.29167
1696.738	420.29167
1699.692	417.95833
1702.643	409.29167
1705.593	405.29167
1708.54	405.29167
1711.486	404.29167
1714.429	384.29167
1717.37	388.625
1720.309	377.625
1723.246	387.625
1726.181	372.95833
1729.113	377.95833
1732.044	369.95833
1734.972	369.29167
1737.899	380.95833
1740.823	377.625
1743.745	395.95833
1746.665	352.95833
1749.583	350.625
1752.499	341.625
1755.413	337.625
1758.325	328.29167
1761.235	336.29167
1764.142	326.95833
1767.048	321.29167
1769.951	336.625
1772.852	327.95833
1775.752	331.95833
1778.649	329.625
1781.544	333.95833
1784.437	320.95833
1787.328	319.95833
1790.217	323.95833
1793.104	296.625
1795.989	298.625
1798.872	296.29167
1801.753	312.95833
1804.631	308.625
1807.508	324.625
1810.383	298.625
1813.255	304.95833
1816.126	294.29167
1818.994	300.625
1821.861	293.95833
1824.725	305.95833
1827.587	292.95833
1830.448	305.625
1833.306	293.625
1836.162	308.625
1839.017	289.29167
1841.869	299.625
1844.719	289.29167
1847.567	280.625
1850.414	269.29167
1853.258	272.95833
1856.1	291.95833
1858.94	301.29167
1861.778	287.625
1864.614	268.95833
1867.448	292.29167
1870.28	269.29167
1873.111	298.95833
1875.939	278.625
1878.765	291.625
1881.589	276.625
1884.411	286.29167
1887.231	290.625
1890.049	281.95833
1892.865	292.29167
1895.68	267.625
1898.492	280.29167
1901.302	275.625
1904.11	270.29167
1906.916	273.625
1909.721	274.625
1912.523	281.625
1915.323	261.95833
1918.122	261.29167
1920.918	276.29167
1923.712	262.95833
1926.505	272.95833
1929.295	254.95833
1932.084	267.29167
1934.87	267.625
1937.655	255.625
1940.438	248.95833
1943.218	261.29167
1945.997	257.95833
1948.774	269.29167
1951.549	274.95833
1954.322	262.95833
1957.093	257.95833
1959.862	249.29167
1962.629	255.625
1965.394	248.29167
1968.157	243.95833
1970.918	257.625
1973.678	244.95833
1976.435	260.95833
1979.19	252.625
1981.944	233.95833
1984.696	246.95833
1987.445	246.625
1990.193	254.625
1992.939	259.625
1995.683	248.625
1998.425	227.29167
2001.165	266.625
2003.903	229.95833
2006.639	242.625
2009.374	252.29167
2012.106	247.29167
2014.837	218.95833
2017.566	246.29167
2020.292	241.625
2023.017	244.625
2025.74	230.29167
2028.461	230.95833
2031.18	231.95833
2033.898	225.29167
2036.613	232.29167
2039.327	242.29167
2042.038	228.95833
2044.748	235.625
2047.456	236.29167
2050.162	223.95833
2052.866	227.625
2055.568	236.95833
2058.268	230.625
2060.967	234.95833
2063.663	218.625
2066.358	223.625
2069.051	220.95833
2071.742	219.95833
2074.431	235.625
2077.118	226.29167
2079.804	218.625
2082.487	224.625
2085.169	238.95833
2087.849	239.95833
2090.527	215.29167
2093.203	222.95833
2095.877	225.625
2098.55	226.95833
2101.22	232.625
2103.889	234.95833
2106.556	228.625
2109.221	245.625
2111.884	230.625
2114.546	247.29167
2117.205	258.29167
2119.863	288.625
2122.519	280.95833
2125.173	299.625
2127.825	329.29167
2130.475	346.625
2133.124	320.95833
2135.771	310.95833
2138.416	323.625
2141.059	288.29167
2143.7	289.29167
2146.339	266.29167
2148.977	240.29167
2151.613	248.29167
2154.247	242.95833
2156.879	234.95833
2159.51	223.625
2162.138	220.29167
2164.765	221.625
2167.39	210.625
2170.013	234.29167
2172.634	234.29167
2175.254	216.625
2177.872	250.625
2180.488	208.29167
2183.102	212.29167
2185.714	217.625
2188.325	207.29167
2190.934	209.625
2193.541	220.29167
2196.146	202.95833
2198.75	194.29167
2201.351	197.95833
2203.951	182.29167
2206.549	208.95833
2209.146	199.29167
2211.74	188.29167
2214.333	205.29167
2216.924	188.29167
2219.514	197.29167
2222.101	189.29167
2224.687	200.95833
2227.271	179.29167
2229.853	189.625
2232.433	176.29167
2235.012	195.95833
2237.589	188.95833
2240.164	201.95833
2242.738	188.625
2245.309	182.95833
2247.879	197.95833
2250.448	191.625
2253.014	173.95833
2255.579	171.95833
2258.142	178.625
2260.703	177.95833
2263.262	173.625
2265.82	165.625
2268.376	182.625
2270.93	177.625
2273.483	162.625
2276.033	181.29167
2278.583	168.29167
2281.13	162.29167
2283.675	165.625
2286.219	168.29167
2288.761	176.625
2291.302	178.29167
2293.841	185.29167
2296.377	154.625
2298.913	166.95833
2301.446	181.29167
2303.978	172.625
2306.508	171.625
2309.037	170.29167
2311.563	168.29167
2314.088	172.95833
2316.612	150.95833
2319.133	170.95833
2321.653	167.95833
2324.171	159.29167
2326.688	167.29167
2329.202	167.29167
2331.715	164.29167
2334.227	160.29167
2336.736	158.29167
2339.244	154.625
2341.751	152.625
2344.255	163.29167
2346.758	160.625
2349.259	146.95833
2351.759	160.29167
2354.257	146.95833
2356.753	141.625
2359.247	151.625
2361.74	154.625
2364.231	154.29167
2366.721	162.95833
2369.209	151.95833
2371.695	156.625
2374.179	148.29167
2376.662	138.29167
2379.143	164.29167
2381.622	154.29167
2384.1	156.29167
2386.576	153.29167
2389.051	161.29167
2391.524	163.625
2393.995	158.625
2396.464	148.95833
2398.932	148.95833
2401.398	157.29167
2403.863	145.95833
2406.325	144.95833
2408.787	157.29167
2411.246	150.29167
2413.704	144.29167
2416.16	144.29167
2418.615	148.95833
2421.068	149.625
2423.519	142.29167
2425.969	133.29167
2428.417	158.95833
2430.863	169.625
2433.308	155.625
2435.751	146.29167
2438.193	142.625
2440.633	152.95833
2443.071	151.29167
2445.508	136.29167
2447.943	142.95833
2450.376	136.29167
2452.808	142.29167
2455.238	130.625
2457.667	160.29167
2460.093	134.29167
2462.519	133.625
2464.942	131.95833
2467.365	143.625
2469.785	143.625
2472.204	133.29167
2474.621	131.95833
2477.037	155.625
2479.451	129.625
2481.863	131.625
2484.274	132.625
2486.683	133.29167
2489.091	145.95833
2491.497	143.29167
2493.901	141.625
2496.304	129.625
2498.705	143.95833
2501.105	136.95833
2503.503	154.29167
2505.899	129.625
2508.294	147.95833
2510.687	132.95833
2513.079	136.29167
2515.469	128.29167
2517.858	132.625
2520.245	148.29167
2522.63	129.29167
2525.014	128.95833
2527.396	127.29167
2529.776	128.95833
2532.156	136.625
2534.533	127.29167
2536.909	121.29167
2539.283	117.625
2541.656	124.95833
2544.027	140.29167
2546.397	133.625
2548.765	130.29167
2551.131	131.625
2553.496	131.95833
2555.86	137.625
2558.221	139.29167
2560.582	121.625
2562.94	118.625
2565.298	129.29167
2567.653	136.625
2570.007	117.95833
2572.36	129.95833
2574.711	118.625
2577.06	144.95833
2579.408	131.29167
2581.754	123.29167
2584.099	125.625
2586.442	124.95833
2588.784	130.29167
2591.124	131.29167
2593.463	122.625
2595.8	123.625
2598.135	110.625
2600.469	117.29167
2602.802	133.95833
2605.133	138.625
2607.462	118.625
2609.79	111.29167
2612.116	128.625
2614.441	120.29167
2616.764	126.29167
2619.086	120.29167
2621.406	121.95833
2623.725	132.29167
2626.042	119.29167
2628.358	119.625
2630.672	127.625
2632.985	132.29167
2635.296	117.625
2637.606	121.95833
2639.914	114.625
2642.22	122.29167
2644.525	119.29167
2646.829	121.29167
2649.131	134.95833
2651.432	127.95833
2653.731	109.625
2656.028	134.95833
2658.324	124.29167
2660.619	107.95833
2662.912	132.625
2665.204	111.625
2667.494	123.29167
2669.782	109.95833
2672.07	131.29167
2674.355	130.625
2676.639	127.625
2678.922	115.95833
2681.203	125.95833
2683.483	117.95833
2685.761	110.625
2688.038	126.29167
2690.313	137.95833
2692.587	124.625
2694.859	121.29167
2697.13	123.625
2699.399	124.95833
2701.667	129.29167
2703.933	128.29167
2706.198	134.95833
2708.461	131.29167
2710.723	135.625
2712.984	125.625
2715.243	137.29167
2717.5	127.95833
2719.757	136.625
2722.011	123.95833
2724.264	131.95833
2726.516	138.29167
2728.766	122.625
2731.015	130.625
2733.262	127.29167
2735.508	121.625
2737.753	130.625
2739.996	118.95833
2742.237	110.625
2744.477	130.95833
2746.716	135.95833
2748.953	133.29167
2751.189	129.95833
2753.423	128.29167
2755.656	119.625
2757.887	113.625
2760.117	119.95833
2762.346	115.625
2764.573	109.95833
2766.798	114.625
2769.022	114.29167
2771.245	113.95833
2773.467	119.95833
2775.686	113.625
2777.905	122.29167
2780.122	116.95833
2782.337	124.625
2784.552	115.95833
2786.764	115.95833
2788.976	117.29167
2791.186	121.625
2793.394	118.95833
2795.601	128.29167
2797.807	130.95833
2800.011	125.95833
2802.214	128.29167
2804.415	127.29167
2806.615	123.29167
2808.814	129.95833
2811.011	135.625
2813.206	126.29167
2815.401	140.625
2817.594	140.29167
2819.785	144.29167
2821.975	123.625
2824.164	138.625
2826.351	130.625
2828.537	150.29167
2830.722	146.29167
2832.905	142.29167
2835.086	147.625
2837.267	166.625
2839.445	160.95833
2841.623	166.29167
2843.799	170.29167
2845.974	173.625
2848.147	174.625
2850.319	191.95833
2852.489	198.95833
2854.659	202.625
2856.826	197.625
2858.993	223.625
2861.158	198.29167
2863.321	208.625
2865.483	222.625
2867.644	211.625
2869.804	219.29167
2871.962	211.29167
2874.118	212.95833
2876.274	215.95833
2878.428	217.625
2880.58	217.95833
2882.731	204.29167
2884.881	212.625
2887.03	216.29167
2889.177	209.625
2891.322	222.29167
2893.467	209.95833
2895.61	204.29167
2897.751	225.29167
2899.892	214.625
2902.03	217.29167
2904.168	208.95833
2906.304	215.29167
2908.439	236.29167
2910.572	210.625
2912.704	223.625
2914.835	226.29167
2916.965	227.625
2919.093	241.625
2921.219	214.29167
2923.345	241.625
2925.469	225.29167
2927.591	222.29167
2929.712	212.29167
2931.832	218.29167
2933.951	211.29167
2936.068	206.29167
2938.184	198.95833
2940.299	194.29167
2942.412	197.29167
2944.524	170.625
2946.634	187.95833
2948.744	158.95833
2950.851	192.95833
2952.958	159.625
2955.063	174.29167
2957.167	161.95833
2959.269	145.625
2961.371	174.95833
2963.471	145.95833
2965.569	160.95833
2967.666	141.625
2969.762	141.625
2971.857	135.29167
2973.95	130.95833
2976.042	140.29167
2978.133	126.95833
2980.222	126.95833
2982.31	116.625
2984.396	106.29167
2986.482	106.95833
2988.566	114.29167
2990.648	112.29167
2992.73	117.29167
2994.81	104.625
2996.889	113.625
2998.966	104.95833
3001.042	120.95833
3003.117	103.625
3005.191	114.29167
3007.263	115.625
3009.334	108.625
3011.403	112.95833
3013.472	105.95833
3015.539	114.95833
3017.604	119.29167
3019.669	93.29167
3021.732	100.625
3023.794	104.625
3025.854	90.95833
3027.914	92.95833
3029.971	91.29167
3032.028	97.625
3034.083	105.625
3036.137	98.95833
3038.19	84.625
3040.242	82.29167
3042.292	85.625
3044.341	92.625
3046.388	106.95833
3048.435	84.29167
3050.48	100.625
3052.524	91.95833
3054.566	73.625
3056.607	86.95833
3058.647	85.29167
3060.686	76.625
3062.723	69.625
3064.759	73.95833
3066.794	-1.375
3068.828	0.625
3070.86	2.95833
