-0.839	144.16667
3.438	168.83333
7.711	69.83333
11.981	44.83333
16.247	35.16667
20.509	42.83333
24.768	35.5
29.024	46.83333
33.276	35.5
37.524	46.5
41.769	30.83333
46.01	28.83333
50.247	43.5
54.481	54.5
58.712	56.83333
62.939	37.5
67.162	56.83333
71.382	47.16667
75.599	37.5
79.812	46.5
84.021	64.16667
88.227	45.5
92.429	51.83333
96.628	38.16667
100.823	54.16667
105.015	55.5
109.204	53.83333
113.388	61.16667
117.57	45.83333
121.748	58.5
125.922	51.83333
130.093	64.16667
134.261	61.83333
138.425	53.5
142.585	85.16667
146.742	67.83333
150.896	80.16667
155.046	83.5
159.193	117.16667
163.336	171.83333
167.476	293.16667
171.613	525.5
175.746	870.16667
179.875	1257.5
184.002	1631.5
188.124	1934.83333
192.244	2043.83333
196.36	2052.16667
200.472	2010.5
204.581	1997.16667
208.687	1961.83333
212.79	1937.83333
216.889	2003.16667
220.984	2004.5
225.077	2016.5
229.165	2015.5
233.251	2030.83333
237.333	2043.5
241.412	2019.5
245.487	2010.16667
249.559	1968.16667
253.628	1997.16667
257.694	1933.83333
261.756	1960.83333
265.814	1917.5
269.87	1863.5
273.922	1814.5
277.97	1775.16667
282.016	1777.83333
286.058	1737.5
290.097	1747.83333
294.132	1778.5
298.164	1763.16667
302.193	1707.16667
306.219	1613.83333
310.241	1525.83333
314.26	1444.83333
318.276	1382.5
322.288	1357.5
326.297	1304.16667
330.303	1290.83333
334.305	1268.83333
338.305	1260.5
342.301	1256.16667
346.294	1250.16667
350.283	1246.83333
354.269	1225.83333
358.252	1239.5
362.232	1230.5
366.209	1229.83333
370.182	1230.16667
374.152	1224.5
378.119	1229.83333
382.083	1226.83333
386.043	1242.83333
390	1219.5
393.954	1243.16667
397.905	1223.5
401.852	1248.5
405.797	1220.16667
409.738	1228.16667
413.676	1224.16667
417.61	1240.83333
421.542	1236.16667
425.47	1219.83333
429.396	1199.5
433.318	1185.16667
437.236	1192.16667
441.152	1209.83333
445.065	1171.83333
448.974	1190.83333
452.88	1163.16667
456.783	1157.5
460.683	1173.16667
464.58	1191.5
468.473	1187.5
472.364	1190.16667
476.251	1173.16667
480.135	1185.5
484.016	1191.5
487.894	1200.5
491.769	1204.83333
495.641	1189.16667
499.509	1195.5
503.375	1205.83333
507.237	1185.5
511.096	1193.83333
514.952	1183.16667
518.805	1197.5
522.655	1188.16667
526.502	1179.16667
530.346	1179.83333
534.187	1199.83333
538.024	1180.5
541.859	1176.83333
545.69	1195.83333
549.519	1191.83333
553.344	1188.5
557.166	1159.83333
560.985	1157.16667
564.802	1150.5
568.615	1141.83333
572.425	1125.16667
576.232	1133.83333
580.036	1110.16667
583.836	1137.83333
587.634	1129.5
591.429	1124.5
595.221	1159.5
599.01	1143.5
602.796	1154.83333
606.578	1147.16667
610.358	1164.16667
614.135	1163.83333
617.909	1153.5
621.679	1135.16667
625.447	1133.83333
629.212	1133.16667
632.973	1147.16667
636.732	1143.16667
640.488	1146.5
644.241	1118.83333
647.991	1118.16667
651.737	1145.5
655.481	1098.16667
659.222	1118.5
662.96	1118.83333
666.695	1131.16667
670.427	1122.16667
674.156	1125.5
677.882	1112.83333
681.605	1126.16667
685.325	1108.16667
689.043	1124.16667
692.757	1102.16667
696.468	1104.5
700.177	1114.5
703.882	1090.5
707.585	1090.16667
711.284	1093.83333
714.981	1089.83333
718.675	1072.5
722.366	1087.83333
726.054	1071.16667
729.739	1082.83333
733.421	1082.5
737.1	1065.5
740.777	1082.83333
744.45	1087.83333
748.121	1081.5
751.789	1121.5
755.453	1095.5
759.115	1107.83333
762.774	1097.83333
766.431	1094.16667
770.084	1100.5
773.734	1096.83333
777.382	1113.16667
781.027	1112.83333
784.669	1105.16667
788.308	1101.5
791.944	1112.5
795.577	1130.83333
799.208	1137.5
802.835	1128.16667
806.46	1152.5
810.082	1146.16667
813.701	1144.83333
817.317	1159.5
820.931	1170.83333
824.542	1157.83333
828.149	1138.83333
831.754	1125.16667
835.357	1121.5
838.956	1124.16667
842.553	1104.5
846.146	1084.5
849.737	1077.16667
853.326	1110.83333
856.911	1070.5
860.493	1093.83333
864.073	1099.5
867.65	1123.83333
871.225	1134.16667
874.796	1112.5
878.365	1107.5
881.931	1118.5
885.494	1131.5
889.054	1124.5
892.612	1108.16667
896.166	1108.83333
899.719	1084.16667
903.268	1070.83333
906.814	1067.16667
910.358	1072.5
913.899	1046.5
917.438	1047.83333
920.973	1046.16667
924.506	1060.5
928.036	1083.83333
931.564	1086.16667
935.088	1110.5
938.61	1091.16667
942.129	1087.83333
945.646	1104.16667
949.16	1099.16667
952.671	1128.83333
956.179	1142.16667
959.685	1118.5
963.188	1141.5
966.688	1127.5
970.185	1087.16667
973.68	1069.16667
977.173	1066.5
980.662	1051.16667
984.149	1053.83333
987.633	1036.5
991.114	1069.5
994.593	1069.83333
998.069	1100.83333
1001.542	1117.5
1005.013	1110.16667
1008.481	1038.83333
1011.947	1035.5
1015.409	1024.5
1018.869	1023.5
1022.327	1021.16667
1025.782	994.16667
1029.234	1005.16667
1032.683	1001.16667
1036.13	969.83333
1039.574	932.5
1043.016	915.83333
1046.455	908.5
1049.891	897.83333
1053.325	898.5
1056.756	901.5
1060.184	905.83333
1063.61	890.5
1067.033	906.83333
1070.454	902.16667
1073.872	929.5
1077.287	888.83333
1080.7	898.16667
1084.11	901.5
1087.517	901.83333
1090.922	883.83333
1094.325	865.83333
1097.724	875.83333
1101.122	872.16667
1104.516	859.16667
1107.908	845.83333
1111.298	873.16667
1114.684	870.5
1118.069	873.5
1121.45	884.83333
1124.83	872.83333
1128.206	893.83333
1131.58	890.16667
1134.951	918.16667
1138.32	903.83333
1141.687	948.16667
1145.05	963.16667
1148.412	967.16667
1151.77	954.16667
1155.126	945.83333
1158.48	943.16667
1161.831	956.83333
1165.18	963.83333
1168.525	978.16667
1171.869	972.16667
1175.21	966.5
1178.548	985.5
1181.884	987.5
1185.217	997.16667
1188.548	1010.16667
1191.877	1019.83333
1195.202	1070.5
1198.526	1085.16667
1201.846	1086.16667
1205.165	1093.5
1208.48	1086.83333
1211.794	1082.5
1215.104	1088.5
1218.413	1079.5
1221.719	1064.83333
1225.022	1060.16667
1228.323	1037.83333
1231.621	1049.5
1234.917	1047.5
1238.21	1073.5
1241.501	1045.5
1244.79	1036.16667
1248.076	1008.5
1251.359	1033.83333
1254.64	1082.83333
1257.919	1049.16667
1261.195	1066.5
1264.468	1079.5
1267.74	1092.16667
1271.008	1085.83333
1274.275	1094.83333
1277.538	1086.16667
1280.8	1074.16667
1284.059	1062.83333
1287.315	1090.83333
1290.569	1077.16667
1293.821	1091.16667
1297.07	1106.5
1300.317	1103.83333
1303.562	1090.5
1306.803	1089.16667
1310.043	1085.16667
1313.28	1081.16667
1316.515	1088.83333
1319.747	1096.16667
1322.977	1079.83333
1326.204	1070.83333
1329.429	1065.16667
1332.652	1064.16667
1335.872	1062.83333
1339.09	1034.5
1342.306	1053.5
1345.519	1039.83333
1348.729	1037.83333
1351.938	1038.83333
1355.144	1030.16667
1358.347	1020.83333
1361.548	1029.83333
1364.747	1016.16667
1367.944	1012.5
1371.138	1004.83333
1374.329	996.16667
1377.518	986.16667
1380.705	1007.16667
1383.89	997.16667
1387.072	966.16667
1390.252	942.16667
1393.429	929.83333
1396.605	907.5
1399.777	866.83333
1402.948	869.83333
1406.116	853.16667
1409.282	855.16667
1412.445	853.16667
1415.606	854.83333
1418.765	868.83333
1421.921	879.16667
1425.075	898.83333
1428.227	895.5
1431.376	939.83333
1434.524	966.83333
1437.668	987.16667
1440.811	985.16667
1443.951	994.5
1447.089	1005.83333
1450.224	996.5
1453.357	1001.83333
1456.488	967.5
1459.617	984.5
1462.743	977.83333
1465.867	933.16667
1468.989	944.5
1472.108	930.83333
1475.225	905.83333
1478.34	898.5
1481.453	880.83333
1484.563	895.16667
1487.671	894.83333
1490.776	907.83333
1493.88	914.16667
1496.981	922.16667
1500.08	931.5
1503.176	933.83333
1506.271	946.5
1509.363	956.83333
1512.452	963.5
1515.54	971.83333
1518.625	982.16667
1521.708	1021.5
1524.789	1040.5
1527.867	1059.83333
1530.944	1118.16667
1534.018	1126.5
1537.089	1196.83333
1540.159	1184.83333
1543.226	1198.5
1546.291	1165.83333
1549.354	1149.5
1552.415	1123.83333
1555.473	1096.83333
1558.529	1072.83333
1561.583	1067.5
1564.634	1067.5
1567.684	1061.5
1570.731	1065.16667
1573.776	1064.83333
1576.819	1083.16667
1579.859	1082.16667
1582.898	1095.5
1585.934	1126.16667
1588.968	1129.5
1591.999	1095.83333
1595.029	1102.5
1598.056	1111.5
1601.081	1129.16667
1604.104	1114.16667
1607.125	1105.5
1610.144	1083.5
1613.16	1071.16667
1616.174	1060.5
1619.186	1040.83333
1622.196	1017.16667
1625.203	986.16667
1628.209	990.16667
1631.212	996.83333
1634.213	990.16667
1637.212	1008.83333
1640.209	1017.83333
1643.203	973.83333
1646.196	960.16667
1649.186	929.16667
1652.174	896.16667
1655.16	869.16667
1658.144	860.83333
1661.125	813.83333
1664.105	793.83333
1667.082	766.16667
1670.057	716.5
1673.03	675.16667
1676.001	650.83333
1678.97	611.16667
1681.937	589.5
1684.901	557.83333
1687.863	544.5
1690.824	522.5
1693.782	530.16667
1696.738	489.5
1699.692	490.83333
1702.643	471.83333
1705.593	489.16667
1708.54	476.5
1711.486	482.16667
1714.429	457.5
1717.37	474.16667
1720.309	459.83333
1723.246	463.16667
1726.181	435.83333
1729.113	441.16667
1732.044	455.5
1734.972	443.83333
1737.899	450.5
1740.823	459.83333
1743.745	469.16667
1746.665	432.83333
1749.583	421.5
1752.499	419.83333
1755.413	406.16667
1758.325	405.16667
1761.235	410.5
1764.142	395.83333
1767.048	389.5
1769.951	391.83333
1772.852	391.16667
1775.752	407.83333
1778.649	394.83333
1781.544	400.83333
1784.437	387.16667
1787.328	391.16667
1790.217	380.83333
1793.104	370.16667
1795.989	375.83333
1798.872	366.5
1801.753	381.16667
1804.631	378.83333
1807.508	385.5
1810.383	371.5
1813.255	374.83333
1816.126	363.16667
1818.994	369.16667
1821.861	371.16667
1824.725	370.5
1827.587	370.16667
1830.448	361.16667
1833.306	353.5
1836.162	368.16667
1839.017	352.5
1841.869	360.5
1844.719	350.83333
1847.567	343.5
1850.414	341.83333
1853.258	336.16667
1856.1	355.5
1858.94	363.5
1861.778	343.83333
1864.614	336.83333
1867.448	359.5
1870.28	336.16667
1873.111	361.5
1875.939	350.83333
1878.765	365.83333
1881.589	337.5
1884.411	346.16667
1887.231	353.83333
1890.049	343.16667
1892.865	343.5
1895.68	335.5
1898.492	341.83333
1901.302	330.16667
1904.11	325.16667
1906.916	341.16667
1909.721	320.83333
1912.523	338.5
1915.323	313.16667
1918.122	325.16667
1920.918	337.16667
1923.712	318.5
1926.505	329.5
1929.295	309.5
1932.084	321.83333
1934.87	325.83333
1937.655	316.16667
1940.438	308.5
1943.218	316.83333
1945.997	319.16667
1948.774	325.16667
1951.549	326.16667
1954.322	316.16667
1957.093	315.83333
1959.862	305.83333
1962.629	305.16667
1965.394	301.83333
1968.157	292.83333
1970.918	311.83333
1973.678	300.83333
1976.435	316.83333
1979.19	299.5
1981.944	292.5
1984.696	299.83333
1987.445	295.16667
1990.193	290.5
1992.939	305.5
1995.683	295.5
1998.425	279.16667
2001.165	317.5
2003.903	288.16667
2006.639	292.83333
2009.374	299.83333
2012.106	291.16667
2014.837	265.5
2017.566	300.16667
2020.292	296.83333
2023.017	281.83333
2025.74	280.5
2028.461	277.83333
2031.18	281.16667
2033.898	280.83333
2036.613	278.83333
2039.327	287.83333
2042.038	273.83333
2044.748	281.5
2047.456	285.83333
2050.162	273.83333
2052.866	267.83333
2055.568	281.83333
2058.268	268.83333
2060.967	282.83333
2063.663	265.16667
2066.358	268.5
2069.051	267.83333
2071.742	268.5
2074.431	283.83333
2077.118	264.5
2079.804	251.16667
2082.487	267.5
2085.169	278.83333
2087.849	286.5
2090.527	258.16667
2093.203	270.83333
2095.877	267.5
2098.55	268.83333
2101.22	274.83333
2103.889	281.5
2106.556	265.16667
2109.221	285.16667
2111.884	278.5
2114.546	302.83333
2117.205	316.16667
2119.863	333.83333
2122.519	325.5
2125.173	360.5
2127.825	381.5
2130.475	387.83333
2133.124	365.5
2135.771	355.83333
2138.416	363.16667
2141.059	337.5
2143.7	337.16667
2146.339	306.83333
2148.977	273.5
2151.613	297.5
2154.247	289.5
2156.879	282.16667
2159.51	271.5
2162.138	263.83333
2164.765	264.83333
2167.39	256.16667
2170.013	280.5
2172.634	268.83333
2175.254	256.83333
2177.872	291.5
2180.488	249.16667
2183.102	253.83333
2185.714	244.83333
2188.325	229.5
2190.934	248.83333
2193.541	244.5
2196.146	243.83333
2198.75	232.5
2201.351	232.83333
2203.951	220.5
2206.549	242.5
2209.146	225.16667
2211.74	225.83333
2214.333	233.5
2216.924	221.83333
2219.514	226.16667
2222.101	222.83333
2224.687	243.16667
2227.271	213.83333
2229.853	223.16667
2232.433	201.83333
2235.012	228.16667
2237.589	220.83333
2240.164	241.83333
2242.738	217.16667
2245.309	206.16667
2247.879	228.5
2250.448	219.5
2253.014	208.5
2255.579	197.5
2258.142	208.83333
2260.703	205.83333
2263.262	204.16667
2265.82	196.83333
2268.376	213.5
2270.93	200.83333
2273.483	191.5
2276.033	207.5
2278.583	198.83333
2281.13	195.16667
2283.675	186.83333
2286.219	195.83333
2288.761	206.5
2291.302	207.16667
2293.841	213.16667
2296.377	187.5
2298.913	205.16667
2301.446	211.5
2303.978	199.16667
2306.508	200.83333
2309.037	198.5
2311.563	197.5
2314.088	197.5
2316.612	187.83333
2319.133	196.16667
2321.653	200.83333
2324.171	190.16667
2326.688	200.16667
2329.202	193.5
2331.715	190.16667
2334.227	186.83333
2336.736	185.5
2339.244	181.83333
2341.751	174.16667
2344.255	188.83333
2346.758	183.16667
2349.259	173.83333
2351.759	186.16667
2354.257	176.83333
2356.753	171.83333
2359.247	173.83333
2361.74	180.16667
2364.231	176.16667
2366.721	182.83333
2369.209	167.83333
2371.695	177.83333
2374.179	171.83333
2376.662	162.5
2379.143	185.83333
2381.622	173.16667
2384.1	178.5
2386.576	167.83333
2389.051	184.5
2391.524	183.5
2393.995	177.16667
2396.464	172.83333
2398.932	166.5
2401.398	177.16667
2403.863	169.5
2406.325	171.16667
2408.787	175.5
2411.246	169.16667
2413.704	173.16667
2416.16	167.5
2418.615	168.5
2421.068	169.83333
2423.519	165.5
2425.969	156.5
2428.417	178.16667
2430.863	184.5
2433.308	174.16667
2435.751	170.5
2438.193	163.83333
2440.633	172.5
2443.071	176.83333
2445.508	162.83333
2447.943	166.5
2450.376	165.5
2452.808	170.83333
2455.238	157.5
2457.667	188.83333
2460.093	157.16667
2462.519	150.5
2464.942	153.83333
2467.365	166.5
2469.785	163.5
2472.204	156.83333
2474.621	160.83333
2477.037	171.83333
2479.451	151.83333
2481.863	146.5
2484.274	159.83333
2486.683	156.5
2489.091	163.83333
2491.497	164.5
2493.901	157.5
2496.304	154.16667
2498.705	167.16667
2501.105	157.5
2503.503	175.83333
2505.899	152.16667
2508.294	174.16667
2510.687	147.5
2513.079	154.5
2515.469	145.16667
2517.858	149.5
2520.245	164.16667
2522.63	150.16667
2525.014	143.5
2527.396	151.5
2529.776	155.16667
2532.156	155.83333
2534.533	144.83333
2536.909	140.83333
2539.283	135.16667
2541.656	138.83333
2544.027	162.5
2546.397	154.16667
2548.765	145.5
2551.131	142.5
2553.496	157.5
2555.86	152.16667
2558.221	153.83333
2560.582	141.16667
2562.94	137.83333
2565.298	142.16667
2567.653	158.5
2570.007	132.83333
2572.36	152.83333
2574.711	139.5
2577.06	157.5
2579.408	147.83333
2581.754	139.16667
2584.099	143.16667
2586.442	141.16667
2588.784	149.16667
2591.124	147.5
2593.463	140.5
2595.8	150.16667
2598.135	133.5
2600.469	132.5
2602.802	145.5
2605.133	150.5
2607.462	131.5
2609.79	132.16667
2612.116	149.5
2614.441	131.16667
2616.764	144.16667
2619.086	137.5
2621.406	132.83333
2623.725	149.5
2626.042	141.5
2628.358	128.83333
2630.672	139.5
2632.985	146.5
2635.296	142.5
2637.606	134.16667
2639.914	132.5
2642.22	133.83333
2644.525	140.5
2646.829	134.5
2649.131	148.83333
2651.432	136.83333
2653.731	133.5
2656.028	147.5
2658.324	139.5
2660.619	131.5
2662.912	145.16667
2665.204	126.5
2667.494	141.5
2669.782	129.16667
2672.07	146.16667
2674.355	150.16667
2676.639	137.5
2678.922	130.5
2681.203	142.5
2683.483	133.83333
2685.761	127.5
2688.038	144.83333
2690.313	152.5
2692.587	138.16667
2694.859	134.16667
2697.13	133.83333
2699.399	140.83333
2701.667	142.83333
2703.933	143.16667
2706.198	147.16667
2708.461	144.5
2710.723	145.16667
2712.984	148.83333
2715.243	154.16667
2717.5	139.16667
2719.757	147.16667
2722.011	139.83333
2724.264	151.16667
2726.516	153.16667
2728.766	129.16667
2731.015	145.5
2733.262	140.83333
2735.508	137.83333
2737.753	143.5
2739.996	127.5
2742.237	127.83333
2744.477	145.5
2746.716	152.16667
2748.953	143.83333
2751.189	143.16667
2753.423	140.83333
2755.656	133.5
2757.887	126.16667
2760.117	136.83333
2762.346	128.5
2764.573	118.5
2766.798	127.83333
2769.022	129.83333
2771.245	127.16667
2773.467	129.83333
2775.686	128.5
2777.905	134.5
2780.122	133.16667
2782.337	142.16667
2784.552	130.83333
2786.764	134.16667
2788.976	123.83333
2791.186	134.16667
2793.394	131.83333
2795.601	146.5
2797.807	143.16667
2800.011	137.5
2802.214	154.5
2804.415	140.5
2806.615	140.83333
2808.814	143.16667
2811.011	143.83333
2813.206	147.83333
2815.401	153.16667
2817.594	153.83333
2819.785	159.5
2821.975	143.83333
2824.164	149.16667
2826.351	148.83333
2828.537	161.16667
2830.722	160.16667
2832.905	159.5
2835.086	156.83333
2837.267	180.83333
2839.445	177.83333
2841.623	178.16667
2843.799	177.16667
2845.974	184.16667
2848.147	186.5
2850.319	198.83333
2852.489	209.16667
2854.659	207.5
2856.826	210.5
2858.993	229.83333
2861.158	202.16667
2863.321	210.16667
2865.483	232.5
2867.644	217.5
2869.804	217.16667
2871.962	211.83333
2874.118	230.5
2876.274	220.5
2878.428	220.16667
2880.58	224.16667
2882.731	213.16667
2884.881	218.5
2887.03	225.16667
2889.177	228.5
2891.322	232.16667
2893.467	218.5
2895.61	218.5
2897.751	236.5
2899.892	221.83333
2902.03	224.5
2904.168	227.83333
2906.304	223.83333
2908.439	242.83333
2910.572	218.83333
2912.704	232.83333
2914.835	239.83333
2916.965	235.5
2919.093	248.16667
2921.219	216.5
2923.345	245.83333
2925.469	231.83333
2927.591	225.5
2929.712	208.16667
2931.832	230.5
2933.951	215.83333
2936.068	214.16667
2938.184	209.5
2940.299	200.83333
2942.412	200.16667
2944.524	185.5
2946.634	193.16667
2948.744	168.83333
2950.851	199.16667
2952.958	171.16667
2955.063	176.83333
2957.167	170.83333
2959.269	156.83333
2961.371	186.83333
2963.471	154.16667
2965.569	175.83333
2967.666	147.83333
2969.762	143.5
2971.857	143.5
2973.95	143.5
2976.042	146.16667
2978.133	137.83333
2980.222	135.5
2982.31	119.83333
2984.396	112.16667
2986.482	126.5
2988.566	128.5
2990.648	122.5
2992.73	122.5
2994.81	110.16667
2996.889	126.83333
2998.966	120.83333
3001.042	133.16667
3003.117	115.83333
3005.191	117.5
3007.263	120.5
3009.334	119.83333
3011.403	121.5
3013.472	114.16667
3015.539	128.83333
3017.604	137.16667
3019.669	103.5
3021.732	109.5
3023.794	111.16667
3025.854	105.16667
3027.914	104.5
3029.971	101.16667
3032.028	102.83333
3034.083	113.83333
3036.137	111.16667
3038.19	99.16667
3040.242	92.5
3042.292	91.83333
3044.341	99.16667
3046.388	113.83333
3048.435	90.16667
3050.48	113.83333
3052.524	96.16667
3054.566	86.83333
3056.607	103.16667
3058.647	90.83333
3060.686	81.16667
3062.723	78.16667
3064.759	77.83333
3066.794	1.83333
3068.828	-1.16667
3070.86	2.16667
