-0.839	132.625
3.438	152.95833
7.711	61.29167
11.981	42.95833
16.247	29.29167
20.509	34.95833
24.768	34.29167
29.024	39.29167
33.276	29.625
37.524	41.625
41.769	30.95833
46.01	27.625
50.247	41.29167
54.481	47.95833
58.712	50.29167
62.939	36.625
67.162	53.625
71.382	45.29167
75.599	35.625
79.812	42.29167
84.021	63.29167
88.227	39.625
92.429	48.95833
96.628	37.29167
100.823	50.625
105.015	49.29167
109.204	45.625
113.388	57.95833
117.57	41.625
121.748	55.29167
125.922	47.95833
130.093	65.95833
134.261	61.625
138.425	50.95833
142.585	80.29167
146.742	63.625
150.896	77.29167
155.046	68.625
159.193	104.29167
163.336	147.95833
167.476	251.29167
171.613	459.95833
175.746	725.95833
179.875	1047.95833
184.002	1375.95833
188.124	1606.625
192.244	1687.95833
196.36	1708.29167
200.472	1688.29167
204.581	1657.95833
208.687	1599.29167
212.79	1599.95833
216.889	1647.625
220.984	1657.29167
225.077	1658.29167
229.165	1662.95833
233.251	1676.95833
237.333	1686.29167
241.412	1658.29167
245.487	1653.95833
249.559	1637.95833
253.628	1635.95833
257.694	1613.625
261.756	1603.29167
265.814	1592.95833
269.87	1539.625
273.922	1482.625
277.97	1461.95833
282.016	1459.29167
286.058	1433.95833
290.097	1471.95833
294.132	1481.29167
298.164	1471.625
302.193	1431.625
306.219	1331.95833
310.241	1249.29167
314.26	1172.29167
318.276	1110.625
322.288	1085.625
326.297	1052.625
330.303	1026.95833
334.305	1012.625
338.305	999.29167
342.301	998.625
346.294	1002.29167
350.283	990.29167
354.269	987.95833
358.252	978.625
362.232	983.29167
366.209	972.625
370.182	970.29167
374.152	961.29167
378.119	970.29167
382.083	951.625
386.043	988.95833
390	955.29167
393.954	978.625
397.905	966.625
401.852	983.29167
405.797	971.29167
409.738	964.625
413.676	985.95833
417.61	978.95833
421.542	965.625
425.47	947.29167
429.396	940.95833
433.318	936.29167
437.236	944.625
441.152	972.95833
445.065	923.29167
448.974	939.95833
452.88	922.29167
456.783	920.95833
460.683	910.95833
464.58	931.29167
468.473	933.95833
472.364	926.95833
476.251	931.625
480.135	926.625
484.016	949.95833
487.894	953.625
491.769	954.95833
495.641	951.29167
499.509	955.29167
503.375	949.29167
507.237	932.95833
511.096	945.29167
514.952	955.29167
518.805	957.29167
522.655	962.625
526.502	961.95833
530.346	944.95833
534.187	959.625
538.024	950.625
541.859	935.95833
545.69	958.29167
549.519	953.95833
553.344	950.29167
557.166	924.29167
560.985	931.625
564.802	927.625
568.615	909.625
572.425	891.95833
576.232	884.29167
580.036	904.29167
583.836	907.625
587.634	919.29167
591.429	895.29167
595.221	929.625
599.01	929.625
602.796	925.625
606.578	926.625
610.358	916.95833
614.135	922.625
617.909	937.95833
621.679	926.29167
625.447	902.29167
629.212	904.625
632.973	903.625
636.732	914.95833
640.488	903.625
644.241	886.29167
647.991	896.625
651.737	915.625
655.481	885.95833
659.222	894.625
662.96	887.29167
666.695	896.625
670.427	905.29167
674.156	909.625
677.882	899.95833
681.605	902.29167
685.325	890.95833
689.043	918.29167
692.757	881.95833
696.468	887.625
700.177	893.625
703.882	866.29167
707.585	861.95833
711.284	874.625
714.981	849.29167
718.675	866.625
722.366	889.29167
726.054	873.625
729.739	877.95833
733.421	863.625
737.1	862.625
740.777	874.95833
744.45	866.625
748.121	871.29167
751.789	903.29167
755.453	894.29167
759.115	899.625
762.774	890.95833
766.431	889.625
770.084	902.625
773.734	881.95833
777.382	912.625
781.027	900.29167
784.669	895.29167
788.308	894.29167
791.944	931.625
795.577	925.29167
799.208	908.95833
802.835	917.29167
806.46	932.95833
810.082	931.95833
813.701	915.29167
817.317	940.95833
820.931	950.29167
824.542	950.29167
828.149	925.29167
831.754	910.625
835.357	908.95833
838.956	925.29167
842.553	917.95833
846.146	895.29167
849.737	885.625
853.326	894.95833
856.911	877.95833
860.493	897.625
864.073	907.29167
867.65	922.95833
871.225	940.29167
874.796	910.625
878.365	913.625
881.931	928.95833
885.494	930.29167
889.054	912.95833
892.612	927.29167
896.166	902.95833
899.719	882.625
903.268	868.625
906.814	883.625
910.358	873.625
913.899	872.95833
917.438	878.95833
920.973	847.625
924.506	865.625
928.036	898.95833
931.564	891.95833
935.088	906.625
938.61	900.625
942.129	901.625
945.646	895.95833
949.16	919.29167
952.671	925.95833
956.179	934.29167
959.685	928.625
963.188	941.625
966.688	923.625
970.185	887.625
973.68	883.29167
977.173	882.29167
980.662	859.95833
984.149	867.625
987.633	848.625
991.114	853.625
994.593	870.29167
998.069	889.95833
1001.542	908.29167
1005.013	901.29167
1008.481	849.95833
1011.947	839.625
1015.409	826.29167
1018.869	845.95833
1022.327	840.29167
1025.782	812.625
1029.234	804.29167
1032.683	809.29167
1036.13	779.95833
1039.574	758.29167
1043.016	752.29167
1046.455	737.95833
1049.891	733.95833
1053.325	740.95833
1056.756	730.29167
1060.184	730.95833
1063.61	726.95833
1067.033	742.625
1070.454	731.29167
1073.872	759.625
1077.287	725.95833
1080.7	736.625
1084.11	734.29167
1087.517	726.95833
1090.922	737.625
1094.325	705.29167
1097.724	709.625
1101.122	711.625
1104.516	710.625
1107.908	695.625
1111.298	708.29167
1114.684	709.625
1118.069	713.625
1121.45	741.29167
1124.83	713.95833
1128.206	727.29167
1131.58	730.625
1134.951	754.625
1138.32	763.29167
1141.687	790.29167
1145.05	799.625
1148.412	799.625
1151.77	794.95833
1155.126	793.29167
1158.48	769.95833
1161.831	788.95833
1165.18	787.95833
1168.525	800.625
1171.869	805.95833
1175.21	797.29167
1178.548	816.29167
1181.884	822.29167
1185.217	824.625
1188.548	839.625
1191.877	860.29167
1195.202	905.95833
1198.526	916.625
1201.846	892.29167
1205.165	909.95833
1208.48	915.29167
1211.794	912.625
1215.104	908.625
1218.413	900.29167
1221.719	895.95833
1225.022	878.29167
1228.323	866.625
1231.621	879.29167
1234.917	875.95833
1238.21	900.95833
1241.501	872.29167
1244.79	849.29167
1248.076	841.95833
1251.359	867.625
1254.64	898.95833
1257.919	868.95833
1261.195	895.29167
1264.468	902.29167
1267.74	907.29167
1271.008	914.95833
1274.275	922.29167
1277.538	908.29167
1280.8	909.625
1284.059	902.95833
1287.315	911.625
1290.569	902.625
1293.821	920.95833
1297.07	921.95833
1300.317	929.625
1303.562	926.95833
1306.803	909.95833
1310.043	896.95833
1313.28	902.29167
1316.515	895.29167
1319.747	916.29167
1322.977	895.29167
1326.204	884.625
1329.429	868.95833
1332.652	888.95833
1335.872	874.95833
1339.09	862.95833
1342.306	870.625
1345.519	863.625
1348.729	854.29167
1351.938	859.95833
1355.144	844.29167
1358.347	828.95833
1361.548	825.95833
1364.747	834.29167
1367.944	821.95833
1371.138	842.625
1374.329	820.95833
1377.518	838.625
1380.705	843.95833
1383.89	829.29167
1387.072	804.95833
1390.252	780.95833
1393.429	758.29167
1396.605	749.95833
1399.777	710.29167
1402.948	717.29167
1406.116	711.29167
1409.282	705.29167
1412.445	702.29167
1415.606	714.625
1418.765	711.625
1421.921	726.29167
1425.075	732.625
1428.227	741.95833
1431.376	767.29167
1434.524	817.29167
1437.668	825.625
1440.811	816.625
1443.951	819.625
1447.089	830.95833
1450.224	825.29167
1453.357	825.95833
1456.488	820.95833
1459.617	806.29167
1462.743	818.29167
1465.867	775.625
1468.989	777.29167
1472.108	767.95833
1475.225	745.625
1478.34	743.29167
1481.453	753.29167
1484.563	733.625
1487.671	744.29167
1490.776	768.625
1493.88	758.29167
1496.981	778.95833
1500.08	783.95833
1503.176	778.95833
1506.271	794.625
1509.363	809.29167
1512.452	796.29167
1515.54	813.625
1518.625	821.29167
1521.708	852.95833
1524.789	868.95833
1527.867	882.625
1530.944	933.625
1534.018	954.29167
1537.089	1000.625
1540.159	994.95833
1543.226	1001.29167
1546.291	971.95833
1549.354	959.95833
1552.415	950.29167
1555.473	922.29167
1558.529	913.29167
1561.583	925.95833
1564.634	884.95833
1567.684	897.29167
1570.731	904.95833
1573.776	906.95833
1576.819	915.95833
1579.859	910.95833
1582.898	932.625
1585.934	955.625
1588.968	959.95833
1591.999	921.95833
1595.029	929.625
1598.056	942.95833
1601.081	956.625
1604.104	957.95833
1607.125	925.95833
1610.144	920.95833
1613.16	896.29167
1616.174	874.95833
1619.186	879.29167
1622.196	854.29167
1625.203	820.29167
1628.209	829.625
1631.212	818.625
1634.213	817.29167
1637.212	838.625
1640.209	828.625
1643.203	797.95833
1646.196	778.29167
1649.186	746.29167
1652.174	733.29167
1655.16	706.625
1658.144	700.29167
1661.125	663.95833
1664.105	647.29167
1667.082	614.95833
1670.057	575.29167
1673.03	554.625
1676.001	539.625
1678.97	491.625
1681.937	478.29167
1684.901	452.29167
1687.863	452.625
1690.824	425.625
1693.782	438.625
1696.738	410.625
1699.692	406.625
1702.643	391.29167
1705.593	393.29167
1708.54	386.29167
1711.486	398.29167
1714.429	366.29167
1717.37	382.95833
1720.309	374.95833
1723.246	376.29167
1726.181	364.29167
1729.113	365.95833
1732.044	370.625
1734.972	346.95833
1737.899	369.95833
1740.823	373.95833
1743.745	393.29167
1746.665	349.29167
1749.583	349.625
1752.499	343.29167
1755.413	344.29167
1758.325	331.29167
1761.235	336.625
1764.142	327.95833
1767.048	321.625
1769.951	321.95833
1772.852	314.95833
1775.752	334.95833
1778.649	321.29167
1781.544	335.625
1784.437	306.95833
1787.328	329.29167
1790.217	309.95833
1793.104	296.29167
1795.989	304.95833
1798.872	298.29167
1801.753	315.625
1804.631	305.95833
1807.508	306.95833
1810.383	303.29167
1813.255	306.29167
1816.126	300.95833
1818.994	300.625
1821.861	295.625
1824.725	299.625
1827.587	308.625
1830.448	294.625
1833.306	286.625
1836.162	310.625
1839.017	296.625
1841.869	293.625
1844.719	299.29167
1847.567	281.95833
1850.414	267.95833
1853.258	268.29167
1856.1	287.95833
1858.94	303.29167
1861.778	283.625
1864.614	274.95833
1867.448	287.625
1870.28	269.95833
1873.111	298.625
1875.939	277.29167
1878.765	299.29167
1881.589	275.95833
1884.411	277.625
1887.231	280.29167
1890.049	270.95833
1892.865	282.29167
1895.68	270.29167
1898.492	280.29167
1901.302	276.625
1904.11	278.29167
1906.916	270.625
1909.721	265.29167
1912.523	277.29167
1915.323	268.95833
1918.122	258.95833
1920.918	273.29167
1923.712	261.95833
1926.505	264.29167
1929.295	249.625
1932.084	260.625
1934.87	270.95833
1937.655	257.95833
1940.438	247.95833
1943.218	261.29167
1945.997	261.95833
1948.774	268.625
1951.549	268.29167
1954.322	253.95833
1957.093	256.29167
1959.862	248.95833
1962.629	254.95833
1965.394	253.29167
1968.157	246.625
1970.918	259.625
1973.678	245.95833
1976.435	257.625
1979.19	253.95833
1981.944	236.95833
1984.696	237.29167
1987.445	241.29167
1990.193	252.29167
1992.939	252.95833
1995.683	248.29167
1998.425	234.95833
2001.165	263.625
2003.903	228.95833
2006.639	242.95833
2009.374	247.29167
2012.106	242.29167
2014.837	224.625
2017.566	248.95833
2020.292	236.625
2023.017	231.95833
2025.74	231.95833
2028.461	225.625
2031.18	235.95833
2033.898	227.29167
2036.613	235.29167
2039.327	239.625
2042.038	223.29167
2044.748	230.625
2047.456	234.29167
2050.162	219.29167
2052.866	227.95833
2055.568	236.29167
2058.268	224.29167
2060.967	234.95833
2063.663	220.625
2066.358	215.29167
2069.051	210.29167
2071.742	228.95833
2074.431	230.29167
2077.118	222.29167
2079.804	214.29167
2082.487	215.625
2085.169	230.95833
2087.849	239.29167
2090.527	212.29167
2093.203	219.95833
2095.877	227.625
2098.55	223.29167
2101.22	222.95833
2103.889	234.95833
2106.556	221.625
2109.221	241.95833
2111.884	228.95833
2114.546	245.625
2117.205	246.625
2119.863	278.29167
2122.519	264.625
2125.173	276.625
2127.825	314.625
2130.475	305.95833
2133.124	298.29167
2135.771	283.625
2138.416	293.625
2141.059	267.29167
2143.7	274.95833
2146.339	239.95833
2148.977	231.95833
2151.613	239.95833
2154.247	235.29167
2156.879	224.95833
2159.51	215.95833
2162.138	223.29167
2164.765	220.95833
2167.39	204.625
2170.013	226.29167
2172.634	223.29167
2175.254	211.95833
2177.872	243.29167
2180.488	195.29167
2183.102	204.95833
2185.714	208.95833
2188.325	196.625
2190.934	203.29167
2193.541	210.95833
2196.146	200.29167
2198.75	193.29167
2201.351	193.625
2203.951	177.95833
2206.549	203.29167
2209.146	192.625
2211.74	182.29167
2214.333	195.29167
2216.924	176.29167
2219.514	188.95833
2222.101	188.29167
2224.687	203.95833
2227.271	176.95833
2229.853	178.29167
2232.433	167.95833
2235.012	190.29167
2237.589	184.95833
2240.164	195.29167
2242.738	180.625
2245.309	169.625
2247.879	192.95833
2250.448	192.95833
2253.014	174.95833
2255.579	163.95833
2258.142	175.29167
2260.703	177.95833
2263.262	170.95833
2265.82	161.95833
2268.376	176.625
2270.93	171.29167
2273.483	161.95833
2276.033	183.625
2278.583	168.95833
2281.13	165.625
2283.675	155.29167
2286.219	170.625
2288.761	174.29167
2291.302	174.625
2293.841	179.625
2296.377	157.95833
2298.913	170.95833
2301.446	180.95833
2303.978	164.625
2306.508	161.625
2309.037	168.29167
2311.563	165.95833
2314.088	165.29167
2316.612	150.29167
2319.133	162.95833
2321.653	167.625
2324.171	159.29167
2326.688	174.95833
2329.202	166.625
2331.715	161.625
2334.227	166.29167
2336.736	158.625
2339.244	158.95833
2341.751	150.95833
2344.255	164.625
2346.758	161.95833
2349.259	145.95833
2351.759	163.625
2354.257	150.29167
2356.753	146.625
2359.247	153.625
2361.74	151.29167
2364.231	156.95833
2366.721	161.95833
2369.209	152.95833
2371.695	152.95833
2374.179	150.625
2376.662	138.95833
2379.143	162.29167
2381.622	146.29167
2384.1	160.95833
2386.576	155.625
2389.051	158.29167
2391.524	163.625
2393.995	153.29167
2396.464	148.625
2398.932	147.29167
2401.398	146.625
2403.863	143.625
2406.325	143.625
2408.787	156.29167
2411.246	152.29167
2413.704	145.95833
2416.16	141.95833
2418.615	147.29167
2421.068	145.95833
2423.519	140.29167
2425.969	141.29167
2428.417	160.29167
2430.863	162.95833
2433.308	151.29167
2435.751	151.29167
2438.193	145.625
2440.633	148.29167
2443.071	156.29167
2445.508	140.29167
2447.943	142.95833
2450.376	138.95833
2452.808	150.625
2455.238	136.29167
2457.667	165.95833
2460.093	133.29167
2462.519	132.29167
2464.942	130.95833
2467.365	140.625
2469.785	140.29167
2472.204	135.29167
2474.621	135.29167
2477.037	156.29167
2479.451	131.625
2481.863	130.95833
2484.274	133.95833
2486.683	139.625
2489.091	156.625
2491.497	138.29167
2493.901	145.95833
2496.304	135.29167
2498.705	145.625
2501.105	142.95833
2503.503	160.625
2505.899	129.95833
2508.294	150.29167
2510.687	130.95833
2513.079	138.29167
2515.469	128.29167
2517.858	134.29167
2520.245	144.625
2522.63	136.95833
2525.014	129.29167
2527.396	127.625
2529.776	131.95833
2532.156	140.29167
2534.533	127.29167
2536.909	128.29167
2539.283	117.29167
2541.656	129.625
2544.027	143.29167
2546.397	136.29167
2548.765	132.95833
2551.131	131.29167
2553.496	130.95833
2555.86	135.95833
2558.221	138.625
2560.582	125.625
2562.94	118.29167
2565.298	132.625
2567.653	140.29167
2570.007	120.29167
2572.36	139.625
2574.711	122.29167
2577.06	141.29167
2579.408	137.625
2581.754	120.95833
2584.099	127.29167
2586.442	129.625
2588.784	132.29167
2591.124	128.95833
2593.463	128.625
2595.8	130.29167
2598.135	110.29167
2600.469	123.95833
2602.802	139.95833
2605.133	141.625
2607.462	121.625
2609.79	118.29167
2612.116	138.95833
2614.441	124.625
2616.764	133.625
2619.086	129.95833
2621.406	122.625
2623.725	134.95833
2626.042	128.29167
2628.358	122.625
2630.672	124.29167
2632.985	134.29167
2635.296	131.625
2637.606	121.95833
2639.914	119.29167
2642.22	123.625
2644.525	125.29167
2646.829	126.625
2649.131	144.95833
2651.432	133.29167
2653.731	127.625
2656.028	137.29167
2658.324	132.29167
2660.619	118.95833
2662.912	136.29167
2665.204	117.29167
2667.494	132.625
2669.782	119.95833
2672.07	135.625
2674.355	138.29167
2676.639	131.29167
2678.922	130.29167
2681.203	134.29167
2683.483	124.95833
2685.761	115.625
2688.038	133.95833
2690.313	144.95833
2692.587	125.625
2694.859	122.29167
2697.13	126.625
2699.399	134.29167
2701.667	136.29167
2703.933	134.95833
2706.198	140.625
2708.461	140.95833
2710.723	138.625
2712.984	131.95833
2715.243	139.625
2717.5	129.625
2719.757	138.625
2722.011	131.29167
2724.264	139.95833
2726.516	146.625
2728.766	127.29167
2731.015	131.95833
2733.262	125.29167
2735.508	130.29167
2737.753	141.95833
2739.996	117.625
2742.237	120.29167
2744.477	134.95833
2746.716	143.625
2748.953	142.29167
2751.189	142.29167
2753.423	135.95833
2755.656	126.625
2757.887	125.29167
2760.117	128.95833
2762.346	117.625
2764.573	114.625
2766.798	125.29167
2769.022	125.29167
2771.245	118.29167
2773.467	127.625
2775.686	122.29167
2777.905	130.625
2780.122	129.625
2782.337	131.29167
2784.552	127.625
2786.764	132.625
2788.976	123.29167
2791.186	133.29167
2793.394	131.95833
2795.601	134.625
2797.807	137.95833
2800.011	134.625
2802.214	139.29167
2804.415	128.95833
2806.615	135.29167
2808.814	140.29167
2811.011	140.29167
2813.206	139.95833
2815.401	153.625
2817.594	152.625
2819.785	150.625
2821.975	128.625
2824.164	142.95833
2826.351	141.625
2828.537	157.95833
2830.722	150.95833
2832.905	149.95833
2835.086	156.29167
2837.267	173.95833
2839.445	165.625
2841.623	161.29167
2843.799	165.29167
2845.974	174.29167
2848.147	180.95833
2850.319	184.625
2852.489	194.29167
2854.659	195.29167
2856.826	192.625
2858.993	210.29167
2861.158	192.625
2863.321	196.29167
2865.483	217.625
2867.644	210.29167
2869.804	207.29167
2871.962	202.95833
2874.118	207.29167
2876.274	210.29167
2878.428	204.625
2880.58	209.625
2882.731	191.95833
2884.881	198.95833
2887.03	211.625
2889.177	204.95833
2891.322	213.29167
2893.467	205.625
2895.61	201.95833
2897.751	219.29167
2899.892	203.625
2902.03	213.95833
2904.168	205.29167
2906.304	210.29167
2908.439	228.29167
2910.572	207.95833
2912.704	214.625
2914.835	219.29167
2916.965	216.625
2919.093	230.625
2921.219	204.29167
2923.345	234.29167
2925.469	210.29167
2927.591	212.29167
2929.712	202.29167
2931.832	208.29167
2933.951	205.29167
2936.068	199.95833
2938.184	195.29167
2940.299	191.95833
2942.412	190.29167
2944.524	177.29167
2946.634	183.95833
2948.744	161.95833
2950.851	192.95833
2952.958	158.95833
2955.063	172.29167
2957.167	167.29167
2959.269	151.625
2961.371	174.29167
2963.471	152.95833
2965.569	167.95833
2967.666	136.29167
2969.762	147.29167
2971.857	140.29167
2973.95	136.29167
2976.042	146.29167
2978.133	142.95833
2980.222	137.29167
2982.31	129.625
2984.396	115.625
2986.482	126.29167
2988.566	128.95833
2990.648	125.29167
2992.73	124.95833
2994.81	111.95833
2996.889	130.625
2998.966	122.95833
3001.042	133.95833
3003.117	124.29167
3005.191	123.29167
3007.263	126.95833
3009.334	122.29167
3011.403	120.29167
3013.472	117.95833
3015.539	131.95833
3017.604	144.625
3019.669	110.95833
3021.732	114.625
3023.794	117.95833
3025.854	107.95833
3027.914	108.95833
3029.971	105.625
3032.028	113.29167
3034.083	120.625
3036.137	114.29167
3038.19	103.29167
3040.242	92.625
3042.292	97.95833
3044.341	105.95833
3046.388	117.625
3048.435	95.625
3050.48	113.625
3052.524	105.95833
3054.566	89.29167
3056.607	104.29167
3058.647	99.29167
3060.686	88.29167
3062.723	82.29167
3064.759	82.95833
3066.794	1.625
3068.828	0.29167
3070.86	2.29167
