-0.839	132.58333
3.438	146.58333
7.711	60.91667
11.981	43.25
16.247	34.58333
20.509	38.25
24.768	36.91667
29.024	43.91667
33.276	32.91667
37.524	40.58333
41.769	31.91667
46.01	29.25
50.247	43.91667
54.481	52.25
58.712	50.91667
62.939	37.25
67.162	54.25
71.382	45.25
75.599	36.58333
79.812	45.25
84.021	61.91667
88.227	38.58333
92.429	51.91667
96.628	34.58333
100.823	52.91667
105.015	51.91667
109.204	45.25
113.388	56.91667
117.57	43.25
121.748	62.25
125.922	47.25
130.093	60.91667
134.261	59.25
138.425	50.25
142.585	82.25
146.742	61.91667
150.896	76.58333
155.046	73.58333
159.193	102.58333
163.336	148.91667
167.476	252.25
171.613	442.58333
175.746	715.91667
179.875	1047.58333
184.002	1346.25
188.124	1587.58333
192.244	1669.91667
196.36	1686.91667
200.472	1668.25
204.581	1654.58333
208.687	1598.91667
212.79	1585.91667
216.889	1619.25
220.984	1635.58333
225.077	1631.58333
229.165	1642.58333
233.251	1652.91667
237.333	1647.25
241.412	1648.25
245.487	1639.58333
249.559	1605.25
253.628	1607.25
257.694	1567.91667
261.756	1591.25
265.814	1557.25
269.87	1519.91667
273.922	1477.91667
277.97	1468.91667
282.016	1450.91667
286.058	1415.58333
290.097	1447.25
294.132	1456.25
298.164	1457.25
302.193	1411.25
306.219	1317.91667
310.241	1245.58333
314.26	1142.91667
318.276	1095.25
322.288	1063.25
326.297	1051.58333
330.303	1018.58333
334.305	996.58333
338.305	990.58333
342.301	985.25
346.294	980.25
350.283	965.58333
354.269	961.91667
358.252	955.91667
362.232	969.91667
366.209	955.91667
370.182	946.58333
374.152	948.25
378.119	948.91667
382.083	945.91667
386.043	965.91667
390	956.91667
393.954	961.91667
397.905	938.25
401.852	977.25
405.797	947.91667
409.738	933.25
413.676	947.58333
417.61	973.91667
421.542	945.25
425.47	921.91667
429.396	926.25
433.318	912.58333
437.236	918.58333
441.152	961.58333
445.065	910.91667
448.974	908.58333
452.88	969.58333
456.783	931.25
460.683	897.58333
464.58	902.25
468.473	910.91667
472.364	911.91667
476.251	918.91667
480.135	906.58333
484.016	928.58333
487.894	931.91667
491.769	925.58333
495.641	930.91667
499.509	939.25
503.375	933.25
507.237	933.58333
511.096	933.58333
514.952	932.91667
518.805	937.91667
522.655	938.25
526.502	930.91667
530.346	927.58333
534.187	924.25
538.024	921.58333
541.859	924.58333
545.69	942.25
549.519	931.91667
553.344	925.58333
557.166	906.58333
560.985	905.58333
564.802	911.58333
568.615	893.91667
572.425	869.58333
576.232	869.25
580.036	865.25
583.836	889.91667
587.634	884.58333
591.429	882.91667
595.221	906.91667
599.01	898.25
602.796	913.58333
606.578	893.91667
610.358	905.91667
614.135	904.58333
617.909	899.91667
621.679	892.58333
625.447	891.25
629.212	885.25
632.973	893.91667
636.732	875.91667
640.488	895.25
644.241	877.25
647.991	870.25
651.737	907.25
655.481	865.58333
659.222	883.25
662.96	868.91667
666.695	882.25
670.427	883.58333
674.156	888.58333
677.882	882.58333
681.605	886.91667
685.325	877.25
689.043	891.58333
692.757	875.91667
696.468	863.25
700.177	861.58333
703.882	858.91667
707.585	855.58333
711.284	853.25
714.981	844.58333
718.675	843.58333
722.366	864.58333
726.054	836.25
729.739	845.91667
733.421	848.91667
737.1	846.58333
740.777	859.58333
744.45	853.58333
748.121	849.91667
751.789	885.58333
755.453	860.91667
759.115	873.25
762.774	871.58333
766.431	876.58333
770.084	880.91667
773.734	881.25
777.382	889.58333
781.027	904.58333
784.669	889.25
788.308	883.58333
791.944	900.91667
795.577	908.58333
799.208	907.91667
802.835	901.91667
806.46	913.58333
810.082	910.25
813.701	909.58333
817.317	919.91667
820.931	929.91667
824.542	925.91667
828.149	901.58333
831.754	898.58333
835.357	895.25
838.956	908.58333
842.553	900.58333
846.146	885.25
849.737	877.91667
853.326	887.25
856.911	865.25
860.493	880.25
864.073	880.25
867.65	896.58333
871.225	915.91667
874.796	899.25
878.365	879.25
881.931	907.91667
885.494	902.25
889.054	894.91667
892.612	902.25
896.166	889.91667
899.719	868.25
903.268	861.25
906.814	865.91667
910.358	852.58333
913.899	854.58333
917.438	859.91667
920.973	834.91667
924.506	848.25
928.036	869.25
931.564	881.25
935.088	889.25
938.61	874.25
942.129	870.25
945.646	892.58333
949.16	904.91667
952.671	910.91667
956.179	923.25
959.685	900.91667
963.188	930.25
966.688	922.58333
970.185	883.58333
973.68	851.58333
977.173	847.58333
980.662	843.91667
984.149	844.91667
987.633	828.25
991.114	838.91667
994.593	849.58333
998.069	879.25
1001.542	900.25
1005.013	899.25
1008.481	838.91667
1011.947	808.25
1015.409	816.58333
1018.869	827.58333
1022.327	835.91667
1025.782	800.91667
1029.234	785.25
1032.683	789.91667
1036.13	775.25
1039.574	742.25
1043.016	733.25
1046.455	734.25
1049.891	711.25
1053.325	730.58333
1056.756	729.58333
1060.184	728.25
1063.61	701.58333
1067.033	725.25
1070.454	713.91667
1073.872	738.91667
1077.287	722.25
1080.7	725.25
1084.11	717.58333
1087.517	712.91667
1090.922	711.25
1094.325	705.25
1097.724	684.58333
1101.122	702.58333
1104.516	696.25
1107.908	678.91667
1111.298	690.58333
1114.684	698.91667
1118.069	710.91667
1121.45	716.91667
1124.83	701.91667
1128.206	711.91667
1131.58	716.58333
1134.951	735.58333
1138.32	747.91667
1141.687	773.91667
1145.05	780.91667
1148.412	786.91667
1151.77	784.25
1155.126	763.58333
1158.48	767.58333
1161.831	788.25
1165.18	778.25
1168.525	801.25
1171.869	792.25
1175.21	796.58333
1178.548	812.58333
1181.884	808.91667
1185.217	809.58333
1188.548	841.91667
1191.877	836.91667
1195.202	874.58333
1198.526	909.91667
1201.846	895.91667
1205.165	885.25
1208.48	904.91667
1211.794	893.58333
1215.104	899.91667
1218.413	902.25
1221.719	885.91667
1225.022	873.91667
1228.323	870.91667
1231.621	873.58333
1234.917	855.91667
1238.21	883.58333
1241.501	863.91667
1244.79	845.58333
1248.076	845.25
1251.359	853.91667
1254.64	894.91667
1257.919	875.25
1261.195	877.58333
1264.468	883.25
1267.74	899.25
1271.008	893.25
1274.275	901.58333
1277.538	900.58333
1280.8	887.91667
1284.059	878.25
1287.315	903.25
1290.569	893.58333
1293.821	907.25
1297.07	907.91667
1300.317	911.91667
1303.562	911.91667
1306.803	903.91667
1310.043	893.25
1313.28	900.91667
1316.515	894.58333
1319.747	901.58333
1322.977	872.58333
1326.204	872.91667
1329.429	873.58333
1332.652	873.58333
1335.872	865.91667
1339.09	855.91667
1342.306	852.25
1345.519	842.58333
1348.729	830.91667
1351.938	844.25
1355.144	826.58333
1358.347	817.58333
1361.548	841.58333
1364.747	840.58333
1367.944	802.58333
1371.138	815.58333
1374.329	811.58333
1377.518	815.58333
1380.705	818.25
1383.89	813.58333
1387.072	794.25
1390.252	773.58333
1393.429	760.58333
1396.605	735.25
1399.777	702.91667
1402.948	689.91667
1406.116	679.25
1409.282	702.25
1412.445	685.91667
1415.606	702.58333
1418.765	706.58333
1421.921	718.25
1425.075	715.91667
1428.227	746.58333
1431.376	763.91667
1434.524	793.91667
1437.668	810.25
1440.811	816.58333
1443.951	813.25
1447.089	817.91667
1450.224	820.25
1453.357	816.25
1456.488	810.91667
1459.617	814.58333
1462.743	791.58333
1465.867	750.91667
1468.989	767.25
1472.108	763.91667
1475.225	739.58333
1478.34	716.58333
1481.453	727.25
1484.563	729.91667
1487.671	740.58333
1490.776	748.25
1493.88	758.58333
1496.981	763.91667
1500.08	762.25
1503.176	776.25
1506.271	775.25
1509.363	788.91667
1512.452	788.91667
1515.54	787.58333
1518.625	808.58333
1521.708	836.91667
1524.789	851.58333
1527.867	881.58333
1530.944	926.25
1534.018	926.91667
1537.089	974.91667
1540.159	1000.25
1543.226	978.91667
1546.291	967.91667
1549.354	961.91667
1552.415	947.25
1555.473	914.91667
1558.529	909.25
1561.583	910.58333
1564.634	871.25
1567.684	878.25
1570.731	880.58333
1573.776	898.91667
1576.819	919.58333
1579.859	903.91667
1582.898	918.91667
1585.934	934.91667
1588.968	937.58333
1591.999	925.58333
1595.029	920.25
1598.056	925.58333
1601.081	950.25
1604.104	947.91667
1607.125	931.91667
1610.144	910.58333
1613.16	871.58333
1616.174	873.58333
1619.186	860.25
1622.196	833.58333
1625.203	806.91667
1628.209	821.25
1631.212	814.25
1634.213	808.91667
1637.212	823.91667
1640.209	811.25
1643.203	789.25
1646.196	763.58333
1649.186	723.58333
1652.174	716.91667
1655.16	697.91667
1658.144	693.91667
1661.125	657.58333
1664.105	630.58333
1667.082	619.91667
1670.057	570.58333
1673.03	550.58333
1676.001	519.91667
1678.97	499.25
1681.937	481.91667
1684.901	451.91667
1687.863	446.91667
1690.824	421.58333
1693.782	438.91667
1696.738	395.25
1699.692	401.25
1702.643	389.25
1705.593	393.25
1708.54	385.58333
1711.486	395.25
1714.429	367.91667
1717.37	375.25
1720.309	362.58333
1723.246	373.25
1726.181	351.91667
1729.113	361.25
1732.044	363.25
1734.972	357.25
1737.899	365.58333
1740.823	362.25
1743.745	382.25
1746.665	348.91667
1749.583	335.58333
1752.499	331.91667
1755.413	332.91667
1758.325	323.25
1761.235	326.91667
1764.142	320.58333
1767.048	317.25
1769.951	322.58333
1772.852	314.58333
1775.752	315.58333
1778.649	320.58333
1781.544	328.91667
1784.437	303.58333
1787.328	317.25
1790.217	312.58333
1793.104	300.91667
1795.989	291.91667
1798.872	294.91667
1801.753	307.58333
1804.631	298.58333
1807.508	307.58333
1810.383	300.91667
1813.255	303.25
1816.126	294.58333
1818.994	293.58333
1821.861	292.58333
1824.725	295.58333
1827.587	291.58333
1830.448	294.58333
1833.306	286.25
1836.162	304.58333
1839.017	290.58333
1841.869	293.91667
1844.719	285.91667
1847.567	276.91667
1850.414	268.25
1853.258	270.91667
1856.1	282.58333
1858.94	290.58333
1861.778	278.91667
1864.614	263.91667
1867.448	278.58333
1870.28	264.25
1873.111	289.91667
1875.939	276.25
1878.765	290.91667
1881.589	272.25
1884.411	276.91667
1887.231	283.25
1890.049	275.91667
1892.865	281.25
1895.68	263.25
1898.492	271.91667
1901.302	271.25
1904.11	263.58333
1906.916	265.91667
1909.721	260.91667
1912.523	276.58333
1915.323	257.91667
1918.122	260.58333
1920.918	276.25
1923.712	256.91667
1926.505	263.58333
1929.295	239.25
1932.084	257.58333
1934.87	266.58333
1937.655	259.58333
1940.438	250.58333
1943.218	254.91667
1945.997	259.25
1948.774	259.58333
1951.549	264.58333
1954.322	253.58333
1957.093	249.58333
1959.862	246.58333
1962.629	247.91667
1965.394	248.91667
1968.157	236.91667
1970.918	255.25
1973.678	238.91667
1976.435	256.25
1979.19	242.58333
1981.944	236.58333
1984.696	243.25
1987.445	233.58333
1990.193	243.25
1992.939	251.25
1995.683	239.25
1998.425	226.25
2001.165	262.91667
2003.903	222.58333
2006.639	234.58333
2009.374	241.25
2012.106	243.91667
2014.837	217.58333
2017.566	237.91667
2020.292	229.91667
2023.017	235.91667
2025.74	223.91667
2028.461	225.25
2031.18	236.58333
2033.898	224.91667
2036.613	227.91667
2039.327	230.25
2042.038	224.25
2044.748	225.58333
2047.456	233.91667
2050.162	220.91667
2052.866	224.91667
2055.568	231.25
2058.268	219.58333
2060.967	233.58333
2063.663	210.58333
2066.358	213.58333
2069.051	208.25
2071.742	216.91667
2074.431	229.58333
2077.118	216.25
2079.804	205.58333
2082.487	219.25
2085.169	226.58333
2087.849	242.25
2090.527	210.25
2093.203	219.58333
2095.877	222.25
2098.55	223.25
2101.22	224.91667
2103.889	228.91667
2106.556	214.91667
2109.221	229.91667
2111.884	222.25
2114.546	246.58333
2117.205	249.91667
2119.863	269.91667
2122.519	263.91667
2125.173	279.58333
2127.825	307.25
2130.475	309.25
2133.124	289.58333
2135.771	274.25
2138.416	287.91667
2141.059	261.91667
2143.7	270.25
2146.339	251.58333
2148.977	225.58333
2151.613	238.91667
2154.247	231.25
2156.879	223.58333
2159.51	215.25
2162.138	221.58333
2164.765	219.25
2167.39	201.91667
2170.013	229.91667
2172.634	221.25
2175.254	204.25
2177.872	248.25
2180.488	205.58333
2183.102	206.25
2185.714	205.25
2188.325	189.58333
2190.934	203.58333
2193.541	209.25
2196.146	197.25
2198.75	183.58333
2201.351	193.25
2203.951	177.58333
2206.549	199.25
2209.146	192.58333
2211.74	187.91667
2214.333	194.25
2216.924	179.91667
2219.514	182.25
2222.101	176.91667
2224.687	201.25
2227.271	176.91667
2229.853	186.25
2232.433	171.25
2235.012	184.91667
2237.589	178.25
2240.164	196.58333
2242.738	178.25
2245.309	173.91667
2247.879	196.25
2250.448	187.58333
2253.014	170.25
2255.579	162.58333
2258.142	173.25
2260.703	175.58333
2263.262	164.91667
2265.82	160.58333
2268.376	177.91667
2270.93	169.25
2273.483	159.91667
2276.033	174.25
2278.583	164.91667
2281.13	168.25
2283.675	161.25
2286.219	165.25
2288.761	172.25
2291.302	166.91667
2293.841	181.58333
2296.377	160.58333
2298.913	166.58333
2301.446	176.25
2303.978	166.58333
2306.508	164.25
2309.037	162.25
2311.563	167.25
2314.088	162.58333
2316.612	153.58333
2319.133	164.91667
2321.653	168.58333
2324.171	158.58333
2326.688	168.25
2329.202	160.58333
2331.715	164.91667
2334.227	162.91667
2336.736	166.58333
2339.244	154.91667
2341.751	147.58333
2344.255	166.91667
2346.758	157.91667
2349.259	149.91667
2351.759	161.91667
2354.257	150.91667
2356.753	146.25
2359.247	145.25
2361.74	147.58333
2364.231	150.58333
2366.721	162.25
2369.209	151.91667
2371.695	153.25
2374.179	144.91667
2376.662	138.58333
2379.143	164.58333
2381.622	147.91667
2384.1	155.91667
2386.576	147.91667
2389.051	160.25
2391.524	161.25
2393.995	152.91667
2396.464	145.58333
2398.932	145.58333
2401.398	152.58333
2403.863	144.25
2406.325	139.91667
2408.787	154.91667
2411.246	148.58333
2413.704	152.25
2416.16	141.25
2418.615	146.58333
2421.068	149.91667
2423.519	145.25
2425.969	133.91667
2428.417	154.58333
2430.863	165.58333
2433.308	157.25
2435.751	147.58333
2438.193	148.58333
2440.633	149.58333
2443.071	152.25
2445.508	136.25
2447.943	146.58333
2450.376	142.25
2452.808	146.58333
2455.238	133.25
2457.667	163.91667
2460.093	132.91667
2462.519	130.25
2464.942	137.91667
2467.365	142.25
2469.785	149.58333
2472.204	132.91667
2474.621	136.25
2477.037	157.25
2479.451	127.58333
2481.863	132.25
2484.274	132.25
2486.683	137.58333
2489.091	145.91667
2491.497	140.91667
2493.901	142.58333
2496.304	132.91667
2498.705	144.25
2501.105	135.25
2503.503	159.58333
2505.899	136.25
2508.294	150.91667
2510.687	132.58333
2513.079	138.91667
2515.469	129.91667
2517.858	127.25
2520.245	147.25
2522.63	133.91667
2525.014	129.58333
2527.396	127.25
2529.776	126.25
2532.156	136.91667
2534.533	120.25
2536.909	123.91667
2539.283	118.25
2541.656	123.91667
2544.027	140.58333
2546.397	130.25
2548.765	129.25
2551.131	135.25
2553.496	136.91667
2555.86	133.25
2558.221	140.58333
2560.582	127.25
2562.94	118.25
2565.298	136.25
2567.653	145.58333
2570.007	123.25
2572.36	133.91667
2574.711	123.25
2577.06	143.91667
2579.408	133.25
2581.754	130.91667
2584.099	126.58333
2586.442	121.58333
2588.784	136.58333
2591.124	130.58333
2593.463	127.91667
2595.8	134.58333
2598.135	114.91667
2600.469	117.91667
2602.802	134.91667
2605.133	139.25
2607.462	119.91667
2609.79	111.25
2612.116	135.25
2614.441	124.91667
2616.764	130.91667
2619.086	123.91667
2621.406	117.91667
2623.725	134.25
2626.042	123.91667
2628.358	119.25
2630.672	130.58333
2632.985	141.91667
2635.296	128.58333
2637.606	121.58333
2639.914	124.25
2642.22	123.91667
2644.525	124.58333
2646.829	126.25
2649.131	136.91667
2651.432	133.25
2653.731	127.91667
2656.028	136.25
2658.324	131.91667
2660.619	119.58333
2662.912	136.25
2665.204	116.91667
2667.494	135.91667
2669.782	121.91667
2672.07	136.91667
2674.355	138.58333
2676.639	130.25
2678.922	126.91667
2681.203	132.58333
2683.483	126.25
2685.761	117.91667
2688.038	132.91667
2690.313	142.25
2692.587	124.58333
2694.859	128.58333
2697.13	125.25
2699.399	132.25
2701.667	129.25
2703.933	130.58333
2706.198	146.91667
2708.461	137.25
2710.723	133.58333
2712.984	126.58333
2715.243	134.25
2717.5	128.58333
2719.757	147.58333
2722.011	125.25
2724.264	143.91667
2726.516	148.58333
2728.766	125.58333
2731.015	132.91667
2733.262	134.91667
2735.508	128.58333
2737.753	129.91667
2739.996	117.91667
2742.237	124.25
2744.477	144.91667
2746.716	141.58333
2748.953	140.25
2751.189	141.25
2753.423	138.58333
2755.656	128.25
2757.887	124.91667
2760.117	128.25
2762.346	117.25
2764.573	115.58333
2766.798	124.91667
2769.022	124.25
2771.245	122.25
2773.467	123.25
2775.686	123.91667
2777.905	131.58333
2780.122	129.58333
2782.337	130.58333
2784.552	124.91667
2786.764	127.91667
2788.976	126.58333
2791.186	125.91667
2793.394	128.91667
2795.601	135.58333
2797.807	138.58333
2800.011	133.58333
2802.214	137.58333
2804.415	135.58333
2806.615	136.58333
2808.814	136.25
2811.011	142.58333
2813.206	136.91667
2815.401	143.25
2817.594	147.58333
2819.785	151.25
2821.975	134.58333
2824.164	142.58333
2826.351	139.58333
2828.537	155.91667
2830.722	155.25
2832.905	147.25
2835.086	157.58333
2837.267	169.58333
2839.445	170.58333
2841.623	164.58333
2843.799	169.91667
2845.974	175.25
2848.147	176.91667
2850.319	185.91667
2852.489	197.58333
2854.659	194.58333
2856.826	200.91667
2858.993	212.25
2861.158	189.91667
2863.321	199.58333
2865.483	214.58333
2867.644	206.91667
2869.804	210.25
2871.962	201.58333
2874.118	206.25
2876.274	209.58333
2878.428	211.91667
2880.58	213.58333
2882.731	196.25
2884.881	207.58333
2887.03	212.58333
2889.177	204.58333
2891.322	210.91667
2893.467	200.91667
2895.61	207.58333
2897.751	215.91667
2899.892	201.91667
2902.03	210.25
2904.168	199.58333
2906.304	208.58333
2908.439	224.58333
2910.572	205.58333
2912.704	210.91667
2914.835	222.58333
2916.965	220.58333
2919.093	230.25
2921.219	203.25
2923.345	236.91667
2925.469	211.91667
2927.591	207.25
2929.712	198.91667
2931.832	212.25
2933.951	203.25
2936.068	191.91667
2938.184	200.58333
2940.299	195.25
2942.412	185.58333
2944.524	169.58333
2946.634	184.25
2948.744	157.91667
2950.851	194.58333
2952.958	161.58333
2955.063	168.91667
2957.167	165.91667
2959.269	154.58333
2961.371	184.58333
2963.471	153.58333
2965.569	170.91667
2967.666	143.58333
2969.762	140.58333
2971.857	142.25
2973.95	140.91667
2976.042	148.58333
2978.133	137.91667
2980.222	135.25
2982.31	127.58333
2984.396	110.91667
2986.482	120.58333
2988.566	128.58333
2990.648	130.91667
2992.73	127.25
2994.81	113.58333
2996.889	133.91667
2998.966	124.25
3001.042	132.91667
3003.117	119.58333
3005.191	119.91667
3007.263	125.58333
3009.334	119.91667
3011.403	126.25
3013.472	120.91667
3015.539	136.25
3017.604	136.25
3019.669	110.91667
3021.732	113.25
3023.794	117.25
3025.854	109.91667
3027.914	101.58333
3029.971	111.58333
3032.028	115.91667
3034.083	122.91667
3036.137	117.25
3038.19	103.58333
3040.242	98.91667
3042.292	99.58333
3044.341	106.25
3046.388	121.25
3048.435	97.58333
3050.48	117.25
3052.524	102.58333
3054.566	87.58333
3056.607	96.58333
3058.647	102.25
3060.686	88.25
3062.723	86.25
3064.759	84.58333
3066.794	1.25
3068.828	-1.08333
3070.86	0.25
