-0.839	132.20833
3.438	151.20833
7.711	62.875
11.981	43.20833
16.247	34.54167
20.509	38.875
24.768	35.20833
29.024	44.54167
33.276	31.54167
37.524	43.54167
41.769	26.875
46.01	25.54167
50.247	44.54167
54.481	50.875
58.712	54.20833
62.939	35.54167
67.162	49.875
71.382	46.54167
75.599	39.20833
79.812	43.20833
84.021	63.875
88.227	41.875
92.429	51.875
96.628	35.875
100.823	57.54167
105.015	52.54167
109.204	48.20833
113.388	56.54167
117.57	44.54167
121.748	62.875
125.922	48.20833
130.093	60.54167
134.261	62.20833
138.425	53.20833
142.585	82.875
146.742	64.20833
150.896	80.875
155.046	74.54167
159.193	114.54167
163.336	159.54167
167.476	276.875
171.613	492.54167
175.746	793.54167
179.875	1165.20833
184.002	1513.20833
188.124	1815.54167
192.244	1903.875
196.36	1925.20833
200.472	1915.54167
204.581	1894.875
208.687	1849.875
212.79	1842.20833
216.889	1870.875
220.984	1895.54167
225.077	1902.20833
229.165	1932.20833
233.251	1916.875
237.333	1934.54167
241.412	1926.20833
245.487	1902.54167
249.559	1874.54167
253.628	1883.20833
257.694	1875.20833
261.756	1888.54167
265.814	1851.54167
269.87	1799.54167
273.922	1769.20833
277.97	1744.20833
282.016	1732.875
286.058	1709.54167
290.097	1741.54167
294.132	1742.20833
298.164	1741.875
302.193	1686.54167
306.219	1594.20833
310.241	1522.20833
314.26	1444.20833
318.276	1381.875
322.288	1345.875
326.297	1319.54167
330.303	1288.875
334.305	1274.875
338.305	1272.20833
342.301	1273.20833
346.294	1261.54167
350.283	1261.875
354.269	1251.54167
358.252	1239.20833
362.232	1253.20833
366.209	1256.20833
370.182	1240.54167
374.152	1227.20833
378.119	1243.20833
382.083	1236.20833
386.043	1251.54167
390	1244.20833
393.954	1243.54167
397.905	1254.20833
401.852	1264.875
405.797	1249.875
409.738	1262.875
413.676	1288.875
417.61	1292.875
421.542	1265.875
425.47	1240.20833
429.396	1246.875
433.318	1222.875
437.236	1214.875
441.152	1256.875
445.065	1202.20833
448.974	1223.875
452.88	1214.54167
456.783	1223.54167
460.683	1205.20833
464.58	1213.20833
468.473	1242.875
472.364	1225.875
476.251	1218.875
480.135	1228.54167
484.016	1227.875
487.894	1234.875
491.769	1230.875
495.641	1242.875
499.509	1242.875
503.375	1229.875
507.237	1219.54167
511.096	1220.54167
514.952	1238.875
518.805	1254.875
522.655	1257.20833
526.502	1246.54167
530.346	1237.54167
534.187	1239.20833
538.024	1220.54167
541.859	1231.54167
545.69	1239.875
549.519	1243.54167
553.344	1233.20833
557.166	1209.20833
560.985	1202.20833
564.802	1202.875
568.615	1188.54167
572.425	1182.20833
576.232	1181.54167
580.036	1186.875
583.836	1179.54167
587.634	1179.54167
591.429	1161.20833
595.221	1227.20833
599.01	1204.20833
602.796	1201.875
606.578	1211.875
610.358	1214.875
614.135	1184.54167
617.909	1198.54167
621.679	1184.54167
625.447	1182.875
629.212	1183.54167
632.973	1189.54167
636.732	1188.54167
640.488	1195.875
644.241	1165.875
647.991	1159.875
651.737	1189.20833
655.481	1157.875
659.222	1177.20833
662.96	1161.54167
666.695	1180.875
670.427	1186.20833
674.156	1191.20833
677.882	1184.20833
681.605	1169.20833
685.325	1154.875
689.043	1174.20833
692.757	1171.20833
696.468	1158.20833
700.177	1167.20833
703.882	1137.875
707.585	1123.20833
711.284	1133.54167
714.981	1126.54167
718.675	1137.875
722.366	1130.20833
726.054	1121.20833
729.739	1117.875
733.421	1123.54167
737.1	1118.875
740.777	1136.875
744.45	1128.54167
748.121	1121.54167
751.789	1154.875
755.453	1140.875
759.115	1150.54167
762.774	1146.875
766.431	1140.20833
770.084	1145.20833
773.734	1124.875
777.382	1185.54167
781.027	1168.20833
784.669	1157.20833
788.308	1138.20833
791.944	1156.54167
795.577	1172.875
799.208	1163.20833
802.835	1161.875
806.46	1159.875
810.082	1170.875
813.701	1170.875
817.317	1194.54167
820.931	1177.20833
824.542	1174.20833
828.149	1169.54167
831.754	1141.875
835.357	1150.20833
838.956	1165.54167
842.553	1147.54167
846.146	1133.54167
849.737	1104.20833
853.326	1121.875
856.911	1098.875
860.493	1109.875
864.073	1135.875
867.65	1130.875
871.225	1142.20833
874.796	1131.20833
878.365	1109.875
881.931	1139.54167
885.494	1135.875
889.054	1132.20833
892.612	1131.875
896.166	1109.875
899.719	1092.875
903.268	1065.20833
906.814	1076.20833
910.358	1090.875
913.899	1064.20833
917.438	1072.54167
920.973	1053.20833
924.506	1049.875
928.036	1075.20833
931.564	1095.20833
935.088	1106.875
938.61	1086.875
942.129	1094.875
945.646	1104.20833
949.16	1102.20833
952.671	1138.54167
956.179	1139.875
959.685	1143.20833
963.188	1138.875
966.688	1126.875
970.185	1084.875
973.68	1073.20833
977.173	1064.875
980.662	1055.54167
984.149	1071.54167
987.633	1042.54167
991.114	1045.875
994.593	1066.20833
998.069	1083.875
1001.542	1111.20833
1005.013	1090.875
1008.481	1029.20833
1011.947	1017.20833
1015.409	1022.20833
1018.869	1015.875
1022.327	1015.54167
1025.782	996.54167
1029.234	981.54167
1032.683	987.20833
1036.13	958.875
1039.574	925.20833
1043.016	931.875
1046.455	916.875
1049.891	886.875
1053.325	907.20833
1056.756	909.20833
1060.184	910.20833
1063.61	893.54167
1067.033	907.20833
1070.454	891.875
1073.872	937.54167
1077.287	904.54167
1080.7	900.875
1084.11	897.54167
1087.517	885.54167
1090.922	883.875
1094.325	867.54167
1097.724	859.54167
1101.122	854.20833
1104.516	867.54167
1107.908	839.20833
1111.298	855.54167
1114.684	873.20833
1118.069	856.875
1121.45	877.875
1124.83	864.875
1128.206	871.875
1131.58	889.20833
1134.951	899.20833
1138.32	907.20833
1141.687	935.875
1145.05	954.875
1148.412	942.20833
1151.77	941.875
1155.126	946.20833
1158.48	931.54167
1161.831	934.54167
1165.18	927.875
1168.525	935.875
1171.869	956.875
1175.21	947.54167
1178.548	966.54167
1181.884	980.20833
1185.217	973.20833
1188.548	996.875
1191.877	1007.20833
1195.202	1048.20833
1198.526	1049.54167
1201.846	1050.875
1205.165	1043.20833
1208.48	1048.875
1211.794	1045.20833
1215.104	1054.875
1218.413	1025.20833
1221.719	1031.54167
1225.022	1029.875
1228.323	1011.875
1231.621	1000.875
1234.917	1002.875
1238.21	1041.875
1241.501	1009.54167
1244.79	991.20833
1248.076	985.54167
1251.359	994.875
1254.64	1032.54167
1257.919	1010.20833
1261.195	1038.54167
1264.468	1045.54167
1267.74	1055.20833
1271.008	1038.54167
1274.275	1039.875
1277.538	1039.20833
1280.8	1043.54167
1284.059	1041.54167
1287.315	1050.20833
1290.569	1045.875
1293.821	1048.20833
1297.07	1050.875
1300.317	1043.875
1303.562	1055.20833
1306.803	1044.875
1310.043	1027.875
1313.28	1029.54167
1316.515	1020.54167
1319.747	1033.20833
1322.977	1016.54167
1326.204	1020.20833
1329.429	1008.54167
1332.652	1012.54167
1335.872	1003.875
1339.09	1002.54167
1342.306	995.54167
1345.519	988.54167
1348.729	970.20833
1351.938	981.54167
1355.144	985.54167
1358.347	956.20833
1361.548	963.875
1364.747	967.54167
1367.944	939.20833
1371.138	950.54167
1374.329	952.54167
1377.518	939.54167
1380.705	943.20833
1383.89	951.20833
1387.072	914.875
1390.252	906.875
1393.429	869.54167
1396.605	870.875
1399.777	836.54167
1402.948	821.20833
1406.116	813.54167
1409.282	807.20833
1412.445	809.54167
1415.606	811.875
1418.765	826.54167
1421.921	837.54167
1425.075	828.54167
1428.227	855.875
1431.376	888.54167
1434.524	897.20833
1437.668	927.20833
1440.811	932.54167
1443.951	929.20833
1447.089	940.20833
1450.224	924.875
1453.357	942.20833
1456.488	930.54167
1459.617	919.54167
1462.743	910.54167
1465.867	878.875
1468.989	890.54167
1472.108	872.54167
1475.225	858.20833
1478.34	829.875
1481.453	848.54167
1484.563	840.54167
1487.671	861.20833
1490.776	861.875
1493.88	865.54167
1496.981	876.875
1500.08	873.875
1503.176	876.20833
1506.271	881.20833
1509.363	909.54167
1512.452	907.54167
1515.54	909.20833
1518.625	915.20833
1521.708	949.20833
1524.789	962.20833
1527.867	990.20833
1530.944	1030.875
1534.018	1042.875
1537.089	1100.54167
1540.159	1097.20833
1543.226	1106.20833
1546.291	1076.54167
1549.354	1060.20833
1552.415	1044.875
1555.473	1019.875
1558.529	1017.20833
1561.583	995.20833
1564.634	980.875
1567.684	988.54167
1570.731	983.20833
1573.776	991.875
1576.819	1003.54167
1579.859	1011.54167
1582.898	1020.20833
1585.934	1036.20833
1588.968	1035.20833
1591.999	1017.20833
1595.029	1017.54167
1598.056	1043.875
1601.081	1061.54167
1604.104	1051.20833
1607.125	1029.875
1610.144	1024.20833
1613.16	981.875
1616.174	985.20833
1619.186	965.20833
1622.196	948.54167
1625.203	898.54167
1628.209	919.875
1631.212	907.54167
1634.213	908.875
1637.212	915.875
1640.209	921.875
1643.203	896.20833
1646.196	873.54167
1649.186	844.875
1652.174	823.54167
1655.16	796.875
1658.144	796.20833
1661.125	752.875
1664.105	736.54167
1667.082	716.20833
1670.057	659.54167
1673.03	637.54167
1676.001	603.20833
1678.97	577.20833
1681.937	560.875
1684.901	532.20833
1687.863	521.20833
1690.824	496.20833
1693.782	510.875
1696.738	465.20833
1699.692	478.20833
1702.643	465.20833
1705.593	460.54167
1708.54	458.20833
1711.486	457.54167
1714.429	440.54167
1717.37	446.875
1720.309	441.875
1723.246	449.20833
1726.181	431.54167
1729.113	435.54167
1732.044	437.20833
1734.972	427.20833
1737.899	438.20833
1740.823	447.875
1743.745	454.54167
1746.665	417.54167
1749.583	413.54167
1752.499	412.875
1755.413	408.20833
1758.325	385.875
1761.235	396.20833
1764.142	391.54167
1767.048	392.54167
1769.951	384.20833
1772.852	382.875
1775.752	403.54167
1778.649	399.20833
1781.544	403.20833
1784.437	373.54167
1787.328	392.20833
1790.217	384.20833
1793.104	359.20833
1795.989	370.54167
1798.872	355.875
1801.753	377.20833
1804.631	362.875
1807.508	373.54167
1810.383	375.54167
1813.255	370.875
1816.126	362.54167
1818.994	357.54167
1821.861	352.20833
1824.725	360.54167
1827.587	361.20833
1830.448	358.20833
1833.306	341.20833
1836.162	364.20833
1839.017	343.20833
1841.869	348.20833
1844.719	350.875
1847.567	331.875
1850.414	331.20833
1853.258	329.54167
1856.1	347.54167
1858.94	348.20833
1861.778	345.875
1864.614	332.54167
1867.448	339.875
1870.28	319.20833
1873.111	343.875
1875.939	335.20833
1878.765	349.875
1881.589	332.20833
1884.411	335.875
1887.231	341.54167
1890.049	338.20833
1892.865	340.54167
1895.68	322.54167
1898.492	339.20833
1901.302	323.20833
1904.11	326.54167
1906.916	318.54167
1909.721	329.20833
1912.523	334.54167
1915.323	320.20833
1918.122	312.875
1920.918	329.20833
1923.712	318.20833
1926.505	323.20833
1929.295	295.20833
1932.084	318.54167
1934.87	314.54167
1937.655	304.54167
1940.438	302.875
1943.218	310.54167
1945.997	304.20833
1948.774	313.20833
1951.549	310.20833
1954.322	309.20833
1957.093	302.54167
1959.862	301.20833
1962.629	301.20833
1965.394	293.875
1968.157	294.54167
1970.918	307.875
1973.678	286.875
1976.435	304.20833
1979.19	295.875
1981.944	276.875
1984.696	286.875
1987.445	285.54167
1990.193	293.54167
1992.939	297.54167
1995.683	286.20833
1998.425	269.875
2001.165	308.20833
2003.903	269.20833
2006.639	283.54167
2009.374	288.20833
2012.106	286.54167
2014.837	262.20833
2017.566	287.54167
2020.292	285.54167
2023.017	276.20833
2025.74	270.875
2028.461	272.875
2031.18	272.54167
2033.898	270.20833
2036.613	271.875
2039.327	275.875
2042.038	258.20833
2044.748	266.875
2047.456	276.875
2050.162	266.20833
2052.866	271.20833
2055.568	275.875
2058.268	258.20833
2060.967	275.54167
2063.663	259.54167
2066.358	250.20833
2069.051	249.875
2071.742	264.54167
2074.431	270.875
2077.118	256.54167
2079.804	248.20833
2082.487	258.20833
2085.169	274.54167
2087.849	279.20833
2090.527	255.54167
2093.203	258.54167
2095.877	258.54167
2098.55	254.54167
2101.22	260.54167
2103.889	269.875
2106.556	259.54167
2109.221	275.875
2111.884	272.875
2114.546	279.54167
2117.205	285.54167
2119.863	307.20833
2122.519	307.54167
2125.173	320.54167
2127.825	352.20833
2130.475	351.875
2133.124	326.54167
2135.771	320.20833
2138.416	337.54167
2141.059	302.54167
2143.7	297.875
2146.339	279.54167
2148.977	262.875
2151.613	271.54167
2154.247	261.875
2156.879	261.875
2159.51	243.875
2162.138	249.20833
2164.765	249.54167
2167.39	237.875
2170.013	256.54167
2172.634	255.20833
2175.254	237.875
2177.872	275.54167
2180.488	228.875
2183.102	238.54167
2185.714	233.20833
2188.325	230.875
2190.934	235.54167
2193.541	242.54167
2196.146	232.54167
2198.75	218.20833
2201.351	223.20833
2203.951	207.54167
2206.549	232.20833
2209.146	226.54167
2211.74	211.875
2214.333	226.20833
2216.924	209.20833
2219.514	217.54167
2222.101	216.54167
2224.687	226.54167
2227.271	207.54167
2229.853	211.875
2232.433	196.20833
2235.012	219.875
2237.589	213.54167
2240.164	226.54167
2242.738	211.20833
2245.309	203.20833
2247.879	226.875
2250.448	219.875
2253.014	201.54167
2255.579	192.54167
2258.142	201.20833
2260.703	197.54167
2263.262	201.54167
2265.82	192.875
2268.376	208.875
2270.93	196.20833
2273.483	187.54167
2276.033	204.875
2278.583	191.20833
2281.13	187.20833
2283.675	180.20833
2286.219	189.20833
2288.761	195.54167
2291.302	203.875
2293.841	207.875
2296.377	183.54167
2298.913	192.875
2301.446	199.875
2303.978	191.875
2306.508	188.875
2309.037	191.20833
2311.563	192.875
2314.088	193.54167
2316.612	172.875
2319.133	184.875
2321.653	191.20833
2324.171	179.20833
2326.688	197.20833
2329.202	184.875
2331.715	192.875
2334.227	182.875
2336.736	188.20833
2339.244	177.875
2341.751	169.875
2344.255	186.875
2346.758	183.875
2349.259	168.875
2351.759	179.54167
2354.257	171.20833
2356.753	169.20833
2359.247	169.875
2361.74	178.54167
2364.231	176.20833
2366.721	184.875
2369.209	178.20833
2371.695	175.54167
2374.179	162.54167
2376.662	159.54167
2379.143	175.875
2381.622	170.54167
2384.1	180.20833
2386.576	169.875
2389.051	184.875
2391.524	186.20833
2393.995	183.54167
2396.464	172.875
2398.932	168.54167
2401.398	168.20833
2403.863	162.54167
2406.325	163.20833
2408.787	175.875
2411.246	166.20833
2413.704	165.20833
2416.16	165.54167
2418.615	168.875
2421.068	171.875
2423.519	168.875
2425.969	158.875
2428.417	173.875
2430.863	182.875
2433.308	176.54167
2435.751	170.20833
2438.193	171.20833
2440.633	166.875
2443.071	169.875
2445.508	160.20833
2447.943	161.54167
2450.376	155.54167
2452.808	170.54167
2455.238	154.20833
2457.667	184.20833
2460.093	150.875
2462.519	146.54167
2464.942	152.20833
2467.365	162.54167
2469.785	164.20833
2472.204	153.20833
2474.621	156.875
2477.037	174.54167
2479.451	144.875
2481.863	149.20833
2484.274	149.20833
2486.683	149.54167
2489.091	174.54167
2491.497	162.54167
2493.901	159.54167
2496.304	155.20833
2498.705	163.20833
2501.105	156.20833
2503.503	170.875
2505.899	149.875
2508.294	172.20833
2510.687	152.54167
2513.079	149.875
2515.469	145.20833
2517.858	146.54167
2520.245	161.20833
2522.63	151.54167
2525.014	145.20833
2527.396	144.20833
2529.776	145.875
2532.156	158.54167
2534.533	140.875
2536.909	142.875
2539.283	127.875
2541.656	145.54167
2544.027	154.875
2546.397	148.54167
2548.765	147.54167
2551.131	144.54167
2553.496	153.20833
2555.86	148.54167
2558.221	147.875
2560.582	140.20833
2562.94	137.20833
2565.298	143.54167
2567.653	158.54167
2570.007	134.875
2572.36	148.54167
2574.711	137.54167
2577.06	162.20833
2579.408	145.54167
2581.754	140.54167
2584.099	143.20833
2586.442	143.875
2588.784	144.875
2591.124	141.54167
2593.463	139.20833
2595.8	148.20833
2598.135	133.20833
2600.469	133.875
2602.802	149.54167
2605.133	155.54167
2607.462	137.875
2609.79	126.875
2612.116	156.54167
2614.441	143.20833
2616.764	144.54167
2619.086	144.875
2621.406	141.54167
2623.725	150.54167
2626.042	142.875
2628.358	131.875
2630.672	140.54167
2632.985	141.54167
2635.296	143.20833
2637.606	142.20833
2639.914	133.20833
2642.22	136.875
2644.525	142.20833
2646.829	138.54167
2649.131	154.54167
2651.432	143.875
2653.731	139.875
2656.028	156.54167
2658.324	140.875
2660.619	130.20833
2662.912	149.20833
2665.204	131.20833
2667.494	143.875
2669.782	131.20833
2672.07	149.20833
2674.355	148.54167
2676.639	142.875
2678.922	137.20833
2681.203	147.20833
2683.483	135.54167
2685.761	129.875
2688.038	148.875
2690.313	152.54167
2692.587	142.20833
2694.859	142.20833
2697.13	137.54167
2699.399	144.875
2701.667	153.875
2703.933	150.875
2706.198	151.54167
2708.461	150.20833
2710.723	146.54167
2712.984	143.875
2715.243	152.20833
2717.5	142.54167
2719.757	151.54167
2722.011	141.54167
2724.264	152.20833
2726.516	160.20833
2728.766	138.875
2731.015	148.875
2733.262	143.20833
2735.508	145.875
2737.753	151.20833
2739.996	138.875
2742.237	141.875
2744.477	146.54167
2746.716	161.20833
2748.953	149.875
2751.189	152.20833
2753.423	145.875
2755.656	139.20833
2757.887	139.20833
2760.117	142.54167
2762.346	132.20833
2764.573	127.54167
2766.798	133.20833
2769.022	137.875
2771.245	133.20833
2773.467	138.875
2775.686	138.20833
2777.905	144.54167
2780.122	141.20833
2782.337	141.20833
2784.552	134.20833
2786.764	138.875
2788.976	135.20833
2791.186	142.54167
2793.394	138.875
2795.601	151.875
2797.807	149.875
2800.011	144.875
2802.214	142.54167
2804.415	146.54167
2806.615	147.20833
2808.814	150.20833
2811.011	155.54167
2813.206	152.875
2815.401	154.54167
2817.594	154.20833
2819.785	165.54167
2821.975	142.20833
2824.164	151.875
2826.351	153.20833
2828.537	165.875
2830.722	162.54167
2832.905	159.20833
2835.086	169.54167
2837.267	183.20833
2839.445	171.54167
2841.623	176.20833
2843.799	178.20833
2845.974	183.875
2848.147	186.20833
2850.319	199.875
2852.489	201.875
2854.659	204.875
2856.826	203.54167
2858.993	227.20833
2861.158	199.20833
2863.321	213.54167
2865.483	224.875
2867.644	226.20833
2869.804	219.20833
2871.962	216.20833
2874.118	220.54167
2876.274	222.20833
2878.428	222.20833
2880.58	221.20833
2882.731	209.20833
2884.881	217.875
2887.03	222.20833
2889.177	218.54167
2891.322	227.20833
2893.467	216.875
2895.61	216.875
2897.751	231.54167
2899.892	220.20833
2902.03	221.875
2904.168	215.875
2906.304	222.875
2908.439	238.20833
2910.572	217.54167
2912.704	226.54167
2914.835	233.20833
2916.965	225.875
2919.093	245.54167
2921.219	213.875
2923.345	246.54167
2925.469	231.875
2927.591	221.20833
2929.712	207.20833
2931.832	222.54167
2933.951	215.54167
2936.068	213.875
2938.184	211.20833
2940.299	200.20833
2942.412	198.20833
2944.524	179.875
2946.634	194.875
2948.744	169.20833
2950.851	198.875
2952.958	174.875
2955.063	181.20833
2957.167	172.20833
2959.269	161.54167
2961.371	198.875
2963.471	167.54167
2965.569	178.54167
2967.666	157.20833
2969.762	157.20833
2971.857	150.54167
2973.95	146.20833
2976.042	158.54167
2978.133	148.20833
2980.222	147.875
2982.31	143.20833
2984.396	123.20833
2986.482	131.54167
2988.566	144.875
2990.648	129.20833
2992.73	133.54167
2994.81	125.875
2996.889	134.875
2998.966	129.54167
3001.042	140.54167
3003.117	125.54167
3005.191	131.54167
3007.263	139.875
3009.334	129.875
3011.403	131.20833
3013.472	125.20833
3015.539	141.20833
3017.604	143.875
3019.669	118.20833
3021.732	121.54167
3023.794	123.875
3025.854	115.54167
3027.914	114.20833
3029.971	114.875
3032.028	114.875
3034.083	126.54167
3036.137	122.875
3038.19	107.875
3040.242	102.20833
3042.292	100.875
3044.341	108.54167
3046.388	125.54167
3048.435	101.54167
3050.48	123.875
3052.524	108.20833
3054.566	96.54167
3056.607	109.20833
3058.647	102.20833
3060.686	99.20833
3062.723	87.875
3064.759	91.20833
3066.794	-1.45833
3068.828	2.875
3070.86	1.20833
