-0.839	132.66667
3.438	160.33333
7.711	69
11.981	44
16.247	32
20.509	38
24.768	36.33333
29.024	40.33333
33.276	27.33333
37.524	43.66667
41.769	28.33333
46.01	28.66667
50.247	41.33333
54.481	51
58.712	53.33333
62.939	37
67.162	58.33333
71.382	44.66667
75.599	36
79.812	46.33333
84.021	60.66667
88.227	45.66667
92.429	49.33333
96.628	43
100.823	53
105.015	51
109.204	48.33333
113.388	60.33333
117.57	45
121.748	59
125.922	51.33333
130.093	65.66667
134.261	61.33333
138.425	56
142.585	84.33333
146.742	67.33333
150.896	80
155.046	73
159.193	108.33333
163.336	152
167.476	266.66667
171.613	464.33333
175.746	740
179.875	1088
184.002	1409.66667
188.124	1666
192.244	1755.66667
196.36	1762.66667
200.472	1753.66667
204.581	1733.33333
208.687	1680.33333
212.79	1672.66667
216.889	1698.66667
220.984	1710.66667
225.077	1726.33333
229.165	1735
233.251	1733.66667
237.333	1745
241.412	1735
245.487	1725
249.559	1696.33333
253.628	1706
257.694	1682
261.756	1672.33333
265.814	1636.66667
269.87	1603.66667
273.922	1560
277.97	1539.66667
282.016	1515
286.058	1488.66667
290.097	1529.33333
294.132	1550.33333
298.164	1528.66667
302.193	1479.33333
306.219	1420.33333
310.241	1311.33333
314.26	1213
318.276	1162.66667
322.288	1126
326.297	1097
330.303	1064.33333
334.305	1038.33333
338.305	1041
342.301	1030.66667
346.294	1038.33333
350.283	1029.33333
354.269	1009.33333
358.252	1005.33333
362.232	1013.33333
366.209	1012.66667
370.182	993
374.152	995.66667
378.119	1000.33333
382.083	998
386.043	1009.66667
390	996.33333
393.954	1004.33333
397.905	1011.33333
401.852	1019
405.797	999
409.738	1002
413.676	1045.33333
417.61	1048
421.542	1008.33333
425.47	979
429.396	969.66667
433.318	958.66667
437.236	953.66667
441.152	994.66667
445.065	960
448.974	955
452.88	951
456.783	949.33333
460.683	934.66667
464.58	967.66667
468.473	951.33333
472.364	951
476.251	936.33333
480.135	952.33333
484.016	969.33333
487.894	976.66667
491.769	981.66667
495.641	974
499.509	972.66667
503.375	976.33333
507.237	972.33333
511.096	976
514.952	965.66667
518.805	961.66667
522.655	970.66667
526.502	968
530.346	963.66667
534.187	969
538.024	968.66667
541.859	958.66667
545.69	979.33333
549.519	966.33333
553.344	964.66667
557.166	959.66667
560.985	949.33333
564.802	944
568.615	937
572.425	921.33333
576.232	928.66667
580.036	915
583.836	923.33333
587.634	938.66667
591.429	912.33333
595.221	946.66667
599.01	942
602.796	945.33333
606.578	954
610.358	953
614.135	947.33333
617.909	941
621.679	934
625.447	921.66667
629.212	931
632.973	945.66667
636.732	933
640.488	933.33333
644.241	922
647.991	903.66667
651.737	938
655.481	903
659.222	936
662.96	911
666.695	931.33333
670.427	927.33333
674.156	931.33333
677.882	932.33333
681.605	936
685.325	909.33333
689.043	924
692.757	901.66667
696.468	919.33333
700.177	928.66667
703.882	895.66667
707.585	890.66667
711.284	896.33333
714.981	891.66667
718.675	885.33333
722.366	912
726.054	895
729.739	897.66667
733.421	906.66667
737.1	883.66667
740.777	908
744.45	895.33333
748.121	898.66667
751.789	925.33333
755.453	901
759.115	924.33333
762.774	914.33333
766.431	917.66667
770.084	922.66667
773.734	928
777.382	943
781.027	940
784.669	932
788.308	941.66667
791.944	946
795.577	951
799.208	955.33333
802.835	963
806.46	970.66667
810.082	960.66667
813.701	963.66667
817.317	992.66667
820.931	991.66667
824.542	989.33333
828.149	956
831.754	950
835.357	934.66667
838.956	949.33333
842.553	955
846.146	946
849.737	926
853.326	933.66667
856.911	908
860.493	941.33333
864.073	929
867.65	971.66667
871.225	976
874.796	940.33333
878.365	934.33333
881.931	944.66667
885.494	967.33333
889.054	949.33333
892.612	951.66667
896.166	936
899.719	930.33333
903.268	908.66667
906.814	919.66667
910.358	903.33333
913.899	887.66667
917.438	907
920.973	885
924.506	889.66667
928.036	925.33333
931.564	926.66667
935.088	953
938.61	929
942.129	922.66667
945.646	951.66667
949.16	948.66667
952.671	964.33333
956.179	985.66667
959.685	977.66667
963.188	973
966.688	977.66667
970.185	943.66667
973.68	914.33333
977.173	912.33333
980.662	882
984.149	903
987.633	873.66667
991.114	899.66667
994.593	912.33333
998.069	928.66667
1001.542	944.33333
1005.013	926.66667
1008.481	880.33333
1011.947	871.33333
1015.409	866
1018.869	866
1022.327	877.66667
1025.782	846
1029.234	847
1032.683	842
1036.13	827.33333
1039.574	786
1043.016	773.66667
1046.455	783.33333
1049.891	753.66667
1053.325	762
1056.756	757.66667
1060.184	773
1063.61	768.33333
1067.033	769
1070.454	762.33333
1073.872	780.33333
1077.287	763.66667
1080.7	764.33333
1084.11	768.66667
1087.517	767.33333
1090.922	760.33333
1094.325	728
1097.724	739.66667
1101.122	737.66667
1104.516	736.33333
1107.908	727.66667
1111.298	727.66667
1114.684	740
1118.069	744
1121.45	771.66667
1124.83	741.33333
1128.206	757.66667
1131.58	771.66667
1134.951	789
1138.32	802.33333
1141.687	826.66667
1145.05	834.66667
1148.412	843.66667
1151.77	824
1155.126	830.66667
1158.48	817
1161.831	825.33333
1165.18	833
1168.525	852
1171.869	843.33333
1175.21	850.66667
1178.548	872
1181.884	874.66667
1185.217	867.66667
1188.548	890.66667
1191.877	897
1195.202	932.66667
1198.526	953.66667
1201.846	964
1205.165	961.66667
1208.48	964.33333
1211.794	960.66667
1215.104	976
1218.413	948
1221.719	957
1225.022	927
1228.323	907.66667
1231.621	923.66667
1234.917	921.66667
1238.21	937.66667
1241.501	903.66667
1244.79	913
1248.076	888
1251.359	911.33333
1254.64	943.66667
1257.919	929
1261.195	928.66667
1264.468	949
1267.74	966.66667
1271.008	962.66667
1274.275	966.66667
1277.538	948
1280.8	953.66667
1284.059	953.66667
1287.315	960
1290.569	959
1293.821	960.66667
1297.07	974
1300.317	968
1303.562	976
1306.803	972.33333
1310.043	953.66667
1313.28	954
1316.515	964.33333
1319.747	963.66667
1322.977	940.33333
1326.204	950
1329.429	925
1332.652	940
1335.872	938.33333
1339.09	930
1342.306	918.66667
1345.519	916
1348.729	906
1351.938	915.33333
1355.144	898.66667
1358.347	896
1361.548	891.66667
1364.747	894
1367.944	867.66667
1371.138	883.33333
1374.329	879.66667
1377.518	864
1380.705	882
1383.89	880.33333
1387.072	841.66667
1390.252	817.66667
1393.429	809.66667
1396.605	789.66667
1399.777	748
1402.948	751.66667
1406.116	733.66667
1409.282	740.66667
1412.445	746
1415.606	737
1418.765	750
1421.921	774.33333
1425.075	776.66667
1428.227	785.66667
1431.376	819.33333
1434.524	848.66667
1437.668	864
1440.811	871
1443.951	881
1447.089	877.66667
1450.224	873
1453.357	872
1456.488	862
1459.617	867.33333
1462.743	845
1465.867	820.66667
1468.989	825
1472.108	825.66667
1475.225	808.33333
1478.34	798
1481.453	790
1484.563	780.66667
1487.671	799
1490.776	815.66667
1493.88	813.33333
1496.981	834
1500.08	832.33333
1503.176	828.33333
1506.271	841.33333
1509.363	854.33333
1512.452	854
1515.54	866
1518.625	873
1521.708	908
1524.789	919.66667
1527.867	933.33333
1530.944	989.66667
1534.018	1001
1537.089	1055.33333
1540.159	1055
1543.226	1060.33333
1546.291	1032.66667
1549.354	1017
1552.415	1007.33333
1555.473	998.66667
1558.529	980.33333
1561.583	962.66667
1564.634	950.33333
1567.684	948.33333
1570.731	956
1573.776	963.33333
1576.819	972.33333
1579.859	983
1582.898	992.33333
1585.934	1017
1588.968	1019
1591.999	982.33333
1595.029	996.66667
1598.056	1014.66667
1601.081	1018
1604.104	1021.33333
1607.125	995.33333
1610.144	984
1613.16	958.66667
1616.174	950.33333
1619.186	943.33333
1622.196	918.66667
1625.203	904
1628.209	889.66667
1631.212	891
1634.213	892.33333
1637.212	910
1640.209	899
1643.203	871.33333
1646.196	847.33333
1649.186	808.66667
1652.174	800
1655.16	769.33333
1658.144	765
1661.125	718.33333
1664.105	682.33333
1667.082	660.33333
1670.057	616.33333
1673.03	595.66667
1676.001	565.33333
1678.97	530
1681.937	507.66667
1684.901	488.66667
1687.863	479
1690.824	442.33333
1693.782	459.66667
1696.738	421.33333
1699.692	424
1702.643	406
1705.593	409.33333
1708.54	409.66667
1711.486	409.33333
1714.429	397.33333
1717.37	410.33333
1720.309	390.33333
1723.246	393.66667
1726.181	382
1729.113	382
1732.044	380.33333
1734.972	377.66667
1737.899	392.66667
1740.823	380.33333
1743.745	404.66667
1746.665	365.66667
1749.583	360
1752.499	361
1755.413	356
1758.325	335.33333
1761.235	354.66667
1764.142	334.33333
1767.048	334
1769.951	338
1772.852	344
1775.752	353
1778.649	358.66667
1781.544	356.33333
1784.437	324
1787.328	335.33333
1790.217	337.66667
1793.104	310
1795.989	317.33333
1798.872	307.66667
1801.753	326
1804.631	323.33333
1807.508	330.33333
1810.383	312
1813.255	324.33333
1816.126	318.66667
1818.994	314.33333
1821.861	314
1824.725	316.33333
1827.587	318
1830.448	305.66667
1833.306	304.66667
1836.162	315.66667
1839.017	308.66667
1841.869	306.66667
1844.719	310
1847.567	286.66667
1850.414	290.66667
1853.258	284.33333
1856.1	301.66667
1858.94	309
1861.778	303.66667
1864.614	284.33333
1867.448	300
1870.28	271.33333
1873.111	306.33333
1875.939	291.33333
1878.765	307.33333
1881.589	288
1884.411	288
1887.231	291.66667
1890.049	290.33333
1892.865	290.33333
1895.68	288.33333
1898.492	296
1901.302	288.66667
1904.11	285
1906.916	285.66667
1909.721	277
1912.523	288.33333
1915.323	272
1918.122	266.33333
1920.918	292
1923.712	270.33333
1926.505	281
1929.295	264.66667
1932.084	277
1934.87	280.66667
1937.655	274.66667
1940.438	258
1943.218	274.33333
1945.997	269.33333
1948.774	276
1951.549	275.66667
1954.322	267.33333
1957.093	270.66667
1959.862	268
1962.629	266.33333
1965.394	260.66667
1968.157	253
1970.918	271.33333
1973.678	252.66667
1976.435	265
1979.19	252.66667
1981.944	247.66667
1984.696	253.66667
1987.445	251
1990.193	256.33333
1992.939	265.66667
1995.683	262
1998.425	242.66667
2001.165	277.33333
2003.903	239.66667
2006.639	245
2009.374	249.66667
2012.106	247
2014.837	227.66667
2017.566	255.33333
2020.292	251.33333
2023.017	241
2025.74	237.33333
2028.461	235
2031.18	249.33333
2033.898	232.66667
2036.613	243.66667
2039.327	238.66667
2042.038	237
2044.748	245
2047.456	242
2050.162	231.66667
2052.866	241.33333
2055.568	241
2058.268	230
2060.967	242.66667
2063.663	221.33333
2066.358	227.33333
2069.051	224.33333
2071.742	232.66667
2074.431	241
2077.118	231.33333
2079.804	224.33333
2082.487	221
2085.169	238.66667
2087.849	246.33333
2090.527	225.66667
2093.203	225.66667
2095.877	233.33333
2098.55	229
2101.22	231.33333
2103.889	246.33333
2106.556	232.33333
2109.221	248.33333
2111.884	239.66667
2114.546	253.66667
2117.205	256
2119.863	280.33333
2122.519	279.66667
2125.173	294.66667
2127.825	324
2130.475	323
2133.124	311.66667
2135.771	291
2138.416	315.33333
2141.059	277
2143.7	284
2146.339	258.33333
2148.977	234.33333
2151.613	257.66667
2154.247	241
2156.879	230.66667
2159.51	221.66667
2162.138	231
2164.765	220.33333
2167.39	212.66667
2170.013	236.66667
2172.634	230.66667
2175.254	221
2177.872	258
2180.488	210.66667
2183.102	212.66667
2185.714	213.33333
2188.325	206.66667
2190.934	216
2193.541	222
2196.146	202.66667
2198.75	193
2201.351	198.33333
2203.951	183
2206.549	210.33333
2209.146	197.33333
2211.74	193.33333
2214.333	201
2216.924	190
2219.514	194
2222.101	191.66667
2224.687	205
2227.271	181.66667
2229.853	186
2232.433	174.33333
2235.012	202.33333
2237.589	185.66667
2240.164	203.66667
2242.738	188.66667
2245.309	179
2247.879	201.33333
2250.448	189.66667
2253.014	181.33333
2255.579	172.33333
2258.142	175.33333
2260.703	177.33333
2263.262	175.66667
2265.82	163
2268.376	191.66667
2270.93	173.33333
2273.483	170.66667
2276.033	182.33333
2278.583	166.66667
2281.13	168.33333
2283.675	165.33333
2286.219	177.33333
2288.761	176.66667
2291.302	179
2293.841	189
2296.377	162.66667
2298.913	174.33333
2301.446	179
2303.978	170
2306.508	169.33333
2309.037	171.66667
2311.563	169.66667
2314.088	176.33333
2316.612	158.33333
2319.133	169
2321.653	171.66667
2324.171	161.33333
2326.688	180.33333
2329.202	172.33333
2331.715	169
2334.227	162
2336.736	166.33333
2339.244	159.33333
2341.751	157
2344.255	165.66667
2346.758	164.33333
2349.259	152.66667
2351.759	166.66667
2354.257	146
2356.753	143
2359.247	154
2361.74	156.33333
2364.231	161
2366.721	166
2369.209	158.33333
2371.695	156.66667
2374.179	152.33333
2376.662	140.33333
2379.143	167
2381.622	154
2384.1	159.33333
2386.576	151
2389.051	164
2391.524	167.66667
2393.995	162.66667
2396.464	146.66667
2398.932	150.33333
2401.398	152
2403.863	150.33333
2406.325	151.66667
2408.787	154.33333
2411.246	149.33333
2413.704	150.33333
2416.16	143.33333
2418.615	143.66667
2421.068	150
2423.519	146.66667
2425.969	140.66667
2428.417	158
2430.863	170
2433.308	155.66667
2435.751	147.33333
2438.193	150
2440.633	149.33333
2443.071	153.33333
2445.508	146
2447.943	147
2450.376	142
2452.808	151.66667
2455.238	138.33333
2457.667	172
2460.093	137.33333
2462.519	127
2464.942	135.33333
2467.365	144.33333
2469.785	146
2472.204	142.33333
2474.621	139
2477.037	158
2479.451	130.33333
2481.863	131.66667
2484.274	132
2486.683	136
2489.091	149
2491.497	148.33333
2493.901	138
2496.304	138.66667
2498.705	148
2501.105	133.33333
2503.503	159.33333
2505.899	129.33333
2508.294	154.66667
2510.687	135.66667
2513.079	142.66667
2515.469	127.33333
2517.858	129
2520.245	153.33333
2522.63	133.33333
2525.014	132
2527.396	125
2529.776	133.33333
2532.156	140.33333
2534.533	127.33333
2536.909	124.66667
2539.283	112.66667
2541.656	128.33333
2544.027	141.33333
2546.397	139
2548.765	127.33333
2551.131	130.33333
2553.496	136.33333
2555.86	136
2558.221	134.66667
2560.582	124.33333
2562.94	115.66667
2565.298	130.33333
2567.653	140.66667
2570.007	115.33333
2572.36	138.66667
2574.711	119.66667
2577.06	142.33333
2579.408	128.66667
2581.754	125
2584.099	128
2586.442	130.33333
2588.784	128.66667
2591.124	129.33333
2593.463	126
2595.8	128.66667
2598.135	115.33333
2600.469	115.66667
2602.802	135.66667
2605.133	142.66667
2607.462	116.33333
2609.79	114.66667
2612.116	133.66667
2614.441	122
2616.764	125
2619.086	125.66667
2621.406	122.33333
2623.725	134
2626.042	125
2628.358	118.66667
2630.672	127.66667
2632.985	132.66667
2635.296	127.66667
2637.606	121.66667
2639.914	111.33333
2642.22	114.66667
2644.525	124.66667
2646.829	122.33333
2649.131	137
2651.432	131
2653.731	119.33333
2656.028	132.66667
2658.324	125.66667
2660.619	115
2662.912	134.66667
2665.204	114.33333
2667.494	128.66667
2669.782	113.66667
2672.07	136.33333
2674.355	139.66667
2676.639	128
2678.922	123.33333
2681.203	126.33333
2683.483	114
2685.761	114.66667
2688.038	129.66667
2690.313	138.66667
2692.587	125
2694.859	120
2697.13	121
2699.399	123.33333
2701.667	131.33333
2703.933	123.33333
2706.198	133.66667
2708.461	135
2710.723	130
2712.984	129.66667
2715.243	134.33333
2717.5	124.33333
2719.757	135.66667
2722.011	127.33333
2724.264	136
2726.516	146.33333
2728.766	124.33333
2731.015	126
2733.262	130.33333
2735.508	126.66667
2737.753	135.66667
2739.996	116.33333
2742.237	115.33333
2744.477	136
2746.716	141.33333
2748.953	134.33333
2751.189	132.66667
2753.423	130
2755.656	117
2757.887	118.33333
2760.117	120.66667
2762.346	116.33333
2764.573	109
2766.798	116.66667
2769.022	118.33333
2771.245	116
2773.467	119
2775.686	113.66667
2777.905	122.66667
2780.122	123
2782.337	126
2784.552	117.66667
2786.764	118.33333
2788.976	116.33333
2791.186	121
2793.394	120.66667
2795.601	133.66667
2797.807	131
2800.011	123.66667
2802.214	132.33333
2804.415	125
2806.615	127
2808.814	124.66667
2811.011	136.33333
2813.206	132
2815.401	137.66667
2817.594	137.66667
2819.785	143.33333
2821.975	131.66667
2824.164	132.66667
2826.351	133.66667
2828.537	148
2830.722	147.66667
2832.905	143
2835.086	145.66667
2837.267	166.33333
2839.445	163.66667
2841.623	163.33333
2843.799	164.33333
2845.974	169.66667
2848.147	172.33333
2850.319	187.66667
2852.489	189
2854.659	190.66667
2856.826	194.33333
2858.993	209.66667
2861.158	192.33333
2863.321	197.66667
2865.483	217.66667
2867.644	205.66667
2869.804	203.66667
2871.962	195.33333
2874.118	203
2876.274	215.66667
2878.428	208.33333
2880.58	216.33333
2882.731	197.66667
2884.881	203.66667
2887.03	211.66667
2889.177	202.66667
2891.322	209.33333
2893.467	199.66667
2895.61	196.66667
2897.751	213
2899.892	201.33333
2902.03	207
2904.168	206.66667
2906.304	207
2908.439	226.66667
2910.572	205.33333
2912.704	208.33333
2914.835	220.66667
2916.965	215.66667
2919.093	226.66667
2921.219	195.33333
2923.345	231.33333
2925.469	213.33333
2927.591	208
2929.712	193
2931.832	209.66667
2933.951	204
2936.068	193.33333
2938.184	195.66667
2940.299	184
2942.412	186.66667
2944.524	165.66667
2946.634	178
2948.744	155.66667
2950.851	187
2952.958	153
2955.063	165.33333
2957.167	155.66667
2959.269	147.33333
2961.371	172
2963.471	142
2965.569	161
2967.666	141.66667
2969.762	132.33333
2971.857	135.66667
2973.95	129
2976.042	135.66667
2978.133	127
2980.222	123.66667
2982.31	115.33333
2984.396	105.66667
2986.482	113
2988.566	116
2990.648	119
2992.73	116
2994.81	99
2996.889	120.33333
2998.966	113
3001.042	123
3003.117	110
3005.191	110.33333
3007.263	118.33333
3009.334	111
3011.403	117
3013.472	106.66667
3015.539	122
3017.604	126.33333
3019.669	100.33333
3021.732	106.33333
3023.794	107.33333
3025.854	96.66667
3027.914	92.66667
3029.971	95
3032.028	96.33333
3034.083	106
3036.137	104.33333
3038.19	94
3040.242	88
3042.292	90
3044.341	89.33333
3046.388	111.66667
3048.435	86
3050.48	106
3052.524	89
3054.566	79
3056.607	92.33333
3058.647	89.33333
3060.686	77
3062.723	71.66667
3064.759	72.66667
3066.794	1
3068.828	-1
3070.86	4.66667
