-0.839	145.25
3.438	160.58333
7.711	65.91667
11.981	42.58333
16.247	29.91667
20.509	38.91667
24.768	37.58333
29.024	44.25
33.276	30.25
37.524	39.91667
41.769	27.91667
46.01	27.58333
50.247	42.91667
54.481	49.58333
58.712	54.91667
62.939	37.58333
67.162	53.91667
71.382	45.58333
75.599	36.58333
79.812	41.25
84.021	62.58333
88.227	42.91667
92.429	52.91667
96.628	41.91667
100.823	52.25
105.015	51.25
109.204	43.25
113.388	57.91667
117.57	42.58333
121.748	59.58333
125.922	51.58333
130.093	65.58333
134.261	63.25
138.425	54.25
142.585	82.58333
146.742	65.91667
150.896	81.91667
155.046	75.58333
159.193	109.58333
163.336	163.25
167.476	273.58333
171.613	495.58333
175.746	800.91667
179.875	1174.58333
184.002	1519.58333
188.124	1799.25
192.244	1904.91667
196.36	1926.25
200.472	1912.25
204.581	1890.58333
208.687	1838.25
212.79	1823.58333
216.889	1851.25
220.984	1867.91667
225.077	1864.25
229.165	1896.91667
233.251	1878.91667
237.333	1894.91667
241.412	1899.25
245.487	1862.25
249.559	1851.58333
253.628	1847.58333
257.694	1841.58333
261.756	1830.25
265.814	1793.25
269.87	1760.91667
273.922	1712.58333
277.97	1693.58333
282.016	1668.25
286.058	1656.91667
290.097	1673.91667
294.132	1687.91667
298.164	1705.25
302.193	1631.25
306.219	1556.58333
310.241	1464.91667
314.26	1367.25
318.276	1306.58333
322.288	1263.91667
326.297	1221.91667
330.303	1201.25
334.305	1184.91667
338.305	1173.91667
342.301	1159.58333
346.294	1170.58333
350.283	1146.25
354.269	1147.25
358.252	1149.25
362.232	1141.58333
366.209	1155.91667
370.182	1127.58333
374.152	1122.25
378.119	1143.25
382.083	1113.91667
386.043	1135.91667
390	1118.58333
393.954	1161.25
397.905	1153.25
401.852	1145.25
405.797	1125.58333
409.738	1147.25
413.676	1154.25
417.61	1185.58333
421.542	1163.91667
425.47	1117.25
429.396	1121.25
433.318	1112.25
437.236	1112.25
441.152	1131.25
445.065	1094.25
448.974	1102.58333
452.88	1091.25
456.783	1075.58333
460.683	1079.91667
464.58	1108.91667
468.473	1090.91667
472.364	1101.91667
476.251	1107.91667
480.135	1103.25
484.016	1122.91667
487.894	1131.58333
491.769	1103.25
495.641	1117.91667
499.509	1126.25
503.375	1109.91667
507.237	1104.58333
511.096	1113.91667
514.952	1117.58333
518.805	1108.91667
522.655	1104.25
526.502	1111.25
530.346	1108.91667
534.187	1116.25
538.024	1105.58333
541.859	1100.91667
545.69	1125.58333
549.519	1109.25
553.344	1099.91667
557.166	1098.58333
560.985	1087.25
564.802	1085.91667
568.615	1086.58333
572.425	1068.25
576.232	1046.25
580.036	1049.58333
583.836	1056.58333
587.634	1069.91667
591.429	1047.58333
595.221	1082.25
599.01	1088.58333
602.796	1080.58333
606.578	1097.25
610.358	1080.91667
614.135	1090.25
617.909	1086.25
621.679	1078.25
625.447	1072.91667
629.212	1072.91667
632.973	1081.58333
636.732	1079.91667
640.488	1072.91667
644.241	1051.91667
647.991	1057.25
651.737	1080.25
655.481	1056.91667
659.222	1059.25
662.96	1055.25
666.695	1059.58333
670.427	1081.25
674.156	1066.58333
677.882	1063.58333
681.605	1063.91667
685.325	1033.58333
689.043	1069.25
692.757	1060.25
696.468	1035.25
700.177	1054.25
703.882	1039.25
707.585	1020.58333
711.284	1022.91667
714.981	1026.25
718.675	1025.91667
722.366	1023.58333
726.054	1025.58333
729.739	1012.25
733.421	1016.58333
737.1	1006.58333
740.777	1023.91667
744.45	1032.25
748.121	1025.91667
751.789	1057.58333
755.453	1039.91667
759.115	1036.91667
762.774	1030.58333
766.431	1051.25
770.084	1052.58333
773.734	1041.91667
777.382	1064.58333
781.027	1064.58333
784.669	1058.91667
788.308	1066.91667
791.944	1079.91667
795.577	1082.25
799.208	1078.25
802.835	1082.91667
806.46	1096.58333
810.082	1097.91667
813.701	1088.58333
817.317	1115.25
820.931	1102.91667
824.542	1125.91667
828.149	1075.58333
831.754	1073.25
835.357	1050.25
838.956	1067.25
842.553	1073.58333
846.146	1059.25
849.737	1041.58333
853.326	1031.91667
856.911	1041.25
860.493	1058.91667
864.073	1047.58333
867.65	1070.58333
871.225	1084.25
874.796	1055.91667
878.365	1058.91667
881.931	1065.58333
885.494	1068.58333
889.054	1066.91667
892.612	1070.58333
896.166	1048.25
899.719	1042.25
903.268	1017.91667
906.814	1026.91667
910.358	1018.25
913.899	1005.91667
917.438	996.58333
920.973	991.58333
924.506	1017.58333
928.036	1043.58333
931.564	1038.91667
935.088	1054.25
938.61	1037.58333
942.129	1038.58333
945.646	1054.25
949.16	1067.91667
952.671	1080.58333
956.179	1093.25
959.685	1089.91667
963.188	1101.91667
966.688	1096.91667
970.185	1039.25
973.68	1033.58333
977.173	1013.91667
980.662	1006.58333
984.149	1007.25
987.633	989.91667
991.114	1010.58333
994.593	1017.25
998.069	1040.58333
1001.542	1053.25
1005.013	1046.91667
1008.481	987.25
1011.947	957.91667
1015.409	962.58333
1018.869	973.25
1022.327	975.58333
1025.782	959.25
1029.234	951.91667
1032.683	937.91667
1036.13	916.91667
1039.574	884.91667
1043.016	877.91667
1046.455	852.58333
1049.891	848.25
1053.325	867.58333
1056.756	860.58333
1060.184	857.58333
1063.61	845.91667
1067.033	858.25
1070.454	852.91667
1073.872	878.58333
1077.287	852.58333
1080.7	863.58333
1084.11	863.25
1087.517	842.58333
1090.922	839.25
1094.325	827.58333
1097.724	810.25
1101.122	829.25
1104.516	825.25
1107.908	807.58333
1111.298	822.58333
1114.684	833.58333
1118.069	828.91667
1121.45	850.91667
1124.83	830.58333
1128.206	855.25
1131.58	855.25
1134.951	876.25
1138.32	876.25
1141.687	916.58333
1145.05	926.91667
1148.412	924.25
1151.77	930.58333
1155.126	918.25
1158.48	914.25
1161.831	912.25
1165.18	925.25
1168.525	929.25
1171.869	936.58333
1175.21	930.58333
1178.548	962.91667
1181.884	953.58333
1185.217	962.91667
1188.548	976.25
1191.877	991.91667
1195.202	1034.25
1198.526	1039.91667
1201.846	1050.25
1205.165	1047.91667
1208.48	1065.58333
1211.794	1035.25
1215.104	1059.25
1218.413	1028.25
1221.719	1037.25
1225.022	1025.91667
1228.323	996.91667
1231.621	1003.58333
1234.917	1008.25
1238.21	1021.58333
1241.501	1002.25
1244.79	993.25
1248.076	979.91667
1251.359	1002.25
1254.64	1045.91667
1257.919	1010.91667
1261.195	1028.91667
1264.468	1039.91667
1267.74	1051.91667
1271.008	1059.91667
1274.275	1047.58333
1277.538	1048.91667
1280.8	1049.58333
1284.059	1042.91667
1287.315	1062.91667
1290.569	1055.58333
1293.821	1042.25
1297.07	1057.58333
1300.317	1071.25
1303.562	1062.58333
1306.803	1045.58333
1310.043	1048.58333
1313.28	1038.58333
1316.515	1040.58333
1319.747	1050.91667
1322.977	1041.91667
1326.204	1015.91667
1329.429	1024.58333
1332.652	1027.91667
1335.872	1012.58333
1339.09	1007.25
1342.306	1013.91667
1345.519	1001.58333
1348.729	1002.58333
1351.938	1001.91667
1355.144	993.58333
1358.347	990.25
1361.548	985.25
1364.747	977.25
1367.944	953.58333
1371.138	967.25
1374.329	950.91667
1377.518	953.58333
1380.705	954.25
1383.89	962.91667
1387.072	926.91667
1390.252	904.58333
1393.429	880.58333
1396.605	856.91667
1399.777	823.25
1402.948	824.25
1406.116	805.58333
1409.282	825.58333
1412.445	815.58333
1415.606	814.25
1418.765	826.58333
1421.921	833.58333
1425.075	842.58333
1428.227	864.91667
1431.376	891.58333
1434.524	913.91667
1437.668	939.25
1440.811	924.58333
1443.951	954.91667
1447.089	966.25
1450.224	956.58333
1453.357	954.58333
1456.488	942.58333
1459.617	944.58333
1462.743	926.58333
1465.867	900.91667
1468.989	907.25
1472.108	895.58333
1475.225	881.25
1478.34	862.58333
1481.453	867.58333
1484.563	867.25
1487.671	873.58333
1490.776	883.91667
1493.88	883.58333
1496.981	891.91667
1500.08	908.25
1503.176	907.91667
1506.271	911.25
1509.363	923.25
1512.452	928.91667
1515.54	933.91667
1518.625	950.91667
1521.708	980.58333
1524.789	996.25
1527.867	1023.58333
1530.944	1063.25
1534.018	1077.91667
1537.089	1141.25
1540.159	1130.25
1543.226	1128.91667
1546.291	1130.25
1549.354	1096.91667
1552.415	1086.25
1555.473	1064.58333
1558.529	1036.91667
1561.583	1037.25
1564.634	1024.25
1567.684	1017.58333
1570.731	1036.58333
1573.776	1051.25
1576.819	1056.58333
1579.859	1059.91667
1582.898	1074.58333
1585.934	1101.25
1588.968	1100.91667
1591.999	1077.25
1595.029	1080.91667
1598.056	1083.25
1601.081	1110.25
1604.104	1091.91667
1607.125	1064.91667
1610.144	1072.91667
1613.16	1030.91667
1616.174	1014.91667
1619.186	1007.91667
1622.196	994.25
1625.203	949.25
1628.209	979.91667
1631.212	966.91667
1634.213	975.25
1637.212	1000.25
1640.209	990.25
1643.203	962.91667
1646.196	927.91667
1649.186	882.58333
1652.174	868.91667
1655.16	830.91667
1658.144	822.25
1661.125	788.58333
1664.105	743.25
1667.082	719.58333
1670.057	676.25
1673.03	640.91667
1676.001	622.58333
1678.97	583.91667
1681.937	564.25
1684.901	523.25
1687.863	521.91667
1690.824	499.91667
1693.782	506.91667
1696.738	467.91667
1699.692	471.25
1702.643	453.25
1705.593	458.91667
1708.54	446.58333
1711.486	454.91667
1714.429	437.58333
1717.37	449.91667
1720.309	429.25
1723.246	433.91667
1726.181	423.91667
1729.113	416.58333
1732.044	423.25
1734.972	420.25
1737.899	431.25
1740.823	433.91667
1743.745	446.58333
1746.665	402.91667
1749.583	400.58333
1752.499	400.58333
1755.413	397.91667
1758.325	383.58333
1761.235	394.25
1764.142	377.58333
1767.048	375.58333
1769.951	371.91667
1772.852	375.25
1775.752	390.91667
1778.649	396.25
1781.544	400.91667
1784.437	358.91667
1787.328	376.25
1790.217	368.58333
1793.104	342.25
1795.989	352.58333
1798.872	348.25
1801.753	365.91667
1804.631	347.25
1807.508	357.25
1810.383	357.25
1813.255	353.25
1816.126	351.25
1818.994	348.91667
1821.861	351.58333
1824.725	349.91667
1827.587	352.25
1830.448	345.58333
1833.306	336.91667
1836.162	343.25
1839.017	339.91667
1841.869	337.91667
1844.719	336.25
1847.567	319.91667
1850.414	325.25
1853.258	318.25
1856.1	332.91667
1858.94	345.91667
1861.778	330.58333
1864.614	319.91667
1867.448	330.25
1870.28	320.91667
1873.111	336.25
1875.939	329.58333
1878.765	336.58333
1881.589	327.58333
1884.411	330.91667
1887.231	332.58333
1890.049	320.25
1892.865	339.91667
1895.68	319.91667
1898.492	324.58333
1901.302	327.58333
1904.11	312.58333
1906.916	316.25
1909.721	309.91667
1912.523	316.25
1915.323	300.58333
1918.122	301.91667
1920.918	317.25
1923.712	302.58333
1926.505	303.25
1929.295	289.25
1932.084	314.25
1934.87	300.25
1937.655	297.91667
1940.438	294.58333
1943.218	296.25
1945.997	303.58333
1948.774	305.25
1951.549	312.91667
1954.322	295.91667
1957.093	300.58333
1959.862	294.25
1962.629	290.91667
1965.394	290.58333
1968.157	287.58333
1970.918	304.91667
1973.678	288.91667
1976.435	291.58333
1979.19	291.25
1981.944	271.25
1984.696	282.91667
1987.445	275.25
1990.193	280.91667
1992.939	292.25
1995.683	281.91667
1998.425	262.91667
2001.165	304.25
2003.903	270.25
2006.639	279.25
2009.374	276.91667
2012.106	279.91667
2014.837	254.58333
2017.566	280.58333
2020.292	271.91667
2023.017	264.25
2025.74	267.58333
2028.461	264.58333
2031.18	276.58333
2033.898	266.25
2036.613	264.58333
2039.327	271.25
2042.038	258.91667
2044.748	267.58333
2047.456	266.91667
2050.162	255.91667
2052.866	252.91667
2055.568	267.91667
2058.268	256.25
2060.967	272.91667
2063.663	250.58333
2066.358	254.25
2069.051	246.91667
2071.742	257.58333
2074.431	263.91667
2077.118	254.25
2079.804	242.91667
2082.487	249.91667
2085.169	262.91667
2087.849	272.91667
2090.527	247.58333
2093.203	249.58333
2095.877	253.91667
2098.55	254.58333
2101.22	256.58333
2103.889	259.25
2106.556	248.91667
2109.221	264.91667
2111.884	260.25
2114.546	273.91667
2117.205	274.25
2119.863	314.25
2122.519	299.58333
2125.173	324.58333
2127.825	344.91667
2130.475	353.91667
2133.124	335.91667
2135.771	318.58333
2138.416	333.25
2141.059	306.58333
2143.7	308.25
2146.339	282.91667
2148.977	257.91667
2151.613	270.91667
2154.247	261.58333
2156.879	263.91667
2159.51	245.58333
2162.138	252.91667
2164.765	239.91667
2167.39	231.58333
2170.013	253.25
2172.634	250.25
2175.254	239.25
2177.872	276.91667
2180.488	232.91667
2183.102	237.25
2185.714	234.91667
2188.325	224.25
2190.934	233.25
2193.541	237.25
2196.146	233.25
2198.75	216.25
2201.351	223.91667
2203.951	207.25
2206.549	224.25
2209.146	214.58333
2211.74	211.58333
2214.333	220.91667
2216.924	209.25
2219.514	208.91667
2222.101	209.91667
2224.687	225.91667
2227.271	197.91667
2229.853	206.25
2232.433	192.58333
2235.012	215.58333
2237.589	210.25
2240.164	221.25
2242.738	200.91667
2245.309	193.91667
2247.879	214.25
2250.448	206.58333
2253.014	190.25
2255.579	188.58333
2258.142	197.25
2260.703	197.58333
2263.262	193.25
2265.82	188.58333
2268.376	206.58333
2270.93	188.91667
2273.483	185.91667
2276.033	195.91667
2278.583	187.25
2281.13	183.91667
2283.675	179.58333
2286.219	188.25
2288.761	189.58333
2291.302	194.91667
2293.841	202.91667
2296.377	180.91667
2298.913	192.25
2301.446	197.91667
2303.978	184.25
2306.508	180.25
2309.037	183.25
2311.563	188.25
2314.088	183.58333
2316.612	168.91667
2319.133	186.58333
2321.653	185.58333
2324.171	170.58333
2326.688	185.91667
2329.202	183.25
2331.715	179.58333
2334.227	182.25
2336.736	180.91667
2339.244	172.25
2341.751	164.58333
2344.255	180.91667
2346.758	183.25
2349.259	163.25
2351.759	176.58333
2354.257	163.91667
2356.753	160.58333
2359.247	168.58333
2361.74	174.25
2364.231	166.58333
2366.721	177.58333
2369.209	164.91667
2371.695	168.25
2374.179	161.25
2376.662	154.91667
2379.143	179.58333
2381.622	165.58333
2384.1	176.91667
2386.576	164.58333
2389.051	177.25
2391.524	174.58333
2393.995	172.58333
2396.464	164.91667
2398.932	162.25
2401.398	164.91667
2403.863	160.58333
2406.325	157.58333
2408.787	169.58333
2411.246	163.58333
2413.704	162.58333
2416.16	161.25
2418.615	162.25
2421.068	165.58333
2423.519	156.25
2425.969	146.25
2428.417	170.25
2430.863	179.91667
2433.308	161.58333
2435.751	162.58333
2438.193	160.25
2440.633	160.25
2443.071	164.25
2445.508	152.91667
2447.943	160.25
2450.376	152.91667
2452.808	162.25
2455.238	148.91667
2457.667	181.58333
2460.093	147.58333
2462.519	140.91667
2464.942	143.25
2467.365	155.58333
2469.785	154.58333
2472.204	150.58333
2474.621	149.58333
2477.037	169.58333
2479.451	142.58333
2481.863	135.91667
2484.274	146.25
2486.683	147.58333
2489.091	156.25
2491.497	159.25
2493.901	150.91667
2496.304	143.58333
2498.705	163.25
2501.105	151.91667
2503.503	163.58333
2505.899	142.58333
2508.294	162.58333
2510.687	145.25
2513.079	144.25
2515.469	134.91667
2517.858	141.25
2520.245	156.25
2522.63	147.25
2525.014	143.91667
2527.396	137.25
2529.776	139.58333
2532.156	143.25
2534.533	135.25
2536.909	129.91667
2539.283	129.58333
2541.656	140.25
2544.027	157.25
2546.397	141.25
2548.765	139.91667
2551.131	138.58333
2553.496	148.25
2555.86	142.25
2558.221	143.25
2560.582	137.91667
2562.94	127.25
2565.298	142.91667
2567.653	146.58333
2570.007	128.25
2572.36	141.25
2574.711	126.25
2577.06	145.91667
2579.408	135.91667
2581.754	134.91667
2584.099	135.58333
2586.442	135.58333
2588.784	143.25
2591.124	135.91667
2593.463	134.91667
2595.8	138.91667
2598.135	131.25
2600.469	123.91667
2602.802	143.58333
2605.133	144.58333
2607.462	123.91667
2609.79	120.25
2612.116	139.58333
2614.441	133.91667
2616.764	136.25
2619.086	135.58333
2621.406	129.58333
2623.725	143.25
2626.042	130.58333
2628.358	130.91667
2630.672	130.25
2632.985	137.91667
2635.296	133.91667
2637.606	131.58333
2639.914	124.91667
2642.22	129.91667
2644.525	131.58333
2646.829	131.25
2649.131	140.91667
2651.432	137.91667
2653.731	124.91667
2656.028	138.25
2658.324	138.58333
2660.619	121.25
2662.912	135.91667
2665.204	123.25
2667.494	138.91667
2669.782	123.25
2672.07	139.58333
2674.355	140.58333
2676.639	130.58333
2678.922	130.91667
2681.203	134.58333
2683.483	122.58333
2685.761	119.25
2688.038	138.25
2690.313	138.91667
2692.587	131.25
2694.859	126.58333
2697.13	129.58333
2699.399	132.25
2701.667	142.25
2703.933	135.58333
2706.198	146.91667
2708.461	139.91667
2710.723	141.58333
2712.984	137.91667
2715.243	142.25
2717.5	133.25
2719.757	138.58333
2722.011	135.25
2724.264	137.25
2726.516	146.91667
2728.766	124.25
2731.015	135.58333
2733.262	136.58333
2735.508	134.91667
2737.753	142.58333
2739.996	127.91667
2742.237	123.58333
2744.477	139.25
2746.716	150.58333
2748.953	145.58333
2751.189	142.91667
2753.423	140.58333
2755.656	122.25
2757.887	121.25
2760.117	125.25
2762.346	124.25
2764.573	113.58333
2766.798	119.91667
2769.022	129.25
2771.245	122.25
2773.467	125.91667
2775.686	126.58333
2777.905	128.91667
2780.122	124.25
2782.337	126.91667
2784.552	125.25
2786.764	124.91667
2788.976	115.58333
2791.186	129.58333
2793.394	126.91667
2795.601	131.58333
2797.807	134.25
2800.011	130.91667
2802.214	140.25
2804.415	130.25
2806.615	129.91667
2808.814	141.25
2811.011	138.91667
2813.206	139.91667
2815.401	143.91667
2817.594	146.91667
2819.785	152.25
2821.975	134.91667
2824.164	139.91667
2826.351	134.58333
2828.537	153.25
2830.722	148.25
2832.905	144.91667
2835.086	152.91667
2837.267	175.25
2839.445	168.91667
2841.623	168.91667
2843.799	168.91667
2845.974	181.91667
2848.147	180.91667
2850.319	191.58333
2852.489	199.58333
2854.659	199.91667
2856.826	201.58333
2858.993	217.58333
2861.158	202.25
2863.321	203.91667
2865.483	228.91667
2867.644	214.91667
2869.804	217.91667
2871.962	207.58333
2874.118	216.58333
2876.274	222.91667
2878.428	218.25
2880.58	228.58333
2882.731	206.58333
2884.881	211.91667
2887.03	220.58333
2889.177	216.58333
2891.322	225.25
2893.467	208.58333
2895.61	210.25
2897.751	226.91667
2899.892	208.91667
2902.03	212.58333
2904.168	218.58333
2906.304	217.91667
2908.439	234.25
2910.572	211.25
2912.704	218.25
2914.835	224.25
2916.965	222.25
2919.093	238.58333
2921.219	213.58333
2923.345	239.91667
2925.469	215.58333
2927.591	209.91667
2929.712	203.91667
2931.832	216.91667
2933.951	208.58333
2936.068	204.91667
2938.184	197.58333
2940.299	194.58333
2942.412	199.25
2944.524	176.25
2946.634	190.58333
2948.744	161.58333
2950.851	196.58333
2952.958	159.58333
2955.063	173.25
2957.167	168.25
2959.269	152.25
2961.371	183.91667
2963.471	152.91667
2965.569	167.91667
2967.666	135.58333
2969.762	141.25
2971.857	137.25
2973.95	132.91667
2976.042	145.58333
2978.133	132.25
2980.222	134.58333
2982.31	123.58333
2984.396	106.25
2986.482	115.25
2988.566	121.91667
2990.648	118.91667
2992.73	120.25
2994.81	105.58333
2996.889	121.25
2998.966	117.58333
3001.042	127.91667
3003.117	114.91667
3005.191	117.91667
3007.263	126.25
3009.334	117.25
3011.403	118.91667
3013.472	111.58333
3015.539	121.91667
3017.604	132.91667
3019.669	104.25
3021.732	110.91667
3023.794	111.58333
3025.854	98.91667
3027.914	94.91667
3029.971	102.91667
3032.028	103.58333
3034.083	109.91667
3036.137	107.25
3038.19	96.25
3040.242	89.58333
3042.292	86.25
3044.341	93.25
3046.388	106.91667
3048.435	89.91667
3050.48	114.58333
3052.524	93.91667
3054.566	83.25
3056.607	93.58333
3058.647	92.91667
3060.686	80.25
3062.723	75.25
3064.759	79.25
3066.794	0.91667
3068.828	0.25
3070.86	2.25
