-0.839	135.54167
3.438	146.54167
7.711	69.20833
11.981	40.20833
16.247	31.54167
20.509	37.875
24.768	36.875
29.024	41.20833
33.276	31.54167
37.524	40.875
41.769	28.54167
46.01	24.20833
50.247	41.20833
54.481	49.20833
58.712	52.54167
62.939	36.20833
67.162	49.875
71.382	42.54167
75.599	34.54167
79.812	41.875
84.021	68.20833
88.227	40.875
92.429	47.20833
96.628	36.875
100.823	54.20833
105.015	51.20833
109.204	45.20833
113.388	58.875
117.57	40.20833
121.748	60.875
125.922	50.20833
130.093	65.54167
134.261	62.875
138.425	53.54167
142.585	83.875
146.742	62.20833
150.896	76.20833
155.046	76.20833
159.193	108.54167
163.336	157.20833
167.476	266.20833
171.613	477.875
175.746	776.20833
179.875	1120.54167
184.002	1458.54167
188.124	1721.54167
192.244	1819.54167
196.36	1816.54167
200.472	1816.20833
204.581	1793.20833
208.687	1743.54167
212.79	1755.54167
216.889	1776.20833
220.984	1800.20833
225.077	1784.20833
229.165	1807.875
233.251	1815.20833
237.333	1827.54167
241.412	1820.54167
245.487	1806.875
249.559	1771.20833
253.628	1781.54167
257.694	1737.20833
261.756	1768.20833
265.814	1733.54167
269.87	1694.54167
273.922	1631.875
277.97	1621.20833
282.016	1610.20833
286.058	1595.875
290.097	1619.20833
294.132	1646.875
298.164	1629.54167
302.193	1584.20833
306.219	1510.54167
310.241	1400.875
314.26	1323.54167
318.276	1263.54167
322.288	1242.54167
326.297	1206.875
330.303	1183.20833
334.305	1165.875
338.305	1170.20833
342.301	1145.54167
346.294	1156.54167
350.283	1151.875
354.269	1130.20833
358.252	1131.875
362.232	1141.54167
366.209	1135.20833
370.182	1112.875
374.152	1118.20833
378.119	1124.875
382.083	1107.54167
386.043	1124.875
390	1104.875
393.954	1126.20833
397.905	1123.20833
401.852	1138.875
405.797	1120.875
409.738	1116.20833
413.676	1141.54167
417.61	1142.875
421.542	1127.875
425.47	1109.20833
429.396	1097.54167
433.318	1096.54167
437.236	1101.875
441.152	1136.20833
445.065	1080.54167
448.974	1107.54167
452.88	1088.875
456.783	1090.20833
460.683	1076.875
464.58	1110.875
468.473	1102.875
472.364	1094.875
476.251	1098.875
480.135	1106.875
484.016	1105.875
487.894	1121.875
491.769	1119.875
495.641	1095.54167
499.509	1102.875
503.375	1125.20833
507.237	1112.875
511.096	1096.54167
514.952	1111.875
518.805	1104.875
522.655	1109.54167
526.502	1107.20833
530.346	1113.54167
534.187	1116.875
538.024	1111.20833
541.859	1101.54167
545.69	1122.54167
549.519	1101.20833
553.344	1100.54167
557.166	1088.54167
560.985	1067.20833
564.802	1087.875
568.615	1064.875
572.425	1063.54167
576.232	1053.20833
580.036	1058.20833
583.836	1059.54167
587.634	1066.54167
591.429	1057.20833
595.221	1081.20833
599.01	1082.20833
602.796	1082.54167
606.578	1079.20833
610.358	1097.20833
614.135	1081.54167
617.909	1079.875
621.679	1068.20833
625.447	1061.875
629.212	1048.20833
632.973	1072.875
636.732	1052.875
640.488	1068.875
644.241	1050.20833
647.991	1058.20833
651.737	1083.875
655.481	1039.875
659.222	1048.875
662.96	1045.20833
666.695	1049.875
670.427	1051.20833
674.156	1072.54167
677.882	1058.20833
681.605	1065.875
685.325	1042.875
689.043	1067.20833
692.757	1052.875
696.468	1035.20833
700.177	1037.875
703.882	1026.20833
707.585	1020.20833
711.284	1021.54167
714.981	1006.54167
718.675	1006.54167
722.366	1026.54167
726.054	1005.20833
729.739	1012.20833
733.421	1019.20833
737.1	1014.20833
740.777	1020.875
744.45	1023.875
748.121	1020.20833
751.789	1042.875
755.453	1037.20833
759.115	1041.54167
762.774	1029.875
766.431	1038.54167
770.084	1023.875
773.734	1042.20833
777.382	1060.875
781.027	1050.54167
784.669	1040.54167
788.308	1037.875
791.944	1046.20833
795.577	1045.20833
799.208	1065.875
802.835	1066.20833
806.46	1074.875
810.082	1079.54167
813.701	1066.20833
817.317	1085.20833
820.931	1083.54167
824.542	1088.20833
828.149	1056.875
831.754	1045.20833
835.357	1037.20833
838.956	1061.20833
842.553	1041.20833
846.146	1028.875
849.737	1017.875
853.326	1027.20833
856.911	1006.20833
860.493	1031.20833
864.073	1031.54167
867.65	1040.54167
871.225	1058.20833
874.796	1045.54167
878.365	1035.875
881.931	1040.20833
885.494	1058.875
889.054	1036.875
892.612	1049.54167
896.166	1017.54167
899.719	995.20833
903.268	989.875
906.814	1012.54167
910.358	1000.875
913.899	975.875
917.438	979.54167
920.973	967.875
924.506	977.54167
928.036	1000.54167
931.564	1013.54167
935.088	1015.54167
938.61	1010.20833
942.129	1017.20833
945.646	1034.875
949.16	1023.20833
952.671	1043.20833
956.179	1050.20833
959.685	1058.875
963.188	1058.875
966.688	1040.875
970.185	1013.20833
973.68	982.875
977.173	973.54167
980.662	970.20833
984.149	984.20833
987.633	961.875
991.114	960.54167
994.593	992.875
998.069	997.54167
1001.542	1016.875
1005.013	1011.54167
1008.481	960.875
1011.947	943.875
1015.409	923.20833
1018.869	936.20833
1022.327	943.20833
1025.782	921.20833
1029.234	910.20833
1032.683	899.54167
1036.13	881.54167
1039.574	871.54167
1043.016	854.20833
1046.455	832.20833
1049.891	824.875
1053.325	845.20833
1056.756	836.54167
1060.184	838.875
1063.61	818.20833
1067.033	839.54167
1070.454	823.875
1073.872	846.54167
1077.287	838.875
1080.7	827.20833
1084.11	822.875
1087.517	827.20833
1090.922	825.20833
1094.325	797.875
1097.724	801.54167
1101.122	807.875
1104.516	799.875
1107.908	776.875
1111.298	793.54167
1114.684	811.20833
1118.069	804.875
1121.45	827.875
1124.83	810.20833
1128.206	808.875
1131.58	821.54167
1134.951	847.20833
1138.32	849.20833
1141.687	878.20833
1145.05	874.20833
1148.412	886.875
1151.77	882.20833
1155.126	876.875
1158.48	860.20833
1161.831	877.20833
1165.18	875.875
1168.525	881.875
1171.869	888.20833
1175.21	895.20833
1178.548	907.54167
1181.884	919.20833
1185.217	915.875
1188.548	945.875
1191.877	947.20833
1195.202	996.20833
1198.526	983.20833
1201.846	997.20833
1205.165	991.54167
1208.48	988.875
1211.794	999.54167
1215.104	1010.875
1218.413	986.54167
1221.719	979.875
1225.022	973.875
1228.323	949.875
1231.621	963.54167
1234.917	941.54167
1238.21	968.54167
1241.501	943.54167
1244.79	927.20833
1248.076	926.875
1251.359	944.20833
1254.64	983.20833
1257.919	954.54167
1261.195	969.20833
1264.468	972.54167
1267.74	993.20833
1271.008	999.54167
1274.275	987.54167
1277.538	970.20833
1280.8	984.875
1284.059	966.54167
1287.315	993.875
1290.569	982.875
1293.821	995.875
1297.07	1003.20833
1300.317	990.875
1303.562	1000.20833
1306.803	990.54167
1310.043	990.20833
1313.28	981.875
1316.515	984.54167
1319.747	988.54167
1322.977	979.54167
1326.204	967.54167
1329.429	943.20833
1332.652	970.20833
1335.872	972.875
1339.09	944.20833
1342.306	936.54167
1345.519	941.875
1348.729	937.54167
1351.938	938.20833
1355.144	913.875
1358.347	902.54167
1361.548	926.20833
1364.747	914.875
1367.944	905.54167
1371.138	899.875
1374.329	889.875
1377.518	902.20833
1380.705	895.54167
1383.89	890.875
1387.072	871.20833
1390.252	858.54167
1393.429	837.875
1396.605	821.20833
1399.777	774.20833
1402.948	779.875
1406.116	766.20833
1409.282	772.20833
1412.445	774.20833
1415.606	774.54167
1418.765	788.20833
1421.921	794.20833
1425.075	780.20833
1428.227	804.54167
1431.376	851.20833
1434.524	863.54167
1437.668	877.54167
1440.811	890.875
1443.951	891.54167
1447.089	911.54167
1450.224	895.54167
1453.357	889.54167
1456.488	886.20833
1459.617	882.875
1462.743	878.20833
1465.867	855.20833
1468.989	849.54167
1472.108	824.875
1475.225	825.20833
1478.34	800.875
1481.453	807.875
1484.563	800.54167
1487.671	797.54167
1490.776	821.54167
1493.88	822.875
1496.981	839.54167
1500.08	842.54167
1503.176	839.875
1506.271	849.20833
1509.363	871.54167
1512.452	874.20833
1515.54	865.875
1518.625	886.20833
1521.708	908.54167
1524.789	936.54167
1527.867	952.875
1530.944	989.20833
1534.018	1019.20833
1537.089	1045.875
1540.159	1065.54167
1543.226	1065.54167
1546.291	1041.20833
1549.354	1018.875
1552.415	1010.54167
1555.473	976.20833
1558.529	969.54167
1561.583	968.875
1564.634	948.20833
1567.684	963.20833
1570.731	959.54167
1573.776	971.54167
1576.819	959.20833
1579.859	961.875
1582.898	989.20833
1585.934	999.54167
1588.968	1010.20833
1591.999	982.54167
1595.029	984.54167
1598.056	998.20833
1601.081	1011.54167
1604.104	1019.54167
1607.125	993.875
1610.144	980.875
1613.16	952.875
1616.174	932.54167
1619.186	926.875
1622.196	902.875
1625.203	883.54167
1628.209	887.875
1631.212	883.20833
1634.213	882.54167
1637.212	895.20833
1640.209	902.20833
1643.203	860.20833
1646.196	841.875
1649.186	801.20833
1652.174	793.54167
1655.16	758.20833
1658.144	754.20833
1661.125	724.20833
1664.105	705.20833
1667.082	676.54167
1670.057	638.54167
1673.03	603.20833
1676.001	583.875
1678.97	546.875
1681.937	533.875
1684.901	507.54167
1687.863	489.20833
1690.824	475.54167
1693.782	477.875
1696.738	444.54167
1699.692	440.54167
1702.643	434.20833
1705.593	436.875
1708.54	429.20833
1711.486	425.875
1714.429	417.54167
1717.37	426.54167
1720.309	413.20833
1723.246	420.20833
1726.181	403.875
1729.113	402.20833
1732.044	408.875
1734.972	393.20833
1737.899	413.54167
1740.823	418.875
1743.745	435.20833
1746.665	393.54167
1749.583	387.54167
1752.499	383.54167
1755.413	379.875
1758.325	360.20833
1761.235	376.20833
1764.142	365.20833
1767.048	359.54167
1769.951	370.20833
1772.852	359.20833
1775.752	366.875
1778.649	368.875
1781.544	374.54167
1784.437	351.20833
1787.328	365.54167
1790.217	349.54167
1793.104	339.875
1795.989	342.20833
1798.872	332.54167
1801.753	352.875
1804.631	342.875
1807.508	347.875
1810.383	337.875
1813.255	337.54167
1816.126	335.875
1818.994	340.54167
1821.861	333.20833
1824.725	335.20833
1827.587	343.20833
1830.448	331.54167
1833.306	323.875
1836.162	340.54167
1839.017	327.875
1841.869	330.20833
1844.719	322.875
1847.567	311.20833
1850.414	313.20833
1853.258	310.20833
1856.1	328.875
1858.94	327.20833
1861.778	320.20833
1864.614	306.875
1867.448	322.875
1870.28	301.875
1873.111	329.875
1875.939	320.20833
1878.765	328.20833
1881.589	308.54167
1884.411	318.54167
1887.231	316.20833
1890.049	310.54167
1892.865	316.54167
1895.68	306.54167
1898.492	312.20833
1901.302	301.54167
1904.11	302.54167
1906.916	306.875
1909.721	297.54167
1912.523	301.54167
1915.323	294.54167
1918.122	296.54167
1920.918	308.54167
1923.712	290.20833
1926.505	301.54167
1929.295	276.875
1932.084	297.20833
1934.87	296.875
1937.655	294.20833
1940.438	284.20833
1943.218	291.54167
1945.997	295.20833
1948.774	294.54167
1951.549	296.875
1954.322	282.54167
1957.093	291.875
1959.862	286.20833
1962.629	280.875
1965.394	284.20833
1968.157	270.875
1970.918	280.20833
1973.678	274.54167
1976.435	286.20833
1979.19	271.54167
1981.944	258.875
1984.696	268.875
1987.445	264.20833
1990.193	271.20833
1992.939	282.54167
1995.683	275.875
1998.425	256.20833
2001.165	285.875
2003.903	264.54167
2006.639	265.54167
2009.374	271.875
2012.106	266.20833
2014.837	245.20833
2017.566	270.875
2020.292	263.20833
2023.017	261.875
2025.74	259.875
2028.461	255.54167
2031.18	259.875
2033.898	248.20833
2036.613	253.54167
2039.327	269.875
2042.038	249.875
2044.748	255.54167
2047.456	259.20833
2050.162	242.54167
2052.866	250.875
2055.568	268.20833
2058.268	251.54167
2060.967	256.875
2063.663	239.20833
2066.358	240.875
2069.051	239.875
2071.742	247.20833
2074.431	256.20833
2077.118	234.875
2079.804	230.875
2082.487	245.875
2085.169	259.875
2087.849	270.20833
2090.527	238.875
2093.203	244.54167
2095.877	237.875
2098.55	241.20833
2101.22	250.20833
2103.889	259.875
2106.556	244.20833
2109.221	258.875
2111.884	246.54167
2114.546	270.20833
2117.205	264.20833
2119.863	294.54167
2122.519	279.20833
2125.173	311.875
2127.825	336.54167
2130.475	332.20833
2133.124	312.54167
2135.771	305.875
2138.416	309.54167
2141.059	289.54167
2143.7	298.54167
2146.339	274.20833
2148.977	246.875
2151.613	255.54167
2154.247	256.54167
2156.879	256.875
2159.51	232.20833
2162.138	236.20833
2164.765	235.875
2167.39	229.20833
2170.013	245.20833
2172.634	242.875
2175.254	238.875
2177.872	270.54167
2180.488	226.875
2183.102	224.20833
2185.714	222.875
2188.325	210.54167
2190.934	220.875
2193.541	230.875
2196.146	229.54167
2198.75	203.875
2201.351	210.54167
2203.951	205.54167
2206.549	218.54167
2209.146	211.875
2211.74	203.54167
2214.333	222.20833
2216.924	203.875
2219.514	201.875
2222.101	202.20833
2224.687	224.20833
2227.271	200.875
2229.853	197.54167
2232.433	181.20833
2235.012	204.20833
2237.589	200.875
2240.164	222.20833
2242.738	195.54167
2245.309	188.54167
2247.879	210.875
2250.448	200.875
2253.014	198.20833
2255.579	184.54167
2258.142	189.54167
2260.703	194.20833
2263.262	186.875
2265.82	179.20833
2268.376	196.54167
2270.93	187.875
2273.483	174.54167
2276.033	189.54167
2278.583	180.20833
2281.13	179.20833
2283.675	169.875
2286.219	178.54167
2288.761	190.20833
2291.302	188.20833
2293.841	201.20833
2296.377	175.875
2298.913	186.875
2301.446	195.875
2303.978	185.20833
2306.508	181.54167
2309.037	180.54167
2311.563	176.875
2314.088	182.20833
2316.612	161.54167
2319.133	183.875
2321.653	182.20833
2324.171	173.875
2326.688	188.54167
2329.202	178.54167
2331.715	178.875
2334.227	169.54167
2336.736	178.20833
2339.244	171.875
2341.751	160.875
2344.255	177.54167
2346.758	175.20833
2349.259	162.875
2351.759	181.20833
2354.257	160.875
2356.753	158.875
2359.247	164.20833
2361.74	172.20833
2364.231	166.20833
2366.721	171.875
2369.209	160.54167
2371.695	162.54167
2374.179	163.54167
2376.662	147.875
2379.143	172.875
2381.622	163.875
2384.1	164.54167
2386.576	157.54167
2389.051	168.54167
2391.524	176.54167
2393.995	171.20833
2396.464	157.54167
2398.932	154.875
2401.398	163.875
2403.863	156.875
2406.325	148.54167
2408.787	168.20833
2411.246	161.54167
2413.704	153.875
2416.16	156.875
2418.615	161.20833
2421.068	160.875
2423.519	154.20833
2425.969	147.875
2428.417	168.20833
2430.863	174.20833
2433.308	166.54167
2435.751	159.875
2438.193	158.875
2440.633	160.875
2443.071	159.20833
2445.508	156.20833
2447.943	157.875
2450.376	152.875
2452.808	160.20833
2455.238	146.54167
2457.667	178.54167
2460.093	145.20833
2462.519	143.20833
2464.942	148.20833
2467.365	157.54167
2469.785	158.875
2472.204	146.875
2474.621	149.875
2477.037	161.20833
2479.451	140.875
2481.863	141.54167
2484.274	140.54167
2486.683	148.20833
2489.091	158.20833
2491.497	155.875
2493.901	154.20833
2496.304	148.20833
2498.705	159.54167
2501.105	152.875
2503.503	167.20833
2505.899	142.20833
2508.294	164.20833
2510.687	142.54167
2513.079	151.875
2515.469	143.20833
2517.858	136.20833
2520.245	158.875
2522.63	150.54167
2525.014	139.875
2527.396	140.54167
2529.776	148.875
2532.156	149.20833
2534.533	136.875
2536.909	134.20833
2539.283	131.54167
2541.656	138.54167
2544.027	152.875
2546.397	144.54167
2548.765	139.54167
2551.131	137.54167
2553.496	147.54167
2555.86	145.54167
2558.221	148.54167
2560.582	139.875
2562.94	128.20833
2565.298	140.20833
2567.653	148.875
2570.007	133.20833
2572.36	147.875
2574.711	133.54167
2577.06	154.875
2579.408	138.875
2581.754	143.20833
2584.099	140.20833
2586.442	133.54167
2588.784	139.875
2591.124	135.875
2593.463	131.875
2595.8	143.875
2598.135	128.875
2600.469	127.20833
2602.802	147.54167
2605.133	147.20833
2607.462	132.875
2609.79	128.54167
2612.116	144.875
2614.441	135.20833
2616.764	135.875
2619.086	134.54167
2621.406	134.20833
2623.725	148.20833
2626.042	136.54167
2628.358	132.54167
2630.672	132.875
2632.985	146.20833
2635.296	139.875
2637.606	128.875
2639.914	129.20833
2642.22	129.875
2644.525	137.20833
2646.829	136.54167
2649.131	146.20833
2651.432	137.54167
2653.731	129.875
2656.028	141.54167
2658.324	139.20833
2660.619	130.20833
2662.912	141.20833
2665.204	122.875
2667.494	143.20833
2669.782	130.875
2672.07	140.20833
2674.355	145.54167
2676.639	134.20833
2678.922	134.20833
2681.203	135.875
2683.483	130.54167
2685.761	123.54167
2688.038	145.54167
2690.313	146.875
2692.587	138.54167
2694.859	131.54167
2697.13	134.54167
2699.399	137.20833
2701.667	145.20833
2703.933	137.875
2706.198	147.20833
2708.461	147.54167
2710.723	138.54167
2712.984	140.54167
2715.243	151.20833
2717.5	135.54167
2719.757	142.875
2722.011	136.54167
2724.264	147.20833
2726.516	157.20833
2728.766	133.875
2731.015	142.20833
2733.262	140.875
2735.508	136.875
2737.753	137.20833
2739.996	132.20833
2742.237	131.875
2744.477	149.54167
2746.716	153.20833
2748.953	149.20833
2751.189	152.54167
2753.423	139.54167
2755.656	133.875
2757.887	130.875
2760.117	136.20833
2762.346	130.20833
2764.573	121.875
2766.798	134.54167
2769.022	140.54167
2771.245	130.54167
2773.467	136.875
2775.686	128.54167
2777.905	141.875
2780.122	129.54167
2782.337	135.54167
2784.552	134.20833
2786.764	132.54167
2788.976	131.20833
2791.186	139.54167
2793.394	132.20833
2795.601	143.875
2797.807	142.54167
2800.011	141.20833
2802.214	142.20833
2804.415	141.54167
2806.615	142.20833
2808.814	143.20833
2811.011	147.54167
2813.206	144.20833
2815.401	160.20833
2817.594	152.875
2819.785	158.54167
2821.975	141.20833
2824.164	150.54167
2826.351	143.20833
2828.537	169.54167
2830.722	160.54167
2832.905	161.54167
2835.086	162.875
2837.267	176.875
2839.445	171.54167
2841.623	168.54167
2843.799	170.875
2845.974	188.875
2848.147	192.54167
2850.319	193.54167
2852.489	199.875
2854.659	204.54167
2856.826	203.54167
2858.993	227.20833
2861.158	202.875
2863.321	204.20833
2865.483	214.875
2867.644	219.20833
2869.804	213.875
2871.962	204.54167
2874.118	214.54167
2876.274	215.20833
2878.428	210.20833
2880.58	209.54167
2882.731	204.54167
2884.881	216.20833
2887.03	214.54167
2889.177	215.20833
2891.322	226.20833
2893.467	202.875
2895.61	207.54167
2897.751	222.20833
2899.892	215.875
2902.03	216.54167
2904.168	215.54167
2906.304	220.20833
2908.439	235.20833
2910.572	216.875
2912.704	227.54167
2914.835	221.20833
2916.965	223.875
2919.093	235.20833
2921.219	211.20833
2923.345	240.875
2925.469	222.54167
2927.591	216.54167
2929.712	206.875
2931.832	217.875
2933.951	212.875
2936.068	203.875
2938.184	205.20833
2940.299	199.20833
2942.412	194.54167
2944.524	183.875
2946.634	188.20833
2948.744	168.54167
2950.851	202.54167
2952.958	168.20833
2955.063	177.875
2957.167	167.875
2959.269	160.20833
2961.371	186.20833
2963.471	163.20833
2965.569	169.54167
2967.666	152.20833
2969.762	152.54167
2971.857	145.20833
2973.95	142.20833
2976.042	152.54167
2978.133	147.54167
2980.222	142.54167
2982.31	134.54167
2984.396	117.875
2986.482	131.54167
2988.566	133.20833
2990.648	132.875
2992.73	133.875
2994.81	116.20833
2996.889	130.875
2998.966	127.875
3001.042	138.54167
3003.117	124.20833
3005.191	130.54167
3007.263	129.875
3009.334	132.20833
3011.403	131.875
3013.472	121.875
3015.539	129.54167
3017.604	144.875
3019.669	110.54167
3021.732	117.20833
3023.794	122.20833
3025.854	112.20833
3027.914	115.54167
3029.971	116.875
3032.028	113.54167
3034.083	124.54167
3036.137	115.20833
3038.19	107.20833
3040.242	101.875
3042.292	99.875
3044.341	104.54167
3046.388	123.20833
3048.435	99.875
3050.48	115.54167
3052.524	108.54167
3054.566	95.875
3056.607	110.20833
3058.647	102.20833
3060.686	89.54167
3062.723	81.54167
3064.759	87.20833
3066.794	0.875
3068.828	1.20833
3070.86	3.54167
