-0.839	127.20833
3.438	149.20833
7.711	64.875
11.981	44.54167
16.247	33.54167
20.509	37.20833
24.768	35.20833
29.024	44.54167
33.276	29.54167
37.524	41.20833
41.769	29.875
46.01	26.875
50.247	43.20833
54.481	48.20833
58.712	49.875
62.939	36.20833
67.162	53.875
71.382	44.54167
75.599	35.20833
79.812	40.20833
84.021	63.54167
88.227	38.54167
92.429	50.20833
96.628	35.875
100.823	49.54167
105.015	54.54167
109.204	47.54167
113.388	57.54167
117.57	42.875
121.748	57.875
125.922	42.20833
130.093	61.20833
134.261	60.875
138.425	54.20833
142.585	78.54167
146.742	62.20833
150.896	77.875
155.046	71.20833
159.193	106.20833
163.336	149.20833
167.476	255.20833
171.613	460.54167
175.746	739.54167
179.875	1065.20833
184.002	1382.20833
188.124	1635.875
192.244	1705.54167
196.36	1734.20833
200.472	1711.20833
204.581	1679.875
208.687	1630.20833
212.79	1632.54167
216.889	1682.875
220.984	1675.20833
225.077	1697.875
229.165	1695.20833
233.251	1705.20833
237.333	1707.875
241.412	1697.20833
245.487	1677.54167
249.559	1659.20833
253.628	1671.875
257.694	1649.875
261.756	1654.875
265.814	1605.875
269.87	1573.54167
273.922	1532.20833
277.97	1504.20833
282.016	1493.20833
286.058	1470.54167
290.097	1513.20833
294.132	1507.20833
298.164	1502.54167
302.193	1450.20833
306.219	1363.875
310.241	1281.875
314.26	1208.54167
318.276	1142.20833
322.288	1122.54167
326.297	1084.20833
330.303	1066.54167
334.305	1033.20833
338.305	1034.54167
342.301	1039.20833
346.294	1019.54167
350.283	1029.54167
354.269	1013.54167
358.252	1009.54167
362.232	1013.20833
366.209	1006.20833
370.182	1002.20833
374.152	1004.20833
378.119	996.875
382.083	978.20833
386.043	1011.20833
390	996.875
393.954	1010.54167
397.905	1012.54167
401.852	1013.875
405.797	1001.54167
409.738	990.875
413.676	1001.54167
417.61	1018.20833
421.542	988.20833
425.47	983.20833
429.396	979.875
433.318	973.875
437.236	966.20833
441.152	1005.20833
445.065	951.20833
448.974	971.875
452.88	965.20833
456.783	958.20833
460.683	942.875
464.58	950.875
468.473	957.875
472.364	966.20833
476.251	970.54167
480.135	953.54167
484.016	976.875
487.894	981.20833
491.769	981.20833
495.641	986.54167
499.509	992.875
503.375	975.54167
507.237	976.20833
511.096	964.54167
514.952	988.54167
518.805	987.875
522.655	997.875
526.502	978.20833
530.346	973.54167
534.187	985.875
538.024	970.54167
541.859	968.54167
545.69	1003.20833
549.519	970.875
553.344	958.20833
557.166	948.20833
560.985	951.20833
564.802	953.875
568.615	945.20833
572.425	922.54167
576.232	926.875
580.036	917.875
583.836	937.875
587.634	938.20833
591.429	923.20833
595.221	963.20833
599.01	945.54167
602.796	952.875
606.578	961.875
610.358	948.875
614.135	937.20833
617.909	950.20833
621.679	941.875
625.447	940.875
629.212	938.20833
632.973	929.54167
636.732	932.875
640.488	931.875
644.241	933.54167
647.991	926.54167
651.737	957.54167
655.481	919.54167
659.222	920.54167
662.96	925.20833
666.695	922.875
670.427	938.20833
674.156	943.54167
677.882	941.54167
681.605	925.20833
685.325	915.20833
689.043	944.20833
692.757	922.54167
696.468	912.54167
700.177	927.54167
703.882	900.875
707.585	903.20833
711.284	900.875
714.981	883.20833
718.675	890.875
722.366	900.875
726.054	890.54167
729.739	910.54167
733.421	899.875
737.1	885.54167
740.777	904.20833
744.45	900.54167
748.121	898.20833
751.789	937.54167
755.453	908.20833
759.115	926.875
762.774	914.875
766.431	921.875
770.084	923.20833
773.734	904.875
777.382	942.20833
781.027	939.54167
784.669	936.875
788.308	918.875
791.944	937.20833
795.577	952.54167
799.208	940.54167
802.835	947.875
806.46	966.54167
810.082	963.875
813.701	955.875
817.317	966.875
820.931	970.20833
824.542	969.54167
828.149	953.20833
831.754	926.875
835.357	936.20833
838.956	949.875
842.553	941.875
846.146	933.54167
849.737	916.875
853.326	908.20833
856.911	908.875
860.493	935.54167
864.073	928.875
867.65	935.20833
871.225	956.20833
874.796	927.54167
878.365	929.20833
881.931	949.20833
885.494	947.54167
889.054	929.20833
892.612	944.54167
896.166	923.20833
899.719	908.54167
903.268	889.54167
906.814	908.20833
910.358	893.20833
913.899	886.875
917.438	884.20833
920.973	861.54167
924.506	889.54167
928.036	900.20833
931.564	922.54167
935.088	933.54167
938.61	910.54167
942.129	906.20833
945.646	926.875
949.16	931.54167
952.671	932.20833
956.179	962.20833
959.685	952.875
963.188	968.20833
966.688	962.875
970.185	921.20833
973.68	897.875
977.173	897.54167
980.662	868.54167
984.149	902.20833
987.633	864.54167
991.114	882.54167
994.593	901.54167
998.069	889.54167
1001.542	936.875
1005.013	919.875
1008.481	868.54167
1011.947	852.54167
1015.409	851.875
1018.869	847.875
1022.327	861.20833
1025.782	831.20833
1029.234	834.875
1032.683	820.54167
1036.13	813.875
1039.574	786.54167
1043.016	764.54167
1046.455	755.54167
1049.891	755.875
1053.325	760.20833
1056.756	754.54167
1060.184	761.54167
1063.61	733.54167
1067.033	752.20833
1070.454	738.54167
1073.872	773.875
1077.287	749.875
1080.7	756.54167
1084.11	755.54167
1087.517	750.54167
1090.922	750.875
1094.325	721.54167
1097.724	719.875
1101.122	723.20833
1104.516	729.54167
1107.908	711.54167
1111.298	730.54167
1114.684	740.875
1118.069	731.875
1121.45	752.875
1124.83	723.875
1128.206	739.54167
1131.58	739.20833
1134.951	772.875
1138.32	779.54167
1141.687	799.54167
1145.05	825.875
1148.412	823.54167
1151.77	803.875
1155.126	801.54167
1158.48	804.54167
1161.831	812.54167
1165.18	795.54167
1168.525	817.54167
1171.869	832.54167
1175.21	813.875
1178.548	834.20833
1181.884	847.20833
1185.217	853.875
1188.548	863.875
1191.877	869.20833
1195.202	915.54167
1198.526	927.20833
1201.846	924.875
1205.165	916.54167
1208.48	933.54167
1211.794	924.875
1215.104	938.20833
1218.413	921.875
1221.719	916.20833
1225.022	899.875
1228.323	885.20833
1231.621	891.875
1234.917	881.54167
1238.21	900.20833
1241.501	882.54167
1244.79	860.20833
1248.076	864.54167
1251.359	878.54167
1254.64	915.875
1257.919	889.54167
1261.195	905.875
1264.468	918.54167
1267.74	918.54167
1271.008	926.875
1274.275	921.875
1277.538	914.54167
1280.8	918.54167
1284.059	911.875
1287.315	934.875
1290.569	906.54167
1293.821	923.20833
1297.07	918.54167
1300.317	942.54167
1303.562	939.20833
1306.803	935.54167
1310.043	922.54167
1313.28	907.54167
1316.515	919.20833
1319.747	921.20833
1322.977	906.20833
1326.204	900.20833
1329.429	891.875
1332.652	904.54167
1335.872	895.20833
1339.09	879.54167
1342.306	895.54167
1345.519	883.54167
1348.729	859.20833
1351.938	875.875
1355.144	850.875
1358.347	845.875
1361.548	858.875
1364.747	866.20833
1367.944	835.20833
1371.138	842.20833
1374.329	844.54167
1377.518	850.20833
1380.705	847.20833
1383.89	839.54167
1387.072	812.54167
1390.252	805.875
1393.429	769.875
1396.605	751.54167
1399.777	727.875
1402.948	733.20833
1406.116	715.54167
1409.282	713.54167
1412.445	717.875
1415.606	721.20833
1418.765	726.54167
1421.921	743.54167
1425.075	745.20833
1428.227	762.20833
1431.376	784.875
1434.524	816.20833
1437.668	824.20833
1440.811	847.875
1443.951	839.875
1447.089	849.20833
1450.224	830.20833
1453.357	840.54167
1456.488	829.875
1459.617	838.54167
1462.743	812.875
1465.867	786.875
1468.989	785.54167
1472.108	777.54167
1475.225	772.54167
1478.34	755.20833
1481.453	757.875
1484.563	752.54167
1487.671	758.875
1490.776	771.20833
1493.88	773.54167
1496.981	785.875
1500.08	779.20833
1503.176	785.875
1506.271	793.875
1509.363	832.875
1512.452	810.875
1515.54	814.54167
1518.625	821.54167
1521.708	863.20833
1524.789	883.875
1527.867	898.20833
1530.944	931.875
1534.018	972.20833
1537.089	1000.20833
1540.159	1017.875
1543.226	1016.20833
1546.291	982.20833
1549.354	978.54167
1552.415	963.20833
1555.473	934.54167
1558.529	925.20833
1561.583	928.20833
1564.634	910.875
1567.684	901.875
1570.731	909.875
1573.776	922.54167
1576.819	926.875
1579.859	931.54167
1582.898	942.875
1585.934	958.54167
1588.968	960.54167
1591.999	943.54167
1595.029	936.20833
1598.056	964.54167
1601.081	969.875
1604.104	970.20833
1607.125	948.20833
1610.144	929.54167
1613.16	917.875
1616.174	889.20833
1619.186	875.875
1622.196	861.54167
1625.203	839.54167
1628.209	834.875
1631.212	824.20833
1634.213	838.875
1637.212	848.54167
1640.209	844.20833
1643.203	823.54167
1646.196	795.875
1649.186	759.875
1652.174	750.875
1655.16	726.20833
1658.144	718.54167
1661.125	689.54167
1664.105	649.875
1667.082	629.20833
1670.057	596.54167
1673.03	566.875
1676.001	544.20833
1678.97	511.875
1681.937	496.20833
1684.901	459.875
1687.863	459.20833
1690.824	441.875
1693.782	449.20833
1696.738	413.875
1699.692	417.54167
1702.643	400.875
1705.593	405.875
1708.54	393.875
1711.486	402.875
1714.429	377.875
1717.37	393.875
1720.309	376.20833
1723.246	390.875
1726.181	368.54167
1729.113	369.54167
1732.044	377.875
1734.972	364.54167
1737.899	391.875
1740.823	381.54167
1743.745	394.20833
1746.665	355.20833
1749.583	353.20833
1752.499	347.54167
1755.413	344.54167
1758.325	332.20833
1761.235	343.875
1764.142	324.875
1767.048	328.20833
1769.951	331.875
1772.852	332.54167
1775.752	340.54167
1778.649	339.54167
1781.544	346.54167
1784.437	315.875
1787.328	332.20833
1790.217	320.20833
1793.104	308.875
1795.989	313.875
1798.872	302.875
1801.753	326.20833
1804.631	320.875
1807.508	324.54167
1810.383	307.54167
1813.255	313.875
1816.126	313.20833
1818.994	307.54167
1821.861	306.20833
1824.725	319.20833
1827.587	305.875
1830.448	307.20833
1833.306	299.875
1836.162	301.20833
1839.017	298.20833
1841.869	297.54167
1844.719	299.875
1847.567	280.875
1850.414	281.20833
1853.258	276.20833
1856.1	299.875
1858.94	302.54167
1861.778	288.54167
1864.614	281.54167
1867.448	291.20833
1870.28	274.54167
1873.111	294.54167
1875.939	290.20833
1878.765	303.20833
1881.589	282.54167
1884.411	285.54167
1887.231	286.54167
1890.049	281.54167
1892.865	292.54167
1895.68	279.20833
1898.492	286.20833
1901.302	275.54167
1904.11	282.20833
1906.916	279.54167
1909.721	278.54167
1912.523	277.875
1915.323	269.20833
1918.122	263.20833
1920.918	283.20833
1923.712	262.54167
1926.505	277.20833
1929.295	249.20833
1932.084	272.875
1934.87	273.54167
1937.655	260.875
1940.438	257.20833
1943.218	258.54167
1945.997	262.20833
1948.774	271.875
1951.549	279.54167
1954.322	265.20833
1957.093	256.54167
1959.862	262.20833
1962.629	255.875
1965.394	253.54167
1968.157	246.875
1970.918	267.54167
1973.678	250.875
1976.435	257.875
1979.19	254.54167
1981.944	241.20833
1984.696	256.54167
1987.445	240.20833
1990.193	249.54167
1992.939	261.54167
1995.683	252.54167
1998.425	239.20833
2001.165	265.20833
2003.903	232.875
2006.639	244.54167
2009.374	249.20833
2012.106	244.875
2014.837	223.875
2017.566	249.20833
2020.292	246.875
2023.017	234.875
2025.74	232.875
2028.461	236.54167
2031.18	241.20833
2033.898	227.875
2036.613	230.20833
2039.327	240.54167
2042.038	228.20833
2044.748	237.875
2047.456	240.20833
2050.162	221.20833
2052.866	227.54167
2055.568	240.875
2058.268	231.875
2060.967	244.54167
2063.663	220.20833
2066.358	225.20833
2069.051	218.20833
2071.742	230.20833
2074.431	234.20833
2077.118	223.20833
2079.804	213.20833
2082.487	222.54167
2085.169	228.54167
2087.849	246.875
2090.527	221.20833
2093.203	228.20833
2095.877	227.875
2098.55	231.875
2101.22	236.20833
2103.889	234.20833
2106.556	225.20833
2109.221	238.875
2111.884	227.54167
2114.546	246.54167
2117.205	253.875
2119.863	279.54167
2122.519	271.20833
2125.173	285.875
2127.825	321.20833
2130.475	312.20833
2133.124	295.20833
2135.771	283.875
2138.416	299.20833
2141.059	270.20833
2143.7	276.54167
2146.339	252.54167
2148.977	232.54167
2151.613	240.20833
2154.247	234.54167
2156.879	234.20833
2159.51	222.54167
2162.138	221.54167
2164.765	220.54167
2167.39	207.875
2170.013	238.20833
2172.634	224.54167
2175.254	209.20833
2177.872	248.20833
2180.488	202.20833
2183.102	209.875
2185.714	210.20833
2188.325	199.20833
2190.934	212.54167
2193.541	213.875
2196.146	208.54167
2198.75	191.20833
2201.351	198.20833
2203.951	185.875
2206.549	203.875
2209.146	192.875
2211.74	187.20833
2214.333	203.54167
2216.924	189.54167
2219.514	195.875
2222.101	197.20833
2224.687	204.20833
2227.271	184.54167
2229.853	186.875
2232.433	167.875
2235.012	191.875
2237.589	189.875
2240.164	202.54167
2242.738	182.20833
2245.309	180.875
2247.879	192.875
2250.448	191.875
2253.014	175.54167
2255.579	174.54167
2258.142	178.54167
2260.703	173.20833
2263.262	175.875
2265.82	169.20833
2268.376	184.875
2270.93	172.20833
2273.483	163.54167
2276.033	180.20833
2278.583	166.54167
2281.13	162.875
2283.675	164.54167
2286.219	164.875
2288.761	174.875
2291.302	180.20833
2293.841	186.54167
2296.377	158.54167
2298.913	171.875
2301.446	179.875
2303.978	166.54167
2306.508	171.875
2309.037	168.20833
2311.563	173.875
2314.088	171.875
2316.612	158.20833
2319.133	171.20833
2321.653	172.54167
2324.171	164.875
2326.688	174.875
2329.202	168.875
2331.715	172.20833
2334.227	163.54167
2336.736	165.20833
2339.244	159.875
2341.751	151.20833
2344.255	170.54167
2346.758	160.20833
2349.259	157.20833
2351.759	164.875
2354.257	151.54167
2356.753	147.875
2359.247	152.54167
2361.74	160.54167
2364.231	160.20833
2366.721	167.54167
2369.209	154.54167
2371.695	159.54167
2374.179	152.875
2376.662	140.20833
2379.143	168.54167
2381.622	153.54167
2384.1	158.20833
2386.576	152.54167
2389.051	165.20833
2391.524	164.54167
2393.995	162.875
2396.464	151.54167
2398.932	146.20833
2401.398	154.875
2403.863	145.875
2406.325	152.875
2408.787	153.875
2411.246	153.20833
2413.704	151.54167
2416.16	147.54167
2418.615	145.875
2421.068	150.875
2423.519	145.20833
2425.969	137.54167
2428.417	156.54167
2430.863	169.54167
2433.308	155.54167
2435.751	152.20833
2438.193	149.875
2440.633	148.875
2443.071	156.54167
2445.508	139.875
2447.943	145.875
2450.376	139.20833
2452.808	150.875
2455.238	138.875
2457.667	166.54167
2460.093	137.54167
2462.519	131.20833
2464.942	136.875
2467.365	150.875
2469.785	146.875
2472.204	137.20833
2474.621	137.54167
2477.037	162.875
2479.451	136.20833
2481.863	127.20833
2484.274	135.875
2486.683	135.20833
2489.091	152.875
2491.497	145.54167
2493.901	141.20833
2496.304	135.54167
2498.705	147.54167
2501.105	145.20833
2503.503	159.875
2505.899	137.20833
2508.294	156.20833
2510.687	139.54167
2513.079	138.20833
2515.469	132.54167
2517.858	127.875
2520.245	150.54167
2522.63	134.875
2525.014	137.20833
2527.396	131.54167
2529.776	133.54167
2532.156	147.20833
2534.533	122.20833
2536.909	123.875
2539.283	119.875
2541.656	134.20833
2544.027	144.875
2546.397	136.875
2548.765	134.20833
2551.131	136.20833
2553.496	141.20833
2555.86	134.20833
2558.221	139.875
2560.582	130.20833
2562.94	121.54167
2565.298	134.54167
2567.653	140.875
2570.007	122.54167
2572.36	141.875
2574.711	127.54167
2577.06	142.54167
2579.408	138.20833
2581.754	128.20833
2584.099	134.20833
2586.442	134.875
2588.784	138.54167
2591.124	133.875
2593.463	128.875
2595.8	134.20833
2598.135	116.875
2600.469	123.875
2602.802	139.54167
2605.133	138.54167
2607.462	117.875
2609.79	124.875
2612.116	135.20833
2614.441	127.54167
2616.764	130.875
2619.086	125.875
2621.406	126.875
2623.725	134.54167
2626.042	128.20833
2628.358	124.20833
2630.672	131.20833
2632.985	137.54167
2635.296	129.875
2637.606	127.875
2639.914	121.54167
2642.22	124.54167
2644.525	129.20833
2646.829	135.20833
2649.131	139.875
2651.432	137.20833
2653.731	129.20833
2656.028	136.54167
2658.324	131.875
2660.619	116.54167
2662.912	138.875
2665.204	119.54167
2667.494	139.54167
2669.782	116.20833
2672.07	140.875
2674.355	136.54167
2676.639	132.54167
2678.922	123.54167
2681.203	133.875
2683.483	123.20833
2685.761	117.875
2688.038	137.54167
2690.313	143.54167
2692.587	131.875
2694.859	124.875
2697.13	130.20833
2699.399	132.875
2701.667	133.20833
2703.933	133.20833
2706.198	139.20833
2708.461	137.875
2710.723	133.875
2712.984	137.20833
2715.243	135.54167
2717.5	130.54167
2719.757	138.20833
2722.011	131.20833
2724.264	144.54167
2726.516	152.20833
2728.766	128.875
2731.015	135.54167
2733.262	139.20833
2735.508	133.875
2737.753	138.20833
2739.996	127.875
2742.237	125.20833
2744.477	140.875
2746.716	145.20833
2748.953	142.875
2751.189	141.54167
2753.423	133.54167
2755.656	129.54167
2757.887	122.54167
2760.117	134.20833
2762.346	124.875
2764.573	118.54167
2766.798	123.875
2769.022	131.54167
2771.245	121.20833
2773.467	132.875
2775.686	127.875
2777.905	137.20833
2780.122	130.54167
2782.337	139.54167
2784.552	130.20833
2786.764	132.54167
2788.976	127.875
2791.186	126.54167
2793.394	134.875
2795.601	139.54167
2797.807	135.20833
2800.011	131.20833
2802.214	141.875
2804.415	135.20833
2806.615	130.54167
2808.814	137.875
2811.011	142.875
2813.206	139.54167
2815.401	151.875
2817.594	145.875
2819.785	155.875
2821.975	139.875
2824.164	149.54167
2826.351	143.20833
2828.537	158.20833
2830.722	155.20833
2832.905	151.54167
2835.086	155.54167
2837.267	175.54167
2839.445	168.875
2841.623	169.20833
2843.799	167.20833
2845.974	177.20833
2848.147	182.875
2850.319	187.20833
2852.489	194.875
2854.659	201.875
2856.826	198.54167
2858.993	224.20833
2861.158	189.875
2863.321	201.54167
2865.483	222.20833
2867.644	209.875
2869.804	208.875
2871.962	204.20833
2874.118	208.20833
2876.274	209.20833
2878.428	211.20833
2880.58	210.875
2882.731	191.20833
2884.881	208.875
2887.03	210.20833
2889.177	207.54167
2891.322	210.54167
2893.467	204.54167
2895.61	208.54167
2897.751	226.20833
2899.892	204.875
2902.03	214.875
2904.168	207.875
2906.304	211.54167
2908.439	227.54167
2910.572	205.54167
2912.704	219.20833
2914.835	220.20833
2916.965	216.54167
2919.093	235.54167
2921.219	207.54167
2923.345	237.875
2925.469	217.54167
2927.591	207.875
2929.712	199.54167
2931.832	216.875
2933.951	205.875
2936.068	200.875
2938.184	197.54167
2940.299	198.875
2942.412	188.875
2944.524	169.875
2946.634	181.54167
2948.744	161.875
2950.851	194.20833
2952.958	163.20833
2955.063	173.20833
2957.167	165.54167
2959.269	147.875
2961.371	184.20833
2963.471	157.20833
2965.569	171.20833
2967.666	145.875
2969.762	147.875
2971.857	138.54167
2973.95	132.875
2976.042	145.54167
2978.133	144.54167
2980.222	141.20833
2982.31	126.54167
2984.396	117.875
2986.482	124.54167
2988.566	128.54167
2990.648	123.54167
2992.73	130.54167
2994.81	116.20833
2996.889	127.54167
2998.966	126.20833
3001.042	135.54167
3003.117	116.875
3005.191	129.20833
3007.263	131.875
3009.334	125.54167
3011.403	128.54167
3013.472	116.20833
3015.539	133.875
3017.604	141.54167
3019.669	111.875
3021.732	111.20833
3023.794	123.54167
3025.854	109.875
3027.914	107.875
3029.971	107.54167
3032.028	113.875
3034.083	118.20833
3036.137	116.875
3038.19	98.875
3040.242	96.875
3042.292	100.875
3044.341	105.20833
3046.388	124.20833
3048.435	97.875
3050.48	116.20833
3052.524	101.875
3054.566	87.20833
3056.607	103.54167
3058.647	96.20833
3060.686	89.875
3062.723	83.54167
3064.759	84.875
3066.794	0.20833
3068.828	0.875
3070.86	2.20833
