-0.839	124.70833
3.438	145.04167
7.711	63.375
11.981	42.70833
16.247	29.375
20.509	37.70833
24.768	33.375
29.024	41.375
33.276	29.70833
37.524	37.375
41.769	28.375
46.01	25.04167
50.247	44.04167
54.481	51.70833
58.712	52.70833
62.939	34.70833
67.162	50.375
71.382	41.70833
75.599	35.04167
79.812	42.70833
84.021	61.375
88.227	36.70833
92.429	46.375
96.628	35.70833
100.823	49.70833
105.015	53.04167
109.204	44.375
113.388	54.375
117.57	38.70833
121.748	54.04167
125.922	43.375
130.093	62.375
134.261	60.375
138.425	48.04167
142.585	79.70833
146.742	55.375
150.896	67.375
155.046	65.04167
159.193	95.70833
163.336	132.04167
167.476	215.04167
171.613	388.70833
175.746	606.375
179.875	882.04167
184.002	1166.375
188.124	1358.04167
192.244	1426.04167
196.36	1413.70833
200.472	1401.70833
204.581	1386.375
208.687	1331.70833
212.79	1323.04167
216.889	1347.375
220.984	1353.375
225.077	1349.70833
229.165	1355.375
233.251	1356.375
237.333	1354.375
241.412	1338.375
245.487	1349.70833
249.559	1297.375
253.628	1318.04167
257.694	1300.375
261.756	1302.04167
265.814	1265.375
269.87	1219.70833
273.922	1185.04167
277.97	1189.70833
282.016	1170.70833
286.058	1166.04167
290.097	1187.70833
294.132	1184.04167
298.164	1175.70833
302.193	1147.04167
306.219	1084.375
310.241	1018.70833
314.26	949.04167
318.276	902.375
322.288	893.04167
326.297	860.70833
330.303	844.70833
334.305	836.375
338.305	811.70833
342.301	813.70833
346.294	819.375
350.283	812.375
354.269	799.375
358.252	792.04167
362.232	796.04167
366.209	790.70833
370.182	791.70833
374.152	786.70833
378.119	788.375
382.083	779.04167
386.043	793.70833
390	777.04167
393.954	783.375
397.905	784.04167
401.852	803.04167
405.797	785.375
409.738	778.04167
413.676	798.70833
417.61	797.04167
421.542	778.375
425.47	772.04167
429.396	762.70833
433.318	755.375
437.236	763.70833
441.152	807.04167
445.065	753.04167
448.974	762.375
452.88	766.70833
456.783	744.375
460.683	739.375
464.58	762.70833
468.473	755.04167
472.364	758.04167
476.251	746.04167
480.135	765.375
484.016	764.04167
487.894	759.375
491.769	764.04167
495.641	758.04167
499.509	769.375
503.375	775.04167
507.237	776.04167
511.096	789.375
514.952	878.70833
518.805	976.70833
522.655	1009.04167
526.502	896.70833
530.346	812.70833
534.187	789.04167
538.024	769.375
541.859	760.70833
545.69	777.04167
549.519	769.375
553.344	764.04167
557.166	746.70833
560.985	754.70833
564.802	739.04167
568.615	740.04167
572.425	731.375
576.232	727.375
580.036	735.70833
583.836	728.04167
587.634	734.375
591.429	730.04167
595.221	754.70833
599.01	744.04167
602.796	751.04167
606.578	752.70833
610.358	745.70833
614.135	740.70833
617.909	744.04167
621.679	737.04167
625.447	722.04167
629.212	734.375
632.973	739.70833
636.732	737.70833
640.488	728.04167
644.241	720.375
647.991	719.70833
651.737	764.375
655.481	697.04167
659.222	710.70833
662.96	701.375
666.695	727.04167
670.427	729.375
674.156	727.375
677.882	725.04167
681.605	723.70833
685.325	722.04167
689.043	745.70833
692.757	721.70833
696.468	725.70833
700.177	713.70833
703.882	706.375
707.585	699.70833
711.284	704.70833
714.981	690.04167
718.675	702.375
722.366	713.04167
726.054	701.04167
729.739	698.70833
733.421	711.04167
737.1	702.70833
740.777	698.70833
744.45	715.70833
748.121	697.04167
751.789	725.70833
755.453	710.70833
759.115	718.375
762.774	719.70833
766.431	725.04167
770.084	720.04167
773.734	708.70833
777.382	732.04167
781.027	731.70833
784.669	726.04167
788.308	729.70833
791.944	740.70833
795.577	750.70833
799.208	739.375
802.835	743.04167
806.46	744.70833
810.082	756.70833
813.701	730.375
817.317	748.375
820.931	751.04167
824.542	752.70833
828.149	736.375
831.754	726.70833
835.357	726.70833
838.956	751.375
842.553	738.04167
846.146	720.04167
849.737	711.70833
853.326	722.70833
856.911	711.375
860.493	736.375
864.073	737.04167
867.65	751.375
871.225	751.04167
874.796	738.70833
878.365	729.375
881.931	737.70833
885.494	752.375
889.054	739.70833
892.612	735.70833
896.166	744.70833
899.719	711.375
903.268	710.04167
906.814	713.375
910.358	702.04167
913.899	703.04167
917.438	702.375
920.973	690.375
924.506	696.04167
928.036	707.70833
931.564	721.375
935.088	727.375
938.61	728.375
942.129	714.04167
945.646	732.375
949.16	732.70833
952.671	750.70833
956.179	752.04167
959.685	752.375
963.188	759.70833
966.688	742.375
970.185	712.375
973.68	698.04167
977.173	703.70833
980.662	682.04167
984.149	688.04167
987.633	672.375
991.114	674.375
994.593	702.375
998.069	704.04167
1001.542	729.04167
1005.013	706.70833
1008.481	649.04167
1011.947	675.70833
1015.409	657.04167
1018.869	669.04167
1022.327	671.375
1025.782	648.04167
1029.234	644.375
1032.683	644.04167
1036.13	622.375
1039.574	606.04167
1043.016	595.70833
1046.455	588.375
1049.891	589.375
1053.325	592.70833
1056.756	578.04167
1060.184	583.70833
1063.61	565.375
1067.033	576.70833
1070.454	571.70833
1073.872	601.70833
1077.287	586.375
1080.7	587.375
1084.11	594.04167
1087.517	581.70833
1090.922	590.70833
1094.325	570.04167
1097.724	567.70833
1101.122	555.70833
1104.516	563.04167
1107.908	549.70833
1111.298	564.70833
1114.684	564.70833
1118.069	568.04167
1121.45	577.70833
1124.83	571.375
1128.206	581.375
1131.58	584.70833
1134.951	600.04167
1138.32	610.375
1141.687	631.04167
1145.05	641.375
1148.412	638.04167
1151.77	644.70833
1155.126	638.375
1158.48	620.375
1161.831	632.04167
1165.18	637.70833
1168.525	647.375
1171.869	653.70833
1175.21	637.70833
1178.548	658.375
1181.884	661.70833
1185.217	662.375
1188.548	682.375
1191.877	684.04167
1195.202	719.70833
1198.526	721.70833
1201.846	715.04167
1205.165	713.70833
1208.48	720.375
1211.794	719.70833
1215.104	718.04167
1218.413	709.04167
1221.719	704.70833
1225.022	705.375
1228.323	682.04167
1231.621	689.375
1234.917	685.70833
1238.21	716.70833
1241.501	688.70833
1244.79	680.04167
1248.076	664.70833
1251.359	688.70833
1254.64	727.70833
1257.919	702.375
1261.195	710.375
1264.468	709.70833
1267.74	717.70833
1271.008	723.70833
1274.275	731.375
1277.538	716.70833
1280.8	719.375
1284.059	704.70833
1287.315	731.04167
1290.569	714.375
1293.821	731.04167
1297.07	733.70833
1300.317	733.70833
1303.562	741.70833
1306.803	723.375
1310.043	734.04167
1313.28	717.375
1316.515	718.70833
1319.747	711.375
1322.977	697.70833
1326.204	695.70833
1329.429	693.375
1332.652	691.70833
1335.872	701.04167
1339.09	682.375
1342.306	688.375
1345.519	680.04167
1348.729	675.70833
1351.938	670.04167
1355.144	659.04167
1358.347	663.70833
1361.548	672.375
1364.747	673.375
1367.944	645.04167
1371.138	655.375
1374.329	651.70833
1377.518	659.04167
1380.705	664.375
1383.89	673.04167
1387.072	642.04167
1390.252	636.04167
1393.429	625.04167
1396.605	606.70833
1399.777	579.375
1402.948	574.375
1406.116	573.04167
1409.282	566.04167
1412.445	569.04167
1415.606	587.375
1418.765	571.70833
1421.921	574.70833
1425.075	583.375
1428.227	594.04167
1431.376	621.70833
1434.524	647.70833
1437.668	654.04167
1440.811	649.375
1443.951	663.04167
1447.089	675.375
1450.224	667.70833
1453.357	653.70833
1456.488	651.70833
1459.617	657.70833
1462.743	647.70833
1465.867	621.375
1468.989	621.70833
1472.108	616.375
1475.225	608.375
1478.34	599.04167
1481.453	598.375
1484.563	586.70833
1487.671	593.04167
1490.776	618.375
1493.88	621.375
1496.981	623.70833
1500.08	636.375
1503.176	637.70833
1506.271	640.375
1509.363	645.04167
1512.452	650.375
1515.54	649.375
1518.625	656.04167
1521.708	689.70833
1524.789	704.04167
1527.867	720.70833
1530.944	745.70833
1534.018	771.04167
1537.089	809.375
1540.159	811.375
1543.226	810.375
1546.291	792.375
1549.354	795.70833
1552.415	784.04167
1555.473	764.70833
1558.529	752.375
1561.583	761.70833
1564.634	723.375
1567.684	738.04167
1570.731	726.70833
1573.776	734.70833
1576.819	735.70833
1579.859	730.375
1582.898	742.04167
1585.934	770.70833
1588.968	773.04167
1591.999	759.375
1595.029	751.375
1598.056	762.04167
1601.081	788.375
1604.104	766.375
1607.125	766.375
1610.144	747.70833
1613.16	719.04167
1616.174	708.375
1619.186	692.375
1622.196	689.375
1625.203	659.70833
1628.209	662.70833
1631.212	647.375
1634.213	647.04167
1637.212	658.70833
1640.209	643.70833
1643.203	618.04167
1646.196	596.70833
1649.186	590.70833
1652.174	581.04167
1655.16	548.04167
1658.144	563.04167
1661.125	535.70833
1664.105	521.375
1667.082	508.375
1670.057	482.04167
1673.03	455.70833
1676.001	442.04167
1678.97	416.70833
1681.937	412.375
1684.901	379.375
1687.863	378.375
1690.824	358.04167
1693.782	378.70833
1696.738	338.70833
1699.692	345.375
1702.643	327.375
1705.593	342.375
1708.54	328.375
1711.486	336.04167
1714.429	309.04167
1717.37	328.04167
1720.309	315.375
1723.246	321.70833
1726.181	317.04167
1729.113	317.04167
1732.044	324.375
1734.972	306.70833
1737.899	323.70833
1740.823	320.70833
1743.745	336.70833
1746.665	298.04167
1749.583	293.70833
1752.499	286.375
1755.413	293.70833
1758.325	277.04167
1761.235	295.70833
1764.142	283.375
1767.048	280.04167
1769.951	284.04167
1772.852	278.70833
1775.752	288.04167
1778.649	285.04167
1781.544	301.04167
1784.437	270.04167
1787.328	285.70833
1790.217	277.70833
1793.104	265.04167
1795.989	269.04167
1798.872	266.70833
1801.753	280.70833
1804.631	267.04167
1807.508	277.04167
1810.383	275.375
1813.255	265.70833
1816.126	271.70833
1818.994	261.70833
1821.861	265.04167
1824.725	272.70833
1827.587	270.04167
1830.448	269.70833
1833.306	259.04167
1836.162	271.04167
1839.017	266.70833
1841.869	268.04167
1844.719	264.70833
1847.567	247.70833
1850.414	242.04167
1853.258	250.70833
1856.1	266.04167
1858.94	276.70833
1861.778	255.375
1864.614	254.04167
1867.448	264.04167
1870.28	244.70833
1873.111	274.04167
1875.939	255.04167
1878.765	271.04167
1881.589	251.70833
1884.411	261.375
1887.231	266.04167
1890.049	256.70833
1892.865	266.375
1895.68	251.04167
1898.492	256.04167
1901.302	251.375
1904.11	254.375
1906.916	251.375
1909.721	249.70833
1912.523	266.70833
1915.323	245.70833
1918.122	236.375
1920.918	264.04167
1923.712	242.04167
1926.505	255.04167
1929.295	234.04167
1932.084	253.04167
1934.87	248.70833
1937.655	249.04167
1940.438	239.375
1943.218	244.375
1945.997	247.04167
1948.774	256.04167
1951.549	259.04167
1954.322	241.04167
1957.093	245.70833
1959.862	241.04167
1962.629	248.04167
1965.394	244.04167
1968.157	229.04167
1970.918	248.70833
1973.678	228.70833
1976.435	252.70833
1979.19	237.04167
1981.944	228.04167
1984.696	236.70833
1987.445	233.70833
1990.193	239.375
1992.939	251.04167
1995.683	238.70833
1998.425	225.04167
2001.165	262.375
2003.903	230.70833
2006.639	234.375
2009.374	249.375
2012.106	243.375
2014.837	218.04167
2017.566	247.04167
2020.292	241.375
2023.017	231.04167
2025.74	240.04167
2028.461	230.70833
2031.18	238.375
2033.898	228.375
2036.613	236.70833
2039.327	241.70833
2042.038	234.70833
2044.748	237.375
2047.456	241.70833
2050.162	225.70833
2052.866	232.375
2055.568	246.04167
2058.268	238.375
2060.967	239.70833
2063.663	225.70833
2066.358	227.70833
2069.051	227.70833
2071.742	231.70833
2074.431	245.70833
2077.118	231.375
2079.804	227.04167
2082.487	230.375
2085.169	250.04167
2087.849	261.04167
2090.527	226.04167
2093.203	240.04167
2095.877	236.70833
2098.55	243.04167
2101.22	251.70833
2103.889	255.375
2106.556	238.04167
2109.221	258.375
2111.884	251.375
2114.546	263.70833
2117.205	267.70833
2119.863	303.04167
2122.519	282.70833
2125.173	295.70833
2127.825	327.04167
2130.475	324.04167
2133.124	315.375
2135.771	299.375
2138.416	309.375
2141.059	286.70833
2143.7	291.70833
2146.339	279.70833
2148.977	254.70833
2151.613	265.375
2154.247	270.70833
2156.879	257.70833
2159.51	250.375
2162.138	253.375
2164.765	248.04167
2167.39	237.375
2170.013	266.375
2172.634	260.70833
2175.254	250.375
2177.872	277.375
2180.488	241.70833
2183.102	241.70833
2185.714	242.375
2188.325	237.70833
2190.934	242.375
2193.541	249.70833
2196.146	242.70833
2198.75	237.04167
2201.351	241.70833
2203.951	228.04167
2206.549	245.04167
2209.146	233.04167
2211.74	234.70833
2214.333	243.04167
2216.924	221.04167
2219.514	241.70833
2222.101	232.375
2224.687	251.375
2227.271	229.375
2229.853	235.04167
2232.433	219.375
2235.012	248.375
2237.589	239.04167
2240.164	246.04167
2242.738	239.375
2245.309	223.375
2247.879	246.04167
2250.448	240.375
2253.014	234.04167
2255.579	223.70833
2258.142	232.375
2260.703	235.04167
2263.262	227.04167
2265.82	227.70833
2268.376	239.70833
2270.93	234.70833
2273.483	225.375
2276.033	242.375
2278.583	236.375
2281.13	229.04167
2283.675	225.04167
2286.219	229.70833
2288.761	237.375
2291.302	243.375
2293.841	249.375
2296.377	226.375
2298.913	242.04167
2301.446	249.375
2303.978	242.04167
2306.508	241.70833
2309.037	241.375
2311.563	238.375
2314.088	239.375
2316.612	224.70833
2319.133	235.70833
2321.653	246.70833
2324.171	234.70833
2326.688	251.70833
2329.202	239.375
2331.715	248.375
2334.227	244.04167
2336.736	244.04167
2339.244	237.70833
2341.751	227.70833
2344.255	246.375
2346.758	241.70833
2349.259	235.375
2351.759	241.375
2354.257	235.70833
2356.753	241.70833
2359.247	235.04167
2361.74	248.70833
2364.231	245.375
2366.721	253.375
2369.209	242.70833
2371.695	250.70833
2374.179	244.04167
2376.662	236.70833
2379.143	263.375
2381.622	246.375
2384.1	256.04167
2386.576	245.70833
2389.051	262.375
2391.524	264.70833
2393.995	259.70833
2396.464	250.375
2398.932	244.70833
2401.398	262.375
2403.863	251.04167
2406.325	251.70833
2408.787	264.70833
2411.246	256.70833
2413.704	260.70833
2416.16	257.04167
2418.615	253.375
2421.068	258.04167
2423.519	254.375
2425.969	252.375
2428.417	270.375
2430.863	283.375
2433.308	269.04167
2435.751	267.04167
2438.193	261.375
2440.633	276.70833
2443.071	275.04167
2445.508	264.375
2447.943	267.04167
2450.376	259.04167
2452.808	268.04167
2455.238	255.04167
2457.667	289.375
2460.093	264.70833
2462.519	263.70833
2464.942	258.375
2467.365	274.375
2469.785	281.70833
2472.204	268.375
2474.621	268.04167
2477.037	293.375
2479.451	262.70833
2481.863	267.375
2484.274	267.70833
2486.683	275.04167
2489.091	290.375
2491.497	279.04167
2493.901	276.04167
2496.304	277.04167
2498.705	295.375
2501.105	284.70833
2503.503	298.70833
2505.899	274.70833
2508.294	300.04167
2510.687	279.375
2513.079	285.70833
2515.469	277.375
2517.858	279.375
2520.245	303.375
2522.63	293.70833
2525.014	290.04167
2527.396	281.375
2529.776	283.70833
2532.156	291.04167
2534.533	279.04167
2536.909	283.375
2539.283	275.04167
2541.656	289.375
2544.027	305.70833
2546.397	293.04167
2548.765	295.04167
2551.131	295.375
2553.496	299.04167
2555.86	301.70833
2558.221	305.70833
2560.582	296.375
2562.94	286.70833
2565.298	303.375
2567.653	305.375
2570.007	299.375
2572.36	312.04167
2574.711	298.70833
2577.06	324.375
2579.408	303.04167
2581.754	306.375
2584.099	306.70833
2586.442	311.04167
2588.784	319.375
2591.124	319.375
2593.463	323.04167
2595.8	316.375
2598.135	302.375
2600.469	304.70833
2602.802	316.04167
2605.133	336.04167
2607.462	322.70833
2609.79	305.04167
2612.116	328.04167
2614.441	325.375
2616.764	327.375
2619.086	323.70833
2621.406	331.04167
2623.725	334.04167
2626.042	327.375
2628.358	329.04167
2630.672	332.375
2632.985	342.70833
2635.296	329.04167
2637.606	325.04167
2639.914	329.375
2642.22	333.04167
2644.525	341.04167
2646.829	339.70833
2649.131	348.375
2651.432	347.375
2653.731	339.04167
2656.028	359.04167
2658.324	353.375
2660.619	343.70833
2662.912	360.70833
2665.204	346.04167
2667.494	361.04167
2669.782	353.70833
2672.07	365.375
2674.355	356.04167
2676.639	356.375
2678.922	357.04167
2681.203	361.04167
2683.483	349.70833
2685.761	354.70833
2688.038	373.375
2690.313	383.375
2692.587	356.375
2694.859	357.70833
2697.13	360.375
2699.399	377.04167
2701.667	373.70833
2703.933	366.04167
2706.198	384.375
2708.461	381.04167
2710.723	376.04167
2712.984	379.04167
2715.243	390.375
2717.5	385.70833
2719.757	382.70833
2722.011	379.04167
2724.264	389.375
2726.516	406.70833
2728.766	383.70833
2731.015	396.70833
2733.262	397.04167
2735.508	392.70833
2737.753	398.375
2739.996	382.70833
2742.237	377.04167
2744.477	389.70833
2746.716	406.04167
2748.953	401.375
2751.189	410.04167
2753.423	399.375
2755.656	386.70833
2757.887	395.70833
2760.117	389.375
2762.346	381.04167
2764.573	378.04167
2766.798	389.70833
2769.022	400.04167
2771.245	383.375
2773.467	395.375
2775.686	391.70833
2777.905	403.70833
2780.122	400.375
2782.337	412.70833
2784.552	402.04167
2786.764	411.04167
2788.976	403.70833
2791.186	415.375
2793.394	410.70833
2795.601	428.375
2797.807	423.375
2800.011	427.375
2802.214	435.04167
2804.415	425.375
2806.615	429.70833
2808.814	421.70833
2811.011	428.04167
2813.206	429.04167
2815.401	443.04167
2817.594	435.375
2819.785	443.04167
2821.975	426.04167
2824.164	443.375
2826.351	430.375
2828.537	457.04167
2830.722	457.70833
2832.905	444.375
2835.086	447.70833
2837.267	465.04167
2839.445	460.04167
2841.623	467.04167
2843.799	456.70833
2845.974	469.375
2848.147	473.04167
2850.319	484.375
2852.489	492.70833
2854.659	499.375
2856.826	497.70833
2858.993	509.04167
2861.158	495.04167
2863.321	503.375
2865.483	518.70833
2867.644	509.375
2869.804	505.375
2871.962	498.375
2874.118	504.375
2876.274	508.375
2878.428	508.04167
2880.58	506.375
2882.731	491.70833
2884.881	501.375
2887.03	508.70833
2889.177	510.04167
2891.322	512.375
2893.467	508.04167
2895.61	503.70833
2897.751	525.375
2899.892	503.375
2902.03	521.04167
2904.168	508.04167
2906.304	521.70833
2908.439	532.375
2910.572	517.04167
2912.704	532.375
2914.835	539.70833
2916.965	543.04167
2919.093	546.70833
2921.219	527.375
2923.345	554.04167
2925.469	533.70833
2927.591	533.375
2929.712	514.70833
2931.832	526.04167
2933.951	519.04167
2936.068	519.04167
2938.184	518.04167
2940.299	511.375
2942.412	502.04167
2944.524	487.375
2946.634	506.375
2948.744	487.04167
2950.851	527.70833
2952.958	488.375
2955.063	501.04167
2957.167	498.04167
2959.269	502.70833
2961.371	513.375
2963.471	491.04167
2965.569	507.04167
2967.666	488.04167
2969.762	491.375
2971.857	489.70833
2973.95	480.70833
2976.042	492.70833
2978.133	484.04167
2980.222	475.70833
2982.31	469.04167
2984.396	449.70833
2986.482	464.04167
2988.566	463.70833
2990.648	463.70833
2992.73	469.70833
2994.81	456.375
2996.889	471.04167
2998.966	468.70833
3001.042	479.70833
3003.117	467.70833
3005.191	480.04167
3007.263	473.70833
3009.334	465.04167
3011.403	465.375
3013.472	450.70833
3015.539	471.375
3017.604	466.04167
3019.669	442.04167
3021.732	454.375
3023.794	450.375
3025.854	446.70833
3027.914	435.375
3029.971	445.70833
3032.028	446.375
3034.083	451.70833
3036.137	443.70833
3038.19	418.375
3040.242	411.375
3042.292	413.375
3044.341	408.04167
3046.388	420.04167
3048.435	392.375
3050.48	414.375
3052.524	406.375
3054.566	390.04167
3056.607	395.04167
3058.647	390.70833
3060.686	375.04167
3062.723	356.04167
3064.759	351.375
3066.794	-0.29167
3068.828	1.375
3070.86	2.04167
