-0.839	131.95833
3.438	151.29167
7.711	61.625
11.981	44.625
16.247	29.29167
20.509	36.29167
24.768	33.29167
29.024	42.95833
33.276	29.29167
37.524	42.625
41.769	29.29167
46.01	26.29167
50.247	43.95833
54.481	47.29167
58.712	51.95833
62.939	37.95833
67.162	53.29167
71.382	41.625
75.599	32.95833
79.812	41.95833
84.021	61.625
88.227	42.95833
92.429	53.29167
96.628	33.625
100.823	49.95833
105.015	51.29167
109.204	43.625
113.388	53.29167
117.57	38.95833
121.748	55.95833
125.922	43.29167
130.093	58.95833
134.261	59.29167
138.425	45.29167
142.585	80.29167
146.742	59.95833
150.896	72.29167
155.046	64.95833
159.193	96.29167
163.336	135.625
167.476	221.95833
171.613	395.95833
175.746	644.29167
179.875	923.29167
184.002	1178.625
188.124	1411.95833
192.244	1465.625
196.36	1457.95833
200.472	1448.29167
204.581	1423.29167
208.687	1382.625
212.79	1387.95833
216.889	1395.625
220.984	1406.29167
225.077	1418.95833
229.165	1419.95833
233.251	1411.95833
237.333	1414.29167
241.412	1399.625
245.487	1393.95833
249.559	1366.625
253.628	1361.29167
257.694	1345.625
261.756	1362.625
265.814	1315.29167
269.87	1278.625
273.922	1255.95833
277.97	1238.625
282.016	1231.29167
286.058	1216.625
290.097	1242.95833
294.132	1255.29167
298.164	1240.625
302.193	1202.29167
306.219	1126.625
310.241	1072.625
314.26	1008.95833
318.276	955.95833
322.288	954.29167
326.297	901.29167
330.303	886.29167
334.305	867.625
338.305	868.29167
342.301	866.625
346.294	868.29167
350.283	855.29167
354.269	855.29167
358.252	839.625
362.232	837.29167
366.209	838.95833
370.182	835.95833
374.152	826.625
378.119	837.625
382.083	816.625
386.043	856.29167
390	826.625
393.954	843.625
397.905	833.29167
401.852	853.29167
405.797	827.95833
409.738	824.625
413.676	831.29167
417.61	848.95833
421.542	835.625
425.47	825.625
429.396	825.625
433.318	801.95833
437.236	814.625
441.152	847.95833
445.065	802.625
448.974	805.625
452.88	810.625
456.783	796.625
460.683	786.625
464.58	799.95833
468.473	815.625
472.364	816.29167
476.251	801.29167
480.135	808.95833
484.016	823.95833
487.894	816.95833
491.769	809.29167
495.641	816.29167
499.509	815.625
503.375	826.95833
507.237	825.29167
511.096	853.29167
514.952	951.95833
518.805	1025.29167
522.655	1064.29167
526.502	952.95833
530.346	855.95833
534.187	835.29167
538.024	830.29167
541.859	803.29167
545.69	828.625
549.519	820.625
553.344	817.625
557.166	793.95833
560.985	807.95833
564.802	801.29167
568.615	787.625
572.425	784.625
576.232	775.95833
580.036	779.29167
583.836	777.625
587.634	794.29167
591.429	776.625
595.221	806.29167
599.01	798.95833
602.796	788.625
606.578	796.29167
610.358	799.625
614.135	787.625
617.909	803.29167
621.679	788.625
625.447	778.95833
629.212	789.95833
632.973	800.625
636.732	783.95833
640.488	796.29167
644.241	760.625
647.991	770.29167
651.737	801.29167
655.481	762.625
659.222	767.95833
662.96	771.625
666.695	770.95833
670.427	788.95833
674.156	786.95833
677.882	788.625
681.605	791.29167
685.325	754.95833
689.043	790.95833
692.757	769.625
696.468	776.625
700.177	766.95833
703.882	747.625
707.585	761.29167
711.284	756.29167
714.981	746.29167
718.675	749.625
722.366	756.29167
726.054	729.95833
729.739	756.95833
733.421	750.625
737.1	748.95833
740.777	756.625
744.45	763.29167
748.121	748.29167
751.789	785.29167
755.453	749.95833
759.115	764.625
762.774	755.625
766.431	774.625
770.084	771.625
773.734	754.625
777.382	786.95833
781.027	782.29167
784.669	774.95833
788.308	775.625
791.944	786.95833
795.577	791.29167
799.208	784.29167
802.835	790.625
806.46	792.95833
810.082	799.95833
813.701	785.95833
817.317	794.95833
820.931	803.29167
824.542	804.29167
828.149	786.95833
831.754	783.95833
835.357	786.625
838.956	791.29167
842.553	779.29167
846.146	775.95833
849.737	771.95833
853.326	774.29167
856.911	752.29167
860.493	775.625
864.073	779.29167
867.65	782.95833
871.225	803.29167
874.796	783.625
878.365	770.29167
881.931	793.29167
885.494	802.95833
889.054	786.625
892.612	791.95833
896.166	764.29167
899.719	771.95833
903.268	747.95833
906.814	762.29167
910.358	747.29167
913.899	737.95833
917.438	746.625
920.973	715.29167
924.506	741.625
928.036	742.29167
931.564	761.29167
935.088	781.625
938.61	771.95833
942.129	756.95833
945.646	783.29167
949.16	768.95833
952.671	776.625
956.179	786.625
959.685	786.29167
963.188	801.29167
966.688	769.95833
970.185	745.29167
973.68	739.625
977.173	735.625
980.662	721.95833
984.149	730.95833
987.633	709.29167
991.114	730.95833
994.593	744.95833
998.069	749.95833
1001.542	753.625
1005.013	752.29167
1008.481	702.29167
1011.947	707.625
1015.409	695.29167
1018.869	688.95833
1022.327	709.95833
1025.782	695.29167
1029.234	679.625
1032.683	668.625
1036.13	655.95833
1039.574	637.95833
1043.016	625.625
1046.455	624.29167
1049.891	606.625
1053.325	627.29167
1056.756	611.625
1060.184	619.29167
1063.61	603.625
1067.033	616.95833
1070.454	609.29167
1073.872	645.29167
1077.287	603.625
1080.7	606.625
1084.11	620.29167
1087.517	614.29167
1090.922	604.95833
1094.325	595.29167
1097.724	595.29167
1101.122	595.29167
1104.516	600.625
1107.908	590.625
1111.298	603.95833
1114.684	602.625
1118.069	598.29167
1121.45	618.625
1124.83	602.625
1128.206	603.29167
1131.58	614.95833
1134.951	629.95833
1138.32	634.29167
1141.687	664.625
1145.05	666.29167
1148.412	681.625
1151.77	673.29167
1155.126	664.625
1158.48	659.29167
1161.831	665.29167
1165.18	662.625
1168.525	674.625
1171.869	691.95833
1175.21	675.29167
1178.548	691.29167
1181.884	683.29167
1185.217	696.625
1188.548	701.29167
1191.877	706.29167
1195.202	750.625
1198.526	754.625
1201.846	756.625
1205.165	743.95833
1208.48	753.95833
1211.794	761.95833
1215.104	751.625
1218.413	744.625
1221.719	743.29167
1225.022	724.29167
1228.323	715.625
1231.621	722.29167
1234.917	723.95833
1238.21	746.625
1241.501	717.95833
1244.79	704.29167
1248.076	702.29167
1251.359	714.29167
1254.64	755.95833
1257.919	724.95833
1261.195	736.95833
1264.468	751.625
1267.74	752.29167
1271.008	751.29167
1274.275	744.95833
1277.538	751.95833
1280.8	746.95833
1284.059	753.29167
1287.315	765.29167
1290.569	762.29167
1293.821	754.29167
1297.07	764.625
1300.317	765.29167
1303.562	768.625
1306.803	756.95833
1310.043	753.95833
1313.28	742.625
1316.515	750.29167
1319.747	743.625
1322.977	729.625
1326.204	731.625
1329.429	720.29167
1332.652	730.625
1335.872	715.95833
1339.09	695.29167
1342.306	719.95833
1345.519	715.95833
1348.729	705.95833
1351.938	698.625
1355.144	692.29167
1358.347	670.95833
1361.548	705.29167
1364.747	697.95833
1367.944	666.29167
1371.138	684.29167
1374.329	690.625
1377.518	689.625
1380.705	699.95833
1383.89	694.29167
1387.072	669.95833
1390.252	668.95833
1393.429	644.95833
1396.605	633.625
1399.777	603.29167
1402.948	601.95833
1406.116	594.625
1409.282	607.29167
1412.445	604.29167
1415.606	597.95833
1418.765	595.29167
1421.921	620.625
1425.075	606.95833
1428.227	627.29167
1431.376	660.95833
1434.524	676.95833
1437.668	681.625
1440.811	673.95833
1443.951	680.95833
1447.089	686.95833
1450.224	678.95833
1453.357	684.95833
1456.488	683.29167
1459.617	674.29167
1462.743	664.95833
1465.867	654.95833
1468.989	652.29167
1472.108	636.625
1475.225	646.95833
1478.34	624.625
1481.453	617.625
1484.563	612.95833
1487.671	625.95833
1490.776	635.29167
1493.88	639.625
1496.981	654.29167
1500.08	663.95833
1503.176	655.625
1506.271	664.29167
1509.363	676.625
1512.452	666.29167
1515.54	683.95833
1518.625	682.625
1521.708	718.29167
1524.789	732.625
1527.867	738.95833
1530.944	777.95833
1534.018	803.29167
1537.089	839.95833
1540.159	846.29167
1543.226	840.95833
1546.291	827.29167
1549.354	818.95833
1552.415	797.625
1555.473	783.29167
1558.529	777.29167
1561.583	756.625
1564.634	763.29167
1567.684	765.625
1570.731	752.29167
1573.776	764.625
1576.819	767.625
1579.859	758.625
1582.898	774.625
1585.934	789.95833
1588.968	785.625
1591.999	778.29167
1595.029	769.625
1598.056	781.95833
1601.081	795.29167
1604.104	799.625
1607.125	778.95833
1610.144	757.95833
1613.16	742.29167
1616.174	727.95833
1619.186	730.29167
1622.196	702.625
1625.203	681.29167
1628.209	690.95833
1631.212	669.95833
1634.213	673.95833
1637.212	664.625
1640.209	665.95833
1643.203	633.625
1646.196	627.625
1649.186	614.625
1652.174	609.95833
1655.16	582.625
1658.144	578.95833
1661.125	565.29167
1664.105	535.95833
1667.082	535.625
1670.057	491.29167
1673.03	470.625
1676.001	456.95833
1678.97	440.95833
1681.937	417.29167
1684.901	400.95833
1687.863	401.625
1690.824	369.95833
1693.782	386.95833
1696.738	354.29167
1699.692	354.29167
1702.643	341.625
1705.593	346.95833
1708.54	338.29167
1711.486	353.625
1714.429	332.29167
1717.37	343.95833
1720.309	326.625
1723.246	335.95833
1726.181	319.95833
1729.113	313.29167
1732.044	337.625
1734.972	323.625
1737.899	338.625
1740.823	340.625
1743.745	352.95833
1746.665	316.95833
1749.583	311.95833
1752.499	313.625
1755.413	304.95833
1758.325	293.95833
1761.235	308.29167
1764.142	293.29167
1767.048	293.625
1769.951	294.95833
1772.852	291.29167
1775.752	295.625
1778.649	301.29167
1781.544	305.625
1784.437	280.625
1787.328	298.95833
1790.217	288.625
1793.104	273.29167
1795.989	279.625
1798.872	271.625
1801.753	295.95833
1804.631	284.625
1807.508	283.625
1810.383	279.29167
1813.255	277.29167
1816.126	282.95833
1818.994	279.625
1821.861	272.29167
1824.725	284.29167
1827.587	277.95833
1830.448	284.29167
1833.306	271.29167
1836.162	286.29167
1839.017	272.95833
1841.869	279.95833
1844.719	272.29167
1847.567	263.29167
1850.414	261.625
1853.258	262.95833
1856.1	274.95833
1858.94	282.95833
1861.778	271.95833
1864.614	259.95833
1867.448	274.29167
1870.28	257.95833
1873.111	286.625
1875.939	269.625
1878.765	276.29167
1881.589	262.29167
1884.411	268.95833
1887.231	270.95833
1890.049	265.29167
1892.865	278.29167
1895.68	260.95833
1898.492	275.95833
1901.302	263.625
1904.11	266.29167
1906.916	258.29167
1909.721	260.29167
1912.523	267.95833
1915.323	257.29167
1918.122	250.29167
1920.918	270.625
1923.712	256.95833
1926.505	261.29167
1929.295	237.625
1932.084	261.95833
1934.87	269.625
1937.655	252.95833
1940.438	243.625
1943.218	258.29167
1945.997	259.95833
1948.774	260.95833
1951.549	267.625
1954.322	251.95833
1957.093	252.29167
1959.862	249.95833
1962.629	255.625
1965.394	254.29167
1968.157	246.95833
1970.918	258.95833
1973.678	245.29167
1976.435	251.95833
1979.19	252.625
1981.944	244.625
1984.696	248.95833
1987.445	246.29167
1990.193	250.625
1992.939	261.625
1995.683	247.95833
1998.425	236.29167
2001.165	268.29167
2003.903	232.625
2006.639	244.625
2009.374	248.95833
2012.106	246.625
2014.837	229.625
2017.566	256.625
2020.292	250.29167
2023.017	247.29167
2025.74	244.29167
2028.461	236.29167
2031.18	244.95833
2033.898	233.625
2036.613	248.29167
2039.327	249.29167
2042.038	235.625
2044.748	243.625
2047.456	253.625
2050.162	234.625
2052.866	235.95833
2055.568	252.625
2058.268	241.95833
2060.967	253.625
2063.663	227.625
2066.358	232.625
2069.051	234.29167
2071.742	238.625
2074.431	256.95833
2077.118	239.29167
2079.804	229.95833
2082.487	239.625
2085.169	249.29167
2087.849	269.95833
2090.527	237.29167
2093.203	245.625
2095.877	243.625
2098.55	247.95833
2101.22	255.95833
2103.889	257.95833
2106.556	243.95833
2109.221	258.29167
2111.884	258.29167
2114.546	268.95833
2117.205	274.29167
2119.863	302.95833
2122.519	285.625
2125.173	309.95833
2127.825	333.29167
2130.475	324.29167
2133.124	315.95833
2135.771	306.29167
2138.416	333.29167
2141.059	293.625
2143.7	298.29167
2146.339	277.29167
2148.977	260.625
2151.613	278.625
2154.247	279.29167
2156.879	258.95833
2159.51	245.95833
2162.138	258.95833
2164.765	252.625
2167.39	243.29167
2170.013	266.95833
2172.634	267.625
2175.254	249.95833
2177.872	288.29167
2180.488	248.95833
2183.102	255.625
2185.714	249.29167
2188.325	236.95833
2190.934	252.625
2193.541	255.625
2196.146	259.29167
2198.75	233.95833
2201.351	238.29167
2203.951	228.95833
2206.549	248.29167
2209.146	241.29167
2211.74	229.95833
2214.333	242.29167
2216.924	233.625
2219.514	243.29167
2222.101	239.29167
2224.687	255.95833
2227.271	234.29167
2229.853	233.95833
2232.433	221.625
2235.012	242.95833
2237.589	244.95833
2240.164	258.29167
2242.738	230.95833
2245.309	232.625
2247.879	247.625
2250.448	242.29167
2253.014	228.95833
2255.579	231.29167
2258.142	233.625
2260.703	237.95833
2263.262	234.95833
2265.82	229.29167
2268.376	243.95833
2270.93	239.29167
2273.483	224.95833
2276.033	240.95833
2278.583	226.625
2281.13	232.95833
2283.675	231.625
2286.219	237.29167
2288.761	243.625
2291.302	237.29167
2293.841	248.95833
2296.377	231.625
2298.913	244.625
2301.446	251.625
2303.978	247.29167
2306.508	246.29167
2309.037	242.625
2311.563	246.29167
2314.088	238.625
2316.612	229.29167
2319.133	241.625
2321.653	241.625
2324.171	241.95833
2326.688	252.95833
2329.202	250.29167
2331.715	247.625
2334.227	244.29167
2336.736	247.95833
2339.244	239.29167
2341.751	237.625
2344.255	245.29167
2346.758	241.29167
2349.259	240.95833
2351.759	252.625
2354.257	236.625
2356.753	237.95833
2359.247	235.95833
2361.74	244.95833
2364.231	248.29167
2366.721	255.625
2369.209	246.95833
2371.695	246.29167
2374.179	240.95833
2376.662	241.625
2379.143	268.95833
2381.622	245.95833
2384.1	254.95833
2386.576	248.625
2389.051	258.625
2391.524	263.29167
2393.995	261.29167
2396.464	246.95833
2398.932	252.29167
2401.398	255.29167
2403.863	248.29167
2406.325	253.95833
2408.787	256.95833
2411.246	260.625
2413.704	258.29167
2416.16	256.95833
2418.615	257.625
2421.068	258.95833
2423.519	257.29167
2425.969	247.95833
2428.417	268.95833
2430.863	283.95833
2433.308	274.95833
2435.751	262.29167
2438.193	268.625
2440.633	270.29167
2443.071	272.29167
2445.508	257.95833
2447.943	265.29167
2450.376	263.625
2452.808	272.95833
2455.238	267.625
2457.667	292.29167
2460.093	267.29167
2462.519	263.29167
2464.942	268.95833
2467.365	271.95833
2469.785	275.95833
2472.204	264.29167
2474.621	274.95833
2477.037	283.29167
2479.451	254.95833
2481.863	261.29167
2484.274	265.29167
2486.683	267.95833
2489.091	289.29167
2491.497	280.95833
2493.901	283.95833
2496.304	276.95833
2498.705	296.29167
2501.105	294.29167
2503.503	301.625
2505.899	272.29167
2508.294	296.29167
2510.687	282.95833
2513.079	449.29167
2515.469	286.29167
2517.858	407.95833
2520.245	363.29167
2522.63	289.95833
2525.014	285.29167
2527.396	285.29167
2529.776	281.29167
2532.156	294.625
2534.533	283.625
2536.909	281.29167
2539.283	270.29167
2541.656	285.95833
2544.027	309.625
2546.397	293.625
2548.765	291.95833
2551.131	289.95833
2553.496	297.95833
2555.86	296.625
2558.221	302.625
2560.582	293.29167
2562.94	287.29167
2565.298	297.625
2567.653	315.95833
2570.007	289.95833
2572.36	312.29167
2574.711	299.95833
2577.06	314.625
2579.408	306.29167
2581.754	304.625
2584.099	304.625
2586.442	305.29167
2588.784	309.95833
2591.124	309.29167
2593.463	312.625
2595.8	310.95833
2598.135	307.625
2600.469	302.95833
2602.802	316.625
2605.133	319.95833
2607.462	305.29167
2609.79	295.29167
2612.116	324.625
2614.441	316.625
2616.764	319.95833
2619.086	318.29167
2621.406	308.95833
2623.725	333.625
2626.042	321.625
2628.358	321.625
2630.672	324.29167
2632.985	332.95833
2635.296	331.625
2637.606	329.29167
2639.914	330.95833
2642.22	330.95833
2644.525	340.29167
2646.829	333.625
2649.131	350.95833
2651.432	349.625
2653.731	340.29167
2656.028	350.95833
2658.324	349.625
2660.619	338.95833
2662.912	356.29167
2665.204	340.625
2667.494	347.625
2669.782	340.29167
2672.07	357.625
2674.355	362.29167
2676.639	349.95833
2678.922	343.95833
2681.203	358.625
2683.483	349.29167
2685.761	343.625
2688.038	359.625
2690.313	370.95833
2692.587	358.29167
2694.859	357.625
2697.13	358.625
2699.399	358.95833
2701.667	377.95833
2703.933	367.625
2706.198	371.625
2708.461	370.29167
2710.723	375.95833
2712.984	367.29167
2715.243	380.95833
2717.5	369.625
2719.757	382.625
2722.011	373.29167
2724.264	377.95833
2726.516	391.29167
2728.766	377.29167
2731.015	383.625
2733.262	381.29167
2735.508	394.625
2737.753	390.95833
2739.996	378.95833
2742.237	381.29167
2744.477	396.95833
2746.716	400.29167
2748.953	389.95833
2751.189	394.29167
2753.423	387.625
2755.656	384.95833
2757.887	386.95833
2760.117	381.95833
2762.346	378.625
2764.573	379.95833
2766.798	387.95833
2769.022	386.625
2771.245	395.625
2773.467	394.95833
2775.686	391.625
2777.905	401.29167
2780.122	391.95833
2782.337	406.29167
2784.552	403.95833
2786.764	400.95833
2788.976	396.95833
2791.186	418.95833
2793.394	407.625
2795.601	412.29167
2797.807	416.95833
2800.011	419.95833
2802.214	427.29167
2804.415	427.625
2806.615	423.95833
2808.814	420.95833
2811.011	427.625
2813.206	429.29167
2815.401	434.29167
2817.594	421.95833
2819.785	432.625
2821.975	421.625
2824.164	422.29167
2826.351	433.29167
2828.537	443.625
2830.722	433.625
2832.905	436.625
2835.086	439.95833
2837.267	461.95833
2839.445	455.95833
2841.623	454.95833
2843.799	457.95833
2845.974	461.625
2848.147	465.29167
2850.319	472.95833
2852.489	493.625
2854.659	486.95833
2856.826	485.95833
2858.993	509.625
2861.158	485.29167
2863.321	493.29167
2865.483	508.29167
2867.644	508.29167
2869.804	509.29167
2871.962	502.29167
2874.118	500.29167
2876.274	503.29167
2878.428	495.29167
2880.58	496.29167
2882.731	477.29167
2884.881	495.29167
2887.03	495.29167
2889.177	497.625
2891.322	511.95833
2893.467	494.29167
2895.61	494.29167
2897.751	516.625
2899.892	501.625
2902.03	512.29167
2904.168	508.625
2906.304	514.95833
2908.439	530.29167
2910.572	520.625
2912.704	529.625
2914.835	519.95833
2916.965	519.625
2919.093	537.625
2921.219	511.95833
2923.345	547.29167
2925.469	529.95833
2927.591	527.95833
2929.712	505.95833
2931.832	531.29167
2933.951	507.625
2936.068	509.625
2938.184	507.95833
2940.299	492.625
2942.412	505.95833
2944.524	487.29167
2946.634	497.95833
2948.744	471.95833
2950.851	510.625
2952.958	486.29167
2955.063	493.625
2957.167	497.29167
2959.269	486.29167
2961.371	507.29167
2963.471	481.625
2965.569	508.95833
2967.666	477.625
2969.762	489.29167
2971.857	476.95833
2973.95	470.625
2976.042	484.29167
2978.133	465.625
2980.222	466.625
2982.31	456.625
2984.396	440.95833
2986.482	441.29167
2988.566	460.95833
2990.648	451.95833
2992.73	456.95833
2994.81	443.625
2996.889	468.625
2998.966	448.95833
3001.042	466.29167
3003.117	459.95833
3005.191	463.29167
3007.263	461.95833
3009.334	458.29167
3011.403	456.95833
3013.472	449.95833
3015.539	456.95833
3017.604	461.625
3019.669	427.95833
3021.732	437.95833
3023.794	431.95833
3025.854	426.29167
3027.914	427.95833
3029.971	437.95833
3032.028	433.95833
3034.083	443.95833
3036.137	438.625
3038.19	418.95833
3040.242	403.29167
3042.292	396.29167
3044.341	391.95833
3046.388	417.29167
3048.435	385.29167
3050.48	405.625
3052.524	399.29167
3054.566	383.95833
3056.607	393.625
3058.647	379.625
3060.686	373.29167
3062.723	356.625
3064.759	347.95833
3066.794	0.625
3068.828	0.625
3070.86	0.29167
