-0.839	130.58333
3.438	143.91667
7.711	62.25
11.981	42.25
16.247	30.25
20.509	37.91667
24.768	36.25
29.024	42.91667
33.276	27.58333
37.524	39.91667
41.769	29.91667
46.01	25.25
50.247	42.58333
54.481	51.91667
58.712	52.58333
62.939	36.91667
67.162	54.91667
71.382	42.25
75.599	37.25
79.812	44.91667
84.021	61.91667
88.227	42.58333
92.429	47.25
96.628	37.25
100.823	51.58333
105.015	50.91667
109.204	47.91667
113.388	51.58333
117.57	40.25
121.748	56.25
125.922	43.91667
130.093	58.58333
134.261	57.91667
138.425	48.91667
142.585	80.58333
146.742	59.25
150.896	72.58333
155.046	63.25
159.193	95.91667
163.336	127.25
167.476	218.25
171.613	386.58333
175.746	621.25
179.875	896.58333
184.002	1154.25
188.124	1365.58333
192.244	1425.91667
196.36	1418.58333
200.472	1419.91667
204.581	1403.58333
208.687	1333.91667
212.79	1333.58333
216.889	1354.25
220.984	1351.58333
225.077	1371.58333
229.165	1365.25
233.251	1371.25
237.333	1354.25
241.412	1345.25
245.487	1357.91667
249.559	1325.25
253.628	1321.25
257.694	1307.91667
261.756	1304.25
265.814	1273.91667
269.87	1232.25
273.922	1210.58333
277.97	1194.91667
282.016	1200.91667
286.058	1164.91667
290.097	1200.58333
294.132	1204.58333
298.164	1192.25
302.193	1164.58333
306.219	1086.91667
310.241	1036.25
314.26	972.25
318.276	921.91667
322.288	903.91667
326.297	876.58333
330.303	855.25
334.305	846.25
338.305	826.58333
342.301	834.25
346.294	827.25
350.283	824.91667
354.269	807.25
358.252	797.91667
362.232	808.91667
366.209	803.58333
370.182	795.58333
374.152	791.91667
378.119	809.58333
382.083	794.58333
386.043	799.58333
390	782.91667
393.954	798.25
397.905	796.91667
401.852	815.58333
405.797	789.91667
409.738	780.58333
413.676	800.25
417.61	812.91667
421.542	791.58333
425.47	782.91667
429.396	774.25
433.318	765.25
437.236	770.25
441.152	797.91667
445.065	759.91667
448.974	773.58333
452.88	765.58333
456.783	751.25
460.683	748.91667
464.58	762.58333
468.473	759.91667
472.364	772.25
476.251	753.25
480.135	751.25
484.016	776.58333
487.894	779.25
491.769	784.25
495.641	779.25
499.509	767.91667
503.375	782.58333
507.237	789.58333
511.096	811.91667
514.952	892.58333
518.805	985.91667
522.655	1033.91667
526.502	905.58333
530.346	818.91667
534.187	806.25
538.024	780.58333
541.859	769.25
545.69	805.58333
549.519	778.91667
553.344	775.91667
557.166	758.58333
560.985	772.58333
564.802	767.91667
568.615	747.91667
572.425	736.58333
576.232	728.91667
580.036	733.25
583.836	749.91667
587.634	740.91667
591.429	745.58333
595.221	764.58333
599.01	756.25
602.796	749.25
606.578	754.58333
610.358	765.91667
614.135	755.91667
617.909	760.25
621.679	747.91667
625.447	737.91667
629.212	749.25
632.973	750.91667
636.732	735.58333
640.488	758.58333
644.241	735.91667
647.991	742.58333
651.737	753.91667
655.481	724.91667
659.222	741.91667
662.96	722.25
666.695	725.25
670.427	741.91667
674.156	742.91667
677.882	744.25
681.605	747.25
685.325	728.25
689.043	748.58333
692.757	731.25
696.468	735.58333
700.177	726.91667
703.882	730.58333
707.585	713.91667
711.284	720.58333
714.981	701.91667
718.675	708.25
722.366	720.58333
726.054	713.58333
729.739	707.58333
733.421	725.58333
737.1	701.25
740.777	723.25
744.45	707.91667
748.121	698.25
751.789	746.91667
755.453	715.58333
759.115	729.58333
762.774	721.58333
766.431	735.25
770.084	738.58333
773.734	729.58333
777.382	748.91667
781.027	759.91667
784.669	731.91667
788.308	740.91667
791.944	753.91667
795.577	753.91667
799.208	748.58333
802.835	757.58333
806.46	757.91667
810.082	765.25
813.701	746.91667
817.317	760.25
820.931	752.91667
824.542	758.25
828.149	747.58333
831.754	736.25
835.357	736.91667
838.956	757.25
842.553	738.91667
846.146	747.25
849.737	721.25
853.326	733.91667
856.911	717.25
860.493	734.25
864.073	730.91667
867.65	757.25
871.225	753.91667
874.796	753.91667
878.365	740.25
881.931	749.58333
885.494	766.91667
889.054	747.25
892.612	762.58333
896.166	741.25
899.719	728.58333
903.268	715.58333
906.814	726.25
910.358	718.25
913.899	699.58333
917.438	717.25
920.973	692.25
924.506	716.25
928.036	708.58333
931.564	730.25
935.088	745.91667
938.61	727.91667
942.129	732.91667
945.646	750.25
949.16	745.58333
952.671	757.25
956.179	757.25
959.685	744.91667
963.188	761.58333
966.688	738.25
970.185	725.91667
973.68	709.25
977.173	712.91667
980.662	690.58333
984.149	697.58333
987.633	683.58333
991.114	687.58333
994.593	702.91667
998.069	702.58333
1001.542	725.58333
1005.013	726.25
1008.481	687.25
1011.947	671.91667
1015.409	658.58333
1018.869	673.25
1022.327	673.25
1025.782	659.25
1029.234	653.58333
1032.683	642.91667
1036.13	638.58333
1039.574	601.58333
1043.016	608.58333
1046.455	596.25
1049.891	581.91667
1053.325	591.58333
1056.756	596.58333
1060.184	595.25
1063.61	579.25
1067.033	583.25
1070.454	596.25
1073.872	609.25
1077.287	571.25
1080.7	586.58333
1084.11	592.58333
1087.517	588.25
1090.922	578.91667
1094.325	571.25
1097.724	564.58333
1101.122	576.25
1104.516	568.91667
1107.908	554.58333
1111.298	566.25
1114.684	567.58333
1118.069	574.58333
1121.45	595.25
1124.83	568.91667
1128.206	577.58333
1131.58	589.25
1134.951	608.25
1138.32	619.58333
1141.687	642.91667
1145.05	647.91667
1148.412	644.58333
1151.77	638.91667
1155.126	637.58333
1158.48	634.91667
1161.831	631.58333
1165.18	633.25
1168.525	652.91667
1171.869	654.25
1175.21	652.25
1178.548	669.58333
1181.884	663.58333
1185.217	663.91667
1188.548	677.91667
1191.877	693.25
1195.202	712.58333
1198.526	738.58333
1201.846	730.91667
1205.165	721.25
1208.48	725.58333
1211.794	724.25
1215.104	722.58333
1218.413	724.25
1221.719	709.91667
1225.022	697.58333
1228.323	691.25
1231.621	704.25
1234.917	694.58333
1238.21	716.25
1241.501	689.25
1244.79	682.58333
1248.076	673.25
1251.359	685.25
1254.64	733.25
1257.919	698.25
1261.195	716.91667
1264.468	723.91667
1267.74	737.58333
1271.008	724.25
1274.275	728.25
1277.538	727.91667
1280.8	724.58333
1284.059	725.58333
1287.315	735.91667
1290.569	732.25
1293.821	726.91667
1297.07	731.58333
1300.317	727.25
1303.562	732.91667
1306.803	732.91667
1310.043	728.91667
1313.28	732.58333
1316.515	723.25
1319.747	729.25
1322.977	710.25
1326.204	696.25
1329.429	703.91667
1332.652	699.25
1335.872	697.91667
1339.09	679.58333
1342.306	682.25
1345.519	689.91667
1348.729	676.91667
1351.938	683.58333
1355.144	656.58333
1358.347	665.58333
1361.548	670.25
1364.747	669.58333
1367.944	650.91667
1371.138	675.58333
1374.329	660.58333
1377.518	672.91667
1380.705	671.91667
1383.89	678.25
1387.072	641.58333
1390.252	640.25
1393.429	625.58333
1396.605	612.91667
1399.777	583.58333
1402.948	579.25
1406.116	562.58333
1409.282	576.91667
1412.445	576.25
1415.606	580.25
1418.765	582.58333
1421.921	593.25
1425.075	591.58333
1428.227	603.25
1431.376	631.25
1434.524	645.25
1437.668	665.25
1440.811	657.58333
1443.951	661.25
1447.089	673.25
1450.224	652.91667
1453.357	656.91667
1456.488	663.25
1459.617	657.91667
1462.743	644.25
1465.867	628.25
1468.989	642.91667
1472.108	620.91667
1475.225	602.25
1478.34	599.25
1481.453	603.58333
1484.563	599.58333
1487.671	606.25
1490.776	611.25
1493.88	614.58333
1496.981	649.58333
1500.08	629.25
1503.176	633.91667
1506.271	635.91667
1509.363	666.25
1512.452	651.25
1515.54	663.91667
1518.625	657.91667
1521.708	703.91667
1524.789	702.91667
1527.867	720.91667
1530.944	761.25
1534.018	768.58333
1537.089	811.25
1540.159	820.58333
1543.226	818.25
1546.291	800.25
1549.354	798.25
1552.415	777.58333
1555.473	765.25
1558.529	764.25
1561.583	751.91667
1564.634	735.58333
1567.684	736.58333
1570.731	738.91667
1573.776	741.91667
1576.819	755.91667
1579.859	735.25
1582.898	761.58333
1585.934	763.25
1588.968	776.58333
1591.999	753.58333
1595.029	752.91667
1598.056	769.58333
1601.081	790.58333
1604.104	777.25
1607.125	751.91667
1610.144	741.58333
1613.16	722.91667
1616.174	715.58333
1619.186	705.25
1622.196	689.91667
1625.203	672.58333
1628.209	662.91667
1631.212	657.91667
1634.213	644.25
1637.212	648.58333
1640.209	649.25
1643.203	611.91667
1646.196	604.91667
1649.186	592.58333
1652.174	592.25
1655.16	564.91667
1658.144	563.25
1661.125	537.25
1664.105	522.25
1667.082	514.58333
1670.057	475.25
1673.03	451.58333
1676.001	440.91667
1678.97	423.58333
1681.937	414.58333
1684.901	384.91667
1687.863	384.91667
1690.824	358.25
1693.782	370.91667
1696.738	350.91667
1699.692	344.91667
1702.643	337.25
1705.593	333.25
1708.54	335.58333
1711.486	347.25
1714.429	313.25
1717.37	327.91667
1720.309	316.25
1723.246	323.25
1726.181	306.58333
1729.113	317.25
1732.044	312.25
1734.972	310.58333
1737.899	328.58333
1740.823	326.58333
1743.745	337.58333
1746.665	310.25
1749.583	295.58333
1752.499	296.25
1755.413	301.58333
1758.325	285.91667
1761.235	293.25
1764.142	286.58333
1767.048	284.25
1769.951	284.91667
1772.852	285.58333
1775.752	288.58333
1778.649	286.91667
1781.544	300.91667
1784.437	271.91667
1787.328	282.58333
1790.217	279.25
1793.104	263.58333
1795.989	262.58333
1798.872	255.58333
1801.753	286.91667
1804.631	273.58333
1807.508	276.58333
1810.383	278.25
1813.255	275.25
1816.126	276.25
1818.994	269.91667
1821.861	270.58333
1824.725	279.91667
1827.587	279.25
1830.448	266.25
1833.306	259.25
1836.162	277.91667
1839.017	259.58333
1841.869	269.25
1844.719	258.91667
1847.567	256.25
1850.414	246.58333
1853.258	248.58333
1856.1	270.25
1858.94	273.91667
1861.778	267.25
1864.614	254.58333
1867.448	260.91667
1870.28	247.58333
1873.111	271.25
1875.939	259.25
1878.765	276.25
1881.589	251.91667
1884.411	249.58333
1887.231	268.91667
1890.049	250.25
1892.865	270.91667
1895.68	253.25
1898.492	258.91667
1901.302	255.25
1904.11	256.58333
1906.916	254.25
1909.721	251.58333
1912.523	268.91667
1915.323	245.58333
1918.122	239.91667
1920.918	266.25
1923.712	245.91667
1926.505	249.91667
1929.295	235.25
1932.084	253.58333
1934.87	252.91667
1937.655	243.25
1940.438	242.25
1943.218	249.25
1945.997	249.25
1948.774	253.91667
1951.549	265.58333
1954.322	239.58333
1957.093	246.25
1959.862	244.25
1962.629	241.91667
1965.394	240.91667
1968.157	238.91667
1970.918	250.58333
1973.678	235.58333
1976.435	245.91667
1979.19	243.58333
1981.944	235.25
1984.696	236.58333
1987.445	241.58333
1990.193	238.58333
1992.939	248.25
1995.683	247.91667
1998.425	221.58333
2001.165	264.91667
2003.903	231.25
2006.639	241.91667
2009.374	246.58333
2012.106	245.91667
2014.837	219.91667
2017.566	251.25
2020.292	238.25
2023.017	237.58333
2025.74	238.58333
2028.461	230.25
2031.18	244.58333
2033.898	232.91667
2036.613	235.91667
2039.327	245.91667
2042.038	237.58333
2044.748	244.58333
2047.456	242.91667
2050.162	226.58333
2052.866	235.91667
2055.568	249.91667
2058.268	233.58333
2060.967	244.91667
2063.663	224.91667
2066.358	231.25
2069.051	226.25
2071.742	241.58333
2074.431	252.25
2077.118	234.25
2079.804	226.58333
2082.487	235.91667
2085.169	244.91667
2087.849	256.58333
2090.527	232.25
2093.203	240.25
2095.877	243.91667
2098.55	243.25
2101.22	250.58333
2103.889	250.91667
2106.556	244.58333
2109.221	258.91667
2111.884	253.25
2114.546	265.58333
2117.205	264.58333
2119.863	298.58333
2122.519	284.25
2125.173	298.25
2127.825	325.58333
2130.475	328.91667
2133.124	313.25
2135.771	298.58333
2138.416	310.91667
2141.059	285.91667
2143.7	298.91667
2146.339	278.58333
2148.977	255.91667
2151.613	268.91667
2154.247	266.91667
2156.879	256.25
2159.51	246.91667
2162.138	251.58333
2164.765	251.25
2167.39	239.91667
2170.013	268.58333
2172.634	258.58333
2175.254	245.91667
2177.872	282.91667
2180.488	237.58333
2183.102	245.58333
2185.714	245.91667
2188.325	237.91667
2190.934	240.58333
2193.541	251.58333
2196.146	248.58333
2198.75	231.91667
2201.351	241.58333
2203.951	225.91667
2206.549	247.58333
2209.146	243.25
2211.74	226.91667
2214.333	237.58333
2216.924	227.58333
2219.514	239.91667
2222.101	273.91667
2224.687	316.25
2227.271	271.58333
2229.853	301.25
2232.433	343.58333
2235.012	299.91667
2237.589	333.91667
2240.164	337.91667
2242.738	306.91667
2245.309	305.58333
2247.879	328.91667
2250.448	313.25
2253.014	292.25
2255.579	289.58333
2258.142	308.25
2260.703	304.91667
2263.262	259.91667
2265.82	225.25
2268.376	244.25
2270.93	237.58333
2273.483	229.25
2276.033	237.91667
2278.583	233.91667
2281.13	233.91667
2283.675	223.25
2286.219	235.58333
2288.761	235.25
2291.302	241.91667
2293.841	248.58333
2296.377	226.25
2298.913	244.58333
2301.446	246.91667
2303.978	238.91667
2306.508	239.25
2309.037	238.91667
2311.563	240.91667
2314.088	240.58333
2316.612	230.25
2319.133	244.25
2321.653	243.25
2324.171	239.25
2326.688	255.58333
2329.202	240.58333
2331.715	252.58333
2334.227	241.91667
2336.736	244.91667
2339.244	235.58333
2341.751	235.58333
2344.255	252.58333
2346.758	251.25
2349.259	235.58333
2351.759	246.25
2354.257	239.58333
2356.753	237.25
2359.247	244.25
2361.74	244.91667
2364.231	243.58333
2366.721	248.91667
2369.209	241.91667
2371.695	245.91667
2374.179	235.58333
2376.662	235.25
2379.143	253.91667
2381.622	243.58333
2384.1	253.58333
2386.576	251.25
2389.051	258.25
2391.524	261.25
2393.995	260.58333
2396.464	255.25
2398.932	246.58333
2401.398	258.91667
2403.863	245.58333
2406.325	252.91667
2408.787	253.91667
2411.246	255.58333
2413.704	257.91667
2416.16	253.91667
2418.615	254.58333
2421.068	260.91667
2423.519	258.91667
2425.969	249.91667
2428.417	268.58333
2430.863	278.25
2433.308	270.58333
2435.751	261.25
2438.193	267.91667
2440.633	267.25
2443.071	277.58333
2445.508	261.58333
2447.943	264.58333
2450.376	259.58333
2452.808	275.91667
2455.238	261.91667
2457.667	298.25
2460.093	265.25
2462.519	255.91667
2464.942	260.91667
2467.365	277.58333
2469.785	283.58333
2472.204	268.91667
2474.621	271.91667
2477.037	290.25
2479.451	264.91667
2481.863	259.58333
2484.274	266.91667
2486.683	274.91667
2489.091	286.25
2491.497	283.91667
2493.901	276.91667
2496.304	277.25
2498.705	290.58333
2501.105	277.58333
2503.503	302.58333
2505.899	278.25
2508.294	304.25
2510.687	285.91667
2513.079	282.58333
2515.469	279.58333
2517.858	282.58333
2520.245	294.58333
2522.63	283.25
2525.014	281.91667
2527.396	274.58333
2529.776	292.58333
2532.156	297.58333
2534.533	285.91667
2536.909	285.58333
2539.283	279.25
2541.656	286.91667
2544.027	295.58333
2546.397	296.25
2548.765	291.58333
2551.131	297.25
2553.496	299.91667
2555.86	304.58333
2558.221	299.58333
2560.582	301.58333
2562.94	288.91667
2565.298	303.25
2567.653	316.58333
2570.007	284.58333
2572.36	311.91667
2574.711	304.25
2577.06	328.25
2579.408	310.58333
2581.754	310.25
2584.099	306.58333
2586.442	304.25
2588.784	320.91667
2591.124	310.25
2593.463	310.58333
2595.8	307.91667
2598.135	305.58333
2600.469	310.25
2602.802	321.58333
2605.133	323.25
2607.462	309.91667
2609.79	304.58333
2612.116	318.25
2614.441	324.58333
2616.764	320.58333
2619.086	324.58333
2621.406	322.25
2623.725	335.25
2626.042	326.25
2628.358	319.25
2630.672	332.58333
2632.985	338.58333
2635.296	330.25
2637.606	319.58333
2639.914	335.25
2642.22	331.25
2644.525	342.58333
2646.829	348.25
2649.131	353.25
2651.432	342.91667
2653.731	335.58333
2656.028	361.58333
2658.324	344.91667
2660.619	332.58333
2662.912	359.91667
2665.204	334.91667
2667.494	356.25
2669.782	341.58333
2672.07	352.58333
2674.355	363.58333
2676.639	358.58333
2678.922	351.58333
2681.203	361.58333
2683.483	344.91667
2685.761	350.25
2688.038	360.58333
2690.313	366.91667
2692.587	354.58333
2694.859	353.58333
2697.13	354.58333
2699.399	366.58333
2701.667	380.25
2703.933	372.25
2706.198	377.91667
2708.461	373.58333
2710.723	384.58333
2712.984	375.25
2715.243	392.58333
2717.5	377.25
2719.757	390.58333
2722.011	374.58333
2724.264	393.25
2726.516	398.25
2728.766	377.58333
2731.015	393.91667
2733.262	386.25
2735.508	387.58333
2737.753	393.25
2739.996	384.25
2742.237	384.58333
2744.477	394.25
2746.716	407.58333
2748.953	389.91667
2751.189	401.25
2753.423	401.58333
2755.656	393.91667
2757.887	388.58333
2760.117	391.58333
2762.346	385.25
2764.573	383.91667
2766.798	391.91667
2769.022	399.91667
2771.245	390.91667
2773.467	392.91667
2775.686	398.25
2777.905	401.91667
2780.122	403.25
2782.337	409.58333
2784.552	406.91667
2786.764	404.25
2788.976	410.58333
2791.186	405.91667
2793.394	417.58333
2795.601	415.25
2797.807	420.25
2800.011	418.91667
2802.214	430.25
2804.415	422.58333
2806.615	424.91667
2808.814	428.91667
2811.011	430.25
2813.206	423.25
2815.401	432.58333
2817.594	441.91667
2819.785	438.58333
2821.975	430.58333
2824.164	431.58333
2826.351	430.25
2828.537	453.91667
2830.722	442.91667
2832.905	442.58333
2835.086	446.25
2837.267	467.25
2839.445	454.25
2841.623	457.91667
2843.799	457.25
2845.974	470.58333
2848.147	472.25
2850.319	477.91667
2852.489	489.91667
2854.659	482.25
2856.826	496.91667
2858.993	513.91667
2861.158	487.91667
2863.321	503.25
2865.483	521.58333
2867.644	498.25
2869.804	498.58333
2871.962	499.25
2874.118	491.25
2876.274	505.58333
2878.428	504.91667
2880.58	503.58333
2882.731	488.91667
2884.881	497.91667
2887.03	501.91667
2889.177	504.91667
2891.322	504.91667
2893.467	494.25
2895.61	497.58333
2897.751	515.91667
2899.892	517.58333
2902.03	515.25
2904.168	517.58333
2906.304	514.91667
2908.439	537.25
2910.572	518.25
2912.704	519.91667
2914.835	538.91667
2916.965	527.91667
2919.093	548.58333
2921.219	510.91667
2923.345	558.25
2925.469	535.25
2927.591	537.58333
2929.712	516.25
2931.832	524.58333
2933.951	519.58333
2936.068	508.58333
2938.184	511.25
2940.299	507.25
2942.412	501.58333
2944.524	487.91667
2946.634	499.25
2948.744	482.58333
2950.851	515.91667
2952.958	499.58333
2955.063	507.25
2957.167	493.91667
2959.269	483.25
2961.371	520.58333
2963.471	487.91667
2965.569	507.25
2967.666	489.58333
2969.762	484.58333
2971.857	483.91667
2973.95	477.91667
2976.042	479.58333
2978.133	472.91667
2980.222	478.25
2982.31	473.25
2984.396	440.25
2986.482	455.58333
2988.566	458.58333
2990.648	465.58333
2992.73	465.25
2994.81	459.91667
2996.889	470.58333
2998.966	465.91667
3001.042	484.25
3003.117	467.58333
3005.191	466.25
3007.263	481.25
3009.334	471.58333
3011.403	472.58333
3013.472	455.25
3015.539	465.25
3017.604	471.91667
3019.669	439.58333
3021.732	448.91667
3023.794	446.91667
3025.854	442.58333
3027.914	439.58333
3029.971	435.91667
3032.028	437.25
3034.083	450.91667
3036.137	449.91667
3038.19	413.91667
3040.242	403.58333
3042.292	409.91667
3044.341	408.58333
3046.388	425.91667
3048.435	406.25
3050.48	419.58333
3052.524	404.25
3054.566	386.91667
3056.607	393.25
3058.647	390.58333
3060.686	364.25
3062.723	354.91667
3064.759	342.91667
3066.794	0.91667
3068.828	-1.08333
3070.86	2.91667
