-0.839	144.79167
3.438	160.125
7.711	64.45833
11.981	41.79167
16.247	33.45833
20.509	37.79167
24.768	37.45833
29.024	41.45833
33.276	27.45833
37.524	41.45833
41.769	28.45833
46.01	24.125
50.247	44.125
54.481	51.125
58.712	55.125
62.939	38.45833
67.162	54.45833
71.382	48.125
75.599	36.125
79.812	45.45833
84.021	62.125
88.227	42.125
92.429	52.125
96.628	37.125
100.823	52.45833
105.015	54.79167
109.204	48.45833
113.388	61.45833
117.57	44.79167
121.748	63.125
125.922	47.45833
130.093	65.79167
134.261	64.79167
138.425	56.45833
142.585	87.79167
146.742	64.45833
150.896	80.45833
155.046	74.79167
159.193	113.45833
163.336	167.125
167.476	282.79167
171.613	514.79167
175.746	844.125
179.875	1207.79167
184.002	1580.45833
188.124	1864.125
192.244	1955.125
196.36	1986.45833
200.472	1972.79167
204.581	1957.79167
208.687	1896.125
212.79	1886.79167
216.889	1914.79167
220.984	1937.125
225.077	1936.45833
229.165	1940.79167
233.251	1958.45833
237.333	1969.125
241.412	1942.125
245.487	1950.125
249.559	1913.79167
253.628	1906.125
257.694	1902.125
261.756	1904.79167
265.814	1868.125
269.87	1826.79167
273.922	1771.79167
277.97	1765.45833
282.016	1737.125
286.058	1732.125
290.097	1749.125
294.132	1762.45833
298.164	1764.79167
302.193	1703.45833
306.219	1620.79167
310.241	1517.125
314.26	1436.79167
318.276	1364.79167
322.288	1337.79167
326.297	1269.125
330.303	1261.45833
334.305	1238.79167
338.305	1233.125
342.301	1218.45833
346.294	1232.79167
350.283	1217.79167
354.269	1221.79167
358.252	1202.79167
362.232	1214.45833
366.209	1205.45833
370.182	1193.79167
374.152	1191.45833
378.119	1198.79167
382.083	1185.45833
386.043	1192.79167
390	1193.125
393.954	1201.125
397.905	1201.79167
401.852	1222.45833
405.797	1203.125
409.738	1215.45833
413.676	1225.79167
417.61	1245.45833
421.542	1212.45833
425.47	1184.79167
429.396	1172.79167
433.318	1156.79167
437.236	1159.79167
441.152	1207.45833
445.065	1156.125
448.974	1169.125
452.88	1159.79167
456.783	1158.45833
460.683	1148.45833
464.58	1146.79167
468.473	1149.125
472.364	1168.45833
476.251	1163.79167
480.135	1151.79167
484.016	1168.79167
487.894	1185.45833
491.769	1186.79167
495.641	1185.79167
499.509	1176.45833
503.375	1189.45833
507.237	1177.125
511.096	1170.45833
514.952	1177.45833
518.805	1171.125
522.655	1161.125
526.502	1168.125
530.346	1184.125
534.187	1175.125
538.024	1170.125
541.859	1162.125
545.69	1179.79167
549.519	1185.45833
553.344	1162.125
557.166	1132.45833
560.985	1129.79167
564.802	1145.79167
568.615	1134.45833
572.425	1105.45833
576.232	1121.79167
580.036	1108.45833
583.836	1114.79167
587.634	1113.45833
591.429	1109.79167
595.221	1143.45833
599.01	1135.125
602.796	1137.125
606.578	1140.125
610.358	1147.45833
614.135	1147.125
617.909	1149.125
621.679	1132.125
625.447	1136.79167
629.212	1131.45833
632.973	1140.125
636.732	1135.45833
640.488	1132.125
644.241	1106.79167
647.991	1109.125
651.737	1134.45833
655.481	1090.45833
659.222	1120.45833
662.96	1116.125
666.695	1120.45833
670.427	1134.45833
674.156	1136.79167
677.882	1136.45833
681.605	1129.79167
685.325	1123.79167
689.043	1128.79167
692.757	1096.79167
696.468	1103.125
700.177	1107.125
703.882	1071.45833
707.585	1076.125
711.284	1079.125
714.981	1063.45833
718.675	1077.79167
722.366	1084.125
726.054	1062.125
729.739	1089.45833
733.421	1066.125
737.1	1059.45833
740.777	1082.45833
744.45	1077.79167
748.121	1079.79167
751.789	1118.125
755.453	1092.45833
759.115	1085.45833
762.774	1089.79167
766.431	1093.79167
770.084	1109.45833
773.734	1103.125
777.382	1112.125
781.027	1122.125
784.669	1109.45833
788.308	1120.45833
791.944	1126.125
795.577	1145.125
799.208	1127.79167
802.835	1129.125
806.46	1142.125
810.082	1171.79167
813.701	1151.79167
817.317	1165.45833
820.931	1161.45833
824.542	1160.125
828.149	1125.125
831.754	1122.79167
835.357	1110.45833
838.956	1127.45833
842.553	1112.45833
846.146	1092.125
849.737	1092.125
853.326	1080.125
856.911	1071.125
860.493	1100.125
864.073	1103.125
867.65	1119.79167
871.225	1136.125
874.796	1111.79167
878.365	1110.45833
881.931	1123.79167
885.494	1118.125
889.054	1124.79167
892.612	1113.45833
896.166	1100.125
899.719	1087.79167
903.268	1071.45833
906.814	1080.125
910.358	1077.125
913.899	1065.79167
917.438	1061.45833
920.973	1042.45833
924.506	1060.45833
928.036	1082.79167
931.564	1101.79167
935.088	1097.125
938.61	1094.79167
942.129	1075.79167
945.646	1097.79167
949.16	1110.125
952.671	1109.79167
956.179	1133.45833
959.685	1142.45833
963.188	1143.125
966.688	1124.79167
970.185	1095.125
973.68	1064.79167
977.173	1064.125
980.662	1044.79167
984.149	1043.79167
987.633	1046.79167
991.114	1050.79167
994.593	1072.79167
998.069	1071.45833
1001.542	1097.45833
1005.013	1098.125
1008.481	1024.125
1011.947	1015.125
1015.409	1011.45833
1018.869	1016.125
1022.327	1020.45833
1025.782	988.79167
1029.234	987.79167
1032.683	980.45833
1036.13	970.45833
1039.574	927.79167
1043.016	908.79167
1046.455	903.125
1049.891	899.79167
1053.325	895.125
1056.756	880.79167
1060.184	909.79167
1063.61	882.125
1067.033	891.79167
1070.454	881.45833
1073.872	923.79167
1077.287	893.125
1080.7	897.45833
1084.11	897.79167
1087.517	897.125
1090.922	886.79167
1094.325	870.79167
1097.724	868.125
1101.122	864.79167
1104.516	869.79167
1107.908	845.79167
1111.298	867.79167
1114.684	853.45833
1118.069	864.79167
1121.45	906.45833
1124.83	859.45833
1128.206	883.79167
1131.58	893.45833
1134.951	914.125
1138.32	923.45833
1141.687	954.79167
1145.05	964.79167
1148.412	970.79167
1151.77	964.125
1155.126	950.125
1158.48	950.79167
1161.831	963.125
1165.18	947.125
1168.525	970.79167
1171.869	984.125
1175.21	975.79167
1178.548	991.45833
1181.884	1001.125
1185.217	994.125
1188.548	1038.79167
1191.877	1040.45833
1195.202	1058.125
1198.526	1078.79167
1201.846	1083.79167
1205.165	1082.79167
1208.48	1095.45833
1211.794	1093.45833
1215.104	1088.45833
1218.413	1077.79167
1221.719	1071.45833
1225.022	1065.125
1228.323	1043.125
1231.621	1043.125
1234.917	1034.45833
1238.21	1072.79167
1241.501	1044.79167
1244.79	1020.125
1248.076	1010.125
1251.359	1038.79167
1254.64	1078.125
1257.919	1060.45833
1261.195	1061.125
1264.468	1083.125
1267.74	1097.79167
1271.008	1084.79167
1274.275	1095.79167
1277.538	1093.45833
1280.8	1088.79167
1284.059	1080.79167
1287.315	1080.125
1290.569	1082.79167
1293.821	1096.125
1297.07	1098.125
1300.317	1115.125
1303.562	1109.45833
1306.803	1089.45833
1310.043	1086.125
1313.28	1077.79167
1316.515	1074.45833
1319.747	1097.125
1322.977	1074.79167
1326.204	1076.125
1329.429	1061.79167
1332.652	1063.79167
1335.872	1064.45833
1339.09	1036.79167
1342.306	1057.125
1345.519	1047.125
1348.729	1034.45833
1351.938	1026.45833
1355.144	1026.125
1358.347	1011.45833
1361.548	1014.125
1364.747	1007.125
1367.944	993.45833
1371.138	994.79167
1374.329	993.45833
1377.518	988.79167
1380.705	991.45833
1383.89	978.45833
1387.072	960.45833
1390.252	946.125
1393.429	901.79167
1396.605	886.79167
1399.777	861.125
1402.948	862.79167
1406.116	843.125
1409.282	851.45833
1412.445	844.125
1415.606	851.45833
1418.765	857.125
1421.921	866.45833
1425.075	869.79167
1428.227	896.125
1431.376	924.125
1434.524	954.79167
1437.668	975.79167
1440.811	976.45833
1443.951	986.125
1447.089	999.79167
1450.224	990.125
1453.357	984.125
1456.488	1001.125
1459.617	973.125
1462.743	962.79167
1465.867	940.45833
1468.989	934.45833
1472.108	921.125
1475.225	910.79167
1478.34	910.125
1481.453	897.125
1484.563	893.79167
1487.671	888.125
1490.776	908.125
1493.88	919.79167
1496.981	925.125
1500.08	940.125
1503.176	934.125
1506.271	960.45833
1509.363	952.79167
1512.452	960.125
1515.54	970.125
1518.625	972.45833
1521.708	1015.79167
1524.789	1036.125
1527.867	1052.125
1530.944	1082.79167
1534.018	1123.45833
1537.089	1174.79167
1540.159	1171.125
1543.226	1165.125
1546.291	1145.45833
1549.354	1141.45833
1552.415	1109.125
1555.473	1083.125
1558.529	1082.79167
1561.583	1071.45833
1564.634	1065.125
1567.684	1064.79167
1570.731	1058.125
1573.776	1077.45833
1576.819	1089.45833
1579.859	1092.79167
1582.898	1118.79167
1585.934	1131.125
1588.968	1137.125
1591.999	1107.125
1595.029	1107.45833
1598.056	1117.125
1601.081	1123.79167
1604.104	1122.45833
1607.125	1110.79167
1610.144	1090.125
1613.16	1087.45833
1616.174	1066.79167
1619.186	1033.45833
1622.196	1025.45833
1625.203	997.125
1628.209	991.79167
1631.212	993.125
1634.213	1012.79167
1637.212	1023.125
1640.209	1019.79167
1643.203	996.45833
1646.196	947.79167
1649.186	924.45833
1652.174	906.79167
1655.16	869.125
1658.144	854.79167
1661.125	814.79167
1664.105	761.45833
1667.082	747.79167
1670.057	699.79167
1673.03	664.79167
1676.001	640.79167
1678.97	601.125
1681.937	581.45833
1684.901	540.79167
1687.863	548.79167
1690.824	509.45833
1693.782	519.45833
1696.738	481.45833
1699.692	492.125
1702.643	464.79167
1705.593	474.125
1708.54	467.79167
1711.486	474.79167
1714.429	451.79167
1717.37	464.79167
1720.309	435.45833
1723.246	454.45833
1726.181	433.79167
1729.113	445.125
1732.044	438.125
1734.972	429.125
1737.899	447.79167
1740.823	445.79167
1743.745	459.79167
1746.665	415.79167
1749.583	407.125
1752.499	408.45833
1755.413	411.125
1758.325	405.45833
1761.235	405.45833
1764.142	391.125
1767.048	393.79167
1769.951	391.79167
1772.852	378.79167
1775.752	401.79167
1778.649	415.79167
1781.544	409.45833
1784.437	383.125
1787.328	392.79167
1790.217	382.45833
1793.104	372.45833
1795.989	365.125
1798.872	363.79167
1801.753	369.45833
1804.631	362.45833
1807.508	379.125
1810.383	367.45833
1813.255	365.45833
1816.126	360.79167
1818.994	366.125
1821.861	357.45833
1824.725	368.125
1827.587	363.45833
1830.448	360.79167
1833.306	351.45833
1836.162	358.79167
1839.017	346.79167
1841.869	352.79167
1844.719	353.79167
1847.567	333.125
1850.414	330.79167
1853.258	334.45833
1856.1	343.125
1858.94	356.125
1861.778	342.79167
1864.614	331.79167
1867.448	344.79167
1870.28	320.45833
1873.111	348.79167
1875.939	335.45833
1878.765	348.45833
1881.589	325.125
1884.411	338.45833
1887.231	345.125
1890.049	337.45833
1892.865	351.45833
1895.68	328.45833
1898.492	335.125
1901.302	329.45833
1904.11	325.45833
1906.916	335.79167
1909.721	329.125
1912.523	333.79167
1915.323	310.125
1918.122	309.45833
1920.918	331.79167
1923.712	314.79167
1926.505	319.79167
1929.295	303.79167
1932.084	318.125
1934.87	320.79167
1937.655	313.125
1940.438	304.79167
1943.218	310.125
1945.997	311.79167
1948.774	322.125
1951.549	320.45833
1954.322	307.125
1957.093	312.45833
1959.862	308.125
1962.629	298.45833
1965.394	305.79167
1968.157	300.79167
1970.918	313.45833
1973.678	293.125
1976.435	310.79167
1979.19	294.79167
1981.944	286.125
1984.696	289.45833
1987.445	283.45833
1990.193	292.45833
1992.939	301.125
1995.683	298.79167
1998.425	269.125
2001.165	305.79167
2003.903	282.45833
2006.639	286.79167
2009.374	291.125
2012.106	294.45833
2014.837	266.125
2017.566	289.79167
2020.292	279.45833
2023.017	279.125
2025.74	276.45833
2028.461	269.125
2031.18	279.45833
2033.898	272.45833
2036.613	281.79167
2039.327	281.125
2042.038	269.45833
2044.748	268.79167
2047.456	279.125
2050.162	262.79167
2052.866	269.45833
2055.568	278.45833
2058.268	264.45833
2060.967	278.125
2063.663	257.125
2066.358	256.45833
2069.051	259.79167
2071.742	268.125
2074.431	278.79167
2077.118	251.79167
2079.804	253.45833
2082.487	267.79167
2085.169	273.45833
2087.849	284.79167
2090.527	256.45833
2093.203	266.79167
2095.877	260.79167
2098.55	263.79167
2101.22	265.79167
2103.889	274.125
2106.556	255.45833
2109.221	272.125
2111.884	264.79167
2114.546	279.125
2117.205	286.45833
2119.863	319.79167
2122.519	309.79167
2125.173	330.79167
2127.825	365.79167
2130.475	367.125
2133.124	341.125
2135.771	337.125
2138.416	343.125
2141.059	320.125
2143.7	317.45833
2146.339	294.79167
2148.977	269.45833
2151.613	278.79167
2154.247	273.45833
2156.879	269.45833
2159.51	254.79167
2162.138	250.79167
2164.765	251.125
2167.39	248.125
2170.013	263.125
2172.634	257.79167
2175.254	246.79167
2177.872	282.79167
2180.488	235.79167
2183.102	241.79167
2185.714	238.79167
2188.325	227.79167
2190.934	240.79167
2193.541	248.79167
2196.146	239.125
2198.75	224.79167
2201.351	225.79167
2203.951	214.45833
2206.549	226.79167
2209.146	223.79167
2211.74	224.125
2214.333	234.79167
2216.924	216.79167
2219.514	219.125
2222.101	219.45833
2224.687	228.79167
2227.271	208.79167
2229.853	213.45833
2232.433	200.125
2235.012	223.45833
2237.589	214.79167
2240.164	231.45833
2242.738	214.125
2245.309	208.125
2247.879	223.125
2250.448	218.79167
2253.014	203.45833
2255.579	194.125
2258.142	200.125
2260.703	206.125
2263.262	198.125
2265.82	193.45833
2268.376	208.45833
2270.93	194.79167
2273.483	194.45833
2276.033	207.45833
2278.583	201.45833
2281.13	191.79167
2283.675	189.125
2286.219	185.45833
2288.761	197.45833
2291.302	202.45833
2293.841	204.45833
2296.377	184.45833
2298.913	194.45833
2301.446	206.125
2303.978	195.125
2306.508	196.79167
2309.037	194.45833
2311.563	188.45833
2314.088	193.79167
2316.612	180.125
2319.133	193.125
2321.653	189.79167
2324.171	184.79167
2326.688	195.45833
2329.202	190.79167
2331.715	188.125
2334.227	181.79167
2336.736	189.125
2339.244	182.45833
2341.751	173.125
2344.255	189.125
2346.758	187.45833
2349.259	176.45833
2351.759	184.125
2354.257	170.125
2356.753	167.45833
2359.247	170.79167
2361.74	175.45833
2364.231	177.125
2366.721	179.79167
2369.209	170.45833
2371.695	174.125
2374.179	173.79167
2376.662	164.125
2379.143	184.45833
2381.622	173.79167
2384.1	182.125
2386.576	167.125
2389.051	179.125
2391.524	187.79167
2393.995	178.79167
2396.464	166.125
2398.932	168.45833
2401.398	179.125
2403.863	165.45833
2406.325	159.79167
2408.787	178.79167
2411.246	166.45833
2413.704	168.79167
2416.16	160.125
2418.615	165.125
2421.068	170.125
2423.519	159.45833
2425.969	156.79167
2428.417	174.45833
2430.863	186.125
2433.308	172.125
2435.751	166.125
2438.193	161.45833
2440.633	168.79167
2443.071	175.79167
2445.508	160.79167
2447.943	158.45833
2450.376	159.125
2452.808	164.45833
2455.238	155.45833
2457.667	184.45833
2460.093	152.79167
2462.519	146.125
2464.942	153.125
2467.365	165.45833
2469.785	156.45833
2472.204	149.125
2474.621	155.125
2477.037	165.45833
2479.451	147.45833
2481.863	146.125
2484.274	146.79167
2486.683	155.79167
2489.091	166.79167
2491.497	154.79167
2493.901	155.45833
2496.304	151.125
2498.705	162.45833
2501.105	155.125
2503.503	171.79167
2505.899	141.125
2508.294	168.79167
2510.687	146.125
2513.079	146.45833
2515.469	144.79167
2517.858	142.79167
2520.245	161.45833
2522.63	148.125
2525.014	143.45833
2527.396	143.79167
2529.776	144.45833
2532.156	153.45833
2534.533	141.45833
2536.909	135.125
2539.283	130.45833
2541.656	139.45833
2544.027	147.45833
2546.397	145.45833
2548.765	146.125
2551.131	142.79167
2553.496	150.79167
2555.86	154.45833
2558.221	157.125
2560.582	137.45833
2562.94	132.79167
2565.298	143.79167
2567.653	154.125
2570.007	134.45833
2572.36	149.125
2574.711	134.45833
2577.06	149.79167
2579.408	139.125
2581.754	138.125
2584.099	137.125
2586.442	137.79167
2588.784	146.79167
2591.124	137.125
2593.463	138.45833
2595.8	141.125
2598.135	128.125
2600.469	128.79167
2602.802	146.45833
2605.133	146.125
2607.462	133.45833
2609.79	123.125
2612.116	140.45833
2614.441	136.79167
2616.764	140.45833
2619.086	138.125
2621.406	129.125
2623.725	142.45833
2626.042	131.125
2628.358	127.45833
2630.672	137.125
2632.985	148.125
2635.296	137.79167
2637.606	133.45833
2639.914	127.125
2642.22	130.45833
2644.525	129.45833
2646.829	133.125
2649.131	148.45833
2651.432	135.79167
2653.731	133.125
2656.028	144.79167
2658.324	137.79167
2660.619	123.45833
2662.912	144.45833
2665.204	123.79167
2667.494	138.79167
2669.782	124.79167
2672.07	145.79167
2674.355	146.125
2676.639	133.79167
2678.922	135.79167
2681.203	137.45833
2683.483	131.79167
2685.761	123.79167
2688.038	141.125
2690.313	143.45833
2692.587	134.125
2694.859	127.125
2697.13	131.45833
2699.399	137.79167
2701.667	143.125
2703.933	134.79167
2706.198	150.125
2708.461	137.79167
2710.723	139.125
2712.984	138.79167
2715.243	145.45833
2717.5	132.45833
2719.757	143.45833
2722.011	138.125
2724.264	149.79167
2726.516	149.79167
2728.766	131.45833
2731.015	136.45833
2733.262	135.45833
2735.508	138.45833
2737.753	144.125
2739.996	127.79167
2742.237	125.79167
2744.477	147.79167
2746.716	156.79167
2748.953	142.79167
2751.189	143.79167
2753.423	137.79167
2755.656	132.79167
2757.887	128.79167
2760.117	134.45833
2762.346	127.125
2764.573	115.79167
2766.798	128.125
2769.022	124.79167
2771.245	121.125
2773.467	127.125
2775.686	124.79167
2777.905	131.125
2780.122	129.45833
2782.337	132.79167
2784.552	129.125
2786.764	133.45833
2788.976	119.79167
2791.186	130.45833
2793.394	127.79167
2795.601	138.125
2797.807	134.79167
2800.011	133.125
2802.214	143.125
2804.415	138.125
2806.615	138.125
2808.814	132.125
2811.011	141.125
2813.206	140.45833
2815.401	151.125
2817.594	149.45833
2819.785	155.125
2821.975	134.79167
2824.164	141.45833
2826.351	143.125
2828.537	157.45833
2830.722	154.45833
2832.905	153.125
2835.086	155.79167
2837.267	174.79167
2839.445	171.125
2841.623	173.125
2843.799	174.79167
2845.974	180.79167
2848.147	186.125
2850.319	198.45833
2852.489	199.79167
2854.659	204.79167
2856.826	206.79167
2858.993	228.79167
2861.158	206.45833
2863.321	213.79167
2865.483	231.45833
2867.644	215.79167
2869.804	222.79167
2871.962	211.45833
2874.118	222.125
2876.274	228.45833
2878.428	225.45833
2880.58	224.125
2882.731	214.79167
2884.881	219.79167
2887.03	228.125
2889.177	217.45833
2891.322	225.125
2893.467	214.125
2895.61	211.125
2897.751	225.79167
2899.892	222.45833
2902.03	226.45833
2904.168	220.45833
2906.304	225.79167
2908.439	244.79167
2910.572	221.79167
2912.704	231.125
2914.835	234.45833
2916.965	229.125
2919.093	247.79167
2921.219	216.45833
2923.345	241.45833
2925.469	226.79167
2927.591	221.79167
2929.712	211.79167
2931.832	220.125
2933.951	219.45833
2936.068	207.79167
2938.184	204.45833
2940.299	196.125
2942.412	196.125
2944.524	182.125
2946.634	194.125
2948.744	159.125
2950.851	200.45833
2952.958	168.45833
2955.063	174.125
2957.167	166.45833
2959.269	153.79167
2961.371	179.79167
2963.471	153.79167
2965.569	169.79167
2967.666	147.125
2969.762	151.79167
2971.857	145.79167
2973.95	140.45833
2976.042	142.45833
2978.133	141.125
2980.222	140.45833
2982.31	124.79167
2984.396	114.79167
2986.482	116.79167
2988.566	128.125
2990.648	121.45833
2992.73	120.45833
2994.81	107.79167
2996.889	121.79167
2998.966	121.45833
3001.042	128.45833
3003.117	116.79167
3005.191	116.45833
3007.263	124.125
3009.334	119.79167
3011.403	118.125
3013.472	112.125
3015.539	129.79167
3017.604	135.79167
3019.669	102.79167
3021.732	112.125
3023.794	115.79167
3025.854	104.45833
3027.914	103.45833
3029.971	106.45833
3032.028	109.45833
3034.083	114.45833
3036.137	110.79167
3038.19	97.79167
3040.242	94.79167
3042.292	92.79167
3044.341	97.125
3046.388	112.45833
3048.435	89.45833
3050.48	112.125
3052.524	99.45833
3054.566	86.45833
3056.607	96.45833
3058.647	96.79167
3060.686	83.79167
3062.723	75.79167
3064.759	80.45833
3066.794	0.125
3068.828	-0.875
3070.86	3.79167
