-0.839	131.70833
3.438	149.04167
7.711	61.375
11.981	44.04167
16.247	30.70833
20.509	39.04167
24.768	34.70833
29.024	43.04167
33.276	29.70833
37.524	39.04167
41.769	32.04167
46.01	23.375
50.247	47.375
54.481	47.70833
58.712	52.375
62.939	36.70833
67.162	51.375
71.382	43.70833
75.599	36.70833
79.812	42.70833
84.021	58.70833
88.227	40.70833
92.429	50.375
96.628	39.04167
100.823	48.70833
105.015	52.04167
109.204	47.04167
113.388	54.70833
117.57	42.375
121.748	60.70833
125.922	46.70833
130.093	65.04167
134.261	62.70833
138.425	50.04167
142.585	83.04167
146.742	58.70833
150.896	73.04167
155.046	73.04167
159.193	103.375
163.336	151.70833
167.476	258.375
171.613	466.04167
175.746	735.70833
179.875	1077.70833
184.002	1386.04167
188.124	1644.70833
192.244	1715.70833
196.36	1737.04167
200.472	1736.04167
204.581	1704.70833
208.687	1645.70833
212.79	1651.375
216.889	1685.70833
220.984	1693.375
225.077	1699.70833
229.165	1716.04167
233.251	1700.375
237.333	1718.375
241.412	1704.04167
245.487	1704.70833
249.559	1667.375
253.628	1674.70833
257.694	1652.375
261.756	1656.70833
265.814	1622.375
269.87	1574.04167
273.922	1545.04167
277.97	1520.70833
282.016	1497.04167
286.058	1500.70833
290.097	1515.70833
294.132	1524.70833
298.164	1517.375
302.193	1459.04167
306.219	1377.375
310.241	1303.375
314.26	1229.04167
318.276	1153.70833
322.288	1139.70833
326.297	1086.04167
330.303	1080.04167
334.305	1055.70833
338.305	1057.70833
342.301	1046.375
346.294	1040.70833
350.283	1027.375
354.269	1029.70833
358.252	1021.375
362.232	1019.04167
366.209	1034.375
370.182	1017.375
374.152	999.375
378.119	1016.375
382.083	990.70833
386.043	1011.70833
390	1001.375
393.954	1030.70833
397.905	1024.70833
401.852	1035.04167
405.797	1014.375
409.738	1003.04167
413.676	1019.70833
417.61	1040.04167
421.542	1008.70833
425.47	997.70833
429.396	997.375
433.318	985.04167
437.236	993.04167
441.152	1023.70833
445.065	974.04167
448.974	988.375
452.88	968.70833
456.783	959.70833
460.683	959.04167
464.58	963.375
468.473	979.70833
472.364	980.70833
476.251	971.04167
480.135	978.70833
484.016	989.04167
487.894	997.04167
491.769	995.04167
495.641	998.375
499.509	998.375
503.375	1008.04167
507.237	987.04167
511.096	996.70833
514.952	997.375
518.805	1011.70833
522.655	991.70833
526.502	996.375
530.346	997.04167
534.187	1005.375
538.024	981.04167
541.859	984.70833
545.69	1007.04167
549.519	994.375
553.344	998.04167
557.166	977.04167
560.985	969.375
564.802	971.04167
568.615	965.70833
572.425	935.375
576.232	939.70833
580.036	941.70833
583.836	946.04167
587.634	950.70833
591.429	943.375
595.221	968.70833
599.01	969.70833
602.796	952.70833
606.578	973.70833
610.358	976.04167
614.135	977.375
617.909	976.375
621.679	964.70833
625.447	951.04167
629.212	956.70833
632.973	947.70833
636.732	939.04167
640.488	947.375
644.241	936.70833
647.991	941.04167
651.737	953.04167
655.481	925.70833
659.222	939.04167
662.96	918.04167
666.695	951.04167
670.427	949.70833
674.156	966.04167
677.882	946.375
681.605	946.04167
685.325	936.375
689.043	942.04167
692.757	928.375
696.468	941.04167
700.177	946.04167
703.882	917.70833
707.585	909.70833
711.284	913.70833
714.981	915.70833
718.675	915.70833
722.366	926.375
726.054	903.04167
729.739	912.375
733.421	902.375
737.1	905.04167
740.777	917.375
744.45	922.375
748.121	917.375
751.789	956.375
755.453	959.04167
759.115	938.70833
762.774	929.375
766.431	925.375
770.084	934.375
773.734	935.04167
777.382	959.375
781.027	945.70833
784.669	932.70833
788.308	954.70833
791.944	964.04167
795.577	963.70833
799.208	963.04167
802.835	968.70833
806.46	970.04167
810.082	971.70833
813.701	972.70833
817.317	980.375
820.931	987.04167
824.542	988.04167
828.149	961.375
831.754	946.70833
835.357	939.375
838.956	964.70833
842.553	954.04167
846.146	947.70833
849.737	932.375
853.326	936.70833
856.911	919.04167
860.493	952.375
864.073	944.70833
867.65	952.375
871.225	962.04167
874.796	951.375
878.365	932.375
881.931	968.70833
885.494	965.04167
889.054	955.04167
892.612	951.70833
896.166	936.70833
899.719	932.04167
903.268	912.70833
906.814	906.70833
910.358	915.375
913.899	903.375
917.438	910.04167
920.973	886.70833
924.506	892.375
928.036	919.04167
931.564	927.04167
935.088	944.70833
938.61	928.04167
942.129	930.375
945.646	946.70833
949.16	950.375
952.671	957.375
956.179	976.375
959.685	965.04167
963.188	977.04167
966.688	971.04167
970.185	939.375
973.68	912.04167
977.173	902.04167
980.662	896.70833
984.149	903.04167
987.633	874.375
991.114	881.70833
994.593	898.70833
998.069	919.04167
1001.542	937.04167
1005.013	931.375
1008.481	879.375
1011.947	870.70833
1015.409	854.375
1018.869	867.04167
1022.327	873.375
1025.782	849.04167
1029.234	838.375
1032.683	827.04167
1036.13	817.375
1039.574	796.04167
1043.016	781.375
1046.455	766.04167
1049.891	762.70833
1053.325	771.70833
1056.756	763.70833
1060.184	762.70833
1063.61	761.70833
1067.033	764.375
1070.454	760.375
1073.872	784.04167
1077.287	758.04167
1080.7	749.375
1084.11	757.375
1087.517	757.04167
1090.922	754.04167
1094.325	735.04167
1097.724	741.375
1101.122	735.375
1104.516	739.70833
1107.908	730.04167
1111.298	738.04167
1114.684	733.70833
1118.069	737.04167
1121.45	767.70833
1124.83	735.70833
1128.206	740.375
1131.58	757.375
1134.951	778.70833
1138.32	787.04167
1141.687	822.70833
1145.05	834.70833
1148.412	826.70833
1151.77	826.375
1155.126	823.375
1158.48	804.04167
1161.831	818.375
1165.18	813.04167
1168.525	830.04167
1171.869	829.70833
1175.21	836.375
1178.548	848.70833
1181.884	842.04167
1185.217	850.375
1188.548	865.04167
1191.877	891.70833
1195.202	917.04167
1198.526	938.375
1201.846	944.375
1205.165	938.375
1208.48	939.04167
1211.794	929.04167
1215.104	940.04167
1218.413	929.04167
1221.719	920.04167
1225.022	899.04167
1228.323	895.04167
1231.621	898.04167
1234.917	896.04167
1238.21	922.04167
1241.501	889.04167
1244.79	876.375
1248.076	868.04167
1251.359	882.04167
1254.64	932.04167
1257.919	906.70833
1261.195	914.04167
1264.468	932.04167
1267.74	930.04167
1271.008	947.70833
1274.275	935.70833
1277.538	931.04167
1280.8	938.70833
1284.059	918.04167
1287.315	936.375
1290.569	930.375
1293.821	932.04167
1297.07	946.04167
1300.317	938.70833
1303.562	944.04167
1306.803	941.04167
1310.043	944.375
1313.28	938.375
1316.515	925.04167
1319.747	937.70833
1322.977	918.04167
1326.204	911.70833
1329.429	901.70833
1332.652	915.04167
1335.872	907.04167
1339.09	879.70833
1342.306	891.375
1345.519	888.70833
1348.729	883.70833
1351.938	879.04167
1355.144	880.70833
1358.347	855.70833
1361.548	863.70833
1364.747	872.70833
1367.944	854.70833
1371.138	849.04167
1374.329	851.04167
1377.518	852.04167
1380.705	841.04167
1383.89	853.375
1387.072	820.70833
1390.252	807.375
1393.429	779.70833
1396.605	764.375
1399.777	727.375
1402.948	744.70833
1406.116	722.70833
1409.282	725.04167
1412.445	715.375
1415.606	729.04167
1418.765	722.375
1421.921	743.04167
1425.075	751.04167
1428.227	775.04167
1431.376	806.375
1434.524	826.70833
1437.668	838.375
1440.811	846.375
1443.951	858.375
1447.089	855.70833
1450.224	846.70833
1453.357	859.375
1456.488	841.70833
1459.617	837.375
1462.743	831.04167
1465.867	794.04167
1468.989	794.70833
1472.108	782.70833
1475.225	764.04167
1478.34	767.70833
1481.453	756.70833
1484.563	749.70833
1487.671	760.375
1490.776	770.375
1493.88	768.375
1496.981	801.70833
1500.08	783.70833
1503.176	799.04167
1506.271	816.70833
1509.363	836.70833
1512.452	816.375
1515.54	820.375
1518.625	840.375
1521.708	871.375
1524.789	897.04167
1527.867	911.375
1530.944	944.70833
1534.018	976.04167
1537.089	1012.04167
1540.159	1013.70833
1543.226	1026.70833
1546.291	1001.375
1549.354	983.375
1552.415	956.70833
1555.473	955.70833
1558.529	927.375
1561.583	923.04167
1564.634	905.70833
1567.684	918.04167
1570.731	916.04167
1573.776	920.70833
1576.819	927.375
1579.859	938.70833
1582.898	955.04167
1585.934	957.375
1588.968	963.70833
1591.999	937.04167
1595.029	951.375
1598.056	960.04167
1601.081	974.04167
1604.104	973.70833
1607.125	965.04167
1610.144	936.70833
1613.16	911.70833
1616.174	903.375
1619.186	887.375
1622.196	862.04167
1625.203	844.375
1628.209	851.375
1631.212	829.375
1634.213	840.70833
1637.212	839.375
1640.209	845.375
1643.203	819.04167
1646.196	791.70833
1649.186	760.70833
1652.174	757.04167
1655.16	722.04167
1658.144	718.70833
1661.125	690.04167
1664.105	655.04167
1667.082	642.04167
1670.057	597.70833
1673.03	574.70833
1676.001	551.70833
1678.97	512.04167
1681.937	504.04167
1684.901	473.375
1687.863	463.375
1690.824	446.04167
1693.782	448.375
1696.738	417.375
1699.692	429.04167
1702.643	409.375
1705.593	410.04167
1708.54	400.375
1711.486	411.70833
1714.429	384.70833
1717.37	398.70833
1720.309	382.70833
1723.246	397.375
1726.181	376.375
1729.113	372.70833
1732.044	381.70833
1734.972	376.70833
1737.899	390.375
1740.823	382.04167
1743.745	402.04167
1746.665	353.70833
1749.583	361.04167
1752.499	353.375
1755.413	349.70833
1758.325	343.04167
1761.235	354.70833
1764.142	336.70833
1767.048	334.70833
1769.951	337.04167
1772.852	333.70833
1775.752	344.70833
1778.649	333.375
1781.544	348.70833
1784.437	322.04167
1787.328	337.375
1790.217	319.70833
1793.104	307.70833
1795.989	319.70833
1798.872	309.04167
1801.753	331.375
1804.631	316.70833
1807.508	321.04167
1810.383	313.375
1813.255	319.375
1816.126	311.04167
1818.994	302.70833
1821.861	301.375
1824.725	309.70833
1827.587	320.04167
1830.448	312.70833
1833.306	299.70833
1836.162	317.04167
1839.017	299.375
1841.869	305.375
1844.719	301.70833
1847.567	289.375
1850.414	287.04167
1853.258	289.04167
1856.1	299.70833
1858.94	307.04167
1861.778	288.04167
1864.614	282.70833
1867.448	298.375
1870.28	278.04167
1873.111	300.70833
1875.939	293.70833
1878.765	305.04167
1881.589	291.375
1884.411	283.70833
1887.231	294.70833
1890.049	294.70833
1892.865	293.375
1895.68	276.04167
1898.492	290.375
1901.302	287.70833
1904.11	282.375
1906.916	290.04167
1909.721	275.375
1912.523	283.04167
1915.323	273.375
1918.122	273.375
1920.918	285.375
1923.712	271.04167
1926.505	270.70833
1929.295	262.04167
1932.084	276.04167
1934.87	279.04167
1937.655	271.70833
1940.438	255.70833
1943.218	268.375
1945.997	269.375
1948.774	278.375
1951.549	274.375
1954.322	261.375
1957.093	260.375
1959.862	257.375
1962.629	261.375
1965.394	266.70833
1968.157	250.04167
1970.918	267.375
1973.678	252.375
1976.435	270.70833
1979.19	254.04167
1981.944	244.04167
1984.696	251.70833
1987.445	246.375
1990.193	255.04167
1992.939	266.375
1995.683	250.375
1998.425	245.375
2001.165	265.375
2003.903	242.375
2006.639	243.70833
2009.374	255.04167
2012.106	250.04167
2014.837	236.375
2017.566	252.375
2020.292	246.70833
2023.017	246.04167
2025.74	243.70833
2028.461	233.70833
2031.18	248.375
2033.898	238.04167
2036.613	245.04167
2039.327	234.04167
2042.038	236.70833
2044.748	235.70833
2047.456	244.04167
2050.162	227.375
2052.866	233.70833
2055.568	253.375
2058.268	231.375
2060.967	241.04167
2063.663	223.375
2066.358	228.375
2069.051	219.375
2071.742	231.70833
2074.431	239.70833
2077.118	226.04167
2079.804	219.375
2082.487	223.70833
2085.169	236.375
2087.849	253.375
2090.527	222.70833
2093.203	235.04167
2095.877	226.04167
2098.55	229.375
2101.22	236.04167
2103.889	240.70833
2106.556	224.04167
2109.221	242.375
2111.884	233.04167
2114.546	249.70833
2117.205	258.04167
2119.863	281.70833
2122.519	270.70833
2125.173	295.375
2127.825	314.375
2130.475	320.375
2133.124	304.375
2135.771	295.04167
2138.416	298.375
2141.059	276.04167
2143.7	279.70833
2146.339	255.70833
2148.977	235.70833
2151.613	244.375
2154.247	238.375
2156.879	235.04167
2159.51	227.375
2162.138	229.70833
2164.765	221.04167
2167.39	210.04167
2170.013	238.04167
2172.634	232.04167
2175.254	218.375
2177.872	257.375
2180.488	203.04167
2183.102	214.70833
2185.714	211.70833
2188.325	203.375
2190.934	215.375
2193.541	220.375
2196.146	207.70833
2198.75	198.70833
2201.351	203.375
2203.951	188.375
2206.549	203.375
2209.146	198.70833
2211.74	194.70833
2214.333	204.70833
2216.924	190.70833
2219.514	193.70833
2222.101	189.04167
2224.687	206.04167
2227.271	188.04167
2229.853	193.70833
2232.433	177.375
2235.012	197.70833
2237.589	192.70833
2240.164	204.04167
2242.738	186.375
2245.309	179.04167
2247.879	194.70833
2250.448	192.04167
2253.014	172.70833
2255.579	170.70833
2258.142	180.04167
2260.703	179.70833
2263.262	177.375
2265.82	171.375
2268.376	187.70833
2270.93	180.70833
2273.483	164.70833
2276.033	177.375
2278.583	166.70833
2281.13	170.375
2283.675	167.375
2286.219	171.04167
2288.761	180.375
2291.302	181.04167
2293.841	181.375
2296.377	163.04167
2298.913	175.70833
2301.446	181.375
2303.978	175.375
2306.508	178.04167
2309.037	169.375
2311.563	171.04167
2314.088	175.70833
2316.612	155.375
2319.133	170.70833
2321.653	175.70833
2324.171	161.375
2326.688	174.04167
2329.202	164.04167
2331.715	171.375
2334.227	163.375
2336.736	164.375
2339.244	156.375
2341.751	152.70833
2344.255	172.375
2346.758	159.04167
2349.259	162.375
2351.759	163.04167
2354.257	154.04167
2356.753	148.04167
2359.247	156.70833
2361.74	162.70833
2364.231	161.04167
2366.721	164.04167
2369.209	157.375
2371.695	158.04167
2374.179	154.04167
2376.662	145.04167
2379.143	171.375
2381.622	159.375
2384.1	157.375
2386.576	153.375
2389.051	171.70833
2391.524	168.375
2393.995	163.375
2396.464	154.375
2398.932	151.70833
2401.398	154.375
2403.863	151.04167
2406.325	148.04167
2408.787	153.375
2411.246	150.375
2413.704	152.375
2416.16	144.04167
2418.615	153.70833
2421.068	155.375
2423.519	152.04167
2425.969	144.04167
2428.417	167.04167
2430.863	166.04167
2433.308	157.70833
2435.751	157.375
2438.193	147.375
2440.633	151.04167
2443.071	160.04167
2445.508	146.70833
2447.943	146.375
2450.376	137.375
2452.808	153.375
2455.238	140.375
2457.667	170.70833
2460.093	139.375
2462.519	136.375
2464.942	139.70833
2467.365	142.375
2469.785	143.04167
2472.204	143.04167
2474.621	146.375
2477.037	161.375
2479.451	135.04167
2481.863	134.375
2484.274	138.70833
2486.683	143.04167
2489.091	160.04167
2491.497	140.375
2493.901	145.70833
2496.304	144.70833
2498.705	155.70833
2501.105	143.70833
2503.503	160.375
2505.899	131.375
2508.294	152.375
2510.687	138.04167
2513.079	138.70833
2515.469	136.70833
2517.858	140.70833
2520.245	155.70833
2522.63	135.70833
2525.014	133.70833
2527.396	133.70833
2529.776	132.04167
2532.156	138.375
2534.533	126.04167
2536.909	128.375
2539.283	121.375
2541.656	124.70833
2544.027	147.70833
2546.397	143.70833
2548.765	131.375
2551.131	141.70833
2553.496	142.375
2555.86	140.375
2558.221	136.04167
2560.582	129.04167
2562.94	119.70833
2565.298	134.70833
2567.653	144.70833
2570.007	120.04167
2572.36	140.04167
2574.711	128.375
2577.06	149.375
2579.408	133.04167
2581.754	130.04167
2584.099	127.04167
2586.442	132.375
2588.784	141.04167
2591.124	129.04167
2593.463	128.04167
2595.8	133.70833
2598.135	119.375
2600.469	126.70833
2602.802	142.375
2605.133	139.70833
2607.462	121.375
2609.79	115.375
2612.116	139.70833
2614.441	134.04167
2616.764	129.70833
2619.086	129.04167
2621.406	124.70833
2623.725	145.375
2626.042	124.04167
2628.358	121.375
2630.672	128.70833
2632.985	140.375
2635.296	130.70833
2637.606	129.375
2639.914	127.70833
2642.22	130.375
2644.525	131.04167
2646.829	126.04167
2649.131	141.04167
2651.432	135.375
2653.731	126.70833
2656.028	142.375
2658.324	130.04167
2660.619	122.04167
2662.912	144.70833
2665.204	119.70833
2667.494	134.04167
2669.782	126.04167
2672.07	142.04167
2674.355	143.04167
2676.639	136.375
2678.922	127.375
2681.203	137.70833
2683.483	122.70833
2685.761	115.70833
2688.038	136.70833
2690.313	142.375
2692.587	133.375
2694.859	125.04167
2697.13	129.70833
2699.399	130.375
2701.667	137.375
2703.933	136.04167
2706.198	146.70833
2708.461	140.70833
2710.723	142.70833
2712.984	132.04167
2715.243	143.04167
2717.5	132.70833
2719.757	142.70833
2722.011	139.375
2724.264	140.04167
2726.516	149.70833
2728.766	132.04167
2731.015	136.375
2733.262	135.04167
2735.508	131.70833
2737.753	138.70833
2739.996	123.375
2742.237	125.70833
2744.477	142.70833
2746.716	143.375
2748.953	137.375
2751.189	145.70833
2753.423	136.375
2755.656	130.04167
2757.887	127.375
2760.117	131.70833
2762.346	130.04167
2764.573	122.70833
2766.798	130.375
2769.022	128.70833
2771.245	120.70833
2773.467	125.375
2775.686	130.04167
2777.905	133.375
2780.122	130.375
2782.337	138.04167
2784.552	125.375
2786.764	126.375
2788.976	127.04167
2791.186	136.04167
2793.394	131.04167
2795.601	137.04167
2797.807	147.375
2800.011	135.375
2802.214	139.375
2804.415	136.04167
2806.615	138.70833
2808.814	135.375
2811.011	148.04167
2813.206	139.04167
2815.401	153.04167
2817.594	144.70833
2819.785	152.70833
2821.975	139.70833
2824.164	147.04167
2826.351	138.04167
2828.537	159.375
2830.722	156.375
2832.905	153.70833
2835.086	155.375
2837.267	176.70833
2839.445	172.375
2841.623	164.375
2843.799	164.375
2845.974	178.70833
2848.147	180.375
2850.319	189.04167
2852.489	192.04167
2854.659	200.70833
2856.826	197.375
2858.993	209.375
2861.158	195.375
2863.321	209.70833
2865.483	218.70833
2867.644	204.04167
2869.804	205.70833
2871.962	201.04167
2874.118	207.375
2876.274	210.375
2878.428	210.04167
2880.58	217.375
2882.731	200.375
2884.881	207.04167
2887.03	215.70833
2889.177	209.70833
2891.322	218.04167
2893.467	206.04167
2895.61	197.04167
2897.751	218.70833
2899.892	209.04167
2902.03	217.70833
2904.168	207.70833
2906.304	214.04167
2908.439	237.04167
2910.572	205.04167
2912.704	219.04167
2914.835	220.375
2916.965	222.375
2919.093	239.375
2921.219	205.375
2923.345	237.375
2925.469	214.375
2927.591	216.375
2929.712	201.70833
2931.832	214.375
2933.951	210.04167
2936.068	199.70833
2938.184	196.70833
2940.299	194.375
2942.412	192.04167
2944.524	172.04167
2946.634	188.04167
2948.744	164.04167
2950.851	197.375
2952.958	168.04167
2955.063	178.70833
2957.167	165.70833
2959.269	156.375
2961.371	184.70833
2963.471	153.70833
2965.569	171.04167
2967.666	146.375
2969.762	148.04167
2971.857	150.70833
2973.95	140.375
2976.042	148.70833
2978.133	140.375
2980.222	141.04167
2982.31	133.70833
2984.396	119.04167
2986.482	120.70833
2988.566	134.70833
2990.648	130.375
2992.73	126.375
2994.81	113.375
2996.889	128.70833
2998.966	122.04167
3001.042	136.04167
3003.117	119.04167
3005.191	124.70833
3007.263	132.375
3009.334	118.70833
3011.403	129.70833
3013.472	116.70833
3015.539	131.70833
3017.604	141.70833
3019.669	110.70833
3021.732	118.70833
3023.794	120.04167
3025.854	111.375
3027.914	111.70833
3029.971	108.70833
3032.028	111.70833
3034.083	121.70833
3036.137	113.375
3038.19	102.375
3040.242	99.70833
3042.292	96.375
3044.341	102.375
3046.388	119.375
3048.435	95.04167
3050.48	112.70833
3052.524	102.04167
3054.566	87.70833
3056.607	99.70833
3058.647	100.04167
3060.686	87.70833
3062.723	84.04167
3064.759	87.375
3066.794	0.70833
3068.828	1.04167
3070.86	0.375
