-0.839	134.41667
3.438	146.41667
7.711	63.75
11.981	38.41667
16.247	33.75
20.509	38.75
24.768	36.08333
29.024	47.75
33.276	32.75
37.524	40.41667
41.769	29.75
46.01	26.75
50.247	43.08333
54.481	50.41667
58.712	56.08333
62.939	36.75
67.162	54.08333
71.382	45.08333
75.599	37.41667
79.812	42.08333
84.021	60.41667
88.227	41.75
92.429	49.75
96.628	36.08333
100.823	48.75
105.015	50.41667
109.204	47.75
113.388	57.41667
117.57	41.75
121.748	57.75
125.922	47.41667
130.093	63.08333
134.261	58.75
138.425	54.08333
142.585	86.08333
146.742	62.75
150.896	77.75
155.046	74.75
159.193	107.41667
163.336	154.41667
167.476	256.08333
171.613	440.41667
175.746	725.75
179.875	1044.75
184.002	1353.75
188.124	1605.41667
192.244	1686.41667
196.36	1674.08333
200.472	1672.41667
204.581	1651.08333
208.687	1596.08333
212.79	1605.41667
216.889	1608.41667
220.984	1649.75
225.077	1654.08333
229.165	1667.75
233.251	1661.41667
237.333	1656.41667
241.412	1656.75
245.487	1644.41667
249.559	1619.41667
253.628	1621.75
257.694	1585.08333
261.756	1586.41667
265.814	1554.75
269.87	1523.41667
273.922	1490.75
277.97	1469.41667
282.016	1443.08333
286.058	1431.75
290.097	1454.75
294.132	1457.41667
298.164	1470.08333
302.193	1415.08333
306.219	1300.08333
310.241	1244.08333
314.26	1166.41667
318.276	1112.08333
322.288	1075.08333
326.297	1047.75
330.303	1007.08333
334.305	1007.75
338.305	989.75
342.301	993.41667
346.294	982.08333
350.283	977.41667
354.269	973.75
358.252	964.08333
362.232	971.41667
366.209	966.08333
370.182	947.41667
374.152	955.08333
378.119	960.75
382.083	957.08333
386.043	971.41667
390	947.75
393.954	959.08333
397.905	960.41667
401.852	973.75
405.797	943.75
409.738	966.08333
413.676	963.41667
417.61	981.08333
421.542	955.41667
425.47	948.75
429.396	932.75
433.318	917.75
437.236	930.41667
441.152	970.08333
445.065	910.41667
448.974	928.75
452.88	915.41667
456.783	917.41667
460.683	921.08333
464.58	930.08333
468.473	935.08333
472.364	916.41667
476.251	922.08333
480.135	921.08333
484.016	937.08333
487.894	953.41667
491.769	951.41667
495.641	933.41667
499.509	943.08333
503.375	932.75
507.237	924.75
511.096	938.08333
514.952	932.41667
518.805	939.75
522.655	952.08333
526.502	942.75
530.346	943.41667
534.187	948.41667
538.024	930.75
541.859	933.75
545.69	942.08333
549.519	938.75
553.344	932.41667
557.166	915.75
560.985	902.41667
564.802	917.75
568.615	895.41667
572.425	873.75
576.232	867.75
580.036	885.41667
583.836	886.08333
587.634	892.08333
591.429	883.08333
595.221	931.75
599.01	919.08333
602.796	906.08333
606.578	913.08333
610.358	908.08333
614.135	912.08333
617.909	913.08333
621.679	894.75
625.447	879.41667
629.212	901.75
632.973	905.41667
636.732	893.41667
640.488	899.41667
644.241	882.41667
647.991	886.08333
651.737	908.08333
655.481	868.41667
659.222	880.75
662.96	880.41667
666.695	896.75
670.427	898.08333
674.156	902.08333
677.882	911.08333
681.605	903.41667
685.325	882.41667
689.043	904.08333
692.757	875.75
696.468	889.41667
700.177	883.41667
703.882	864.75
707.585	856.08333
711.284	855.08333
714.981	865.41667
718.675	853.08333
722.366	870.41667
726.054	860.41667
729.739	858.75
733.421	865.08333
737.1	854.41667
740.777	866.41667
744.45	858.08333
748.121	862.41667
751.789	886.08333
755.453	869.75
759.115	885.08333
762.774	872.08333
766.431	871.75
770.084	889.41667
773.734	868.41667
777.382	902.41667
781.027	902.08333
784.669	901.41667
788.308	894.08333
791.944	899.41667
795.577	923.75
799.208	916.08333
802.835	910.75
806.46	907.75
810.082	913.41667
813.701	922.41667
817.317	938.41667
820.931	936.75
824.542	936.75
828.149	909.08333
831.754	902.41667
835.357	897.75
838.956	919.41667
842.553	902.41667
846.146	892.08333
849.737	870.41667
853.326	895.08333
856.911	888.41667
860.493	900.08333
864.073	889.75
867.65	910.41667
871.225	922.75
874.796	891.75
878.365	901.08333
881.931	904.41667
885.494	915.75
889.054	908.75
892.612	904.41667
896.166	891.08333
899.719	883.41667
903.268	873.41667
906.814	880.08333
910.358	863.08333
913.899	854.41667
917.438	866.08333
920.973	838.75
924.506	848.08333
928.036	882.75
931.564	892.08333
935.088	895.75
938.61	877.75
942.129	885.08333
945.646	896.08333
949.16	910.41667
952.671	912.08333
956.179	934.08333
959.685	919.41667
963.188	939.75
966.688	919.75
970.185	890.08333
973.68	864.08333
977.173	861.41667
980.662	844.75
984.149	860.08333
987.633	847.08333
991.114	857.08333
994.593	889.41667
998.069	868.08333
1001.542	902.08333
1005.013	896.75
1008.481	838.41667
1011.947	829.75
1015.409	820.75
1018.869	828.75
1022.327	831.75
1025.782	819.41667
1029.234	794.75
1032.683	805.75
1036.13	775.41667
1039.574	756.75
1043.016	741.41667
1046.455	723.75
1049.891	715.41667
1053.325	742.41667
1056.756	721.75
1060.184	728.08333
1063.61	725.08333
1067.033	736.75
1070.454	724.41667
1073.872	746.41667
1077.287	717.08333
1080.7	734.41667
1084.11	726.75
1087.517	731.75
1090.922	718.41667
1094.325	709.75
1097.724	718.08333
1101.122	708.41667
1104.516	698.75
1107.908	693.08333
1111.298	695.08333
1114.684	707.75
1118.069	702.08333
1121.45	726.41667
1124.83	704.75
1128.206	731.08333
1131.58	732.41667
1134.951	744.08333
1138.32	755.08333
1141.687	786.75
1145.05	799.75
1148.412	794.08333
1151.77	782.41667
1155.126	785.41667
1158.48	782.75
1161.831	794.75
1165.18	782.75
1168.525	796.75
1171.869	812.41667
1175.21	791.75
1178.548	820.08333
1181.884	820.08333
1185.217	816.75
1188.548	843.08333
1191.877	844.41667
1195.202	889.08333
1198.526	908.08333
1201.846	903.41667
1205.165	894.08333
1208.48	899.75
1211.794	902.41667
1215.104	905.75
1218.413	891.41667
1221.719	899.41667
1225.022	867.41667
1228.323	861.41667
1231.621	883.75
1234.917	866.08333
1238.21	891.41667
1241.501	874.75
1244.79	853.75
1248.076	848.41667
1251.359	855.75
1254.64	898.08333
1257.919	871.08333
1261.195	880.41667
1264.468	887.41667
1267.74	897.75
1271.008	911.75
1274.275	901.75
1277.538	897.75
1280.8	895.41667
1284.059	897.08333
1287.315	908.75
1290.569	888.75
1293.821	913.41667
1297.07	917.41667
1300.317	920.08333
1303.562	920.75
1306.803	910.41667
1310.043	900.08333
1313.28	899.41667
1316.515	894.75
1319.747	897.75
1322.977	892.75
1326.204	879.75
1329.429	881.08333
1332.652	860.75
1335.872	883.41667
1339.09	855.75
1342.306	862.08333
1345.519	854.08333
1348.729	860.08333
1351.938	849.41667
1355.144	836.75
1358.347	827.75
1361.548	832.08333
1364.747	834.75
1367.944	819.41667
1371.138	812.75
1374.329	826.08333
1377.518	817.08333
1380.705	814.08333
1383.89	820.75
1387.072	787.75
1390.252	765.41667
1393.429	749.08333
1396.605	741.41667
1399.777	706.41667
1402.948	716.75
1406.116	699.75
1409.282	696.08333
1412.445	705.41667
1415.606	712.41667
1418.765	711.41667
1421.921	720.75
1425.075	727.75
1428.227	737.41667
1431.376	779.08333
1434.524	795.41667
1437.668	810.41667
1440.811	820.75
1443.951	819.41667
1447.089	818.75
1450.224	822.08333
1453.357	826.08333
1456.488	819.08333
1459.617	811.75
1462.743	796.08333
1465.867	781.08333
1468.989	768.41667
1472.108	769.75
1475.225	750.75
1478.34	746.75
1481.453	732.41667
1484.563	731.75
1487.671	749.75
1490.776	758.41667
1493.88	752.08333
1496.981	768.08333
1500.08	768.08333
1503.176	778.41667
1506.271	782.75
1509.363	791.75
1512.452	797.75
1515.54	801.75
1518.625	812.08333
1521.708	844.08333
1524.789	869.08333
1527.867	881.75
1530.944	921.75
1534.018	940.75
1537.089	972.41667
1540.159	992.08333
1543.226	993.75
1546.291	964.75
1549.354	948.08333
1552.415	935.75
1555.473	923.41667
1558.529	907.75
1561.583	910.08333
1564.634	893.08333
1567.684	890.08333
1570.731	893.41667
1573.776	913.41667
1576.819	912.41667
1579.859	916.41667
1582.898	925.08333
1585.934	936.41667
1588.968	933.08333
1591.999	923.08333
1595.029	934.41667
1598.056	937.08333
1601.081	954.08333
1604.104	946.75
1607.125	931.41667
1610.144	922.08333
1613.16	888.08333
1616.174	875.75
1619.186	852.41667
1622.196	836.08333
1625.203	822.75
1628.209	829.08333
1631.212	814.75
1634.213	815.41667
1637.212	832.75
1640.209	822.41667
1643.203	786.08333
1646.196	770.75
1649.186	739.75
1652.174	738.75
1655.16	706.41667
1658.144	695.41667
1661.125	659.08333
1664.105	644.75
1667.082	620.75
1670.057	579.08333
1673.03	544.08333
1676.001	535.41667
1678.97	498.41667
1681.937	479.08333
1684.901	455.08333
1687.863	452.75
1690.824	426.75
1693.782	431.08333
1696.738	396.75
1699.692	401.75
1702.643	388.08333
1705.593	391.75
1708.54	393.75
1711.486	386.75
1714.429	370.75
1717.37	377.41667
1720.309	372.08333
1723.246	378.75
1726.181	355.75
1729.113	360.41667
1732.044	364.08333
1734.972	357.75
1737.899	371.08333
1740.823	368.08333
1743.745	382.41667
1746.665	348.08333
1749.583	337.41667
1752.499	340.08333
1755.413	342.08333
1758.325	322.08333
1761.235	341.75
1764.142	322.08333
1767.048	321.75
1769.951	321.41667
1772.852	316.75
1775.752	329.75
1778.649	322.41667
1781.544	331.41667
1784.437	310.75
1787.328	318.41667
1790.217	312.75
1793.104	293.08333
1795.989	305.41667
1798.872	295.75
1801.753	313.75
1804.631	302.75
1807.508	312.41667
1810.383	301.41667
1813.255	301.41667
1816.126	301.41667
1818.994	301.41667
1821.861	293.75
1824.725	301.41667
1827.587	308.75
1830.448	296.75
1833.306	288.08333
1836.162	302.75
1839.017	293.08333
1841.869	290.75
1844.719	285.41667
1847.567	279.08333
1850.414	276.75
1853.258	274.41667
1856.1	290.75
1858.94	290.75
1861.778	282.41667
1864.614	277.75
1867.448	290.41667
1870.28	269.41667
1873.111	290.75
1875.939	274.08333
1878.765	294.41667
1881.589	282.41667
1884.411	277.08333
1887.231	290.08333
1890.049	273.08333
1892.865	289.08333
1895.68	263.41667
1898.492	276.41667
1901.302	269.41667
1904.11	272.75
1906.916	275.75
1909.721	265.08333
1912.523	275.75
1915.323	263.41667
1918.122	270.08333
1920.918	271.41667
1923.712	258.75
1926.505	264.41667
1929.295	246.41667
1932.084	263.75
1934.87	262.75
1937.655	260.08333
1940.438	254.08333
1943.218	261.08333
1945.997	264.75
1948.774	264.75
1951.549	263.75
1954.322	250.08333
1957.093	263.08333
1959.862	249.41667
1962.629	245.75
1965.394	252.08333
1968.157	242.75
1970.918	255.08333
1973.678	250.08333
1976.435	262.41667
1979.19	242.08333
1981.944	236.41667
1984.696	240.08333
1987.445	234.75
1990.193	243.41667
1992.939	254.75
1995.683	247.08333
1998.425	228.41667
2001.165	264.41667
2003.903	227.75
2006.639	240.41667
2009.374	243.75
2012.106	246.08333
2014.837	219.08333
2017.566	249.41667
2020.292	237.41667
2023.017	229.75
2025.74	232.41667
2028.461	222.75
2031.18	237.41667
2033.898	223.08333
2036.613	227.41667
2039.327	239.41667
2042.038	224.08333
2044.748	228.75
2047.456	234.75
2050.162	219.75
2052.866	219.75
2055.568	238.75
2058.268	220.08333
2060.967	236.41667
2063.663	215.08333
2066.358	216.08333
2069.051	216.08333
2071.742	223.41667
2074.431	230.08333
2077.118	218.41667
2079.804	211.75
2082.487	220.08333
2085.169	229.75
2087.849	240.75
2090.527	211.41667
2093.203	230.08333
2095.877	222.41667
2098.55	221.75
2101.22	222.41667
2103.889	236.08333
2106.556	221.75
2109.221	235.08333
2111.884	226.75
2114.546	244.75
2117.205	246.41667
2119.863	269.41667
2122.519	264.75
2125.173	284.75
2127.825	302.08333
2130.475	307.41667
2133.124	292.08333
2135.771	277.08333
2138.416	291.41667
2141.059	265.08333
2143.7	270.08333
2146.339	250.75
2148.977	227.41667
2151.613	238.75
2154.247	236.75
2156.879	231.41667
2159.51	220.75
2162.138	219.75
2164.765	216.08333
2167.39	203.08333
2170.013	229.75
2172.634	222.08333
2175.254	214.41667
2177.872	246.08333
2180.488	198.08333
2183.102	206.08333
2185.714	211.08333
2188.325	198.08333
2190.934	205.08333
2193.541	208.08333
2196.146	199.41667
2198.75	197.75
2201.351	194.41667
2203.951	176.41667
2206.549	197.75
2209.146	193.08333
2211.74	180.75
2214.333	197.75
2216.924	188.08333
2219.514	185.41667
2222.101	179.08333
2224.687	204.41667
2227.271	179.41667
2229.853	179.41667
2232.433	163.08333
2235.012	191.75
2237.589	186.41667
2240.164	194.75
2242.738	183.08333
2245.309	176.08333
2247.879	194.41667
2250.448	185.75
2253.014	173.08333
2255.579	168.08333
2258.142	170.75
2260.703	177.41667
2263.262	171.08333
2265.82	163.08333
2268.376	176.41667
2270.93	171.08333
2273.483	157.75
2276.033	176.08333
2278.583	165.75
2281.13	164.08333
2283.675	156.75
2286.219	165.08333
2288.761	171.75
2291.302	173.41667
2293.841	177.41667
2296.377	159.08333
2298.913	169.08333
2301.446	177.41667
2303.978	170.08333
2306.508	166.41667
2309.037	168.75
2311.563	164.75
2314.088	166.08333
2316.612	154.75
2319.133	165.75
2321.653	166.08333
2324.171	160.08333
2326.688	170.41667
2329.202	166.75
2331.715	168.41667
2334.227	162.41667
2336.736	160.08333
2339.244	158.08333
2341.751	148.41667
2344.255	160.75
2346.758	160.41667
2349.259	150.75
2351.759	158.41667
2354.257	153.08333
2356.753	148.41667
2359.247	152.41667
2361.74	155.08333
2364.231	153.75
2366.721	167.08333
2369.209	152.08333
2371.695	156.75
2374.179	146.75
2376.662	143.41667
2379.143	165.75
2381.622	153.75
2384.1	157.41667
2386.576	155.08333
2389.051	162.75
2391.524	163.75
2393.995	154.75
2396.464	147.75
2398.932	148.08333
2401.398	149.08333
2403.863	143.75
2406.325	146.08333
2408.787	156.41667
2411.246	150.08333
2413.704	149.41667
2416.16	147.08333
2418.615	145.08333
2421.068	151.08333
2423.519	152.41667
2425.969	139.41667
2428.417	155.41667
2430.863	170.75
2433.308	151.75
2435.751	149.75
2438.193	152.08333
2440.633	148.08333
2443.071	153.08333
2445.508	145.75
2447.943	144.08333
2450.376	142.41667
2452.808	148.75
2455.238	135.08333
2457.667	172.41667
2460.093	136.41667
2462.519	128.75
2464.942	131.08333
2467.365	142.41667
2469.785	144.08333
2472.204	138.75
2474.621	134.41667
2477.037	158.08333
2479.451	133.75
2481.863	131.08333
2484.274	131.41667
2486.683	140.41667
2489.091	152.08333
2491.497	147.41667
2493.901	142.08333
2496.304	136.75
2498.705	143.75
2501.105	140.41667
2503.503	157.75
2505.899	132.75
2508.294	154.08333
2510.687	130.41667
2513.079	138.08333
2515.469	125.41667
2517.858	131.41667
2520.245	150.08333
2522.63	133.41667
2525.014	133.75
2527.396	130.41667
2529.776	135.08333
2532.156	136.75
2534.533	123.41667
2536.909	128.41667
2539.283	119.75
2541.656	129.41667
2544.027	140.41667
2546.397	137.75
2548.765	129.75
2551.131	128.75
2553.496	132.75
2555.86	139.75
2558.221	141.75
2560.582	124.08333
2562.94	119.41667
2565.298	134.08333
2567.653	142.75
2570.007	118.75
2572.36	135.75
2574.711	120.75
2577.06	146.41667
2579.408	126.41667
2581.754	130.41667
2584.099	127.41667
2586.442	128.08333
2588.784	139.41667
2591.124	134.08333
2593.463	130.41667
2595.8	131.08333
2598.135	122.41667
2600.469	119.41667
2602.802	130.75
2605.133	139.75
2607.462	120.75
2609.79	116.75
2612.116	135.08333
2614.441	127.08333
2616.764	132.41667
2619.086	128.08333
2621.406	125.41667
2623.725	141.75
2626.042	123.75
2628.358	119.75
2630.672	131.41667
2632.985	135.41667
2635.296	133.08333
2637.606	126.75
2639.914	126.75
2642.22	123.75
2644.525	126.41667
2646.829	126.75
2649.131	141.08333
2651.432	128.75
2653.731	125.08333
2656.028	138.75
2658.324	135.08333
2660.619	119.75
2662.912	140.41667
2665.204	114.75
2667.494	132.08333
2669.782	120.41667
2672.07	137.41667
2674.355	140.41667
2676.639	129.08333
2678.922	119.41667
2681.203	136.08333
2683.483	124.41667
2685.761	115.75
2688.038	135.41667
2690.313	145.08333
2692.587	132.75
2694.859	129.41667
2697.13	125.41667
2699.399	124.08333
2701.667	138.41667
2703.933	134.08333
2706.198	138.75
2708.461	136.08333
2710.723	137.75
2712.984	131.08333
2715.243	138.75
2717.5	130.75
2719.757	139.08333
2722.011	134.08333
2724.264	142.75
2726.516	147.41667
2728.766	116.41667
2731.015	133.75
2733.262	128.08333
2735.508	136.75
2737.753	137.41667
2739.996	122.41667
2742.237	122.08333
2744.477	136.41667
2746.716	140.75
2748.953	139.41667
2751.189	147.08333
2753.423	136.41667
2755.656	125.75
2757.887	122.08333
2760.117	127.41667
2762.346	124.75
2764.573	116.41667
2766.798	119.41667
2769.022	130.08333
2771.245	120.08333
2773.467	127.08333
2775.686	125.08333
2777.905	131.41667
2780.122	125.08333
2782.337	136.41667
2784.552	127.75
2786.764	129.41667
2788.976	120.41667
2791.186	126.75
2793.394	123.41667
2795.601	142.08333
2797.807	142.41667
2800.011	137.08333
2802.214	143.08333
2804.415	138.75
2806.615	136.08333
2808.814	135.75
2811.011	142.41667
2813.206	138.75
2815.401	150.08333
2817.594	146.08333
2819.785	150.08333
2821.975	134.41667
2824.164	143.75
2826.351	139.75
2828.537	154.41667
2830.722	153.75
2832.905	147.41667
2835.086	155.41667
2837.267	173.75
2839.445	169.41667
2841.623	170.41667
2843.799	163.75
2845.974	176.08333
2848.147	179.41667
2850.319	190.41667
2852.489	190.75
2854.659	189.08333
2856.826	196.08333
2858.993	213.75
2861.158	195.41667
2863.321	202.41667
2865.483	217.08333
2867.644	205.41667
2869.804	203.08333
2871.962	201.08333
2874.118	207.41667
2876.274	215.75
2878.428	205.41667
2880.58	212.08333
2882.731	195.08333
2884.881	202.08333
2887.03	206.75
2889.177	209.75
2891.322	217.41667
2893.467	201.08333
2895.61	202.41667
2897.751	222.41667
2899.892	200.41667
2902.03	212.75
2904.168	203.08333
2906.304	213.41667
2908.439	223.75
2910.572	208.08333
2912.704	213.41667
2914.835	224.41667
2916.965	215.41667
2919.093	228.41667
2921.219	206.75
2923.345	235.08333
2925.469	206.41667
2927.591	213.41667
2929.712	199.08333
2931.832	213.75
2933.951	209.08333
2936.068	201.41667
2938.184	197.08333
2940.299	190.41667
2942.412	193.41667
2944.524	173.08333
2946.634	190.41667
2948.744	162.41667
2950.851	195.75
2952.958	157.08333
2955.063	174.75
2957.167	171.08333
2959.269	152.75
2961.371	178.75
2963.471	145.41667
2965.569	168.75
2967.666	145.08333
2969.762	148.08333
2971.857	146.41667
2973.95	134.08333
2976.042	146.08333
2978.133	135.75
2980.222	133.75
2982.31	128.41667
2984.396	117.08333
2986.482	124.75
2988.566	130.08333
2990.648	127.75
2992.73	126.75
2994.81	115.08333
2996.889	124.08333
2998.966	124.08333
3001.042	132.75
3003.117	123.75
3005.191	126.08333
3007.263	126.41667
3009.334	122.75
3011.403	124.75
3013.472	118.08333
3015.539	128.75
3017.604	137.75
3019.669	109.08333
3021.732	113.75
3023.794	120.08333
3025.854	105.08333
3027.914	106.08333
3029.971	110.75
3032.028	115.75
3034.083	122.41667
3036.137	116.41667
3038.19	102.75
3040.242	99.75
3042.292	102.75
3044.341	102.41667
3046.388	117.08333
3048.435	93.75
3050.48	115.08333
3052.524	100.75
3054.566	87.41667
3056.607	102.41667
3058.647	97.75
3060.686	88.08333
3062.723	83.41667
3064.759	84.75
3066.794	2.08333
3068.828	-1.25
3070.86	2.08333
