-0.839	136.70833
3.438	157.70833
7.711	64.70833
11.981	45.04167
16.247	31.70833
20.509	38.04167
24.768	33.375
29.024	42.70833
33.276	27.70833
37.524	42.04167
41.769	33.70833
46.01	28.04167
50.247	43.375
54.481	52.04167
58.712	53.70833
62.939	39.375
67.162	52.70833
71.382	48.375
75.599	37.70833
79.812	43.70833
84.021	61.04167
88.227	44.04167
92.429	48.375
96.628	38.375
100.823	48.04167
105.015	48.04167
109.204	43.04167
113.388	57.04167
117.57	42.04167
121.748	60.375
125.922	47.04167
130.093	61.04167
134.261	66.375
138.425	51.70833
142.585	83.04167
146.742	63.375
150.896	74.70833
155.046	73.375
159.193	106.04167
163.336	150.375
167.476	254.375
171.613	451.70833
175.746	731.70833
179.875	1066.04167
184.002	1392.04167
188.124	1654.375
192.244	1720.375
196.36	1729.375
200.472	1721.375
204.581	1697.70833
208.687	1632.70833
212.79	1633.375
216.889	1658.70833
220.984	1680.04167
225.077	1688.04167
229.165	1700.70833
233.251	1697.04167
237.333	1706.375
241.412	1687.375
245.487	1682.375
249.559	1670.70833
253.628	1666.04167
257.694	1637.04167
261.756	1644.04167
265.814	1631.375
269.87	1574.04167
273.922	1536.04167
277.97	1506.70833
282.016	1490.04167
286.058	1454.70833
290.097	1495.70833
294.132	1521.375
298.164	1492.04167
302.193	1452.04167
306.219	1361.70833
310.241	1279.70833
314.26	1204.70833
318.276	1142.375
322.288	1102.70833
326.297	1072.04167
330.303	1030.375
334.305	1019.375
338.305	1026.04167
342.301	1019.375
346.294	1005.375
350.283	992.375
354.269	979.04167
358.252	983.04167
362.232	985.04167
366.209	981.375
370.182	976.04167
374.152	952.04167
378.119	967.70833
382.083	954.70833
386.043	975.70833
390	962.70833
393.954	979.375
397.905	976.375
401.852	985.70833
405.797	967.375
409.738	982.04167
413.676	1004.70833
417.61	1019.375
421.542	973.70833
425.47	957.04167
429.396	951.375
433.318	938.04167
437.236	943.375
441.152	984.375
445.065	923.70833
448.974	941.04167
452.88	926.04167
456.783	916.375
460.683	924.375
464.58	935.375
468.473	924.04167
472.364	929.375
476.251	926.375
480.135	944.70833
484.016	941.04167
487.894	938.70833
491.769	941.375
495.641	944.04167
499.509	935.70833
503.375	937.70833
507.237	933.375
511.096	952.04167
514.952	941.70833
518.805	938.375
522.655	944.375
526.502	939.04167
530.346	940.70833
534.187	941.375
538.024	942.70833
541.859	935.70833
545.69	955.70833
549.519	945.04167
553.344	943.375
557.166	933.375
560.985	929.70833
564.802	925.375
568.615	912.375
572.425	885.04167
576.232	890.70833
580.036	895.375
583.836	893.70833
587.634	905.375
591.429	888.70833
595.221	936.04167
599.01	917.70833
602.796	905.70833
606.578	928.70833
610.358	927.70833
614.135	917.375
617.909	931.375
621.679	919.70833
625.447	896.375
629.212	894.04167
632.973	902.375
636.732	898.04167
640.488	911.04167
644.241	891.375
647.991	883.375
651.737	922.375
655.481	874.04167
659.222	886.04167
662.96	894.375
666.695	905.375
670.427	902.04167
674.156	912.70833
677.882	916.70833
681.605	904.04167
685.325	883.04167
689.043	915.04167
692.757	881.70833
696.468	899.70833
700.177	879.375
703.882	873.04167
707.585	869.375
711.284	885.04167
714.981	871.375
718.675	865.70833
722.366	879.375
726.054	855.70833
729.739	868.04167
733.421	865.04167
737.1	872.70833
740.777	884.375
744.45	872.04167
748.121	879.375
751.789	895.70833
755.453	877.375
759.115	886.70833
762.774	896.04167
766.431	894.375
770.084	898.375
773.734	891.70833
777.382	912.04167
781.027	923.375
784.669	914.04167
788.308	898.375
791.944	928.70833
795.577	935.375
799.208	929.70833
802.835	934.375
806.46	939.375
810.082	951.70833
813.701	936.70833
817.317	960.04167
820.931	944.375
824.542	955.04167
828.149	936.04167
831.754	926.70833
835.357	915.70833
838.956	932.70833
842.553	911.375
846.146	911.04167
849.737	899.375
853.326	900.375
856.911	888.375
860.493	922.04167
864.073	924.375
867.65	942.375
871.225	947.04167
874.796	923.375
878.365	917.70833
881.931	936.375
885.494	935.375
889.054	922.70833
892.612	933.375
896.166	918.04167
899.719	890.375
903.268	885.70833
906.814	899.70833
910.358	891.70833
913.899	871.70833
917.438	880.04167
920.973	870.04167
924.506	879.04167
928.036	909.04167
931.564	907.375
935.088	920.70833
938.61	913.04167
942.129	899.375
945.646	911.375
949.16	908.375
952.671	949.375
956.179	964.70833
959.685	955.70833
963.188	969.375
966.688	965.375
970.185	911.04167
973.68	894.70833
977.173	882.375
980.662	878.375
984.149	868.375
987.633	844.70833
991.114	873.375
994.593	883.375
998.069	882.375
1001.542	935.70833
1005.013	926.70833
1008.481	858.70833
1011.947	849.70833
1015.409	835.70833
1018.869	852.04167
1022.327	844.375
1025.782	826.04167
1029.234	839.70833
1032.683	820.70833
1036.13	806.04167
1039.574	772.04167
1043.016	761.04167
1046.455	747.375
1049.891	740.375
1053.325	740.70833
1056.756	736.375
1060.184	753.375
1063.61	731.70833
1067.033	748.04167
1070.454	735.375
1073.872	771.04167
1077.287	727.70833
1080.7	747.70833
1084.11	755.375
1087.517	734.375
1090.922	742.04167
1094.325	723.375
1097.724	721.375
1101.122	723.375
1104.516	720.04167
1107.908	703.04167
1111.298	713.70833
1114.684	737.04167
1118.069	736.375
1121.45	754.04167
1124.83	720.70833
1128.206	741.04167
1131.58	755.375
1134.951	780.70833
1138.32	762.04167
1141.687	805.375
1145.05	817.375
1148.412	828.04167
1151.77	815.70833
1155.126	811.70833
1158.48	803.70833
1161.831	814.04167
1165.18	816.04167
1168.525	826.04167
1171.869	835.70833
1175.21	832.375
1178.548	840.04167
1181.884	853.04167
1185.217	844.375
1188.548	868.70833
1191.877	885.375
1195.202	910.70833
1198.526	945.375
1201.846	925.375
1205.165	943.375
1208.48	940.04167
1211.794	943.375
1215.104	945.04167
1218.413	926.04167
1221.719	937.70833
1225.022	905.375
1228.323	903.375
1231.621	900.375
1234.917	899.04167
1238.21	915.04167
1241.501	895.04167
1244.79	885.375
1248.076	868.04167
1251.359	897.04167
1254.64	930.70833
1257.919	903.04167
1261.195	906.70833
1264.468	932.04167
1267.74	935.04167
1271.008	941.375
1274.275	949.375
1277.538	937.04167
1280.8	941.375
1284.059	931.375
1287.315	942.70833
1290.569	926.375
1293.821	949.04167
1297.07	957.375
1300.317	957.04167
1303.562	948.04167
1306.803	949.70833
1310.043	954.375
1313.28	940.375
1316.515	938.70833
1319.747	947.375
1322.977	929.375
1326.204	918.70833
1329.429	913.70833
1332.652	918.375
1335.872	909.375
1339.09	901.375
1342.306	907.04167
1345.519	906.04167
1348.729	885.70833
1351.938	898.04167
1355.144	874.70833
1358.347	871.04167
1361.548	882.04167
1364.747	876.70833
1367.944	846.70833
1371.138	859.70833
1374.329	846.04167
1377.518	856.70833
1380.705	847.375
1383.89	858.04167
1387.072	846.375
1390.252	810.375
1393.429	786.04167
1396.605	774.375
1399.777	736.70833
1402.948	742.375
1406.116	720.04167
1409.282	735.70833
1412.445	728.04167
1415.606	727.70833
1418.765	748.375
1421.921	752.375
1425.075	748.04167
1428.227	771.70833
1431.376	802.70833
1434.524	826.375
1437.668	850.04167
1440.811	850.04167
1443.951	862.375
1447.089	858.70833
1450.224	862.70833
1453.357	863.04167
1456.488	851.04167
1459.617	851.70833
1462.743	830.70833
1465.867	794.70833
1468.989	810.70833
1472.108	800.375
1475.225	788.375
1478.34	779.70833
1481.453	776.70833
1484.563	771.375
1487.671	782.04167
1490.776	796.70833
1493.88	794.04167
1496.981	816.04167
1500.08	830.375
1503.176	815.04167
1506.271	823.375
1509.363	843.04167
1512.452	835.375
1515.54	844.70833
1518.625	854.04167
1521.708	895.70833
1524.789	905.70833
1527.867	929.375
1530.944	965.04167
1534.018	979.70833
1537.089	1039.04167
1540.159	1037.375
1543.226	1049.375
1546.291	1009.375
1549.354	1004.70833
1552.415	985.375
1555.473	981.375
1558.529	967.04167
1561.583	948.70833
1564.634	946.375
1567.684	928.04167
1570.731	932.04167
1573.776	955.70833
1576.819	966.375
1579.859	954.04167
1582.898	987.04167
1585.934	994.04167
1588.968	1010.04167
1591.999	986.04167
1595.029	985.70833
1598.056	996.70833
1601.081	1010.375
1604.104	1010.04167
1607.125	984.375
1610.144	968.04167
1613.16	947.70833
1616.174	924.375
1619.186	918.375
1622.196	907.04167
1625.203	869.70833
1628.209	876.375
1631.212	879.70833
1634.213	894.04167
1637.212	889.375
1640.209	894.375
1643.203	859.04167
1646.196	830.70833
1649.186	791.70833
1652.174	787.04167
1655.16	743.70833
1658.144	748.70833
1661.125	695.70833
1664.105	654.375
1667.082	642.70833
1670.057	599.375
1673.03	571.04167
1676.001	548.04167
1678.97	523.70833
1681.937	493.375
1684.901	467.04167
1687.863	468.375
1690.824	442.70833
1693.782	446.70833
1696.738	421.04167
1699.692	415.70833
1702.643	406.04167
1705.593	398.70833
1708.54	397.70833
1711.486	407.70833
1714.429	389.375
1717.37	391.04167
1720.309	376.70833
1723.246	383.375
1726.181	375.70833
1729.113	369.04167
1732.044	379.70833
1734.972	369.04167
1737.899	377.04167
1740.823	376.70833
1743.745	407.70833
1746.665	350.375
1749.583	349.70833
1752.499	346.04167
1755.413	351.04167
1758.325	331.375
1761.235	348.04167
1764.142	330.70833
1767.048	322.04167
1769.951	324.375
1772.852	335.70833
1775.752	342.70833
1778.649	349.70833
1781.544	355.375
1784.437	314.04167
1787.328	328.375
1790.217	328.04167
1793.104	294.70833
1795.989	310.70833
1798.872	303.375
1801.753	318.375
1804.631	312.04167
1807.508	321.70833
1810.383	311.375
1813.255	316.375
1816.126	309.04167
1818.994	304.70833
1821.861	306.70833
1824.725	304.70833
1827.587	314.70833
1830.448	296.375
1833.306	295.04167
1836.162	307.70833
1839.017	296.70833
1841.869	302.375
1844.719	302.70833
1847.567	285.375
1850.414	278.375
1853.258	284.375
1856.1	299.04167
1858.94	301.375
1861.778	294.375
1864.614	283.70833
1867.448	289.70833
1870.28	273.04167
1873.111	298.04167
1875.939	281.70833
1878.765	300.375
1881.589	282.04167
1884.411	283.04167
1887.231	297.70833
1890.049	285.04167
1892.865	291.70833
1895.68	277.70833
1898.492	286.70833
1901.302	282.04167
1904.11	276.70833
1906.916	280.04167
1909.721	269.04167
1912.523	284.70833
1915.323	278.375
1918.122	262.70833
1920.918	281.70833
1923.712	262.375
1926.505	272.375
1929.295	252.70833
1932.084	268.70833
1934.87	270.375
1937.655	261.70833
1940.438	257.70833
1943.218	260.375
1945.997	260.375
1948.774	275.04167
1951.549	267.70833
1954.322	262.04167
1957.093	261.375
1959.862	260.375
1962.629	264.70833
1965.394	255.04167
1968.157	250.375
1970.918	267.04167
1973.678	246.70833
1976.435	256.375
1979.19	244.70833
1981.944	242.70833
1984.696	245.70833
1987.445	246.70833
1990.193	249.70833
1992.939	264.04167
1995.683	254.70833
1998.425	235.04167
2001.165	260.70833
2003.903	235.70833
2006.639	241.375
2009.374	251.04167
2012.106	246.04167
2014.837	232.04167
2017.566	247.70833
2020.292	241.375
2023.017	236.04167
2025.74	236.70833
2028.461	231.04167
2031.18	239.375
2033.898	229.375
2036.613	234.375
2039.327	240.70833
2042.038	226.70833
2044.748	235.375
2047.456	241.375
2050.162	222.04167
2052.866	226.375
2055.568	242.375
2058.268	225.70833
2060.967	238.04167
2063.663	220.70833
2066.358	223.04167
2069.051	216.70833
2071.742	225.70833
2074.431	233.70833
2077.118	223.04167
2079.804	212.375
2082.487	220.375
2085.169	236.375
2087.849	246.04167
2090.527	221.375
2093.203	223.375
2095.877	222.375
2098.55	230.04167
2101.22	230.70833
2103.889	243.04167
2106.556	221.04167
2109.221	244.04167
2111.884	227.375
2114.546	247.04167
2117.205	252.04167
2119.863	281.70833
2122.519	272.375
2125.173	294.70833
2127.825	321.70833
2130.475	317.04167
2133.124	300.375
2135.771	294.375
2138.416	310.70833
2141.059	276.375
2143.7	280.70833
2146.339	253.375
2148.977	229.04167
2151.613	242.375
2154.247	241.04167
2156.879	227.70833
2159.51	223.375
2162.138	224.375
2164.765	221.04167
2167.39	205.70833
2170.013	235.375
2172.634	231.04167
2175.254	216.70833
2177.872	248.375
2180.488	201.375
2183.102	209.70833
2185.714	206.70833
2188.325	201.04167
2190.934	212.375
2193.541	210.04167
2196.146	205.375
2198.75	194.70833
2201.351	199.375
2203.951	184.04167
2206.549	203.70833
2209.146	197.04167
2211.74	190.375
2214.333	200.04167
2216.924	182.70833
2219.514	195.375
2222.101	188.04167
2224.687	198.375
2227.271	183.375
2229.853	185.375
2232.433	171.375
2235.012	195.04167
2237.589	184.70833
2240.164	202.04167
2242.738	182.04167
2245.309	176.375
2247.879	198.375
2250.448	184.70833
2253.014	172.70833
2255.579	173.70833
2258.142	178.375
2260.703	173.04167
2263.262	173.375
2265.82	167.04167
2268.376	184.70833
2270.93	168.375
2273.483	162.375
2276.033	177.04167
2278.583	164.375
2281.13	169.375
2283.675	159.375
2286.219	169.375
2288.761	176.04167
2291.302	176.04167
2293.841	184.375
2296.377	161.375
2298.913	172.04167
2301.446	177.70833
2303.978	166.70833
2306.508	161.70833
2309.037	174.70833
2311.563	168.04167
2314.088	164.375
2316.612	151.375
2319.133	164.70833
2321.653	172.04167
2324.171	162.70833
2326.688	177.70833
2329.202	165.04167
2331.715	168.04167
2334.227	163.04167
2336.736	167.375
2339.244	160.04167
2341.751	150.04167
2344.255	164.70833
2346.758	163.70833
2349.259	143.04167
2351.759	160.375
2354.257	147.04167
2356.753	150.375
2359.247	151.70833
2361.74	160.70833
2364.231	155.375
2366.721	161.375
2369.209	153.375
2371.695	154.04167
2374.179	146.04167
2376.662	138.04167
2379.143	163.375
2381.622	150.04167
2384.1	159.375
2386.576	147.70833
2389.051	162.70833
2391.524	162.04167
2393.995	155.375
2396.464	148.70833
2398.932	143.70833
2401.398	153.04167
2403.863	143.70833
2406.325	145.375
2408.787	151.375
2411.246	146.375
2413.704	151.375
2416.16	145.375
2418.615	142.70833
2421.068	150.04167
2423.519	144.04167
2425.969	136.70833
2428.417	157.375
2430.863	162.375
2433.308	155.04167
2435.751	147.375
2438.193	155.70833
2440.633	154.375
2443.071	152.375
2445.508	146.375
2447.943	145.375
2450.376	141.04167
2452.808	151.375
2455.238	137.375
2457.667	165.375
2460.093	130.375
2462.519	126.70833
2464.942	129.375
2467.365	145.04167
2469.785	141.375
2472.204	134.70833
2474.621	134.375
2477.037	156.04167
2479.451	129.70833
2481.863	125.04167
2484.274	125.70833
2486.683	135.70833
2489.091	144.375
2491.497	140.375
2493.901	134.375
2496.304	135.375
2498.705	144.375
2501.105	136.375
2503.503	151.375
2505.899	130.375
2508.294	147.04167
2510.687	130.70833
2513.079	132.70833
2515.469	129.70833
2517.858	129.04167
2520.245	146.70833
2522.63	135.375
2525.014	126.70833
2527.396	131.04167
2529.776	128.04167
2532.156	137.04167
2534.533	124.04167
2536.909	120.70833
2539.283	118.375
2541.656	125.04167
2544.027	145.70833
2546.397	138.04167
2548.765	121.375
2551.131	126.70833
2553.496	129.04167
2555.86	133.70833
2558.221	138.375
2560.582	120.70833
2562.94	116.375
2565.298	129.375
2567.653	138.04167
2570.007	114.04167
2572.36	134.70833
2574.711	117.70833
2577.06	138.70833
2579.408	126.70833
2581.754	120.70833
2584.099	121.70833
2586.442	121.70833
2588.784	132.375
2591.124	124.04167
2593.463	127.375
2595.8	131.375
2598.135	113.70833
2600.469	118.70833
2602.802	128.70833
2605.133	137.375
2607.462	117.375
2609.79	108.04167
2612.116	134.04167
2614.441	121.375
2616.764	129.04167
2619.086	127.04167
2621.406	120.04167
2623.725	135.70833
2626.042	120.04167
2628.358	117.04167
2630.672	126.375
2632.985	132.375
2635.296	123.375
2637.606	117.70833
2639.914	118.04167
2642.22	120.70833
2644.525	122.70833
2646.829	123.04167
2649.131	132.70833
2651.432	124.375
2653.731	120.04167
2656.028	128.70833
2658.324	128.375
2660.619	108.70833
2662.912	129.375
2665.204	115.04167
2667.494	130.04167
2669.782	114.70833
2672.07	131.70833
2674.355	129.375
2676.639	127.375
2678.922	115.04167
2681.203	120.70833
2683.483	116.04167
2685.761	110.04167
2688.038	127.04167
2690.313	136.375
2692.587	122.04167
2694.859	112.375
2697.13	120.375
2699.399	124.70833
2701.667	133.375
2703.933	120.375
2706.198	127.375
2708.461	132.04167
2710.723	128.70833
2712.984	119.04167
2715.243	131.70833
2717.5	127.375
2719.757	130.375
2722.011	122.375
2724.264	129.04167
2726.516	140.70833
2728.766	124.70833
2731.015	127.375
2733.262	119.04167
2735.508	125.70833
2737.753	128.04167
2739.996	115.04167
2742.237	117.70833
2744.477	133.375
2746.716	135.04167
2748.953	135.70833
2751.189	133.04167
2753.423	129.375
2755.656	116.375
2757.887	113.70833
2760.117	118.04167
2762.346	116.70833
2764.573	108.375
2766.798	117.375
2769.022	117.70833
2771.245	113.375
2773.467	117.375
2775.686	120.04167
2777.905	120.70833
2780.122	117.70833
2782.337	125.04167
2784.552	113.375
2786.764	116.375
2788.976	107.04167
2791.186	115.70833
2793.394	113.70833
2795.601	129.375
2797.807	130.375
2800.011	121.04167
2802.214	126.70833
2804.415	126.70833
2806.615	125.375
2808.814	124.70833
2811.011	133.04167
2813.206	128.70833
2815.401	141.04167
2817.594	134.375
2819.785	136.70833
2821.975	127.375
2824.164	134.04167
2826.351	126.375
2828.537	143.04167
2830.722	145.04167
2832.905	136.70833
2835.086	144.70833
2837.267	164.70833
2839.445	156.04167
2841.623	161.70833
2843.799	159.375
2845.974	167.04167
2848.147	170.70833
2850.319	179.375
2852.489	184.70833
2854.659	195.375
2856.826	188.04167
2858.993	206.04167
2861.158	182.04167
2863.321	198.70833
2865.483	206.04167
2867.644	206.04167
2869.804	198.375
2871.962	201.70833
2874.118	201.70833
2876.274	216.375
2878.428	203.375
2880.58	208.70833
2882.731	196.70833
2884.881	195.70833
2887.03	202.70833
2889.177	202.04167
2891.322	208.70833
2893.467	190.70833
2895.61	193.70833
2897.751	211.375
2899.892	204.70833
2902.03	207.04167
2904.168	196.04167
2906.304	214.04167
2908.439	219.04167
2910.572	205.04167
2912.704	209.375
2914.835	216.375
2916.965	213.04167
2919.093	222.375
2921.219	201.375
2923.345	230.375
2925.469	212.70833
2927.591	207.70833
2929.712	190.04167
2931.832	206.04167
2933.951	198.04167
2936.068	195.04167
2938.184	190.70833
2940.299	184.375
2942.412	184.04167
2944.524	170.04167
2946.634	176.375
2948.744	151.70833
2950.851	185.70833
2952.958	154.375
2955.063	160.04167
2957.167	151.375
2959.269	147.04167
2961.371	166.375
2963.471	140.70833
2965.569	161.04167
2967.666	132.04167
2969.762	134.70833
2971.857	133.375
2973.95	125.70833
2976.042	136.375
2978.133	126.04167
2980.222	121.04167
2982.31	118.375
2984.396	103.70833
2986.482	109.375
2988.566	116.04167
2990.648	115.04167
2992.73	114.375
2994.81	102.04167
2996.889	112.04167
2998.966	109.04167
3001.042	120.04167
3003.117	107.04167
3005.191	109.04167
3007.263	120.04167
3009.334	109.70833
3011.403	115.04167
3013.472	106.375
3015.539	121.375
3017.604	130.70833
3019.669	97.375
3021.732	99.375
3023.794	107.70833
3025.854	96.375
3027.914	90.375
3029.971	95.375
3032.028	96.04167
3034.083	106.375
3036.137	98.70833
3038.19	88.375
3040.242	84.04167
3042.292	86.70833
3044.341	86.70833
3046.388	106.70833
3048.435	84.70833
3050.48	100.70833
3052.524	91.04167
3054.566	78.04167
3056.607	87.375
3058.647	84.04167
3060.686	73.70833
3062.723	68.375
3064.759	75.04167
3066.794	0.04167
3068.828	-0.625
3070.86	3.04167
