-0.839	139.70833
3.438	152.375
7.711	71.04167
11.981	45.375
16.247	32.375
20.509	34.70833
24.768	32.375
29.024	44.04167
33.276	31.375
37.524	42.70833
41.769	32.04167
46.01	29.375
50.247	46.375
54.481	51.70833
58.712	55.04167
62.939	36.70833
67.162	52.70833
71.382	48.70833
75.599	38.375
79.812	41.70833
84.021	63.375
88.227	44.70833
92.429	50.375
96.628	39.375
100.823	51.70833
105.015	53.04167
109.204	46.375
113.388	58.04167
117.57	41.70833
121.748	61.04167
125.922	47.375
130.093	63.04167
134.261	66.04167
138.425	55.70833
142.585	81.70833
146.742	62.70833
150.896	79.70833
155.046	70.375
159.193	106.70833
163.336	162.70833
167.476	272.375
171.613	490.04167
175.746	784.70833
179.875	1144.70833
184.002	1487.70833
188.124	1750.70833
192.244	1840.70833
196.36	1876.375
200.472	1862.04167
204.581	1831.375
208.687	1774.375
212.79	1777.375
216.889	1797.375
220.984	1813.70833
225.077	1816.04167
229.165	1838.70833
233.251	1836.70833
237.333	1857.375
241.412	1825.70833
245.487	1825.70833
249.559	1809.375
253.628	1814.04167
257.694	1777.375
261.756	1762.375
265.814	1750.70833
269.87	1695.04167
273.922	1666.04167
277.97	1644.04167
282.016	1631.70833
286.058	1599.375
290.097	1656.375
294.132	1646.70833
298.164	1638.04167
302.193	1612.70833
306.219	1505.70833
310.241	1401.04167
314.26	1326.04167
318.276	1270.04167
322.288	1224.70833
326.297	1177.04167
330.303	1161.04167
334.305	1138.375
338.305	1127.70833
342.301	1120.375
346.294	1112.04167
350.283	1113.375
354.269	1095.375
358.252	1097.70833
362.232	1106.04167
366.209	1104.70833
370.182	1084.04167
374.152	1093.04167
378.119	1106.04167
382.083	1083.70833
386.043	1092.04167
390	1077.70833
393.954	1101.70833
397.905	1111.04167
401.852	1125.375
405.797	1097.04167
409.738	1105.70833
413.676	1119.04167
417.61	1147.375
421.542	1101.375
425.47	1065.04167
429.396	1074.04167
433.318	1059.04167
437.236	1063.375
441.152	1102.04167
445.065	1051.375
448.974	1050.70833
452.88	1044.375
456.783	1054.04167
460.683	1039.04167
464.58	1055.04167
468.473	1055.70833
472.364	1065.375
476.251	1060.375
480.135	1055.70833
484.016	1074.375
487.894	1071.70833
491.769	1075.70833
495.641	1075.70833
499.509	1083.70833
503.375	1074.70833
507.237	1069.375
511.096	1057.04167
514.952	1066.70833
518.805	1062.04167
522.655	1066.04167
526.502	1054.375
530.346	1069.375
534.187	1068.375
538.024	1065.70833
541.859	1050.375
545.69	1073.375
549.519	1070.70833
553.344	1058.70833
557.166	1043.70833
560.985	1039.375
564.802	1041.04167
568.615	1025.04167
572.425	1008.04167
576.232	992.70833
580.036	1020.70833
583.836	1011.375
587.634	1033.70833
591.429	1004.04167
595.221	1054.04167
599.01	1037.70833
602.796	1041.70833
606.578	1036.70833
610.358	1034.04167
614.135	1041.70833
617.909	1049.04167
621.679	1036.375
625.447	1037.375
629.212	1028.04167
632.973	1033.70833
636.732	1026.375
640.488	1040.04167
644.241	1020.375
647.991	1012.70833
651.737	1036.70833
655.481	1008.04167
659.222	1038.04167
662.96	1008.375
666.695	1015.375
670.427	1026.04167
674.156	1031.375
677.882	1021.375
681.605	1026.375
685.325	999.04167
689.043	1012.70833
692.757	1013.375
696.468	1002.375
700.177	1002.70833
703.882	992.70833
707.585	982.70833
711.284	985.70833
714.981	977.375
718.675	979.375
722.366	990.04167
726.054	970.04167
729.739	972.375
733.421	975.375
737.1	967.70833
740.777	996.04167
744.45	979.70833
748.121	985.04167
751.789	1019.70833
755.453	1001.04167
759.115	1002.04167
762.774	1008.04167
766.431	1003.375
770.084	1000.70833
773.734	1009.04167
777.382	1027.04167
781.027	1010.04167
784.669	1018.70833
788.308	1009.375
791.944	1036.70833
795.577	1046.70833
799.208	1038.70833
802.835	1053.375
806.46	1054.375
810.082	1055.04167
813.701	1054.04167
817.317	1063.70833
820.931	1075.375
824.542	1071.70833
828.149	1057.04167
831.754	1013.70833
835.357	1022.04167
838.956	1036.70833
842.553	1036.04167
846.146	1036.70833
849.737	1003.04167
853.326	1016.70833
856.911	992.70833
860.493	1020.04167
864.073	1012.70833
867.65	1049.70833
871.225	1050.70833
874.796	1032.04167
878.365	1020.375
881.931	1031.375
885.494	1046.04167
889.054	1026.04167
892.612	1031.04167
896.166	1017.375
899.719	1002.70833
903.268	988.70833
906.814	998.70833
910.358	996.70833
913.899	976.04167
917.438	968.70833
920.973	953.375
924.506	972.375
928.036	994.375
931.564	1021.04167
935.088	1035.04167
938.61	996.375
942.129	1004.04167
945.646	1021.70833
949.16	1029.375
952.671	1038.04167
956.179	1050.70833
959.685	1064.04167
963.188	1060.375
966.688	1053.375
970.185	1022.04167
973.68	992.70833
977.173	990.04167
980.662	975.04167
984.149	961.375
987.633	956.375
991.114	968.04167
994.593	975.375
998.069	993.70833
1001.542	1010.70833
1005.013	1022.04167
1008.481	956.70833
1011.947	945.04167
1015.409	928.70833
1018.869	946.375
1022.327	941.70833
1025.782	928.70833
1029.234	912.70833
1032.683	906.04167
1036.13	899.04167
1039.574	865.375
1043.016	839.04167
1046.455	837.04167
1049.891	825.70833
1053.325	833.70833
1056.756	833.04167
1060.184	839.04167
1063.61	823.375
1067.033	831.04167
1070.454	830.70833
1073.872	849.70833
1077.287	828.70833
1080.7	829.04167
1084.11	838.375
1087.517	821.375
1090.922	822.04167
1094.325	807.70833
1097.724	795.375
1101.122	797.70833
1104.516	798.04167
1107.908	786.375
1111.298	790.70833
1114.684	805.375
1118.069	804.70833
1121.45	820.04167
1124.83	801.04167
1128.206	824.70833
1131.58	828.04167
1134.951	851.04167
1138.32	857.375
1141.687	904.375
1145.05	902.70833
1148.412	904.70833
1151.77	898.04167
1155.126	897.70833
1158.48	885.70833
1161.831	897.70833
1165.18	894.70833
1168.525	907.70833
1171.869	913.70833
1175.21	902.70833
1178.548	932.70833
1181.884	937.70833
1185.217	932.04167
1188.548	958.04167
1191.877	956.375
1195.202	1011.70833
1198.526	1018.70833
1201.846	1022.375
1205.165	1031.375
1208.48	1025.375
1211.794	1020.375
1215.104	1033.70833
1218.413	1017.04167
1221.719	1008.375
1225.022	983.04167
1228.323	981.04167
1231.621	976.04167
1234.917	964.375
1238.21	991.04167
1241.501	977.375
1244.79	965.70833
1248.076	952.375
1251.359	974.04167
1254.64	1002.70833
1257.919	988.70833
1261.195	1006.70833
1264.468	1016.04167
1267.74	1022.70833
1271.008	1028.375
1274.275	1024.04167
1277.538	1016.70833
1280.8	1016.70833
1284.059	1006.04167
1287.315	1025.70833
1290.569	1023.375
1293.821	1034.375
1297.07	1035.375
1300.317	1035.04167
1303.562	1036.04167
1306.803	1021.375
1310.043	1029.04167
1313.28	1018.70833
1316.515	1029.375
1319.747	1030.04167
1322.977	1018.375
1326.204	1002.70833
1329.429	984.04167
1332.652	999.70833
1335.872	993.04167
1339.09	971.375
1342.306	984.04167
1345.519	973.04167
1348.729	959.70833
1351.938	969.70833
1355.144	964.375
1358.347	949.70833
1361.548	951.04167
1364.747	963.04167
1367.944	933.04167
1371.138	941.04167
1374.329	932.70833
1377.518	935.70833
1380.705	939.375
1383.89	937.70833
1387.072	905.70833
1390.252	875.04167
1393.429	858.70833
1396.605	833.70833
1399.777	808.04167
1402.948	816.375
1406.116	792.375
1409.282	791.04167
1412.445	796.375
1415.606	807.04167
1418.765	804.70833
1421.921	821.70833
1425.075	811.70833
1428.227	831.70833
1431.376	860.375
1434.524	888.04167
1437.668	933.375
1440.811	927.04167
1443.951	932.70833
1447.089	944.70833
1450.224	931.04167
1453.357	931.04167
1456.488	912.04167
1459.617	923.375
1462.743	896.375
1465.867	878.70833
1468.989	879.04167
1472.108	880.04167
1475.225	842.375
1478.34	842.70833
1481.453	828.70833
1484.563	836.04167
1487.671	835.04167
1490.776	869.04167
1493.88	861.375
1496.981	873.375
1500.08	893.375
1503.176	879.04167
1506.271	889.375
1509.363	897.375
1512.452	902.375
1515.54	910.375
1518.625	930.70833
1521.708	954.70833
1524.789	983.70833
1527.867	998.04167
1530.944	1039.04167
1534.018	1081.375
1537.089	1092.70833
1540.159	1115.04167
1543.226	1116.04167
1546.291	1096.70833
1549.354	1071.375
1552.415	1051.04167
1555.473	1036.375
1558.529	1023.375
1561.583	1019.70833
1564.634	999.375
1567.684	1009.70833
1570.731	1020.375
1573.776	1014.04167
1576.819	1031.375
1579.859	1033.70833
1582.898	1053.375
1585.934	1060.375
1588.968	1065.04167
1591.999	1059.70833
1595.029	1044.70833
1598.056	1065.04167
1601.081	1082.04167
1604.104	1065.04167
1607.125	1044.04167
1610.144	1037.04167
1613.16	1011.375
1616.174	1000.375
1619.186	982.04167
1622.196	964.375
1625.203	939.375
1628.209	953.70833
1631.212	949.70833
1634.213	949.70833
1637.212	965.04167
1640.209	965.04167
1643.203	942.375
1646.196	910.70833
1649.186	874.70833
1652.174	855.04167
1655.16	801.70833
1658.144	806.70833
1661.125	759.04167
1664.105	719.375
1667.082	696.375
1670.057	653.04167
1673.03	633.04167
1676.001	597.375
1678.97	560.375
1681.937	541.04167
1684.901	505.375
1687.863	499.375
1690.824	474.04167
1693.782	484.70833
1696.738	459.70833
1699.692	453.04167
1702.643	446.04167
1705.593	441.04167
1708.54	423.04167
1711.486	443.375
1714.429	426.375
1717.37	435.70833
1720.309	419.04167
1723.246	430.04167
1726.181	414.375
1729.113	408.70833
1732.044	411.375
1734.972	408.04167
1737.899	411.70833
1740.823	415.04167
1743.745	439.375
1746.665	397.70833
1749.583	391.04167
1752.499	388.70833
1755.413	381.70833
1758.325	373.375
1761.235	375.70833
1764.142	365.375
1767.048	362.70833
1769.951	365.375
1772.852	366.04167
1775.752	384.70833
1778.649	385.375
1781.544	381.70833
1784.437	355.375
1787.328	364.04167
1790.217	353.375
1793.104	329.375
1795.989	343.375
1798.872	338.04167
1801.753	356.04167
1804.631	349.375
1807.508	350.04167
1810.383	339.375
1813.255	338.375
1816.126	337.70833
1818.994	343.04167
1821.861	335.04167
1824.725	342.375
1827.587	346.04167
1830.448	331.375
1833.306	326.04167
1836.162	335.04167
1839.017	326.70833
1841.869	328.04167
1844.719	328.375
1847.567	315.375
1850.414	305.04167
1853.258	313.04167
1856.1	330.375
1858.94	329.375
1861.778	315.70833
1864.614	305.375
1867.448	322.375
1870.28	304.70833
1873.111	327.70833
1875.939	313.04167
1878.765	338.375
1881.589	309.375
1884.411	322.375
1887.231	320.04167
1890.049	308.70833
1892.865	320.70833
1895.68	305.70833
1898.492	317.04167
1901.302	305.70833
1904.11	304.375
1906.916	307.04167
1909.721	300.04167
1912.523	305.375
1915.323	288.04167
1918.122	294.70833
1920.918	306.70833
1923.712	281.70833
1926.505	306.70833
1929.295	278.70833
1932.084	295.375
1934.87	294.04167
1937.655	288.04167
1940.438	286.70833
1943.218	291.70833
1945.997	295.04167
1948.774	297.04167
1951.549	293.04167
1954.322	287.375
1957.093	290.04167
1959.862	281.04167
1962.629	286.70833
1965.394	284.70833
1968.157	274.70833
1970.918	292.04167
1973.678	271.04167
1976.435	295.04167
1979.19	277.375
1981.944	270.375
1984.696	263.04167
1987.445	268.04167
1990.193	269.70833
1992.939	284.375
1995.683	274.375
1998.425	250.70833
2001.165	294.04167
2003.903	259.375
2006.639	264.70833
2009.374	270.375
2012.106	275.04167
2014.837	244.375
2017.566	276.375
2020.292	261.70833
2023.017	251.70833
2025.74	260.375
2028.461	264.70833
2031.18	260.70833
2033.898	257.375
2036.613	257.375
2039.327	263.04167
2042.038	249.70833
2044.748	257.375
2047.456	262.70833
2050.162	246.375
2052.866	250.04167
2055.568	274.04167
2058.268	248.375
2060.967	257.375
2063.663	241.04167
2066.358	243.375
2069.051	237.375
2071.742	246.04167
2074.431	250.04167
2077.118	247.04167
2079.804	236.375
2082.487	244.04167
2085.169	257.04167
2087.849	270.70833
2090.527	246.04167
2093.203	251.70833
2095.877	246.375
2098.55	249.04167
2101.22	258.04167
2103.889	253.04167
2106.556	240.04167
2109.221	262.70833
2111.884	247.04167
2114.546	270.04167
2117.205	273.04167
2119.863	303.70833
2122.519	291.375
2125.173	318.70833
2127.825	339.70833
2130.475	348.70833
2133.124	329.04167
2135.771	314.375
2138.416	325.04167
2141.059	291.70833
2143.7	292.70833
2146.339	273.70833
2148.977	254.375
2151.613	267.04167
2154.247	260.375
2156.879	257.04167
2159.51	238.04167
2162.138	238.04167
2164.765	237.70833
2167.39	229.04167
2170.013	257.375
2172.634	243.375
2175.254	233.70833
2177.872	263.04167
2180.488	223.375
2183.102	231.04167
2185.714	228.375
2188.325	217.375
2190.934	225.375
2193.541	227.04167
2196.146	226.375
2198.75	214.04167
2201.351	213.70833
2203.951	204.04167
2206.549	214.70833
2209.146	209.04167
2211.74	208.70833
2214.333	220.375
2216.924	202.70833
2219.514	208.375
2222.101	204.70833
2224.687	217.70833
2227.271	198.70833
2229.853	200.375
2232.433	183.375
2235.012	207.70833
2237.589	201.04167
2240.164	219.70833
2242.738	207.70833
2245.309	196.04167
2247.879	210.375
2250.448	210.375
2253.014	194.04167
2255.579	183.375
2258.142	190.375
2260.703	184.375
2263.262	184.375
2265.82	178.04167
2268.376	197.70833
2270.93	188.375
2273.483	178.70833
2276.033	192.70833
2278.583	175.70833
2281.13	174.375
2283.675	175.375
2286.219	179.70833
2288.761	189.04167
2291.302	192.375
2293.841	195.70833
2296.377	175.04167
2298.913	184.04167
2301.446	195.04167
2303.978	182.375
2306.508	182.375
2309.037	182.375
2311.563	183.70833
2314.088	177.04167
2316.612	166.375
2319.133	187.04167
2321.653	183.375
2324.171	176.04167
2326.688	183.04167
2329.202	181.70833
2331.715	175.70833
2334.227	177.70833
2336.736	174.375
2339.244	166.375
2341.751	161.04167
2344.255	178.04167
2346.758	174.04167
2349.259	154.70833
2351.759	174.04167
2354.257	159.70833
2356.753	156.70833
2359.247	158.375
2361.74	169.375
2364.231	162.70833
2366.721	179.04167
2369.209	163.375
2371.695	164.04167
2374.179	158.04167
2376.662	149.375
2379.143	171.04167
2381.622	159.70833
2384.1	174.04167
2386.576	162.70833
2389.051	172.375
2391.524	170.375
2393.995	171.70833
2396.464	163.70833
2398.932	161.70833
2401.398	161.375
2403.863	157.70833
2406.325	153.04167
2408.787	159.70833
2411.246	163.04167
2413.704	159.70833
2416.16	154.70833
2418.615	158.04167
2421.068	156.375
2423.519	157.375
2425.969	150.70833
2428.417	164.375
2430.863	174.04167
2433.308	160.375
2435.751	160.70833
2438.193	153.70833
2440.633	153.375
2443.071	158.375
2445.508	151.375
2447.943	157.375
2450.376	150.04167
2452.808	157.70833
2455.238	144.70833
2457.667	178.04167
2460.093	146.70833
2462.519	140.04167
2464.942	145.375
2467.365	153.04167
2469.785	152.04167
2472.204	143.375
2474.621	147.70833
2477.037	153.70833
2479.451	138.375
2481.863	136.04167
2484.274	138.70833
2486.683	147.04167
2489.091	155.375
2491.497	155.375
2493.901	147.04167
2496.304	152.04167
2498.705	155.04167
2501.105	153.375
2503.503	167.04167
2505.899	138.70833
2508.294	157.375
2510.687	137.04167
2513.079	147.375
2515.469	137.375
2517.858	142.375
2520.245	152.04167
2522.63	142.375
2525.014	137.375
2527.396	137.375
2529.776	137.375
2532.156	147.70833
2534.533	135.04167
2536.909	133.04167
2539.283	123.70833
2541.656	134.70833
2544.027	145.70833
2546.397	137.70833
2548.765	137.04167
2551.131	140.70833
2553.496	142.04167
2555.86	141.04167
2558.221	140.375
2560.582	132.70833
2562.94	125.04167
2565.298	133.04167
2567.653	147.375
2570.007	124.70833
2572.36	141.70833
2574.711	129.70833
2577.06	147.375
2579.408	135.04167
2581.754	136.70833
2584.099	127.04167
2586.442	130.70833
2588.784	138.70833
2591.124	135.70833
2593.463	123.375
2595.8	133.70833
2598.135	120.70833
2600.469	122.375
2602.802	136.375
2605.133	143.70833
2607.462	123.70833
2609.79	118.70833
2612.116	138.375
2614.441	130.70833
2616.764	129.70833
2619.086	133.04167
2621.406	125.04167
2623.725	138.04167
2626.042	128.70833
2628.358	121.375
2630.672	127.70833
2632.985	139.375
2635.296	128.70833
2637.606	130.375
2639.914	125.04167
2642.22	129.70833
2644.525	131.04167
2646.829	125.375
2649.131	140.04167
2651.432	127.70833
2653.731	125.375
2656.028	143.04167
2658.324	134.70833
2660.619	117.04167
2662.912	139.70833
2665.204	120.375
2667.494	133.375
2669.782	124.04167
2672.07	136.04167
2674.355	143.375
2676.639	131.70833
2678.922	122.375
2681.203	136.70833
2683.483	122.375
2685.761	122.04167
2688.038	135.04167
2690.313	140.70833
2692.587	121.70833
2694.859	120.04167
2697.13	122.04167
2699.399	127.04167
2701.667	138.04167
2703.933	129.375
2706.198	138.04167
2708.461	136.70833
2710.723	137.04167
2712.984	132.04167
2715.243	135.04167
2717.5	129.70833
2719.757	140.375
2722.011	131.375
2724.264	143.375
2726.516	144.70833
2728.766	126.04167
2731.015	135.70833
2733.262	132.70833
2735.508	133.375
2737.753	136.70833
2739.996	124.04167
2742.237	128.04167
2744.477	136.70833
2746.716	146.375
2748.953	141.375
2751.189	140.375
2753.423	134.375
2755.656	123.375
2757.887	121.375
2760.117	121.375
2762.346	120.70833
2764.573	115.70833
2766.798	123.04167
2769.022	120.04167
2771.245	119.70833
2773.467	125.04167
2775.686	119.04167
2777.905	125.04167
2780.122	125.375
2782.337	129.375
2784.552	118.375
2786.764	123.70833
2788.976	118.70833
2791.186	124.70833
2793.394	124.375
2795.601	133.375
2797.807	137.70833
2800.011	132.04167
2802.214	138.375
2804.415	130.70833
2806.615	130.70833
2808.814	138.375
2811.011	136.70833
2813.206	136.04167
2815.401	144.04167
2817.594	141.04167
2819.785	152.375
2821.975	135.375
2824.164	132.70833
2826.351	134.375
2828.537	154.375
2830.722	154.70833
2832.905	144.70833
2835.086	153.375
2837.267	170.04167
2839.445	169.375
2841.623	169.375
2843.799	171.375
2845.974	171.70833
2848.147	173.04167
2850.319	192.70833
2852.489	200.375
2854.659	192.04167
2856.826	197.04167
2858.993	215.70833
2861.158	193.04167
2863.321	200.04167
2865.483	220.04167
2867.644	211.70833
2869.804	218.04167
2871.962	210.375
2874.118	210.04167
2876.274	220.375
2878.428	221.04167
2880.58	218.04167
2882.731	205.70833
2884.881	205.70833
2887.03	213.375
2889.177	212.04167
2891.322	216.375
2893.467	210.375
2895.61	203.70833
2897.751	221.70833
2899.892	209.375
2902.03	214.375
2904.168	212.70833
2906.304	210.375
2908.439	226.375
2910.572	216.04167
2912.704	217.70833
2914.835	225.04167
2916.965	223.375
2919.093	238.04167
2921.219	213.70833
2923.345	232.70833
2925.469	220.70833
2927.591	211.70833
2929.712	201.375
2931.832	219.375
2933.951	202.70833
2936.068	199.375
2938.184	200.04167
2940.299	189.70833
2942.412	190.04167
2944.524	175.375
2946.634	180.04167
2948.744	159.04167
2950.851	193.375
2952.958	154.04167
2955.063	176.375
2957.167	158.375
2959.269	150.04167
2961.371	171.70833
2963.471	147.70833
2965.569	170.04167
2967.666	139.375
2969.762	141.375
2971.857	137.375
2973.95	132.04167
2976.042	143.375
2978.133	136.04167
2980.222	129.04167
2982.31	124.375
2984.396	109.04167
2986.482	117.70833
2988.566	117.70833
2990.648	116.70833
2992.73	118.375
2994.81	104.70833
2996.889	123.70833
2998.966	114.375
3001.042	121.04167
3003.117	109.04167
3005.191	117.70833
3007.263	119.375
3009.334	115.70833
3011.403	118.375
3013.472	109.04167
3015.539	120.375
3017.604	130.04167
3019.669	104.375
3021.732	103.70833
3023.794	112.04167
3025.854	102.70833
3027.914	99.04167
3029.971	101.04167
3032.028	100.04167
3034.083	109.04167
3036.137	105.70833
3038.19	92.04167
3040.242	91.375
3042.292	91.04167
3044.341	99.70833
3046.388	109.04167
3048.435	89.70833
3050.48	104.04167
3052.524	100.04167
3054.566	86.04167
3056.607	95.04167
3058.647	85.375
3060.686	77.375
3062.723	73.70833
3064.759	76.70833
3066.794	0.70833
3068.828	0.04167
3070.86	2.70833
