-0.839	126.29167
3.438	152.29167
7.711	66.625
11.981	41.625
16.247	30.625
20.509	36.29167
24.768	35.29167
29.024	41.29167
33.276	30.95833
37.524	43.29167
41.769	29.95833
46.01	24.95833
50.247	38.625
54.481	48.95833
58.712	53.95833
62.939	39.95833
67.162	53.625
71.382	42.29167
75.599	34.625
79.812	43.95833
84.021	59.625
88.227	44.29167
92.429	51.625
96.628	36.625
100.823	52.95833
105.015	53.29167
109.204	47.95833
113.388	59.625
117.57	39.29167
121.748	59.95833
125.922	46.625
130.093	60.95833
134.261	61.625
138.425	51.29167
142.585	80.625
146.742	60.625
150.896	74.625
155.046	68.29167
159.193	99.95833
163.336	139.29167
167.476	232.95833
171.613	416.29167
175.746	666.29167
179.875	967.625
184.002	1237.29167
188.124	1467.95833
192.244	1539.95833
196.36	1543.29167
200.472	1536.95833
204.581	1520.95833
208.687	1473.625
212.79	1481.95833
216.889	1490.625
220.984	1517.625
225.077	1520.29167
229.165	1521.95833
233.251	1519.95833
237.333	1513.29167
241.412	1504.95833
245.487	1497.29167
249.559	1466.625
253.628	1477.95833
257.694	1453.95833
261.756	1464.29167
265.814	1429.625
269.87	1392.29167
273.922	1360.95833
277.97	1336.29167
282.016	1338.95833
286.058	1330.29167
290.097	1338.625
294.132	1356.29167
298.164	1347.625
302.193	1299.29167
306.219	1234.95833
310.241	1186.625
314.26	1100.29167
318.276	1065.625
322.288	1051.95833
326.297	1015.29167
330.303	1002.29167
334.305	980.29167
338.305	972.29167
342.301	966.95833
346.294	964.95833
350.283	949.95833
354.269	962.29167
358.252	962.29167
362.232	946.625
366.209	959.95833
370.182	943.29167
374.152	941.95833
378.119	949.625
382.083	935.95833
386.043	959.95833
390	948.95833
393.954	958.95833
397.905	945.95833
401.852	964.29167
405.797	948.95833
409.738	937.29167
413.676	962.625
417.61	966.95833
421.542	963.95833
425.47	939.95833
429.396	928.95833
433.318	919.29167
437.236	924.95833
441.152	961.95833
445.065	913.29167
448.974	934.625
452.88	906.95833
456.783	914.95833
460.683	915.625
464.58	919.625
468.473	919.625
472.364	923.625
476.251	912.95833
480.135	910.95833
484.016	935.625
487.894	941.625
491.769	940.29167
495.641	920.29167
499.509	927.95833
503.375	942.625
507.237	936.95833
511.096	976.29167
514.952	1057.29167
518.805	1132.29167
522.655	1175.95833
526.502	1055.29167
530.346	965.95833
534.187	959.95833
538.024	937.95833
541.859	935.625
545.69	950.29167
549.519	941.95833
553.344	921.625
557.166	916.95833
560.985	908.29167
564.802	929.625
568.615	912.95833
572.425	894.95833
576.232	877.95833
580.036	888.625
583.836	899.95833
587.634	894.95833
591.429	884.29167
595.221	910.625
599.01	906.625
602.796	908.625
606.578	912.95833
610.358	918.95833
614.135	908.625
617.909	914.625
621.679	903.95833
625.447	894.29167
629.212	896.95833
632.973	899.95833
636.732	890.625
640.488	899.625
644.241	883.625
647.991	873.29167
651.737	909.95833
655.481	863.95833
659.222	866.625
662.96	870.29167
666.695	897.95833
670.427	888.29167
674.156	885.95833
677.882	889.95833
681.605	886.625
685.325	863.29167
689.043	903.95833
692.757	876.625
696.468	872.625
700.177	864.625
703.882	859.625
707.585	855.625
711.284	866.95833
714.981	842.29167
718.675	839.95833
722.366	868.625
726.054	842.29167
729.739	852.625
733.421	854.95833
737.1	863.95833
740.777	861.29167
744.45	855.29167
748.121	855.29167
751.789	888.625
755.453	855.95833
759.115	865.95833
762.774	866.95833
766.431	853.95833
770.084	869.625
773.734	861.29167
777.382	881.29167
781.027	881.95833
784.669	888.625
788.308	858.625
791.944	886.625
795.577	888.625
799.208	878.625
802.835	886.625
806.46	895.29167
810.082	899.95833
813.701	885.29167
817.317	899.29167
820.931	898.625
824.542	888.29167
828.149	871.95833
831.754	876.625
835.357	880.29167
838.956	897.29167
842.553	870.625
846.146	871.95833
849.737	846.29167
853.326	851.625
856.911	834.95833
860.493	880.625
864.073	858.95833
867.65	874.95833
871.225	871.95833
874.796	872.625
878.365	852.625
881.931	870.625
885.494	880.29167
889.054	864.95833
892.612	875.625
896.166	853.625
899.719	845.625
903.268	834.625
906.814	829.29167
910.358	825.29167
913.899	822.95833
917.438	814.95833
920.973	794.95833
924.506	809.95833
928.036	836.29167
931.564	834.29167
935.088	854.95833
938.61	841.29167
942.129	837.29167
945.646	844.625
949.16	850.95833
952.671	868.625
956.179	882.29167
959.685	876.95833
963.188	874.625
966.688	847.95833
970.185	824.29167
973.68	811.95833
977.173	808.95833
980.662	798.29167
984.149	802.625
987.633	780.95833
991.114	794.625
994.593	813.29167
998.069	815.95833
1001.542	844.95833
1005.013	823.625
1008.481	783.625
1011.947	770.625
1015.409	765.95833
1018.869	783.29167
1022.327	773.95833
1025.782	768.95833
1029.234	743.95833
1032.683	748.625
1036.13	715.29167
1039.574	695.29167
1043.016	701.625
1046.455	686.625
1049.891	680.625
1053.325	697.95833
1056.756	685.625
1060.184	685.625
1063.61	685.29167
1067.033	682.29167
1070.454	664.95833
1073.872	707.29167
1077.287	669.95833
1080.7	676.625
1084.11	677.625
1087.517	672.29167
1090.922	672.95833
1094.325	665.625
1097.724	655.29167
1101.122	654.29167
1104.516	662.625
1107.908	647.29167
1111.298	645.625
1114.684	661.29167
1118.069	659.95833
1121.45	674.95833
1124.83	664.95833
1128.206	666.29167
1131.58	674.29167
1134.951	691.95833
1138.32	687.625
1141.687	721.95833
1145.05	734.29167
1148.412	745.29167
1151.77	725.29167
1155.126	732.95833
1158.48	710.625
1161.831	722.625
1165.18	712.29167
1168.525	728.625
1171.869	720.95833
1175.21	725.95833
1178.548	746.625
1181.884	752.95833
1185.217	753.29167
1188.548	768.625
1191.877	755.625
1195.202	812.625
1198.526	813.625
1201.846	801.625
1205.165	803.95833
1208.48	813.625
1211.794	810.95833
1215.104	815.29167
1218.413	799.625
1221.719	799.29167
1225.022	780.95833
1228.323	766.625
1231.621	781.625
1234.917	773.29167
1238.21	795.95833
1241.501	775.625
1244.79	759.29167
1248.076	746.625
1251.359	777.95833
1254.64	814.625
1257.919	783.29167
1261.195	800.95833
1264.468	811.625
1267.74	818.625
1271.008	802.95833
1274.275	809.95833
1277.538	821.625
1280.8	811.29167
1284.059	809.625
1287.315	805.95833
1290.569	793.95833
1293.821	810.625
1297.07	810.625
1300.317	796.95833
1303.562	821.29167
1306.803	804.95833
1310.043	799.625
1313.28	789.625
1316.515	801.29167
1319.747	804.95833
1322.977	785.95833
1326.204	780.625
1329.429	771.95833
1332.652	780.29167
1335.872	774.95833
1339.09	758.29167
1342.306	770.95833
1345.519	756.95833
1348.729	753.625
1351.938	757.625
1355.144	736.625
1358.347	732.95833
1361.548	737.95833
1364.747	754.625
1367.944	721.625
1371.138	732.625
1374.329	732.95833
1377.518	735.95833
1380.705	733.29167
1383.89	751.95833
1387.072	719.29167
1390.252	714.95833
1393.429	694.625
1396.605	672.625
1399.777	642.95833
1402.948	662.625
1406.116	633.625
1409.282	640.29167
1412.445	634.625
1415.606	644.625
1418.765	640.95833
1421.921	640.95833
1425.075	651.625
1428.227	670.625
1431.376	696.625
1434.524	721.95833
1437.668	716.29167
1440.811	717.625
1443.951	743.95833
1447.089	732.29167
1450.224	733.625
1453.357	725.95833
1456.488	726.29167
1459.617	721.625
1462.743	714.95833
1465.867	688.29167
1468.989	690.95833
1472.108	682.95833
1475.225	666.29167
1478.34	664.625
1481.453	667.95833
1484.563	653.29167
1487.671	651.95833
1490.776	675.625
1493.88	675.29167
1496.981	697.625
1500.08	697.625
1503.176	702.95833
1506.271	716.625
1509.363	715.29167
1512.452	716.29167
1515.54	721.29167
1518.625	716.95833
1521.708	756.95833
1524.789	765.625
1527.867	783.625
1530.944	818.95833
1534.018	841.625
1537.089	877.95833
1540.159	887.95833
1543.226	885.29167
1546.291	857.625
1549.354	858.29167
1552.415	846.95833
1555.473	834.95833
1558.529	805.29167
1561.583	803.625
1564.634	792.625
1567.684	785.95833
1570.731	791.95833
1573.776	795.625
1576.819	800.95833
1579.859	807.95833
1582.898	815.95833
1585.934	821.29167
1588.968	821.29167
1591.999	808.29167
1595.029	816.29167
1598.056	832.29167
1601.081	845.29167
1604.104	844.29167
1607.125	809.95833
1610.144	812.625
1613.16	776.29167
1616.174	758.625
1619.186	765.625
1622.196	740.625
1625.203	723.95833
1628.209	719.625
1631.212	705.95833
1634.213	716.29167
1637.212	723.95833
1640.209	705.29167
1643.203	674.95833
1646.196	658.29167
1649.186	636.625
1652.174	648.29167
1655.16	613.625
1658.144	619.29167
1661.125	584.29167
1664.105	579.625
1667.082	549.95833
1670.057	526.625
1673.03	499.95833
1676.001	491.29167
1678.97	464.29167
1681.937	446.29167
1684.901	425.625
1687.863	429.29167
1690.824	401.95833
1693.782	406.95833
1696.738	371.29167
1699.692	392.29167
1702.643	372.95833
1705.593	375.95833
1708.54	374.95833
1711.486	382.29167
1714.429	359.29167
1717.37	369.29167
1720.309	352.625
1723.246	362.95833
1726.181	350.29167
1729.113	342.95833
1732.044	358.29167
1734.972	351.95833
1737.899	362.95833
1740.823	358.95833
1743.745	381.29167
1746.665	342.95833
1749.583	332.29167
1752.499	324.95833
1755.413	336.29167
1758.325	316.625
1761.235	327.625
1764.142	316.29167
1767.048	316.625
1769.951	328.29167
1772.852	321.625
1775.752	330.95833
1778.649	320.95833
1781.544	330.29167
1784.437	307.625
1787.328	320.95833
1790.217	322.29167
1793.104	294.95833
1795.989	300.29167
1798.872	296.95833
1801.753	313.29167
1804.631	301.625
1807.508	315.29167
1810.383	308.95833
1813.255	306.625
1816.126	298.625
1818.994	297.625
1821.861	302.29167
1824.725	303.29167
1827.587	300.625
1830.448	301.29167
1833.306	284.95833
1836.162	302.95833
1839.017	296.29167
1841.869	298.29167
1844.719	298.625
1847.567	284.625
1850.414	282.625
1853.258	271.95833
1856.1	291.29167
1858.94	289.29167
1861.778	291.95833
1864.614	279.95833
1867.448	293.625
1870.28	275.95833
1873.111	292.625
1875.939	292.95833
1878.765	301.625
1881.589	288.95833
1884.411	286.29167
1887.231	288.95833
1890.049	285.29167
1892.865	298.95833
1895.68	283.29167
1898.492	286.29167
1901.302	278.95833
1904.11	282.95833
1906.916	283.29167
1909.721	278.625
1912.523	289.95833
1915.323	274.95833
1918.122	272.29167
1920.918	287.625
1923.712	270.625
1926.505	274.625
1929.295	261.625
1932.084	283.29167
1934.87	284.29167
1937.655	271.625
1940.438	266.625
1943.218	270.95833
1945.997	274.625
1948.774	282.95833
1951.549	285.95833
1954.322	270.625
1957.093	276.29167
1959.862	266.95833
1962.629	270.95833
1965.394	268.29167
1968.157	260.625
1970.918	279.625
1973.678	264.29167
1976.435	277.625
1979.19	262.29167
1981.944	258.29167
1984.696	263.29167
1987.445	264.625
1990.193	262.29167
1992.939	272.95833
1995.683	266.625
1998.425	249.29167
2001.165	287.625
2003.903	256.95833
2006.639	264.95833
2009.374	266.95833
2012.106	256.29167
2014.837	242.29167
2017.566	273.625
2020.292	263.625
2023.017	261.95833
2025.74	260.29167
2028.461	251.29167
2031.18	263.29167
2033.898	252.625
2036.613	261.625
2039.327	265.95833
2042.038	249.95833
2044.748	260.29167
2047.456	266.625
2050.162	250.95833
2052.866	254.625
2055.568	269.95833
2058.268	255.625
2060.967	266.95833
2063.663	248.29167
2066.358	251.29167
2069.051	250.625
2071.742	252.29167
2074.431	258.29167
2077.118	249.625
2079.804	247.625
2082.487	249.95833
2085.169	259.625
2087.849	274.29167
2090.527	243.95833
2093.203	258.625
2095.877	263.625
2098.55	259.95833
2101.22	275.29167
2103.889	269.625
2106.556	256.29167
2109.221	276.625
2111.884	265.95833
2114.546	288.625
2117.205	279.625
2119.863	314.29167
2122.519	307.625
2125.173	315.95833
2127.825	342.29167
2130.475	343.625
2133.124	324.95833
2135.771	314.29167
2138.416	328.625
2141.059	311.29167
2143.7	314.625
2146.339	292.625
2148.977	270.95833
2151.613	284.95833
2154.247	285.625
2156.879	281.95833
2159.51	266.625
2162.138	269.95833
2164.765	268.625
2167.39	253.95833
2170.013	281.625
2172.634	277.29167
2175.254	260.625
2177.872	304.29167
2180.488	260.29167
2183.102	262.625
2185.714	261.95833
2188.325	246.625
2190.934	259.625
2193.541	267.95833
2196.146	266.95833
2198.75	244.95833
2201.351	253.29167
2203.951	240.29167
2206.549	256.95833
2209.146	247.625
2211.74	246.625
2214.333	258.95833
2216.924	242.29167
2219.514	258.95833
2222.101	245.95833
2224.687	262.95833
2227.271	244.625
2229.853	246.95833
2232.433	229.625
2235.012	253.95833
2237.589	244.29167
2240.164	264.95833
2242.738	251.95833
2245.309	246.95833
2247.879	260.95833
2250.448	258.29167
2253.014	241.625
2255.579	236.29167
2258.142	242.29167
2260.703	240.29167
2263.262	246.95833
2265.82	233.95833
2268.376	254.29167
2270.93	246.29167
2273.483	236.95833
2276.033	254.29167
2278.583	242.625
2281.13	238.625
2283.675	230.29167
2286.219	243.29167
2288.761	243.29167
2291.302	249.95833
2293.841	261.95833
2296.377	235.625
2298.913	251.95833
2301.446	253.95833
2303.978	245.95833
2306.508	242.95833
2309.037	247.625
2311.563	248.29167
2314.088	252.29167
2316.612	231.29167
2319.133	251.95833
2321.653	253.29167
2324.171	244.95833
2326.688	252.95833
2329.202	253.29167
2331.715	257.29167
2334.227	258.625
2336.736	249.29167
2339.244	245.29167
2341.751	244.95833
2344.255	250.29167
2346.758	255.95833
2349.259	249.29167
2351.759	256.29167
2354.257	239.95833
2356.753	245.95833
2359.247	246.29167
2361.74	252.29167
2364.231	244.95833
2366.721	260.625
2369.209	248.95833
2371.695	243.29167
2374.179	250.95833
2376.662	236.95833
2379.143	264.29167
2381.622	258.95833
2384.1	265.625
2386.576	251.29167
2389.051	269.29167
2391.524	270.95833
2393.995	261.95833
2396.464	256.95833
2398.932	247.95833
2401.398	258.29167
2403.863	247.29167
2406.325	265.29167
2408.787	266.29167
2411.246	261.95833
2413.704	260.625
2416.16	260.29167
2418.615	260.29167
2421.068	268.95833
2423.519	260.29167
2425.969	256.625
2428.417	273.29167
2430.863	292.625
2433.308	273.625
2435.751	266.625
2438.193	265.29167
2440.633	271.95833
2443.071	274.95833
2445.508	259.625
2447.943	259.29167
2450.376	266.29167
2452.808	278.625
2455.238	261.95833
2457.667	290.95833
2460.093	265.29167
2462.519	261.95833
2464.942	269.95833
2467.365	272.29167
2469.785	281.29167
2472.204	267.625
2474.621	271.29167
2477.037	290.625
2479.451	266.29167
2481.863	267.625
2484.274	268.95833
2486.683	274.29167
2489.091	284.625
2491.497	282.95833
2493.901	282.625
2496.304	279.95833
2498.705	288.29167
2501.105	287.95833
2503.503	300.95833
2505.899	275.29167
2508.294	298.95833
2510.687	279.95833
2513.079	285.29167
2515.469	283.625
2517.858	281.29167
2520.245	299.95833
2522.63	291.95833
2525.014	286.95833
2527.396	282.625
2529.776	284.625
2532.156	288.95833
2534.533	288.625
2536.909	282.625
2539.283	273.625
2541.656	284.29167
2544.027	309.29167
2546.397	298.95833
2548.765	287.95833
2551.131	300.95833
2553.496	302.29167
2555.86	305.29167
2558.221	300.95833
2560.582	294.95833
2562.94	280.95833
2565.298	303.95833
2567.653	308.29167
2570.007	286.95833
2572.36	309.95833
2574.711	296.625
2577.06	320.95833
2579.408	307.625
2581.754	311.625
2584.099	305.625
2586.442	309.29167
2588.784	316.29167
2591.124	307.95833
2593.463	313.29167
2595.8	318.625
2598.135	296.29167
2600.469	308.625
2602.802	320.625
2605.133	326.625
2607.462	306.29167
2609.79	304.95833
2612.116	323.95833
2614.441	315.95833
2616.764	319.29167
2619.086	313.95833
2621.406	321.625
2623.725	330.625
2626.042	323.29167
2628.358	324.29167
2630.672	331.625
2632.985	339.29167
2635.296	332.95833
2637.606	333.95833
2639.914	325.625
2642.22	327.29167
2644.525	336.29167
2646.829	335.29167
2649.131	347.95833
2651.432	355.625
2653.731	330.95833
2656.028	353.29167
2658.324	347.625
2660.619	328.95833
2662.912	357.625
2665.204	330.95833
2667.494	356.625
2669.782	346.95833
2672.07	355.95833
2674.355	360.95833
2676.639	356.95833
2678.922	342.95833
2681.203	358.95833
2683.483	340.95833
2685.761	340.625
2688.038	359.29167
2690.313	368.625
2692.587	354.29167
2694.859	353.625
2697.13	362.29167
2699.399	369.29167
2701.667	373.625
2703.933	361.625
2706.198	381.95833
2708.461	362.625
2710.723	373.625
2712.984	364.95833
2715.243	377.95833
2717.5	366.95833
2719.757	384.95833
2722.011	374.625
2724.264	390.29167
2726.516	384.625
2728.766	372.29167
2731.015	375.95833
2733.262	384.95833
2735.508	383.95833
2737.753	388.625
2739.996	379.95833
2742.237	381.29167
2744.477	388.95833
2746.716	404.625
2748.953	395.625
2751.189	403.95833
2753.423	390.95833
2755.656	382.625
2757.887	382.95833
2760.117	396.95833
2762.346	382.625
2764.573	367.29167
2766.798	383.29167
2769.022	378.625
2771.245	385.625
2773.467	387.29167
2775.686	388.29167
2777.905	396.625
2780.122	394.625
2782.337	400.95833
2784.552	394.29167
2786.764	401.95833
2788.976	386.95833
2791.186	404.29167
2793.394	407.95833
2795.601	411.625
2797.807	417.625
2800.011	412.625
2802.214	414.29167
2804.415	426.29167
2806.615	416.95833
2808.814	422.29167
2811.011	422.95833
2813.206	420.29167
2815.401	426.29167
2817.594	439.625
2819.785	429.29167
2821.975	411.95833
2824.164	423.95833
2826.351	423.95833
2828.537	442.29167
2830.722	428.29167
2832.905	428.625
2835.086	440.95833
2837.267	461.29167
2839.445	451.625
2841.623	451.625
2843.799	449.95833
2845.974	452.625
2848.147	458.95833
2850.319	466.625
2852.489	474.29167
2854.659	483.29167
2856.826	490.95833
2858.993	513.29167
2861.158	491.625
2863.321	495.29167
2865.483	512.29167
2867.644	503.29167
2869.804	499.29167
2871.962	497.625
2874.118	489.29167
2876.274	497.29167
2878.428	491.625
2880.58	490.95833
2882.731	488.29167
2884.881	498.29167
2887.03	491.625
2889.177	495.95833
2891.322	507.625
2893.467	496.29167
2895.61	497.95833
2897.751	524.29167
2899.892	504.29167
2902.03	506.95833
2904.168	494.95833
2906.304	511.95833
2908.439	531.625
2910.572	510.625
2912.704	529.95833
2914.835	521.95833
2916.965	520.625
2919.093	542.625
2921.219	511.95833
2923.345	543.95833
2925.469	526.29167
2927.591	504.29167
2929.712	500.29167
2931.832	525.625
2933.951	508.95833
2936.068	500.625
2938.184	497.95833
2940.299	499.625
2942.412	498.625
2944.524	480.29167
2946.634	498.95833
2948.744	468.95833
2950.851	503.95833
2952.958	479.625
2955.063	497.29167
2957.167	487.29167
2959.269	477.95833
2961.371	511.95833
2963.471	483.95833
2965.569	494.29167
2967.666	475.95833
2969.762	483.95833
2971.857	479.95833
2973.95	465.625
2976.042	475.95833
2978.133	465.625
2980.222	463.625
2982.31	450.29167
2984.396	438.29167
2986.482	441.625
2988.566	456.625
2990.648	457.29167
2992.73	456.29167
2994.81	445.29167
2996.889	454.95833
2998.966	451.29167
3001.042	466.29167
3003.117	458.625
3005.191	455.95833
3007.263	461.625
3009.334	454.625
3011.403	446.29167
3013.472	437.625
3015.539	447.625
3017.604	461.625
3019.669	426.95833
3021.732	439.625
3023.794	429.95833
3025.854	428.625
3027.914	421.95833
3029.971	428.95833
3032.028	437.29167
3034.083	439.625
3036.137	436.625
3038.19	412.95833
3040.242	397.625
3042.292	396.95833
3044.341	394.625
3046.388	409.95833
3048.435	381.625
3050.48	407.95833
3052.524	398.29167
3054.566	380.29167
3056.607	388.29167
3058.647	379.625
3060.686	362.625
3062.723	345.625
3064.759	338.625
3066.794	-0.04167
3068.828	-0.04167
3070.86	2.29167
