-0.839	140.75
3.438	228.08333
7.711	131.41667
11.981	44.75
16.247	30.75
20.509	38.41667
24.768	37.41667
29.024	43.75
33.276	31.08333
37.524	40.41667
41.769	31.08333
46.01	29.75
50.247	46.75
54.481	48.75
58.712	54.08333
62.939	35.08333
67.162	51.75
71.382	45.41667
75.599	37.41667
79.812	41.41667
84.021	63.75
88.227	42.75
92.429	50.41667
96.628	36.41667
100.823	53.41667
105.015	52.75
109.204	47.41667
113.388	57.41667
117.57	44.08333
121.748	58.75
125.922	51.08333
130.093	62.08333
134.261	61.75
138.425	60.75
142.585	82.41667
146.742	62.08333
150.896	76.08333
155.046	72.08333
159.193	108.75
163.336	150.08333
167.476	263.75
171.613	465.08333
175.746	739.41667
179.875	1075.41667
184.002	1394.75
188.124	1671.41667
192.244	1734.75
196.36	1747.41667
200.472	1741.08333
204.581	1740.08333
208.687	1672.75
212.79	1679.08333
216.889	1701.75
220.984	1726.41667
225.077	1734.08333
229.165	1736.75
233.251	1725.75
237.333	1746.41667
241.412	1729.08333
245.487	1728.41667
249.559	1700.08333
253.628	1683.08333
257.694	1706.75
261.756	1683.41667
265.814	1659.41667
269.87	1615.75
273.922	1563.08333
277.97	1544.75
282.016	1526.75
286.058	1510.08333
290.097	1546.08333
294.132	1564.08333
298.164	1543.75
302.193	1487.41667
306.219	1403.08333
310.241	1333.75
314.26	1250.41667
318.276	1197.41667
322.288	1160.08333
326.297	1127.08333
330.303	1088.41667
334.305	1090.41667
338.305	1081.41667
342.301	1073.08333
346.294	1064.08333
350.283	1051.75
354.269	1046.75
358.252	1037.08333
362.232	1043.41667
366.209	1052.75
370.182	1029.75
374.152	1035.75
378.119	1039.41667
382.083	1018.75
386.043	1045.75
390	1029.75
393.954	1040.75
397.905	1043.75
401.852	1055.08333
405.797	1041.08333
409.738	1038.08333
413.676	1046.75
417.61	1059.75
421.542	1032.08333
425.47	1012.75
429.396	1017.75
433.318	1006.41667
437.236	1017.41667
441.152	1042.75
445.065	1000.41667
448.974	1010.08333
452.88	981.75
456.783	990.41667
460.683	985.41667
464.58	1000.41667
468.473	1003.41667
472.364	1011.08333
476.251	1017.41667
480.135	1007.41667
484.016	1021.08333
487.894	1019.08333
491.769	1033.41667
495.641	1014.41667
499.509	1021.41667
503.375	1026.41667
507.237	1009.41667
511.096	1017.75
514.952	1027.41667
518.805	1027.41667
522.655	1033.41667
526.502	1032.41667
530.346	1011.75
534.187	1037.08333
538.024	1016.75
541.859	1007.41667
545.69	1040.08333
549.519	1008.75
553.344	1015.75
557.166	994.08333
560.985	1002.41667
564.802	990.08333
568.615	994.75
572.425	968.41667
576.232	959.41667
580.036	974.08333
583.836	982.75
587.634	990.75
591.429	964.08333
595.221	997.08333
599.01	984.41667
602.796	984.08333
606.578	1004.75
610.358	1010.08333
614.135	1000.08333
617.909	996.75
621.679	993.75
625.447	978.08333
629.212	984.08333
632.973	967.41667
636.732	962.41667
640.488	991.08333
644.241	966.08333
647.991	961.08333
651.737	980.75
655.481	945.41667
659.222	952.08333
662.96	968.41667
666.695	974.75
670.427	972.08333
674.156	984.75
677.882	973.08333
681.605	981.41667
685.325	964.75
689.043	981.41667
692.757	968.08333
696.468	958.75
700.177	963.08333
703.882	930.75
707.585	938.08333
711.284	956.41667
714.981	933.75
718.675	929.41667
722.366	948.41667
726.054	936.75
729.739	941.41667
733.421	932.41667
737.1	926.08333
740.777	948.08333
744.45	938.75
748.121	931.75
751.789	960.08333
755.453	943.75
759.115	966.08333
762.774	947.75
766.431	943.41667
770.084	965.08333
773.734	958.75
777.382	965.08333
781.027	973.41667
784.669	957.75
788.308	964.08333
791.944	985.08333
795.577	987.08333
799.208	987.75
802.835	992.75
806.46	1003.41667
810.082	993.75
813.701	996.75
817.317	1011.41667
820.931	1008.41667
824.542	1015.08333
828.149	987.75
831.754	967.08333
835.357	979.08333
838.956	990.08333
842.553	979.41667
846.146	963.41667
849.737	941.75
853.326	952.41667
856.911	928.08333
860.493	972.41667
864.073	959.08333
867.65	964.75
871.225	983.08333
874.796	962.75
878.365	957.08333
881.931	975.75
885.494	990.08333
889.054	965.41667
892.612	972.41667
896.166	964.75
899.719	949.08333
903.268	931.41667
906.814	937.75
910.358	930.41667
913.899	922.41667
917.438	912.08333
920.973	908.08333
924.506	911.08333
928.036	927.75
931.564	948.75
935.088	961.75
938.61	944.75
942.129	951.08333
945.646	959.41667
949.16	964.08333
952.671	983.41667
956.179	992.75
959.685	969.75
963.188	1001.08333
966.688	975.41667
970.185	941.41667
973.68	924.08333
977.173	925.08333
980.662	913.41667
984.149	918.41667
987.633	900.08333
991.114	908.41667
994.593	929.41667
998.069	932.75
1001.542	963.08333
1005.013	948.41667
1008.481	890.75
1011.947	877.08333
1015.409	884.75
1018.869	885.75
1022.327	883.41667
1025.782	868.75
1029.234	854.75
1032.683	859.08333
1036.13	835.41667
1039.574	802.41667
1043.016	800.08333
1046.455	775.08333
1049.891	778.41667
1053.325	790.08333
1056.756	783.75
1060.184	777.41667
1063.61	765.75
1067.033	780.08333
1070.454	781.08333
1073.872	796.41667
1077.287	774.41667
1080.7	770.41667
1084.11	787.08333
1087.517	776.41667
1090.922	767.75
1094.325	750.08333
1097.724	739.08333
1101.122	754.75
1104.516	752.41667
1107.908	735.08333
1111.298	751.75
1114.684	747.41667
1118.069	758.08333
1121.45	769.41667
1124.83	768.08333
1128.206	769.75
1131.58	777.41667
1134.951	791.08333
1138.32	800.08333
1141.687	832.41667
1145.05	844.41667
1148.412	832.75
1151.77	834.08333
1155.126	834.75
1158.48	812.75
1161.831	832.08333
1165.18	821.08333
1168.525	832.75
1171.869	846.41667
1175.21	854.08333
1178.548	859.41667
1181.884	875.41667
1185.217	862.41667
1188.548	882.08333
1191.877	902.75
1195.202	935.08333
1198.526	955.08333
1201.846	947.41667
1205.165	957.41667
1208.48	956.08333
1211.794	952.75
1215.104	956.75
1218.413	928.75
1221.719	945.75
1225.022	919.41667
1228.323	908.41667
1231.621	923.75
1234.917	911.75
1238.21	923.75
1241.501	906.08333
1244.79	885.41667
1248.076	883.75
1251.359	896.41667
1254.64	933.75
1257.919	905.41667
1261.195	927.75
1264.468	937.08333
1267.74	954.75
1271.008	955.08333
1274.275	961.08333
1277.538	944.41667
1280.8	938.75
1284.059	922.41667
1287.315	945.08333
1290.569	942.41667
1293.821	948.41667
1297.07	965.75
1300.317	964.08333
1303.562	967.41667
1306.803	934.41667
1310.043	943.41667
1313.28	939.75
1316.515	938.41667
1319.747	946.41667
1322.977	929.41667
1326.204	916.41667
1329.429	914.08333
1332.652	922.41667
1335.872	916.08333
1339.09	901.08333
1342.306	900.75
1345.519	897.08333
1348.729	889.08333
1351.938	896.08333
1355.144	886.08333
1358.347	883.08333
1361.548	881.41667
1364.747	870.08333
1367.944	865.08333
1371.138	862.75
1374.329	866.41667
1377.518	869.41667
1380.705	858.75
1383.89	866.41667
1387.072	823.75
1390.252	823.75
1393.429	798.41667
1396.605	784.08333
1399.777	741.08333
1402.948	744.08333
1406.116	731.08333
1409.282	723.08333
1412.445	726.08333
1415.606	739.08333
1418.765	736.41667
1421.921	762.08333
1425.075	754.41667
1428.227	785.41667
1431.376	803.08333
1434.524	837.75
1437.668	845.41667
1440.811	851.41667
1443.951	866.75
1447.089	859.41667
1450.224	865.41667
1453.357	857.08333
1456.488	843.41667
1459.617	855.41667
1462.743	846.41667
1465.867	816.41667
1468.989	814.75
1472.108	798.41667
1475.225	790.41667
1478.34	769.75
1481.453	765.41667
1484.563	769.08333
1487.671	768.41667
1490.776	793.08333
1493.88	789.08333
1496.981	815.75
1500.08	807.75
1503.176	812.41667
1506.271	819.75
1509.363	832.41667
1512.452	839.41667
1515.54	842.75
1518.625	851.75
1521.708	875.75
1524.789	902.75
1527.867	912.75
1530.944	961.75
1534.018	969.75
1537.089	1030.08333
1540.159	1032.41667
1543.226	1032.41667
1546.291	1009.75
1549.354	985.08333
1552.415	972.41667
1555.473	941.75
1558.529	960.41667
1561.583	934.75
1564.634	925.41667
1567.684	925.08333
1570.731	924.41667
1573.776	929.08333
1576.819	941.41667
1579.859	953.08333
1582.898	971.08333
1585.934	968.08333
1588.968	969.41667
1591.999	956.41667
1595.029	962.08333
1598.056	964.41667
1601.081	995.41667
1604.104	981.75
1607.125	962.08333
1610.144	937.75
1613.16	924.75
1616.174	913.75
1619.186	904.08333
1622.196	871.75
1625.203	855.41667
1628.209	848.08333
1631.212	843.75
1634.213	843.75
1637.212	863.08333
1640.209	867.41667
1643.203	839.41667
1646.196	811.41667
1649.186	783.41667
1652.174	770.75
1655.16	737.75
1658.144	726.41667
1661.125	683.75
1664.105	664.08333
1667.082	645.75
1670.057	613.08333
1673.03	575.08333
1676.001	552.41667
1678.97	519.08333
1681.937	504.41667
1684.901	477.41667
1687.863	466.41667
1690.824	446.08333
1693.782	465.41667
1696.738	429.75
1699.692	428.41667
1702.643	412.41667
1705.593	413.41667
1708.54	408.75
1711.486	424.08333
1714.429	398.75
1717.37	400.75
1720.309	392.08333
1723.246	402.75
1726.181	377.75
1729.113	382.75
1732.044	393.41667
1734.972	373.41667
1737.899	399.75
1740.823	404.08333
1743.745	414.75
1746.665	369.41667
1749.583	356.75
1752.499	360.75
1755.413	352.41667
1758.325	348.41667
1761.235	354.75
1764.142	345.75
1767.048	347.08333
1769.951	340.41667
1772.852	338.08333
1775.752	353.08333
1778.649	347.41667
1781.544	360.41667
1784.437	328.08333
1787.328	341.41667
1790.217	338.08333
1793.104	315.08333
1795.989	320.41667
1798.872	314.75
1801.753	333.08333
1804.631	322.75
1807.508	318.41667
1810.383	320.08333
1813.255	324.08333
1816.126	323.41667
1818.994	324.08333
1821.861	317.41667
1824.725	316.08333
1827.587	324.08333
1830.448	321.08333
1833.306	304.08333
1836.162	321.75
1839.017	313.75
1841.869	310.75
1844.719	308.08333
1847.567	293.75
1850.414	285.75
1853.258	290.08333
1856.1	301.08333
1858.94	318.41667
1861.778	307.75
1864.614	295.41667
1867.448	298.08333
1870.28	284.41667
1873.111	308.41667
1875.939	289.41667
1878.765	308.41667
1881.589	292.41667
1884.411	299.08333
1887.231	299.75
1890.049	296.41667
1892.865	294.08333
1895.68	288.75
1898.492	294.08333
1901.302	285.41667
1904.11	290.41667
1906.916	286.08333
1909.721	280.08333
1912.523	290.75
1915.323	287.41667
1918.122	280.08333
1920.918	286.75
1923.712	271.75
1926.505	284.08333
1929.295	258.75
1932.084	284.75
1934.87	279.75
1937.655	268.41667
1940.438	267.08333
1943.218	272.08333
1945.997	277.08333
1948.774	278.75
1951.549	284.41667
1954.322	272.75
1957.093	270.08333
1959.862	267.08333
1962.629	268.41667
1965.394	267.75
1968.157	256.41667
1970.918	274.41667
1973.678	261.75
1976.435	274.08333
1979.19	270.75
1981.944	246.75
1984.696	258.75
1987.445	255.75
1990.193	261.08333
1992.939	271.41667
1995.683	259.41667
1998.425	245.08333
2001.165	276.08333
2003.903	247.75
2006.639	253.08333
2009.374	260.08333
2012.106	254.08333
2014.837	235.08333
2017.566	262.41667
2020.292	253.75
2023.017	243.75
2025.74	244.75
2028.461	245.41667
2031.18	250.75
2033.898	243.08333
2036.613	243.75
2039.327	249.08333
2042.038	238.08333
2044.748	240.41667
2047.456	245.41667
2050.162	229.41667
2052.866	239.75
2055.568	255.08333
2058.268	226.75
2060.967	246.08333
2063.663	229.41667
2066.358	232.08333
2069.051	230.41667
2071.742	234.75
2074.431	244.41667
2077.118	229.41667
2079.804	219.08333
2082.487	231.75
2085.169	237.41667
2087.849	255.75
2090.527	228.08333
2093.203	230.75
2095.877	229.75
2098.55	236.41667
2101.22	242.41667
2103.889	245.08333
2106.556	233.08333
2109.221	246.08333
2111.884	239.75
2114.546	257.75
2117.205	261.08333
2119.863	290.08333
2122.519	275.75
2125.173	294.08333
2127.825	317.08333
2130.475	315.41667
2133.124	309.75
2135.771	292.41667
2138.416	306.41667
2141.059	274.08333
2143.7	276.08333
2146.339	258.75
2148.977	233.41667
2151.613	254.75
2154.247	243.75
2156.879	238.08333
2159.51	230.08333
2162.138	228.08333
2164.765	223.08333
2167.39	212.75
2170.013	242.41667
2172.634	235.08333
2175.254	223.41667
2177.872	252.75
2180.488	207.75
2183.102	221.08333
2185.714	218.75
2188.325	208.41667
2190.934	211.41667
2193.541	220.41667
2196.146	212.08333
2198.75	197.41667
2201.351	206.75
2203.951	189.75
2206.549	209.41667
2209.146	199.41667
2211.74	195.75
2214.333	203.08333
2216.924	192.08333
2219.514	204.08333
2222.101	192.75
2224.687	210.08333
2227.271	189.41667
2229.853	191.41667
2232.433	174.41667
2235.012	200.75
2237.589	197.41667
2240.164	212.75
2242.738	186.75
2245.309	183.75
2247.879	199.08333
2250.448	196.75
2253.014	182.08333
2255.579	180.41667
2258.142	184.08333
2260.703	180.08333
2263.262	179.41667
2265.82	170.08333
2268.376	191.41667
2270.93	176.08333
2273.483	175.41667
2276.033	187.41667
2278.583	174.08333
2281.13	169.41667
2283.675	167.08333
2286.219	176.08333
2288.761	179.41667
2291.302	186.75
2293.841	188.08333
2296.377	166.08333
2298.913	177.41667
2301.446	183.75
2303.978	171.75
2306.508	172.41667
2309.037	173.75
2311.563	170.08333
2314.088	178.41667
2316.612	159.08333
2319.133	174.41667
2321.653	173.08333
2324.171	163.41667
2326.688	186.41667
2329.202	170.75
2331.715	172.08333
2334.227	170.75
2336.736	163.08333
2339.244	164.75
2341.751	155.75
2344.255	178.75
2346.758	167.41667
2349.259	156.41667
2351.759	172.75
2354.257	157.08333
2356.753	153.75
2359.247	159.08333
2361.74	156.75
2364.231	158.08333
2366.721	171.41667
2369.209	157.41667
2371.695	164.08333
2374.179	159.08333
2376.662	147.41667
2379.143	169.75
2381.622	151.75
2384.1	164.08333
2386.576	154.75
2389.051	171.08333
2391.524	171.08333
2393.995	160.41667
2396.464	154.75
2398.932	152.75
2401.398	158.08333
2403.863	148.08333
2406.325	144.75
2408.787	160.08333
2411.246	157.08333
2413.704	158.08333
2416.16	154.08333
2418.615	150.08333
2421.068	158.08333
2423.519	152.41667
2425.969	140.41667
2428.417	163.75
2430.863	172.41667
2433.308	160.41667
2435.751	154.08333
2438.193	155.41667
2440.633	150.75
2443.071	163.41667
2445.508	144.08333
2447.943	151.08333
2450.376	148.41667
2452.808	155.08333
2455.238	140.08333
2457.667	175.41667
2460.093	144.41667
2462.519	139.08333
2464.942	141.08333
2467.365	148.41667
2469.785	156.08333
2472.204	142.75
2474.621	142.75
2477.037	159.08333
2479.451	135.08333
2481.863	136.41667
2484.274	142.08333
2486.683	143.41667
2489.091	154.08333
2491.497	144.41667
2493.901	147.08333
2496.304	142.08333
2498.705	151.75
2501.105	142.41667
2503.503	164.75
2505.899	135.41667
2508.294	164.41667
2510.687	134.75
2513.079	140.41667
2515.469	137.08333
2517.858	132.75
2520.245	155.75
2522.63	135.08333
2525.014	143.08333
2527.396	138.41667
2529.776	142.41667
2532.156	146.41667
2534.533	129.41667
2536.909	130.75
2539.283	124.41667
2541.656	137.08333
2544.027	149.08333
2546.397	144.75
2548.765	133.75
2551.131	139.41667
2553.496	140.41667
2555.86	144.08333
2558.221	146.75
2560.582	134.41667
2562.94	125.41667
2565.298	142.75
2567.653	148.08333
2570.007	124.75
2572.36	140.08333
2574.711	124.75
2577.06	152.08333
2579.408	139.75
2581.754	134.75
2584.099	128.41667
2586.442	132.75
2588.784	143.08333
2591.124	136.75
2593.463	131.75
2595.8	137.41667
2598.135	123.08333
2600.469	127.08333
2602.802	141.75
2605.133	147.75
2607.462	131.41667
2609.79	123.08333
2612.116	140.41667
2614.441	132.41667
2616.764	127.75
2619.086	137.41667
2621.406	128.08333
2623.725	139.08333
2626.042	132.41667
2628.358	122.75
2630.672	136.08333
2632.985	142.08333
2635.296	137.08333
2637.606	131.41667
2639.914	124.41667
2642.22	131.75
2644.525	130.08333
2646.829	131.41667
2649.131	146.08333
2651.432	136.08333
2653.731	123.75
2656.028	140.41667
2658.324	132.75
2660.619	123.08333
2662.912	141.08333
2665.204	118.08333
2667.494	132.75
2669.782	119.75
2672.07	142.08333
2674.355	146.08333
2676.639	131.75
2678.922	132.08333
2681.203	134.75
2683.483	130.41667
2685.761	118.75
2688.038	138.08333
2690.313	145.08333
2692.587	131.08333
2694.859	128.41667
2697.13	136.41667
2699.399	135.41667
2701.667	143.08333
2703.933	138.08333
2706.198	149.41667
2708.461	142.75
2710.723	139.75
2712.984	140.41667
2715.243	139.41667
2717.5	132.75
2719.757	147.08333
2722.011	136.08333
2724.264	154.41667
2726.516	147.75
2728.766	134.75
2731.015	137.75
2733.262	136.08333
2735.508	135.75
2737.753	140.75
2739.996	127.08333
2742.237	129.08333
2744.477	144.08333
2746.716	142.75
2748.953	142.41667
2751.189	147.41667
2753.423	140.08333
2755.656	136.08333
2757.887	127.08333
2760.117	131.41667
2762.346	126.08333
2764.573	115.08333
2766.798	127.08333
2769.022	132.41667
2771.245	128.08333
2773.467	129.08333
2775.686	131.08333
2777.905	141.08333
2780.122	127.41667
2782.337	133.41667
2784.552	128.41667
2786.764	134.75
2788.976	121.08333
2791.186	134.08333
2793.394	132.75
2795.601	139.41667
2797.807	142.75
2800.011	134.41667
2802.214	141.08333
2804.415	137.41667
2806.615	133.08333
2808.814	139.75
2811.011	147.75
2813.206	142.08333
2815.401	150.41667
2817.594	155.75
2819.785	156.08333
2821.975	140.08333
2824.164	147.08333
2826.351	146.08333
2828.537	157.08333
2830.722	156.75
2832.905	157.41667
2835.086	161.08333
2837.267	180.41667
2839.445	172.41667
2841.623	174.75
2843.799	173.41667
2845.974	179.41667
2848.147	179.75
2850.319	193.41667
2852.489	199.75
2854.659	194.75
2856.826	194.75
2858.993	221.08333
2861.158	195.41667
2863.321	207.41667
2865.483	223.75
2867.644	215.41667
2869.804	209.75
2871.962	205.75
2874.118	214.75
2876.274	208.08333
2878.428	213.41667
2880.58	221.41667
2882.731	198.41667
2884.881	212.08333
2887.03	217.41667
2889.177	211.08333
2891.322	220.75
2893.467	207.75
2895.61	204.75
2897.751	224.41667
2899.892	208.41667
2902.03	215.08333
2904.168	211.41667
2906.304	212.75
2908.439	237.75
2910.572	211.41667
2912.704	218.41667
2914.835	227.41667
2916.965	220.08333
2919.093	242.75
2921.219	206.08333
2923.345	237.41667
2925.469	218.08333
2927.591	220.41667
2929.712	205.08333
2931.832	211.08333
2933.951	206.08333
2936.068	203.41667
2938.184	200.08333
2940.299	199.08333
2942.412	192.75
2944.524	179.08333
2946.634	187.41667
2948.744	163.41667
2950.851	202.75
2952.958	169.75
2955.063	177.08333
2957.167	165.75
2959.269	156.75
2961.371	188.08333
2963.471	159.75
2965.569	176.08333
2967.666	151.41667
2969.762	150.75
2971.857	146.75
2973.95	138.75
2976.042	148.75
2978.133	137.08333
2980.222	145.41667
2982.31	133.08333
2984.396	122.08333
2986.482	123.41667
2988.566	131.75
2990.648	125.75
2992.73	127.08333
2994.81	109.75
2996.889	133.75
2998.966	123.08333
3001.042	135.75
3003.117	125.41667
3005.191	129.08333
3007.263	133.08333
3009.334	124.75
3011.403	129.75
3013.472	118.08333
3015.539	136.75
3017.604	141.41667
3019.669	111.41667
3021.732	115.41667
3023.794	122.75
3025.854	119.08333
3027.914	103.75
3029.971	110.75
3032.028	111.41667
3034.083	122.08333
3036.137	118.08333
3038.19	101.08333
3040.242	98.41667
3042.292	101.41667
3044.341	99.75
3046.388	120.41667
3048.435	95.75
3050.48	120.75
3052.524	107.41667
3054.566	92.41667
3056.607	103.08333
3058.647	97.75
3060.686	89.75
3062.723	84.08333
3064.759	86.08333
3066.794	-0.58333
3068.828	0.08333
3070.86	4.41667
