-0.839	132.45833
3.438	156.79167
7.711	60.125
11.981	40.45833
16.247	28.79167
20.509	37.79167
24.768	34.45833
29.024	49.125
33.276	27.125
37.524	42.79167
41.769	31.125
46.01	26.125
50.247	41.125
54.481	51.79167
58.712	56.125
62.939	32.79167
67.162	50.79167
71.382	40.125
75.599	38.79167
79.812	44.125
84.021	61.125
88.227	39.45833
92.429	48.79167
96.628	34.45833
100.823	51.45833
105.015	49.125
109.204	46.79167
113.388	53.45833
117.57	41.125
121.748	61.125
125.922	45.45833
130.093	67.45833
134.261	61.45833
138.425	50.125
142.585	86.125
146.742	61.45833
150.896	76.45833
155.046	74.45833
159.193	103.79167
163.336	145.125
167.476	253.79167
171.613	451.45833
175.746	718.45833
179.875	1046.79167
184.002	1369.45833
188.124	1614.125
192.244	1687.79167
196.36	1708.45833
200.472	1703.79167
204.581	1680.45833
208.687	1624.79167
212.79	1618.79167
216.889	1654.79167
220.984	1653.125
225.077	1679.125
229.165	1695.79167
233.251	1693.45833
237.333	1703.79167
241.412	1671.125
245.487	1674.45833
249.559	1643.79167
253.628	1655.45833
257.694	1635.125
261.756	1618.125
265.814	1595.79167
269.87	1547.79167
273.922	1504.125
277.97	1495.45833
282.016	1482.79167
286.058	1437.45833
290.097	1496.79167
294.132	1497.79167
298.164	1498.125
302.193	1425.45833
306.219	1354.79167
310.241	1274.125
314.26	1188.79167
318.276	1126.125
322.288	1122.125
326.297	1076.79167
330.303	1042.125
334.305	1030.79167
338.305	1018.79167
342.301	1008.79167
346.294	1012.125
350.283	998.79167
354.269	988.125
358.252	980.45833
362.232	981.45833
366.209	1001.45833
370.182	967.45833
374.152	981.79167
378.119	980.125
382.083	967.79167
386.043	980.125
390	978.125
393.954	979.79167
397.905	988.45833
401.852	998.79167
405.797	974.79167
409.738	971.79167
413.676	992.45833
417.61	999.45833
421.542	982.45833
425.47	964.125
429.396	954.125
433.318	953.79167
437.236	961.125
441.152	984.79167
445.065	941.125
448.974	951.45833
452.88	949.79167
456.783	945.45833
460.683	930.45833
464.58	948.45833
468.473	940.45833
472.364	936.79167
476.251	955.45833
480.135	943.125
484.016	961.79167
487.894	971.45833
491.769	971.125
495.641	969.125
499.509	962.79167
503.375	974.45833
507.237	959.79167
511.096	960.79167
514.952	971.45833
518.805	969.125
522.655	969.79167
526.502	968.79167
530.346	958.79167
534.187	965.45833
538.024	960.45833
541.859	950.79167
545.69	965.45833
549.519	974.79167
553.344	958.45833
557.166	934.79167
560.985	942.125
564.802	938.125
568.615	921.79167
572.425	912.125
576.232	908.45833
580.036	906.79167
583.836	925.79167
587.634	926.125
591.429	897.79167
595.221	944.45833
599.01	927.45833
602.796	924.45833
606.578	934.125
610.358	941.125
614.135	932.45833
617.909	935.79167
621.679	915.79167
625.447	907.125
629.212	923.79167
632.973	921.125
636.732	913.45833
640.488	927.125
644.241	904.45833
647.991	906.125
651.737	928.125
655.481	896.125
659.222	904.79167
662.96	903.125
666.695	917.45833
670.427	911.79167
674.156	923.45833
677.882	914.125
681.605	913.125
685.325	900.45833
689.043	927.45833
692.757	908.79167
696.468	910.79167
700.177	917.79167
703.882	883.45833
707.585	877.79167
711.284	887.79167
714.981	872.125
718.675	874.79167
722.366	889.125
726.054	872.45833
729.739	888.45833
733.421	880.125
737.1	886.45833
740.777	887.79167
744.45	884.79167
748.121	896.125
751.789	927.79167
755.453	900.79167
759.115	897.125
762.774	896.125
766.431	904.125
770.084	914.45833
773.734	899.125
777.382	925.45833
781.027	918.79167
784.669	923.45833
788.308	913.125
791.944	930.79167
795.577	952.45833
799.208	923.79167
802.835	940.125
806.46	945.125
810.082	947.79167
813.701	937.45833
817.317	956.125
820.931	962.125
824.542	964.79167
828.149	934.79167
831.754	935.125
835.357	923.79167
838.956	942.125
842.553	931.125
846.146	905.125
849.737	883.45833
853.326	913.79167
856.911	881.79167
860.493	911.125
864.073	917.125
867.65	928.79167
871.225	931.79167
874.796	916.125
878.365	924.125
881.931	926.79167
885.494	933.45833
889.054	920.125
892.612	931.125
896.166	908.45833
899.719	902.125
903.268	892.125
906.814	904.45833
910.358	883.45833
913.899	874.125
917.438	884.79167
920.973	853.45833
924.506	864.45833
928.036	897.45833
931.564	910.79167
935.088	923.125
938.61	907.79167
942.129	902.45833
945.646	922.45833
949.16	932.79167
952.671	930.45833
956.179	951.45833
959.685	934.45833
963.188	954.45833
966.688	930.45833
970.185	909.45833
973.68	891.45833
977.173	889.79167
980.662	861.45833
984.149	866.125
987.633	853.125
991.114	863.79167
994.593	879.45833
998.069	909.45833
1001.542	906.79167
1005.013	917.125
1008.481	855.79167
1011.947	850.79167
1015.409	836.79167
1018.869	842.79167
1022.327	850.45833
1025.782	824.45833
1029.234	811.45833
1032.683	813.45833
1036.13	810.45833
1039.574	764.45833
1043.016	765.79167
1046.455	750.125
1049.891	739.79167
1053.325	743.79167
1056.756	740.125
1060.184	756.79167
1063.61	727.125
1067.033	754.45833
1070.454	751.125
1073.872	768.79167
1077.287	736.79167
1080.7	746.125
1084.11	740.79167
1087.517	748.125
1090.922	739.45833
1094.325	719.45833
1097.724	714.79167
1101.122	717.125
1104.516	712.79167
1107.908	710.125
1111.298	715.45833
1114.684	722.45833
1118.069	708.79167
1121.45	739.125
1124.83	729.125
1128.206	738.45833
1131.58	740.45833
1134.951	759.125
1138.32	774.79167
1141.687	797.45833
1145.05	811.125
1148.412	799.45833
1151.77	800.45833
1155.126	794.45833
1158.48	800.79167
1161.831	792.45833
1165.18	791.45833
1168.525	808.125
1171.869	814.79167
1175.21	807.125
1178.548	824.45833
1181.884	833.125
1185.217	838.125
1188.548	860.45833
1191.877	867.45833
1195.202	901.125
1198.526	911.79167
1201.846	917.125
1205.165	910.45833
1208.48	917.45833
1211.794	918.45833
1215.104	917.125
1218.413	900.79167
1221.719	903.125
1225.022	895.45833
1228.323	865.125
1231.621	884.79167
1234.917	875.45833
1238.21	893.45833
1241.501	872.79167
1244.79	872.125
1248.076	851.125
1251.359	872.125
1254.64	915.45833
1257.919	874.79167
1261.195	891.125
1264.468	914.125
1267.74	917.125
1271.008	923.45833
1274.275	916.125
1277.538	904.45833
1280.8	897.45833
1284.059	905.45833
1287.315	915.45833
1290.569	915.125
1293.821	919.125
1297.07	939.125
1300.317	931.79167
1303.562	943.125
1306.803	921.125
1310.043	917.79167
1313.28	925.79167
1316.515	914.125
1319.747	912.45833
1322.977	901.125
1326.204	885.45833
1329.429	883.79167
1332.652	886.45833
1335.872	873.45833
1339.09	862.45833
1342.306	864.125
1345.519	866.45833
1348.729	853.45833
1351.938	859.45833
1355.144	851.79167
1358.347	839.45833
1361.548	850.125
1364.747	849.45833
1367.944	822.125
1371.138	836.125
1374.329	833.125
1377.518	839.125
1380.705	835.79167
1383.89	836.45833
1387.072	804.45833
1390.252	786.125
1393.429	770.79167
1396.605	752.45833
1399.777	724.125
1402.948	713.79167
1406.116	714.45833
1409.282	713.45833
1412.445	706.125
1415.606	717.45833
1418.765	715.79167
1421.921	728.125
1425.075	734.125
1428.227	749.79167
1431.376	794.79167
1434.524	795.45833
1437.668	828.125
1440.811	827.79167
1443.951	839.45833
1447.089	842.45833
1450.224	833.125
1453.357	828.45833
1456.488	831.79167
1459.617	828.125
1462.743	812.45833
1465.867	779.79167
1468.989	783.79167
1472.108	766.79167
1475.225	751.45833
1478.34	754.45833
1481.453	752.79167
1484.563	740.125
1487.671	751.45833
1490.776	757.125
1493.88	762.79167
1496.981	773.79167
1500.08	790.45833
1503.176	788.45833
1506.271	790.45833
1509.363	807.45833
1512.452	798.125
1515.54	811.125
1518.625	820.125
1521.708	849.45833
1524.789	868.79167
1527.867	892.45833
1530.944	928.125
1534.018	941.45833
1537.089	1005.125
1540.159	999.45833
1543.226	999.125
1546.291	987.45833
1549.354	971.45833
1552.415	949.125
1555.473	941.45833
1558.529	920.45833
1561.583	914.125
1564.634	904.79167
1567.684	911.125
1570.731	908.125
1573.776	907.79167
1576.819	921.79167
1579.859	921.79167
1582.898	927.79167
1585.934	955.125
1588.968	951.45833
1591.999	932.125
1595.029	934.45833
1598.056	939.45833
1601.081	962.125
1604.104	966.79167
1607.125	932.125
1610.144	929.45833
1613.16	895.45833
1616.174	892.45833
1619.186	864.45833
1622.196	851.45833
1625.203	830.125
1628.209	835.79167
1631.212	816.45833
1634.213	837.125
1637.212	831.125
1640.209	839.45833
1643.203	806.125
1646.196	775.79167
1649.186	752.45833
1652.174	752.79167
1655.16	712.45833
1658.144	707.125
1661.125	671.79167
1664.105	659.79167
1667.082	620.125
1670.057	593.125
1673.03	560.125
1676.001	538.125
1678.97	504.45833
1681.937	484.45833
1684.901	460.79167
1687.863	459.79167
1690.824	427.125
1693.782	436.79167
1696.738	403.45833
1699.692	410.79167
1702.643	390.45833
1705.593	391.79167
1708.54	388.45833
1711.486	398.45833
1714.429	376.45833
1717.37	389.125
1720.309	375.79167
1723.246	382.125
1726.181	360.79167
1729.113	355.125
1732.044	372.79167
1734.972	363.125
1737.899	374.45833
1740.823	375.79167
1743.745	394.125
1746.665	356.125
1749.583	350.45833
1752.499	346.125
1755.413	343.45833
1758.325	326.125
1761.235	334.45833
1764.142	328.125
1767.048	323.79167
1769.951	329.79167
1772.852	329.79167
1775.752	327.79167
1778.649	326.45833
1781.544	341.45833
1784.437	312.79167
1787.328	326.125
1790.217	317.79167
1793.104	295.45833
1795.989	307.79167
1798.872	304.125
1801.753	324.45833
1804.631	309.45833
1807.508	311.125
1810.383	307.79167
1813.255	312.125
1816.126	301.125
1818.994	294.79167
1821.861	297.125
1824.725	304.79167
1827.587	304.125
1830.448	300.125
1833.306	291.79167
1836.162	306.79167
1839.017	289.45833
1841.869	298.45833
1844.719	292.45833
1847.567	277.79167
1850.414	274.125
1853.258	278.125
1856.1	299.125
1858.94	293.45833
1861.778	291.45833
1864.614	282.125
1867.448	293.45833
1870.28	274.79167
1873.111	293.79167
1875.939	282.79167
1878.765	300.45833
1881.589	281.45833
1884.411	277.45833
1887.231	287.79167
1890.049	280.79167
1892.865	286.45833
1895.68	276.125
1898.492	284.45833
1901.302	273.125
1904.11	268.45833
1906.916	274.79167
1909.721	271.125
1912.523	284.125
1915.323	268.45833
1918.122	263.125
1920.918	279.45833
1923.712	262.45833
1926.505	268.125
1929.295	256.45833
1932.084	271.125
1934.87	269.125
1937.655	259.125
1940.438	253.79167
1943.218	259.125
1945.997	261.125
1948.774	267.79167
1951.549	268.125
1954.322	263.125
1957.093	264.79167
1959.862	253.45833
1962.629	255.45833
1965.394	254.79167
1968.157	246.79167
1970.918	262.79167
1973.678	251.125
1976.435	259.79167
1979.19	254.125
1981.944	237.45833
1984.696	248.79167
1987.445	246.45833
1990.193	241.45833
1992.939	269.79167
1995.683	255.45833
1998.425	236.79167
2001.165	262.79167
2003.903	233.45833
2006.639	243.79167
2009.374	244.79167
2012.106	245.79167
2014.837	221.125
2017.566	249.79167
2020.292	243.45833
2023.017	230.125
2025.74	234.125
2028.461	227.79167
2031.18	234.45833
2033.898	231.79167
2036.613	232.45833
2039.327	235.79167
2042.038	231.125
2044.748	237.125
2047.456	233.45833
2050.162	217.45833
2052.866	222.45833
2055.568	238.45833
2058.268	222.79167
2060.967	233.79167
2063.663	217.125
2066.358	220.79167
2069.051	214.45833
2071.742	227.79167
2074.431	238.79167
2077.118	227.79167
2079.804	210.45833
2082.487	220.79167
2085.169	232.45833
2087.849	249.125
2090.527	214.125
2093.203	229.45833
2095.877	223.125
2098.55	231.79167
2101.22	229.125
2103.889	232.45833
2106.556	227.45833
2109.221	238.125
2111.884	225.79167
2114.546	251.45833
2117.205	251.79167
2119.863	279.79167
2122.519	269.79167
2125.173	286.125
2127.825	312.79167
2130.475	316.125
2133.124	299.125
2135.771	285.125
2138.416	286.79167
2141.059	268.79167
2143.7	267.79167
2146.339	251.45833
2148.977	232.125
2151.613	241.45833
2154.247	237.125
2156.879	232.125
2159.51	221.79167
2162.138	219.79167
2164.765	218.79167
2167.39	209.125
2170.013	234.125
2172.634	218.79167
2175.254	210.79167
2177.872	247.45833
2180.488	203.79167
2183.102	210.125
2185.714	209.79167
2188.325	198.125
2190.934	207.45833
2193.541	209.79167
2196.146	196.45833
2198.75	189.125
2201.351	198.45833
2203.951	187.45833
2206.549	205.45833
2209.146	193.125
2211.74	185.45833
2214.333	197.79167
2216.924	180.79167
2219.514	190.79167
2222.101	185.125
2224.687	201.79167
2227.271	183.45833
2229.853	184.79167
2232.433	165.79167
2235.012	195.125
2237.589	182.45833
2240.164	199.125
2242.738	179.125
2245.309	172.125
2247.879	198.45833
2250.448	187.125
2253.014	177.79167
2255.579	168.79167
2258.142	180.125
2260.703	169.45833
2263.262	174.79167
2265.82	159.79167
2268.376	187.79167
2270.93	170.45833
2273.483	162.45833
2276.033	182.79167
2278.583	168.79167
2281.13	167.45833
2283.675	161.79167
2286.219	163.125
2288.761	176.125
2291.302	173.125
2293.841	179.45833
2296.377	155.79167
2298.913	168.45833
2301.446	179.45833
2303.978	169.79167
2306.508	171.125
2309.037	173.125
2311.563	166.45833
2314.088	165.79167
2316.612	148.125
2319.133	170.79167
2321.653	172.79167
2324.171	163.125
2326.688	174.125
2329.202	163.45833
2331.715	168.45833
2334.227	160.79167
2336.736	165.79167
2339.244	160.45833
2341.751	153.79167
2344.255	162.45833
2346.758	160.45833
2349.259	152.125
2351.759	160.45833
2354.257	152.45833
2356.753	147.79167
2359.247	153.45833
2361.74	157.125
2364.231	153.45833
2366.721	164.45833
2369.209	152.45833
2371.695	153.125
2374.179	152.79167
2376.662	144.79167
2379.143	172.125
2381.622	154.125
2384.1	155.79167
2386.576	153.45833
2389.051	165.79167
2391.524	169.125
2393.995	156.125
2396.464	151.79167
2398.932	149.45833
2401.398	151.79167
2403.863	146.79167
2406.325	148.45833
2408.787	150.45833
2411.246	149.125
2413.704	146.125
2416.16	145.125
2418.615	150.125
2421.068	148.45833
2423.519	145.125
2425.969	136.79167
2428.417	154.79167
2430.863	171.79167
2433.308	152.79167
2435.751	148.45833
2438.193	149.45833
2440.633	154.79167
2443.071	155.45833
2445.508	143.79167
2447.943	149.79167
2450.376	142.45833
2452.808	149.79167
2455.238	132.79167
2457.667	165.79167
2460.093	134.45833
2462.519	131.79167
2464.942	133.45833
2467.365	145.45833
2469.785	143.125
2472.204	140.125
2474.621	140.45833
2477.037	161.125
2479.451	131.45833
2481.863	128.45833
2484.274	130.45833
2486.683	133.79167
2489.091	152.125
2491.497	137.79167
2493.901	142.45833
2496.304	134.45833
2498.705	144.45833
2501.105	139.125
2503.503	155.45833
2505.899	132.125
2508.294	152.45833
2510.687	134.45833
2513.079	133.45833
2515.469	128.79167
2517.858	129.125
2520.245	146.79167
2522.63	136.79167
2525.014	131.125
2527.396	131.45833
2529.776	131.125
2532.156	144.79167
2534.533	129.45833
2536.909	129.45833
2539.283	114.79167
2541.656	133.125
2544.027	143.45833
2546.397	137.45833
2548.765	128.79167
2551.131	140.45833
2553.496	139.125
2555.86	137.79167
2558.221	140.125
2560.582	126.45833
2562.94	122.125
2565.298	132.79167
2567.653	149.125
2570.007	121.125
2572.36	137.79167
2574.711	126.45833
2577.06	144.125
2579.408	129.45833
2581.754	126.79167
2584.099	124.79167
2586.442	123.45833
2588.784	131.45833
2591.124	134.79167
2593.463	127.125
2595.8	135.45833
2598.135	121.79167
2600.469	123.125
2602.802	134.125
2605.133	138.45833
2607.462	123.45833
2609.79	115.125
2612.116	137.45833
2614.441	127.125
2616.764	130.125
2619.086	121.79167
2621.406	121.125
2623.725	135.125
2626.042	127.45833
2628.358	120.45833
2630.672	131.79167
2632.985	137.125
2635.296	126.45833
2637.606	125.45833
2639.914	123.45833
2642.22	127.79167
2644.525	126.45833
2646.829	132.125
2649.131	138.79167
2651.432	135.79167
2653.731	124.125
2656.028	139.125
2658.324	129.79167
2660.619	117.79167
2662.912	140.45833
2665.204	118.45833
2667.494	134.45833
2669.782	116.45833
2672.07	135.79167
2674.355	140.79167
2676.639	133.45833
2678.922	127.79167
2681.203	133.125
2683.483	122.79167
2685.761	115.45833
2688.038	134.79167
2690.313	144.125
2692.587	131.79167
2694.859	126.79167
2697.13	127.45833
2699.399	131.79167
2701.667	139.45833
2703.933	133.125
2706.198	137.125
2708.461	141.79167
2710.723	140.125
2712.984	130.125
2715.243	140.79167
2717.5	128.79167
2719.757	136.79167
2722.011	130.79167
2724.264	139.79167
2726.516	144.79167
2728.766	123.45833
2731.015	134.125
2733.262	130.45833
2735.508	130.45833
2737.753	136.45833
2739.996	122.79167
2742.237	127.79167
2744.477	138.79167
2746.716	145.79167
2748.953	138.45833
2751.189	141.45833
2753.423	140.125
2755.656	126.79167
2757.887	122.79167
2760.117	127.45833
2762.346	128.45833
2764.573	118.79167
2766.798	123.125
2769.022	128.45833
2771.245	120.125
2773.467	128.45833
2775.686	121.79167
2777.905	130.45833
2780.122	125.45833
2782.337	133.125
2784.552	120.45833
2786.764	130.125
2788.976	123.45833
2791.186	132.125
2793.394	126.45833
2795.601	141.45833
2797.807	140.79167
2800.011	140.125
2802.214	142.45833
2804.415	140.125
2806.615	135.79167
2808.814	142.125
2811.011	142.125
2813.206	142.125
2815.401	151.125
2817.594	148.79167
2819.785	152.79167
2821.975	140.125
2824.164	140.125
2826.351	138.45833
2828.537	158.125
2830.722	160.125
2832.905	145.45833
2835.086	151.79167
2837.267	168.79167
2839.445	164.79167
2841.623	172.125
2843.799	167.45833
2845.974	174.45833
2848.147	173.79167
2850.319	185.45833
2852.489	194.79167
2854.659	199.79167
2856.826	195.79167
2858.993	218.125
2861.158	190.79167
2863.321	200.79167
2865.483	219.125
2867.644	206.79167
2869.804	204.125
2871.962	209.125
2874.118	205.125
2876.274	208.79167
2878.428	206.79167
2880.58	211.125
2882.731	208.79167
2884.881	204.79167
2887.03	207.125
2889.177	209.45833
2891.322	210.45833
2893.467	206.79167
2895.61	202.79167
2897.751	224.125
2899.892	210.45833
2902.03	209.45833
2904.168	212.79167
2906.304	208.125
2908.439	228.45833
2910.572	207.45833
2912.704	211.125
2914.835	224.125
2916.965	227.79167
2919.093	235.79167
2921.219	202.45833
2923.345	236.45833
2925.469	215.45833
2927.591	214.45833
2929.712	204.125
2931.832	206.79167
2933.951	202.45833
2936.068	197.125
2938.184	199.125
2940.299	192.45833
2942.412	190.79167
2944.524	168.45833
2946.634	182.79167
2948.744	159.45833
2950.851	196.45833
2952.958	163.45833
2955.063	171.125
2957.167	168.79167
2959.269	155.45833
2961.371	186.125
2963.471	149.125
2965.569	170.45833
2967.666	145.45833
2969.762	147.45833
2971.857	139.45833
2973.95	138.125
2976.042	151.45833
2978.133	139.125
2980.222	140.125
2982.31	124.125
2984.396	118.79167
2986.482	123.79167
2988.566	129.79167
2990.648	126.125
2992.73	118.79167
2994.81	106.125
2996.889	126.45833
2998.966	123.79167
3001.042	134.125
3003.117	118.79167
3005.191	124.79167
3007.263	126.125
3009.334	120.79167
3011.403	125.79167
3013.472	115.125
3015.539	135.125
3017.604	139.45833
3019.669	106.79167
3021.732	115.45833
3023.794	119.45833
3025.854	107.79167
3027.914	105.125
3029.971	106.125
3032.028	112.79167
3034.083	116.79167
3036.137	117.125
3038.19	105.125
3040.242	97.79167
3042.292	95.79167
3044.341	102.125
3046.388	117.125
3048.435	92.79167
3050.48	110.45833
3052.524	100.79167
3054.566	89.45833
3056.607	97.79167
3058.647	93.45833
3060.686	86.79167
3062.723	81.125
3064.759	88.125
3066.794	1.45833
3068.828	1.125
3070.86	3.79167
