-0.839	434.41667
3.438	513.08333
7.711	155.41667
11.981	63.08333
16.247	45.75
20.509	51.75
24.768	46.08333
29.024	55.75
33.276	46.75
37.524	55.41667
41.769	48.08333
46.01	33.75
50.247	50.75
54.481	57.08333
58.712	62.41667
62.939	47.41667
67.162	65.75
71.382	57.75
75.599	45.08333
79.812	64.75
84.021	81.75
88.227	61.08333
92.429	63.41667
96.628	53.08333
100.823	71.41667
105.015	77.75
109.204	68.08333
113.388	77.41667
117.57	75.75
121.748	85.41667
125.922	80.41667
130.093	98.08333
134.261	99.08333
138.425	99.41667
142.585	135.41667
146.742	126.75
150.896	157.75
155.046	192.75
159.193	304.08333
163.336	509.08333
167.476	921.08333
171.613	1684.75
175.746	2810.08333
179.875	4151.08333
184.002	5460.08333
188.124	6396.41667
192.244	6800.75
196.36	6859.08333
200.472	6765.41667
204.581	6689.75
208.687	6555.41667
212.79	6544.08333
216.889	6585.08333
220.984	6682.08333
225.077	6762.08333
229.165	6796.75
233.251	6862.08333
237.333	6901.08333
241.412	6869.75
245.487	6788.41667
249.559	6771.08333
253.628	6705.75
257.694	6648.08333
261.756	6613.41667
265.814	6460.08333
269.87	6282.41667
273.922	6039.41667
277.97	5838.41667
282.016	5616.75
286.058	5581.41667
290.097	5537.08333
294.132	5592.75
298.164	5577.75
302.193	5400.75
306.219	5064.75
310.241	4654.41667
314.26	4326.41667
318.276	4002.75
322.288	3813.08333
326.297	3628.08333
330.303	3555.41667
334.305	3460.75
338.305	3391.41667
342.301	3341.75
346.294	3340.08333
350.283	3310.41667
354.269	3311.08333
358.252	3278.41667
362.232	3270.75
366.209	3257.75
370.182	3202.75
374.152	3202.75
378.119	3214.41667
382.083	3197.41667
386.043	3224.75
390	3171.41667
393.954	3206.75
397.905	3194.41667
401.852	3182.41667
405.797	3163.41667
409.738	3173.41667
413.676	3158.08333
417.61	3179.08333
421.542	3157.08333
425.47	3087.08333
429.396	3068.08333
433.318	3033.41667
437.236	3033.08333
441.152	3085.75
445.065	3010.08333
448.974	3047.75
452.88	3001.41667
456.783	2963.75
460.683	2941.41667
464.58	2968.41667
468.473	2953.41667
472.364	2984.08333
476.251	2972.75
480.135	2999.75
484.016	3019.41667
487.894	3037.08333
491.769	3041.75
495.641	3065.41667
499.509	3050.08333
503.375	3059.41667
507.237	3047.08333
511.096	3066.08333
514.952	3142.41667
518.805	3184.75
522.655	3209.75
526.502	3098.75
530.346	3036.08333
534.187	3044.41667
538.024	3042.41667
541.859	3066.41667
545.69	3060.41667
549.519	3051.08333
553.344	3013.08333
557.166	2990.41667
560.985	2941.75
564.802	2907.41667
568.615	2850.41667
572.425	2820.41667
576.232	2817.41667
580.036	2795.41667
583.836	2789.41667
587.634	2819.41667
591.429	2831.08333
595.221	2883.75
599.01	2914.08333
602.796	2925.08333
606.578	2952.75
610.358	2966.41667
614.135	2946.75
617.909	2939.08333
621.679	2897.41667
625.447	2839.75
629.212	2864.41667
632.973	2879.41667
636.732	2863.08333
640.488	2865.75
644.241	2837.75
647.991	2849.08333
651.737	2851.75
655.481	2882.08333
659.222	2870.41667
662.96	2868.75
666.695	2887.41667
670.427	2889.41667
674.156	2894.75
677.882	2855.41667
681.605	2861.41667
685.325	2833.75
689.043	2808.75
692.757	2786.08333
696.468	2786.41667
700.177	2804.08333
703.882	2768.08333
707.585	2745.75
711.284	2738.08333
714.981	2749.41667
718.675	2754.41667
722.366	2761.08333
726.054	2726.08333
729.739	2734.41667
733.421	2747.41667
737.1	2737.08333
740.777	2762.75
744.45	2753.08333
748.121	2767.08333
751.789	2833.08333
755.453	2831.75
759.115	2849.75
762.774	2855.75
766.431	2880.08333
770.084	2924.08333
773.734	2948.08333
777.382	2999.41667
781.027	3026.41667
784.669	3010.08333
788.308	3026.41667
791.944	3059.41667
795.577	3056.41667
799.208	3058.75
802.835	3065.75
806.46	3125.08333
810.082	3151.75
813.701	3195.75
817.317	3192.75
820.931	3179.08333
824.542	3199.75
828.149	3157.08333
831.754	3106.08333
835.357	3060.41667
838.956	3076.75
842.553	3065.41667
846.146	3068.08333
849.737	3005.41667
853.326	3024.08333
856.911	3031.08333
860.493	3036.75
864.073	3071.08333
867.65	3107.41667
871.225	3176.08333
874.796	3139.41667
878.365	3136.75
881.931	3158.75
885.494	3176.75
889.054	3175.75
892.612	3182.75
896.166	3140.41667
899.719	3130.75
903.268	3082.41667
906.814	3068.75
910.358	3045.08333
913.899	3023.41667
917.438	3049.75
920.973	3004.75
924.506	3062.08333
928.036	3142.75
931.564	3169.08333
935.088	3190.08333
938.61	3191.08333
942.129	3237.75
945.646	3303.41667
949.16	3342.75
952.671	3404.75
956.179	3423.08333
959.685	3427.75
963.188	3454.75
966.688	3411.75
970.185	3307.08333
973.68	3210.08333
977.173	3146.08333
980.662	3110.41667
984.149	3095.75
987.633	3080.41667
991.114	3105.75
994.593	3159.08333
998.069	3268.08333
1001.542	3346.08333
1005.013	3299.08333
1008.481	3141.08333
1011.947	3047.41667
1015.409	3041.08333
1018.869	3030.41667
1022.327	3046.75
1025.782	3030.41667
1029.234	3023.08333
1032.683	2960.75
1036.13	2868.75
1039.574	2769.41667
1043.016	2720.08333
1046.455	2646.75
1049.891	2602.75
1053.325	2628.08333
1056.756	2652.08333
1060.184	2659.75
1063.61	2668.75
1067.033	2683.41667
1070.454	2659.75
1073.872	2700.08333
1077.287	2670.08333
1080.7	2696.41667
1084.11	2676.41667
1087.517	2652.08333
1090.922	2612.08333
1094.325	2587.75
1097.724	2559.75
1101.122	2580.41667
1104.516	2549.41667
1107.908	2555.08333
1111.298	2593.75
1114.684	2641.75
1118.069	2660.41667
1121.45	2723.41667
1124.83	2695.41667
1128.206	2738.41667
1131.58	2764.75
1134.951	2822.75
1138.32	2901.41667
1141.687	3009.08333
1145.05	3093.41667
1148.412	3130.75
1151.77	3119.41667
1155.126	3121.75
1158.48	3093.08333
1161.831	3124.41667
1165.18	3140.75
1168.525	3181.41667
1171.869	3222.08333
1175.21	3240.41667
1178.548	3227.41667
1181.884	3249.08333
1185.217	3294.41667
1188.548	3377.41667
1191.877	3447.08333
1195.202	3539.75
1198.526	3599.41667
1201.846	3583.75
1205.165	3582.75
1208.48	3566.41667
1211.794	3529.75
1215.104	3507.75
1218.413	3530.75
1221.719	3496.75
1225.022	3429.08333
1228.323	3382.08333
1231.621	3373.08333
1234.917	3325.41667
1238.21	3358.08333
1241.501	3323.41667
1244.79	3317.08333
1248.076	3331.08333
1251.359	3348.75
1254.64	3422.41667
1257.919	3449.08333
1261.195	3500.41667
1264.468	3563.75
1267.74	3621.08333
1271.008	3608.75
1274.275	3609.75
1277.538	3602.75
1280.8	3590.75
1284.059	3589.75
1287.315	3588.08333
1290.569	3614.41667
1293.821	3617.41667
1297.07	3669.75
1300.317	3667.08333
1303.562	3644.41667
1306.803	3657.08333
1310.043	3626.41667
1313.28	3596.41667
1316.515	3577.08333
1319.747	3559.75
1322.977	3534.41667
1326.204	3516.41667
1329.429	3455.75
1332.652	3475.08333
1335.872	3438.41667
1339.09	3385.75
1342.306	3367.41667
1345.519	3319.41667
1348.729	3304.08333
1351.938	3286.41667
1355.144	3252.41667
1358.347	3175.75
1361.548	3134.41667
1364.747	3156.41667
1367.944	3128.08333
1371.138	3121.41667
1374.329	3101.75
1377.518	3111.41667
1380.705	3149.75
1383.89	3137.75
1387.072	3029.41667
1390.252	2940.08333
1393.429	2841.75
1396.605	2758.08333
1399.777	2651.41667
1402.948	2632.08333
1406.116	2607.75
1409.282	2594.75
1412.445	2578.41667
1415.606	2619.41667
1418.765	2634.41667
1421.921	2686.08333
1425.075	2733.08333
1428.227	2835.75
1431.376	2935.75
1434.524	3053.41667
1437.668	3135.75
1440.811	3204.41667
1443.951	3205.75
1447.089	3233.75
1450.224	3247.08333
1453.357	3216.75
1456.488	3207.41667
1459.617	3147.41667
1462.743	3115.41667
1465.867	3045.08333
1468.989	2987.41667
1472.108	2962.08333
1475.225	2940.41667
1478.34	2911.75
1481.453	2910.08333
1484.563	2916.41667
1487.671	2975.08333
1490.776	2998.41667
1493.88	3044.08333
1496.981	3076.75
1500.08	3110.41667
1503.176	3164.75
1506.271	3208.75
1509.363	3256.08333
1512.452	3283.41667
1515.54	3287.75
1518.625	3358.75
1521.708	3416.75
1524.789	3536.75
1527.867	3702.75
1530.944	3845.41667
1534.018	4003.75
1537.089	4092.08333
1540.159	4147.75
1543.226	4127.08333
1546.291	4037.41667
1549.354	3938.41667
1552.415	3876.41667
1555.473	3800.75
1558.529	3731.41667
1561.583	3692.08333
1564.634	3674.41667
1567.684	3706.08333
1570.731	3724.08333
1573.776	3770.41667
1576.819	3823.08333
1579.859	3899.75
1582.898	3955.41667
1585.934	3984.08333
1588.968	3994.41667
1591.999	3985.41667
1595.029	3992.08333
1598.056	3978.08333
1601.081	4011.75
1604.104	3974.41667
1607.125	3944.75
1610.144	3891.08333
1613.16	3774.75
1616.174	3703.75
1619.186	3660.41667
1622.196	3532.08333
1625.203	3479.08333
1628.209	3462.41667
1631.212	3423.08333
1634.213	3461.08333
1637.212	3466.41667
1640.209	3422.41667
1643.203	3325.41667
1646.196	3226.75
1649.186	3025.75
1652.174	2891.75
1655.16	2778.08333
1658.144	2699.41667
1661.125	2546.75
1664.105	2418.41667
1667.082	2309.75
1670.057	2176.08333
1673.03	2069.08333
1676.001	1946.08333
1678.97	1836.41667
1681.937	1703.41667
1684.901	1619.41667
1687.863	1564.08333
1690.824	1483.08333
1693.782	1466.08333
1696.738	1390.08333
1699.692	1380.75
1702.643	1347.08333
1705.593	1319.75
1708.54	1306.75
1711.486	1313.08333
1714.429	1269.41667
1717.37	1255.75
1720.309	1244.08333
1723.246	1241.75
1726.181	1218.75
1729.113	1216.75
1732.044	1198.41667
1734.972	1190.41667
1737.899	1194.75
1740.823	1185.41667
1743.745	1193.75
1746.665	1134.75
1749.583	1109.75
1752.499	1098.41667
1755.413	1092.08333
1758.325	1056.75
1761.235	1069.75
1764.142	1057.08333
1767.048	1021.08333
1769.951	1039.41667
1772.852	1032.41667
1775.752	1033.08333
1778.649	1043.08333
1781.544	1033.41667
1784.437	986.08333
1787.328	1007.75
1790.217	992.08333
1793.104	966.75
1795.989	989.08333
1798.872	961.08333
1801.753	979.75
1804.631	965.75
1807.508	982.75
1810.383	966.75
1813.255	969.08333
1816.126	951.08333
1818.994	967.41667
1821.861	946.75
1824.725	929.41667
1827.587	943.75
1830.448	933.41667
1833.306	904.41667
1836.162	916.41667
1839.017	922.75
1841.869	904.41667
1844.719	899.75
1847.567	892.75
1850.414	884.41667
1853.258	889.41667
1856.1	913.75
1858.94	892.08333
1861.778	905.41667
1864.614	888.08333
1867.448	899.08333
1870.28	879.75
1873.111	899.75
1875.939	890.08333
1878.765	885.75
1881.589	869.08333
1884.411	876.41667
1887.231	885.75
1890.049	866.08333
1892.865	867.75
1895.68	859.75
1898.492	856.41667
1901.302	859.75
1904.11	861.75
1906.916	850.08333
1909.721	836.75
1912.523	846.41667
1915.323	822.75
1918.122	814.41667
1920.918	843.08333
1923.712	826.75
1926.505	812.08333
1929.295	804.41667
1932.084	837.41667
1934.87	813.75
1937.655	811.41667
1940.438	819.08333
1943.218	815.75
1945.997	821.08333
1948.774	825.41667
1951.549	825.41667
1954.322	816.08333
1957.093	808.75
1959.862	800.41667
1962.629	803.75
1965.394	792.08333
1968.157	779.75
1970.918	786.08333
1973.678	767.41667
1976.435	811.41667
1979.19	776.08333
1981.944	778.75
1984.696	783.75
1987.445	757.41667
1990.193	764.08333
1992.939	788.08333
1995.683	770.41667
1998.425	750.75
2001.165	785.08333
2003.903	758.75
2006.639	755.08333
2009.374	761.08333
2012.106	761.75
2014.837	743.75
2017.566	752.75
2020.292	747.75
2023.017	751.08333
2025.74	748.75
2028.461	742.41667
2031.18	734.75
2033.898	731.41667
2036.613	738.08333
2039.327	743.08333
2042.038	732.75
2044.748	723.41667
2047.456	732.75
2050.162	717.08333
2052.866	719.75
2055.568	737.75
2058.268	717.75
2060.967	715.41667
2063.663	701.75
2066.358	713.41667
2069.051	704.41667
2071.742	707.75
2074.431	717.75
2077.118	708.41667
2079.804	707.41667
2082.487	699.75
2085.169	720.41667
2087.849	735.41667
2090.527	701.08333
2093.203	707.08333
2095.877	728.41667
2098.55	718.08333
2101.22	721.08333
2103.889	725.75
2106.556	720.75
2109.221	724.75
2111.884	727.75
2114.546	753.41667
2117.205	780.41667
2119.863	824.41667
2122.519	848.75
2125.173	899.41667
2127.825	956.75
2130.475	967.41667
2133.124	953.75
2135.771	920.75
2138.416	908.08333
2141.059	850.75
2143.7	837.08333
2146.339	786.41667
2148.977	760.41667
2151.613	763.75
2154.247	740.08333
2156.879	708.75
2159.51	718.08333
2162.138	699.08333
2164.765	696.75
2167.39	680.41667
2170.013	708.75
2172.634	700.08333
2175.254	688.08333
2177.872	708.75
2180.488	670.41667
2183.102	678.41667
2185.714	670.08333
2188.325	642.08333
2190.934	662.75
2193.541	662.41667
2196.146	648.41667
2198.75	631.08333
2201.351	632.75
2203.951	628.08333
2206.549	644.41667
2209.146	633.75
2211.74	630.75
2214.333	632.08333
2216.924	614.41667
2219.514	617.75
2222.101	624.08333
2224.687	633.08333
2227.271	610.75
2229.853	609.08333
2232.433	608.08333
2235.012	624.75
2237.589	620.75
2240.164	626.08333
2242.738	605.75
2245.309	596.75
2247.879	606.41667
2250.448	611.75
2253.014	588.41667
2255.579	575.08333
2258.142	584.08333
2260.703	578.41667
2263.262	580.41667
2265.82	576.08333
2268.376	581.75
2270.93	562.41667
2273.483	561.08333
2276.033	571.41667
2278.583	564.08333
2281.13	561.08333
2283.675	557.41667
2286.219	566.75
2288.761	544.41667
2291.302	555.41667
2293.841	571.08333
2296.377	539.08333
2298.913	548.75
2301.446	560.75
2303.978	548.75
2306.508	542.75
2309.037	545.75
2311.563	552.75
2314.088	548.75
2316.612	526.75
2319.133	542.75
2321.653	542.75
2324.171	528.75
2326.688	542.75
2329.202	530.41667
2331.715	527.41667
2334.227	526.41667
2336.736	537.75
2339.244	525.75
2341.751	517.75
2344.255	537.08333
2346.758	535.41667
2349.259	515.75
2351.759	528.08333
2354.257	522.75
2356.753	517.41667
2359.247	525.41667
2361.74	527.41667
2364.231	517.41667
2366.721	531.08333
2369.209	514.41667
2371.695	521.08333
2374.179	502.75
2376.662	502.08333
2379.143	531.41667
2381.622	518.08333
2384.1	523.75
2386.576	509.41667
2389.051	542.41667
2391.524	536.08333
2393.995	517.41667
2396.464	517.41667
2398.932	519.75
2401.398	512.41667
2403.863	521.41667
2406.325	509.08333
2408.787	511.41667
2411.246	503.75
2413.704	510.75
2416.16	500.08333
2418.615	503.41667
2421.068	529.08333
2423.519	520.08333
2425.969	505.75
2428.417	513.41667
2430.863	523.75
2433.308	524.75
2435.751	520.41667
2438.193	510.41667
2440.633	509.08333
2443.071	519.41667
2445.508	495.41667
2447.943	508.75
2450.376	503.75
2452.808	497.41667
2455.238	504.08333
2457.667	538.75
2460.093	502.75
2462.519	494.08333
2464.942	497.75
2467.365	506.08333
2469.785	515.41667
2472.204	498.08333
2474.621	490.41667
2477.037	518.75
2479.451	479.08333
2481.863	491.75
2484.274	503.75
2486.683	503.08333
2489.091	499.41667
2491.497	503.08333
2493.901	503.08333
2496.304	491.75
2498.705	507.75
2501.105	495.41667
2503.503	524.08333
2505.899	487.75
2508.294	507.75
2510.687	502.41667
2513.079	502.41667
2515.469	490.75
2517.858	496.41667
2520.245	497.75
2522.63	488.41667
2525.014	483.75
2527.396	489.75
2529.776	481.41667
2532.156	505.08333
2534.533	483.75
2536.909	484.75
2539.283	479.75
2541.656	482.75
2544.027	498.75
2546.397	485.75
2548.765	499.75
2551.131	486.08333
2553.496	493.08333
2555.86	501.08333
2558.221	497.41667
2560.582	499.08333
2562.94	486.75
2565.298	500.41667
2567.653	512.41667
2570.007	475.75
2572.36	500.75
2574.711	488.41667
2577.06	507.08333
2579.408	507.08333
2581.754	495.75
2584.099	498.08333
2586.442	492.08333
2588.784	502.75
2591.124	500.41667
2593.463	486.08333
2595.8	498.75
2598.135	484.08333
2600.469	493.08333
2602.802	497.41667
2605.133	504.08333
2607.462	493.41667
2609.79	486.08333
2612.116	505.08333
2614.441	506.41667
2616.764	498.75
2619.086	504.75
2621.406	488.08333
2623.725	516.08333
2626.042	511.41667
2628.358	503.41667
2630.672	490.75
2632.985	521.41667
2635.296	511.08333
2637.606	495.75
2639.914	495.41667
2642.22	511.08333
2644.525	504.08333
2646.829	508.41667
2649.131	518.41667
2651.432	533.41667
2653.731	528.08333
2656.028	527.08333
2658.324	527.08333
2660.619	518.41667
2662.912	527.08333
2665.204	518.41667
2667.494	530.75
2669.782	511.41667
2672.07	519.41667
2674.355	527.41667
2676.639	521.41667
2678.922	509.75
2681.203	520.08333
2683.483	525.75
2685.761	515.41667
2688.038	530.08333
2690.313	536.75
2692.587	526.08333
2694.859	513.75
2697.13	522.41667
2699.399	532.75
2701.667	543.08333
2703.933	533.41667
2706.198	535.41667
2708.461	540.41667
2710.723	543.75
2712.984	543.75
2715.243	558.75
2717.5	546.41667
2719.757	559.41667
2722.011	561.75
2724.264	568.75
2726.516	581.08333
2728.766	559.75
2731.015	562.75
2733.262	562.41667
2735.508	567.75
2737.753	568.08333
2739.996	552.75
2742.237	550.75
2744.477	560.41667
2746.716	564.75
2748.953	558.08333
2751.189	548.08333
2753.423	545.08333
2755.656	544.08333
2757.887	545.41667
2760.117	538.08333
2762.346	547.75
2764.573	528.75
2766.798	537.08333
2769.022	537.75
2771.245	545.41667
2773.467	534.41667
2775.686	556.41667
2777.905	553.08333
2780.122	558.75
2782.337	559.08333
2784.552	545.75
2786.764	560.75
2788.976	559.75
2791.186	558.08333
2793.394	570.08333
2795.601	570.75
2797.807	588.08333
2800.011	581.08333
2802.214	584.41667
2804.415	577.41667
2806.615	591.75
2808.814	584.08333
2811.011	595.75
2813.206	596.08333
2815.401	604.08333
2817.594	610.08333
2819.785	615.75
2821.975	605.08333
2824.164	611.08333
2826.351	627.41667
2828.537	644.75
2830.722	647.75
2832.905	647.08333
2835.086	671.75
2837.267	700.41667
2839.445	719.41667
2841.623	727.41667
2843.799	753.75
2845.974	776.08333
2848.147	808.75
2850.319	835.41667
2852.489	863.08333
2854.659	873.08333
2856.826	868.08333
2858.993	898.75
2861.158	891.08333
2863.321	892.41667
2865.483	910.41667
2867.644	897.75
2869.804	911.08333
2871.962	901.08333
2874.118	907.08333
2876.274	895.41667
2878.428	902.08333
2880.58	905.75
2882.731	901.75
2884.881	896.08333
2887.03	908.08333
2889.177	899.75
2891.322	914.41667
2893.467	906.75
2895.61	911.75
2897.751	933.75
2899.892	928.08333
2902.03	932.08333
2904.168	942.75
2906.304	951.41667
2908.439	962.08333
2910.572	948.75
2912.704	960.75
2914.835	975.41667
2916.965	958.75
2919.093	980.75
2921.219	959.08333
2923.345	975.08333
2925.469	953.75
2927.591	951.75
2929.712	934.41667
2931.832	925.41667
2933.951	912.41667
2936.068	891.75
2938.184	872.08333
2940.299	868.41667
2942.412	842.75
2944.524	818.41667
2946.634	806.75
2948.744	778.08333
2950.851	791.08333
2952.958	754.75
2955.063	765.08333
2957.167	750.08333
2959.269	715.75
2961.371	754.08333
2963.471	720.41667
2965.569	715.08333
2967.666	692.41667
2969.762	679.41667
2971.857	677.75
2973.95	660.75
2976.042	656.08333
2978.133	645.08333
2980.222	636.75
2982.31	611.41667
2984.396	588.75
2986.482	610.08333
2988.566	590.08333
2990.648	603.41667
2992.73	599.08333
2994.81	590.75
2996.889	598.75
2998.966	586.41667
3001.042	589.41667
3003.117	584.08333
3005.191	580.75
3007.263	588.41667
3009.334	582.41667
3011.403	573.41667
3013.472	557.41667
3015.539	558.75
3017.604	565.41667
3019.669	525.75
3021.732	534.08333
3023.794	538.75
3025.854	532.75
3027.914	540.41667
3029.971	527.41667
3032.028	526.41667
3034.083	532.41667
3036.137	522.41667
3038.19	510.08333
3040.242	497.41667
3042.292	491.08333
3044.341	483.41667
3046.388	490.41667
3048.435	470.08333
3050.48	491.08333
3052.524	483.41667
3054.566	455.75
3056.607	469.75
3058.647	462.08333
3060.686	445.08333
3062.723	439.41667
3064.759	421.08333
3066.794	0.08333
3068.828	2.08333
3070.86	2.08333
