-0.839	470.58333
3.438	568.25
7.711	175.91667
11.981	58.91667
16.247	43.91667
20.509	47.25
24.768	44.58333
29.024	57.58333
33.276	42.91667
37.524	50.91667
41.769	45.58333
46.01	31.91667
50.247	46.58333
54.481	56.25
58.712	60.25
62.939	47.25
67.162	64.58333
71.382	59.25
75.599	46.58333
79.812	62.25
84.021	81.58333
88.227	62.25
92.429	59.91667
96.628	51.58333
100.823	73.25
105.015	79.91667
109.204	67.91667
113.388	72.58333
117.57	75.25
121.748	90.25
125.922	78.25
130.093	94.25
134.261	99.25
138.425	96.91667
142.585	138.58333
146.742	128.25
150.896	168.25
155.046	209.91667
159.193	333.25
163.336	553.58333
167.476	1035.25
171.613	1890.25
175.746	3122.25
179.875	4541.58333
184.002	5832.58333
188.124	6708.58333
192.244	6990.91667
196.36	6888.91667
200.472	6723.91667
204.581	6603.25
208.687	6408.58333
212.79	6331.91667
216.889	6324.25
220.984	6338.91667
225.077	6390.91667
229.165	6404.58333
233.251	6428.58333
237.333	6388.91667
241.412	6348.58333
245.487	6295.25
249.559	6220.58333
253.628	6138.25
257.694	6091.58333
261.756	6029.58333
265.814	5861.25
269.87	5666.91667
273.922	5452.25
277.97	5247.91667
282.016	5096.91667
286.058	5035.25
290.097	5024.25
294.132	5001.91667
298.164	4967.58333
302.193	4765.58333
306.219	4463.91667
310.241	4119.58333
314.26	3825.91667
318.276	3619.91667
322.288	3444.58333
326.297	3329.58333
330.303	3235.58333
334.305	3158.25
338.305	3116.25
342.301	3056.58333
346.294	3082.91667
350.283	3035.58333
354.269	3006.91667
358.252	2970.58333
362.232	2978.25
366.209	2954.58333
370.182	2935.91667
374.152	2912.58333
378.119	2934.58333
382.083	2909.58333
386.043	2923.58333
390	2921.58333
393.954	2912.58333
397.905	2916.91667
401.852	2894.58333
405.797	2883.58333
409.738	2883.25
413.676	2921.58333
417.61	2921.91667
421.542	2868.25
425.47	2817.25
429.396	2783.58333
433.318	2757.58333
437.236	2775.58333
441.152	2798.58333
445.065	2738.58333
448.974	2740.91667
452.88	2707.25
456.783	2706.25
460.683	2671.58333
464.58	2667.25
468.473	2675.91667
472.364	2689.91667
476.251	2697.25
480.135	2723.58333
484.016	2753.25
487.894	2760.91667
491.769	2756.25
495.641	2755.25
499.509	2753.25
503.375	2758.25
507.237	2751.58333
511.096	2772.58333
514.952	2780.91667
518.805	2767.25
522.655	2796.25
526.502	2752.91667
530.346	2741.25
534.187	2747.25
538.024	2760.58333
541.859	2761.25
545.69	2789.25
549.519	2772.91667
553.344	2759.91667
557.166	2721.58333
560.985	2690.25
564.802	2677.91667
568.615	2615.58333
572.425	2603.91667
576.232	2587.91667
580.036	2582.91667
583.836	2570.25
587.634	2599.58333
591.429	2608.58333
595.221	2655.91667
599.01	2668.91667
602.796	2689.91667
606.578	2705.91667
610.358	2701.58333
614.135	2691.91667
617.909	2704.25
621.679	2666.58333
625.447	2636.25
629.212	2633.91667
632.973	2633.91667
636.732	2642.58333
640.488	2639.58333
644.241	2629.91667
647.991	2615.58333
651.737	2646.91667
655.481	2611.58333
659.222	2639.25
662.96	2643.58333
666.695	2650.91667
670.427	2637.91667
674.156	2651.91667
677.882	2622.25
681.605	2636.91667
685.325	2607.25
689.043	2594.25
692.757	2560.91667
696.468	2575.58333
700.177	2554.58333
703.882	2544.58333
707.585	2562.25
711.284	2547.25
714.981	2533.58333
718.675	2548.58333
722.366	2545.91667
726.054	2539.91667
729.739	2558.25
733.421	2553.58333
737.1	2544.25
740.777	2557.58333
744.45	2555.58333
748.121	2586.91667
751.789	2650.91667
755.453	2635.25
759.115	2667.91667
762.774	2663.25
766.431	2659.91667
770.084	2704.58333
773.734	2721.58333
777.382	2785.25
781.027	2751.58333
784.669	2808.25
788.308	2804.25
791.944	2826.91667
795.577	2835.58333
799.208	2846.58333
802.835	2865.58333
806.46	2894.91667
810.082	2917.91667
813.701	2940.58333
817.317	2950.25
820.931	2962.25
824.542	2951.25
828.149	2926.58333
831.754	2874.58333
835.357	2855.58333
838.956	2890.25
842.553	2879.58333
846.146	2851.91667
849.737	2828.58333
853.326	2834.91667
856.911	2808.91667
860.493	2848.25
864.073	2878.91667
867.65	2944.25
871.225	2962.58333
874.796	2949.25
878.365	2959.91667
881.931	2960.25
885.494	2986.25
889.054	2974.58333
892.612	2966.58333
896.166	2942.91667
899.719	2916.58333
903.268	2886.25
906.814	2870.58333
910.358	2869.25
913.899	2851.58333
917.438	2834.91667
920.973	2844.58333
924.506	2882.25
928.036	2931.58333
931.564	2944.58333
935.088	2991.91667
938.61	2991.58333
942.129	3035.91667
945.646	3070.25
949.16	3110.58333
952.671	3147.25
956.179	3173.25
959.685	3168.58333
963.188	3209.25
966.688	3188.58333
970.185	3086.58333
973.68	3025.91667
977.173	2949.91667
980.662	2928.91667
984.149	2898.58333
987.633	2904.58333
991.114	2945.91667
994.593	3008.91667
998.069	3091.58333
1001.542	3178.25
1005.013	3167.58333
1008.481	2969.25
1011.947	2907.58333
1015.409	2883.91667
1018.869	2891.91667
1022.327	2884.58333
1025.782	2862.25
1029.234	2861.25
1032.683	2812.25
1036.13	2725.25
1039.574	2641.58333
1043.016	2559.25
1046.455	2517.25
1049.891	2494.91667
1053.325	2482.91667
1056.756	2510.58333
1060.184	2515.25
1063.61	2532.58333
1067.033	2526.91667
1070.454	2531.91667
1073.872	2549.58333
1077.287	2565.58333
1080.7	2579.25
1084.11	2564.25
1087.517	2514.91667
1090.922	2479.25
1094.325	2456.91667
1097.724	2441.91667
1101.122	2458.58333
1104.516	2456.25
1107.908	2442.25
1111.298	2509.25
1114.684	2511.58333
1118.069	2554.25
1121.45	2566.58333
1124.83	2574.25
1128.206	2592.25
1131.58	2611.58333
1134.951	2672.58333
1138.32	2757.58333
1141.687	2810.58333
1145.05	2920.91667
1148.412	2951.91667
1151.77	2949.58333
1155.126	2945.58333
1158.48	2916.25
1161.831	2941.91667
1165.18	2963.58333
1168.525	3009.25
1171.869	3045.91667
1175.21	3063.58333
1178.548	3082.91667
1181.884	3119.91667
1185.217	3117.25
1188.548	3189.25
1191.877	3250.25
1195.202	3326.25
1198.526	3402.25
1201.846	3386.25
1205.165	3395.25
1208.48	3369.91667
1211.794	3364.91667
1215.104	3335.25
1218.413	3345.58333
1221.719	3328.25
1225.022	3293.91667
1228.323	3252.91667
1231.621	3239.25
1234.917	3198.91667
1238.21	3219.91667
1241.501	3194.58333
1244.79	3217.91667
1248.076	3203.25
1251.359	3216.91667
1254.64	3302.25
1257.919	3314.25
1261.195	3380.58333
1264.468	3421.58333
1267.74	3465.91667
1271.008	3470.91667
1274.275	3464.25
1277.538	3431.58333
1280.8	3436.25
1284.059	3417.58333
1287.315	3474.25
1290.569	3472.58333
1293.821	3522.91667
1297.07	3514.58333
1300.317	3521.91667
1303.562	3515.25
1306.803	3486.58333
1310.043	3484.58333
1313.28	3461.25
1316.515	3460.91667
1319.747	3411.25
1322.977	3410.91667
1326.204	3366.25
1329.429	3335.91667
1332.652	3330.91667
1335.872	3282.91667
1339.09	3271.25
1342.306	3255.25
1345.519	3224.91667
1348.729	3206.25
1351.938	3222.25
1355.144	3188.91667
1358.347	3118.91667
1361.548	3089.25
1364.747	3076.91667
1367.944	3052.58333
1371.138	3090.25
1374.329	3081.25
1377.518	3098.25
1380.705	3126.58333
1383.89	3083.58333
1387.072	2991.25
1390.252	2876.25
1393.429	2786.25
1396.605	2723.91667
1399.777	2623.91667
1402.948	2588.25
1406.116	2559.58333
1409.282	2554.91667
1412.445	2534.91667
1415.606	2574.91667
1418.765	2596.58333
1421.921	2645.91667
1425.075	2709.91667
1428.227	2762.91667
1431.376	2908.91667
1434.524	2990.58333
1437.668	3080.58333
1440.811	3140.91667
1443.951	3137.25
1447.089	3162.25
1450.224	3159.25
1453.357	3122.58333
1456.488	3119.58333
1459.617	3077.58333
1462.743	3036.91667
1465.867	2968.25
1468.989	2923.58333
1472.108	2892.91667
1475.225	2840.91667
1478.34	2842.25
1481.453	2827.91667
1484.563	2829.58333
1487.671	2876.58333
1490.776	2919.25
1493.88	2970.58333
1496.981	2992.91667
1500.08	3052.91667
1503.176	3100.58333
1506.271	3144.25
1509.363	3165.58333
1512.452	3220.25
1515.54	3267.25
1518.625	3299.25
1521.708	3382.25
1524.789	3501.25
1527.867	3639.25
1530.944	3799.25
1534.018	3953.25
1537.089	4075.25
1540.159	4100.25
1543.226	4080.25
1546.291	4012.91667
1549.354	3880.58333
1552.415	3832.58333
1555.473	3689.25
1558.529	3676.91667
1561.583	3638.58333
1564.634	3650.25
1567.684	3643.58333
1570.731	3690.91667
1573.776	3723.58333
1576.819	3814.91667
1579.859	3861.58333
1582.898	3890.58333
1585.934	3939.91667
1588.968	3942.91667
1591.999	3929.91667
1595.029	3934.25
1598.056	3928.58333
1601.081	3946.91667
1604.104	3938.25
1607.125	3920.25
1610.144	3824.58333
1613.16	3741.58333
1616.174	3671.58333
1619.186	3612.91667
1622.196	3495.25
1625.203	3427.25
1628.209	3382.25
1631.212	3343.91667
1634.213	3356.91667
1637.212	3388.25
1640.209	3362.91667
1643.203	3301.58333
1646.196	3179.58333
1649.186	3015.91667
1652.174	2897.91667
1655.16	2810.91667
1658.144	2701.58333
1661.125	2564.25
1664.105	2422.58333
1667.082	2310.91667
1670.057	2203.58333
1673.03	2056.58333
1676.001	1945.58333
1678.97	1833.91667
1681.937	1718.91667
1684.901	1626.58333
1687.863	1574.91667
1690.824	1483.58333
1693.782	1481.91667
1696.738	1425.91667
1699.692	1389.58333
1702.643	1350.25
1705.593	1326.91667
1708.54	1317.58333
1711.486	1317.58333
1714.429	1260.91667
1717.37	1277.25
1720.309	1228.25
1723.246	1236.91667
1726.181	1215.25
1729.113	1222.91667
1732.044	1183.58333
1734.972	1187.91667
1737.899	1183.58333
1740.823	1192.91667
1743.745	1192.91667
1746.665	1153.25
1749.583	1120.25
1752.499	1108.91667
1755.413	1096.91667
1758.325	1084.25
1761.235	1075.91667
1764.142	1055.58333
1767.048	1039.25
1769.951	1053.58333
1772.852	1044.25
1775.752	1048.91667
1778.649	1059.58333
1781.544	1048.91667
1784.437	1015.58333
1787.328	1013.58333
1790.217	995.25
1793.104	968.91667
1795.989	971.25
1798.872	971.58333
1801.753	995.91667
1804.631	975.91667
1807.508	979.25
1810.383	976.58333
1813.255	960.91667
1816.126	958.91667
1818.994	972.25
1821.861	951.25
1824.725	959.58333
1827.587	946.25
1830.448	942.91667
1833.306	919.91667
1836.162	933.25
1839.017	918.25
1841.869	909.91667
1844.719	914.91667
1847.567	908.91667
1850.414	882.58333
1853.258	891.91667
1856.1	913.25
1858.94	914.58333
1861.778	897.91667
1864.614	893.91667
1867.448	881.58333
1870.28	871.58333
1873.111	902.58333
1875.939	898.25
1878.765	906.58333
1881.589	892.25
1884.411	876.58333
1887.231	882.25
1890.049	870.91667
1892.865	875.25
1895.68	877.25
1898.492	876.91667
1901.302	868.25
1904.11	853.58333
1906.916	853.58333
1909.721	839.91667
1912.523	850.91667
1915.323	818.25
1918.122	837.58333
1920.918	850.91667
1923.712	840.91667
1926.505	827.25
1929.295	818.25
1932.084	849.91667
1934.87	815.25
1937.655	829.25
1940.438	815.58333
1943.218	819.91667
1945.997	828.25
1948.774	814.91667
1951.549	829.91667
1954.322	807.91667
1957.093	810.25
1959.862	808.58333
1962.629	804.25
1965.394	797.25
1968.157	784.91667
1970.918	800.91667
1973.678	775.25
1976.435	790.91667
1979.19	785.25
1981.944	775.58333
1984.696	773.58333
1987.445	759.58333
1990.193	777.91667
1992.939	785.58333
1995.683	764.58333
1998.425	747.91667
2001.165	775.58333
2003.903	754.25
2006.639	760.58333
2009.374	771.58333
2012.106	759.91667
2014.837	729.91667
2017.566	758.58333
2020.292	761.58333
2023.017	751.91667
2025.74	742.58333
2028.461	734.25
2031.18	752.25
2033.898	735.58333
2036.613	728.91667
2039.327	749.25
2042.038	723.25
2044.748	730.58333
2047.456	727.91667
2050.162	709.58333
2052.866	717.25
2055.568	720.25
2058.268	715.91667
2060.967	709.25
2063.663	705.25
2066.358	721.25
2069.051	702.91667
2071.742	710.91667
2074.431	725.25
2077.118	705.58333
2079.804	704.58333
2082.487	714.91667
2085.169	710.25
2087.849	732.25
2090.527	703.58333
2093.203	710.25
2095.877	722.91667
2098.55	714.58333
2101.22	718.25
2103.889	724.91667
2106.556	730.91667
2109.221	741.58333
2111.884	757.25
2114.546	782.58333
2117.205	816.25
2119.863	873.25
2122.519	926.91667
2125.173	987.91667
2127.825	1039.91667
2130.475	1068.25
2133.124	1032.58333
2135.771	1027.25
2138.416	985.58333
2141.059	917.91667
2143.7	888.91667
2146.339	841.91667
2148.977	785.91667
2151.613	789.58333
2154.247	773.91667
2156.879	747.91667
2159.51	730.25
2162.138	723.58333
2164.765	726.25
2167.39	696.58333
2170.013	708.25
2172.634	701.58333
2175.254	681.91667
2177.872	712.91667
2180.488	673.91667
2183.102	686.58333
2185.714	660.91667
2188.325	641.25
2190.934	664.58333
2193.541	657.58333
2196.146	645.25
2198.75	641.25
2201.351	626.58333
2203.951	612.25
2206.549	637.58333
2209.146	619.25
2211.74	620.58333
2214.333	616.91667
2216.924	600.91667
2219.514	608.58333
2222.101	604.58333
2224.687	615.58333
2227.271	603.91667
2229.853	597.91667
2232.433	590.91667
2235.012	607.25
2237.589	602.25
2240.164	612.58333
2242.738	586.91667
2245.309	578.58333
2247.879	585.58333
2250.448	582.25
2253.014	563.91667
2255.579	561.91667
2258.142	572.25
2260.703	560.25
2263.262	553.91667
2265.82	537.25
2268.376	550.58333
2270.93	527.91667
2273.483	524.91667
2276.033	538.58333
2278.583	523.25
2281.13	525.91667
2283.675	518.91667
2286.219	530.58333
2288.761	527.91667
2291.302	533.58333
2293.841	533.91667
2296.377	508.91667
2298.913	516.25
2301.446	523.58333
2303.978	513.58333
2306.508	509.91667
2309.037	515.25
2311.563	510.91667
2314.088	519.91667
2316.612	491.91667
2319.133	503.58333
2321.653	497.91667
2324.171	491.25
2326.688	518.58333
2329.202	497.25
2331.715	492.25
2334.227	486.25
2336.736	502.58333
2339.244	491.58333
2341.751	475.58333
2344.255	498.25
2346.758	493.58333
2349.259	467.25
2351.759	489.91667
2354.257	479.58333
2356.753	471.25
2359.247	473.91667
2361.74	483.25
2364.231	479.58333
2366.721	480.58333
2369.209	465.58333
2371.695	477.58333
2374.179	468.58333
2376.662	460.58333
2379.143	479.91667
2381.622	462.58333
2384.1	476.91667
2386.576	468.58333
2389.051	480.91667
2391.524	473.58333
2393.995	476.91667
2396.464	457.58333
2398.932	457.58333
2401.398	456.25
2403.863	455.58333
2406.325	455.25
2408.787	455.25
2411.246	465.91667
2413.704	451.25
2416.16	447.91667
2418.615	455.91667
2421.068	458.25
2423.519	452.91667
2425.969	445.91667
2428.417	444.25
2430.863	470.58333
2433.308	458.25
2435.751	447.25
2438.193	442.58333
2440.633	452.25
2443.071	453.58333
2445.508	446.58333
2447.943	435.25
2450.376	437.58333
2452.808	429.25
2455.238	429.91667
2457.667	461.91667
2460.093	435.91667
2462.519	428.25
2464.942	427.91667
2467.365	434.58333
2469.785	438.25
2472.204	425.58333
2474.621	420.58333
2477.037	440.91667
2479.451	414.25
2481.863	412.58333
2484.274	416.91667
2486.683	423.25
2489.091	440.91667
2491.497	415.25
2493.901	431.25
2496.304	425.25
2498.705	427.58333
2501.105	424.91667
2503.503	452.58333
2505.899	405.25
2508.294	437.58333
2510.687	413.91667
2513.079	418.25
2515.469	403.91667
2517.858	417.91667
2520.245	417.25
2522.63	405.25
2525.014	408.91667
2527.396	402.58333
2529.776	403.25
2532.156	411.58333
2534.533	399.91667
2536.909	395.58333
2539.283	397.25
2541.656	401.58333
2544.027	415.91667
2546.397	397.91667
2548.765	396.91667
2551.131	395.25
2553.496	394.58333
2555.86	401.91667
2558.221	393.58333
2560.582	389.58333
2562.94	387.91667
2565.298	401.58333
2567.653	410.91667
2570.007	381.91667
2572.36	406.91667
2574.711	387.58333
2577.06	403.91667
2579.408	399.58333
2581.754	388.25
2584.099	390.58333
2586.442	382.58333
2588.784	396.91667
2591.124	396.91667
2593.463	395.91667
2595.8	395.58333
2598.135	386.91667
2600.469	385.25
2602.802	393.58333
2605.133	395.58333
2607.462	377.91667
2609.79	375.25
2612.116	386.25
2614.441	391.91667
2616.764	395.25
2619.086	375.91667
2621.406	367.91667
2623.725	402.25
2626.042	395.91667
2628.358	368.91667
2630.672	380.58333
2632.985	397.25
2635.296	402.25
2637.606	374.25
2639.914	375.58333
2642.22	380.91667
2644.525	382.91667
2646.829	390.91667
2649.131	394.91667
2651.432	399.91667
2653.731	385.91667
2656.028	394.91667
2658.324	402.91667
2660.619	386.58333
2662.912	396.25
2665.204	386.25
2667.494	393.58333
2669.782	381.58333
2672.07	391.58333
2674.355	394.25
2676.639	385.25
2678.922	377.25
2681.203	386.25
2683.483	378.58333
2685.761	380.58333
2688.038	389.91667
2690.313	402.25
2692.587	387.91667
2694.859	389.91667
2697.13	385.58333
2699.399	402.25
2701.667	405.91667
2703.933	403.25
2706.198	396.25
2708.461	409.91667
2710.723	405.91667
2712.984	404.58333
2715.243	416.58333
2717.5	389.25
2719.757	424.25
2722.011	410.25
2724.264	427.91667
2726.516	430.91667
2728.766	405.25
2731.015	412.58333
2733.262	424.91667
2735.508	412.58333
2737.753	410.58333
2739.996	403.25
2742.237	400.25
2744.477	410.58333
2746.716	415.58333
2748.953	401.58333
2751.189	411.58333
2753.423	389.25
2755.656	381.91667
2757.887	391.25
2760.117	379.58333
2762.346	382.25
2764.573	382.58333
2766.798	389.25
2769.022	392.25
2771.245	380.91667
2773.467	391.25
2775.686	401.91667
2777.905	397.25
2780.122	401.91667
2782.337	400.91667
2784.552	406.25
2786.764	400.91667
2788.976	393.25
2791.186	407.58333
2793.394	413.58333
2795.601	407.91667
2797.807	427.58333
2800.011	436.91667
2802.214	432.25
2804.415	432.25
2806.615	439.25
2808.814	436.25
2811.011	449.91667
2813.206	442.25
2815.401	454.58333
2817.594	457.25
2819.785	465.58333
2821.975	454.91667
2824.164	464.91667
2826.351	471.91667
2828.537	485.91667
2830.722	504.25
2832.905	511.91667
2835.086	529.58333
2837.267	557.25
2839.445	565.58333
2841.623	588.25
2843.799	603.58333
2845.974	641.58333
2848.147	663.25
2850.319	684.25
2852.489	728.58333
2854.659	734.58333
2856.826	739.91667
2858.993	772.25
2861.158	744.25
2863.321	756.58333
2865.483	774.58333
2867.644	765.58333
2869.804	770.91667
2871.962	764.91667
2874.118	777.58333
2876.274	784.58333
2878.428	791.91667
2880.58	772.25
2882.731	758.58333
2884.881	759.58333
2887.03	754.25
2889.177	771.91667
2891.322	784.25
2893.467	770.25
2895.61	769.58333
2897.751	796.25
2899.892	787.91667
2902.03	789.91667
2904.168	798.91667
2906.304	796.91667
2908.439	814.91667
2910.572	809.91667
2912.704	823.25
2914.835	826.58333
2916.965	809.91667
2919.093	833.25
2921.219	797.25
2923.345	825.58333
2925.469	802.25
2927.591	789.25
2929.712	770.25
2931.832	766.25
2933.951	747.58333
2936.068	736.25
2938.184	733.91667
2940.299	705.91667
2942.412	691.91667
2944.524	661.25
2946.634	652.25
2948.744	595.91667
2950.851	625.91667
2952.958	582.58333
2955.063	585.91667
2957.167	570.91667
2959.269	537.25
2961.371	562.58333
2963.471	524.25
2965.569	531.91667
2967.666	503.91667
2969.762	495.91667
2971.857	483.91667
2973.95	470.25
2976.042	467.91667
2978.133	448.58333
2980.222	444.25
2982.31	427.58333
2984.396	407.91667
2986.482	407.25
2988.566	408.58333
2990.648	404.91667
2992.73	395.25
2994.81	384.91667
2996.889	386.58333
2998.966	389.25
3001.042	390.25
3003.117	383.25
3005.191	374.91667
3007.263	380.25
3009.334	369.58333
3011.403	374.25
3013.472	352.58333
3015.539	360.25
3017.604	367.25
3019.669	337.25
3021.732	344.58333
3023.794	346.58333
3025.854	329.25
3027.914	337.91667
3029.971	345.91667
3032.028	334.58333
3034.083	333.25
3036.137	323.25
3038.19	315.91667
3040.242	313.58333
3042.292	297.25
3044.341	299.58333
3046.388	310.91667
3048.435	288.25
3050.48	307.25
3052.524	298.58333
3054.566	285.91667
3056.607	297.58333
3058.647	288.58333
3060.686	276.58333
3062.723	265.58333
3064.759	252.91667
3066.794	1.91667
3068.828	1.91667
3070.86	2.91667
