-0.839	670.70833
3.438	789.375
7.711	229.70833
11.981	67.375
16.247	47.70833
20.509	52.375
24.768	47.04167
29.024	53.375
33.276	44.70833
37.524	52.70833
41.769	48.70833
46.01	34.375
50.247	50.04167
54.481	56.70833
58.712	61.70833
62.939	48.70833
67.162	64.375
71.382	60.375
75.599	45.70833
79.812	65.375
84.021	82.04167
88.227	64.04167
92.429	63.375
96.628	56.04167
100.823	69.04167
105.015	78.04167
109.204	67.04167
113.388	76.70833
117.57	72.04167
121.748	87.04167
125.922	82.375
130.093	99.375
134.261	98.04167
138.425	98.04167
142.585	138.04167
146.742	135.70833
150.896	163.04167
155.046	204.04167
159.193	318.04167
163.336	532.04167
167.476	971.375
171.613	1768.70833
175.746	2957.04167
179.875	4365.04167
184.002	5682.04167
188.124	6619.70833
192.244	7010.375
196.36	7031.70833
200.472	6860.70833
204.581	6757.04167
208.687	6619.04167
212.79	6556.375
216.889	6522.04167
220.984	6582.375
225.077	6609.375
229.165	6629.375
233.251	6645.375
237.333	6652.04167
241.412	6577.70833
245.487	6570.375
249.559	6481.70833
253.628	6441.04167
257.694	6379.04167
261.756	6314.375
265.814	6222.04167
269.87	6077.70833
273.922	5881.375
277.97	5729.70833
282.016	5605.375
286.058	5503.375
290.097	5516.375
294.132	5479.70833
298.164	5460.70833
302.193	5301.70833
306.219	5057.04167
310.241	4761.70833
314.26	4458.70833
318.276	4279.70833
322.288	4097.375
326.297	3976.375
330.303	3925.375
334.305	3801.375
338.305	3799.375
342.301	3745.375
346.294	3755.70833
350.283	3710.375
354.269	3724.04167
358.252	3702.375
362.232	3699.70833
366.209	3689.70833
370.182	3650.375
374.152	3638.70833
378.119	3648.70833
382.083	3629.375
386.043	3670.04167
390	3637.375
393.954	3654.375
397.905	3643.70833
401.852	3634.04167
405.797	3612.70833
409.738	3641.04167
413.676	3642.70833
417.61	3658.375
421.542	3635.70833
425.47	3623.70833
429.396	3594.70833
433.318	3568.04167
437.236	3582.04167
441.152	3592.70833
445.065	3545.70833
448.974	3558.70833
452.88	3547.04167
456.783	3515.375
460.683	3508.70833
464.58	3498.04167
468.473	3517.70833
472.364	3550.375
476.251	3556.04167
480.135	3607.04167
484.016	3620.375
487.894	3629.70833
491.769	3635.70833
495.641	3637.04167
499.509	3634.70833
503.375	3656.70833
507.237	3633.375
511.096	3621.375
514.952	3585.375
518.805	3592.375
522.655	3613.70833
526.502	3552.04167
530.346	3568.70833
534.187	3559.04167
538.024	3552.375
541.859	3555.375
545.69	3587.70833
549.519	3542.04167
553.344	3535.70833
557.166	3518.70833
560.985	3479.04167
564.802	3436.70833
568.615	3380.375
572.425	3338.375
576.232	3337.375
580.036	3333.70833
583.836	3355.70833
587.634	3345.70833
591.429	3382.70833
595.221	3397.375
599.01	3459.04167
602.796	3474.04167
606.578	3481.70833
610.358	3508.04167
614.135	3472.375
617.909	3483.70833
621.679	3467.70833
625.447	3423.04167
629.212	3435.70833
632.973	3403.70833
636.732	3396.04167
640.488	3376.70833
644.241	3377.70833
647.991	3370.70833
651.737	3405.04167
655.481	3389.375
659.222	3384.04167
662.96	3395.375
666.695	3397.70833
670.427	3409.375
674.156	3389.04167
677.882	3401.375
681.605	3380.70833
685.325	3377.70833
689.043	3369.04167
692.757	3367.04167
696.468	3339.04167
700.177	3338.70833
703.882	3312.70833
707.585	3311.70833
711.284	3304.04167
714.981	3312.04167
718.675	3268.04167
722.366	3277.04167
726.054	3254.04167
729.739	3251.70833
733.421	3241.375
737.1	3267.70833
740.777	3258.70833
744.45	3260.04167
748.121	3266.375
751.789	3325.70833
755.453	3303.04167
759.115	3329.04167
762.774	3325.04167
766.431	3349.375
770.084	3368.04167
773.734	3350.375
777.382	3403.375
781.027	3432.70833
784.669	3435.375
788.308	3405.70833
791.944	3451.375
795.577	3422.70833
799.208	3448.375
802.835	3449.04167
806.46	3493.70833
810.082	3530.04167
813.701	3527.375
817.317	3581.04167
820.931	3552.04167
824.542	3532.375
828.149	3482.70833
831.754	3421.04167
835.357	3413.375
838.956	3420.70833
842.553	3389.70833
846.146	3394.375
849.737	3348.375
853.326	3327.04167
856.911	3327.70833
860.493	3379.375
864.073	3358.04167
867.65	3371.70833
871.225	3413.375
874.796	3395.375
878.365	3396.375
881.931	3435.04167
885.494	3438.375
889.054	3438.375
892.612	3450.04167
896.166	3385.375
899.719	3351.70833
903.268	3314.70833
906.814	3320.04167
910.358	3278.375
913.899	3260.375
917.438	3289.04167
920.973	3228.375
924.506	3268.70833
928.036	3305.04167
931.564	3364.375
935.088	3396.70833
938.61	3377.04167
942.129	3400.375
945.646	3440.375
949.16	3486.70833
952.671	3513.375
956.179	3556.375
959.685	3509.70833
963.188	3567.375
966.688	3504.70833
970.185	3418.70833
973.68	3362.70833
977.173	3328.70833
980.662	3258.04167
984.149	3279.70833
987.633	3263.375
991.114	3308.375
994.593	3314.70833
998.069	3403.375
1001.542	3481.375
1005.013	3442.04167
1008.481	3275.70833
1011.947	3250.70833
1015.409	3195.04167
1018.869	3188.70833
1022.327	3203.375
1025.782	3190.04167
1029.234	3191.375
1032.683	3151.375
1036.13	3065.70833
1039.574	2985.04167
1043.016	2925.04167
1046.455	2860.375
1049.891	2853.70833
1053.325	2833.04167
1056.756	2845.70833
1060.184	2868.375
1063.61	2882.04167
1067.033	2883.04167
1070.454	2876.375
1073.872	2895.70833
1077.287	2913.04167
1080.7	2892.04167
1084.11	2920.04167
1087.517	2877.04167
1090.922	2820.70833
1094.325	2799.375
1097.724	2783.04167
1101.122	2778.70833
1104.516	2767.375
1107.908	2763.375
1111.298	2809.70833
1114.684	2830.375
1118.069	2867.375
1121.45	2892.375
1124.83	2844.04167
1128.206	2894.375
1131.58	2917.70833
1134.951	2962.375
1138.32	3034.375
1141.687	3113.375
1145.05	3186.04167
1148.412	3181.70833
1151.77	3173.70833
1155.126	3181.70833
1158.48	3143.04167
1161.831	3163.375
1165.18	3151.375
1168.525	3206.70833
1171.869	3203.04167
1175.21	3236.375
1178.548	3262.70833
1181.884	3286.70833
1185.217	3315.375
1188.548	3314.04167
1191.877	3388.70833
1195.202	3463.70833
1198.526	3518.04167
1201.846	3560.70833
1205.165	3524.70833
1208.48	3533.04167
1211.794	3516.04167
1215.104	3506.04167
1218.413	3514.04167
1221.719	3518.04167
1225.022	3434.04167
1228.323	3391.04167
1231.621	3378.375
1234.917	3325.04167
1238.21	3348.375
1241.501	3358.70833
1244.79	3319.375
1248.076	3335.375
1251.359	3368.04167
1254.64	3456.04167
1257.919	3439.04167
1261.195	3503.70833
1264.468	3532.375
1267.74	3595.70833
1271.008	3612.04167
1274.275	3580.70833
1277.538	3556.375
1280.8	3556.70833
1284.059	3569.04167
1287.315	3585.375
1290.569	3564.375
1293.821	3550.70833
1297.07	3578.04167
1300.317	3548.70833
1303.562	3545.70833
1306.803	3520.04167
1310.043	3510.04167
1313.28	3470.375
1316.515	3478.04167
1319.747	3446.70833
1322.977	3469.70833
1326.204	3418.70833
1329.429	3397.375
1332.652	3407.375
1335.872	3422.04167
1339.09	3406.04167
1342.306	3381.70833
1345.519	3353.04167
1348.729	3289.04167
1351.938	3274.375
1355.144	3213.375
1358.347	3156.70833
1361.548	3141.375
1364.747	3140.04167
1367.944	3111.70833
1371.138	3093.70833
1374.329	3052.375
1377.518	3045.04167
1380.705	3091.70833
1383.89	3095.375
1387.072	2995.375
1390.252	2935.04167
1393.429	2866.04167
1396.605	2810.04167
1399.777	2701.70833
1402.948	2698.375
1406.116	2687.04167
1409.282	2688.375
1412.445	2683.375
1415.606	2729.04167
1418.765	2698.375
1421.921	2765.70833
1425.075	2798.70833
1428.227	2864.375
1431.376	2954.375
1434.524	3032.375
1437.668	3136.04167
1440.811	3153.375
1443.951	3171.375
1447.089	3188.375
1450.224	3190.70833
1453.357	3198.04167
1456.488	3163.70833
1459.617	3152.04167
1462.743	3089.70833
1465.867	3038.70833
1468.989	3022.04167
1472.108	2978.04167
1475.225	2911.375
1478.34	2897.375
1481.453	2908.375
1484.563	2925.70833
1487.671	2932.375
1490.776	2930.70833
1493.88	2993.70833
1496.981	2979.375
1500.08	3033.375
1503.176	3056.04167
1506.271	3113.70833
1509.363	3150.375
1512.452	3154.70833
1515.54	3192.375
1518.625	3210.70833
1521.708	3300.70833
1524.789	3398.375
1527.867	3533.375
1530.944	3671.04167
1534.018	3755.375
1537.089	3877.375
1540.159	3900.04167
1543.226	3881.375
1546.291	3787.04167
1549.354	3706.70833
1552.415	3644.70833
1555.473	3529.70833
1558.529	3454.04167
1561.583	3401.375
1564.634	3347.70833
1567.684	3368.375
1570.731	3355.70833
1573.776	3395.70833
1576.819	3444.04167
1579.859	3497.70833
1582.898	3524.04167
1585.934	3539.70833
1588.968	3545.375
1591.999	3538.375
1595.029	3529.375
1598.056	3562.70833
1601.081	3543.04167
1604.104	3521.04167
1607.125	3525.04167
1610.144	3430.70833
1613.16	3410.70833
1616.174	3359.70833
1619.186	3342.04167
1622.196	3284.04167
1625.203	3241.04167
1628.209	3236.70833
1631.212	3242.375
1634.213	3256.375
1637.212	3309.04167
1640.209	3272.375
1643.203	3153.375
1646.196	3036.70833
1649.186	2890.70833
1652.174	2766.70833
1655.16	2658.70833
1658.144	2618.70833
1661.125	2519.04167
1664.105	2411.375
1667.082	2287.04167
1670.057	2192.375
1673.03	2093.70833
1676.001	1978.70833
1678.97	1893.375
1681.937	1791.04167
1684.901	1709.375
1687.863	1663.70833
1690.824	1599.04167
1693.782	1574.70833
1696.738	1525.375
1699.692	1500.04167
1702.643	1461.375
1705.593	1432.70833
1708.54	1436.70833
1711.486	1439.70833
1714.429	1407.04167
1717.37	1411.375
1720.309	1374.375
1723.246	1391.04167
1726.181	1368.375
1729.113	1365.375
1732.044	1348.70833
1734.972	1335.375
1737.899	1333.04167
1740.823	1335.04167
1743.745	1343.04167
1746.665	1293.375
1749.583	1282.70833
1752.499	1252.04167
1755.413	1257.04167
1758.325	1213.375
1761.235	1215.375
1764.142	1222.70833
1767.048	1198.04167
1769.951	1175.375
1772.852	1200.375
1775.752	1192.375
1778.649	1173.04167
1781.544	1190.04167
1784.437	1150.70833
1787.328	1163.70833
1790.217	1156.04167
1793.104	1132.375
1795.989	1125.70833
1798.872	1119.70833
1801.753	1132.375
1804.631	1134.04167
1807.508	1141.04167
1810.383	1133.375
1813.255	1116.04167
1816.126	1119.70833
1818.994	1109.375
1821.861	1105.375
1824.725	1096.375
1827.587	1090.375
1830.448	1084.375
1833.306	1077.04167
1836.162	1067.375
1839.017	1071.04167
1841.869	1065.04167
1844.719	1063.04167
1847.567	1038.04167
1850.414	1034.70833
1853.258	1028.375
1856.1	1047.04167
1858.94	1054.04167
1861.778	1039.04167
1864.614	1032.04167
1867.448	1037.04167
1870.28	1026.70833
1873.111	1049.04167
1875.939	1027.04167
1878.765	1042.70833
1881.589	1028.70833
1884.411	1020.70833
1887.231	1039.70833
1890.049	1011.375
1892.865	1013.04167
1895.68	993.375
1898.492	1007.70833
1901.302	997.375
1904.11	993.375
1906.916	978.375
1909.721	979.375
1912.523	972.375
1915.323	954.70833
1918.122	963.375
1920.918	957.375
1923.712	959.375
1926.505	937.04167
1929.295	932.04167
1932.084	962.04167
1934.87	954.375
1937.655	939.70833
1940.438	930.70833
1943.218	947.375
1945.997	956.04167
1948.774	954.375
1951.549	949.70833
1954.322	937.70833
1957.093	923.04167
1959.862	926.70833
1962.629	913.375
1965.394	920.04167
1968.157	917.04167
1970.918	913.375
1973.678	892.04167
1976.435	908.04167
1979.19	881.375
1981.944	891.04167
1984.696	882.375
1987.445	865.04167
1990.193	873.375
1992.939	889.375
1995.683	874.375
1998.425	855.70833
2001.165	891.04167
2003.903	852.70833
2006.639	863.04167
2009.374	867.70833
2012.106	861.04167
2014.837	833.375
2017.566	860.04167
2020.292	862.70833
2023.017	863.04167
2025.74	849.70833
2028.461	839.375
2031.18	851.375
2033.898	845.70833
2036.613	844.70833
2039.327	841.04167
2042.038	822.04167
2044.748	813.04167
2047.456	828.70833
2050.162	824.04167
2052.866	812.70833
2055.568	826.375
2058.268	817.04167
2060.967	818.70833
2063.663	800.70833
2066.358	819.375
2069.051	797.375
2071.742	804.04167
2074.431	804.375
2077.118	804.375
2079.804	779.04167
2082.487	799.375
2085.169	807.04167
2087.849	814.04167
2090.527	777.04167
2093.203	793.375
2095.877	814.04167
2098.55	803.70833
2101.22	815.375
2103.889	820.375
2106.556	796.375
2109.221	824.04167
2111.884	822.375
2114.546	842.375
2117.205	867.70833
2119.863	907.375
2122.519	909.375
2125.173	951.70833
2127.825	993.70833
2130.475	1019.70833
2133.124	1000.375
2135.771	982.375
2138.416	958.04167
2141.059	925.04167
2143.7	905.70833
2146.339	853.04167
2148.977	823.375
2151.613	824.04167
2154.247	805.70833
2156.879	784.70833
2159.51	765.375
2162.138	754.375
2164.765	759.375
2167.39	734.04167
2170.013	754.375
2172.634	747.375
2175.254	725.04167
2177.872	762.70833
2180.488	714.04167
2183.102	722.04167
2185.714	703.70833
2188.325	699.04167
2190.934	696.04167
2193.541	698.70833
2196.146	691.04167
2198.75	666.70833
2201.351	671.04167
2203.951	667.375
2206.549	677.375
2209.146	670.70833
2211.74	661.04167
2214.333	673.04167
2216.924	641.375
2219.514	653.70833
2222.101	646.375
2224.687	661.04167
2227.271	635.04167
2229.853	635.04167
2232.433	634.375
2235.012	654.375
2237.589	637.70833
2240.164	657.375
2242.738	630.04167
2245.309	625.70833
2247.879	629.04167
2250.448	645.70833
2253.014	615.04167
2255.579	600.375
2258.142	613.375
2260.703	594.375
2263.262	602.70833
2265.82	594.70833
2268.376	602.04167
2270.93	579.70833
2273.483	588.04167
2276.033	582.375
2278.583	569.04167
2281.13	575.375
2283.675	563.04167
2286.219	567.375
2288.761	577.70833
2291.302	572.375
2293.841	568.70833
2296.377	553.70833
2298.913	561.375
2301.446	569.70833
2303.978	554.375
2306.508	552.375
2309.037	550.04167
2311.563	549.70833
2314.088	556.375
2316.612	534.04167
2319.133	538.70833
2321.653	541.04167
2324.171	532.04167
2326.688	551.375
2329.202	530.375
2331.715	539.04167
2334.227	534.70833
2336.736	531.375
2339.244	520.04167
2341.751	518.70833
2344.255	533.375
2346.758	525.04167
2349.259	506.70833
2351.759	518.70833
2354.257	506.70833
2356.753	500.04167
2359.247	519.04167
2361.74	513.375
2364.231	507.70833
2366.721	512.04167
2369.209	512.04167
2371.695	499.70833
2374.179	494.04167
2376.662	484.375
2379.143	514.04167
2381.622	499.04167
2384.1	500.04167
2386.576	489.375
2389.051	504.04167
2391.524	502.375
2393.995	495.04167
2396.464	488.70833
2398.932	491.04167
2401.398	486.70833
2403.863	494.375
2406.325	477.70833
2408.787	483.375
2411.246	472.375
2413.704	473.04167
2416.16	474.70833
2418.615	465.70833
2421.068	484.04167
2423.519	476.375
2425.969	464.04167
2428.417	479.04167
2430.863	493.04167
2433.308	469.70833
2435.751	480.375
2438.193	467.04167
2440.633	465.70833
2443.071	471.04167
2445.508	457.375
2447.943	457.375
2450.376	454.70833
2452.808	453.70833
2455.238	452.70833
2457.667	487.70833
2460.093	451.70833
2462.519	446.375
2464.942	446.04167
2467.365	455.70833
2469.785	463.375
2472.204	447.04167
2474.621	434.375
2477.037	454.70833
2479.451	432.70833
2481.863	427.70833
2484.274	436.04167
2486.683	440.70833
2489.091	447.04167
2491.497	433.375
2493.901	448.04167
2496.304	441.04167
2498.705	446.375
2501.105	422.04167
2503.503	460.70833
2505.899	414.375
2508.294	442.04167
2510.687	421.70833
2513.079	426.04167
2515.469	421.375
2517.858	421.04167
2520.245	432.375
2522.63	423.04167
2525.014	409.70833
2527.396	408.04167
2529.776	409.70833
2532.156	418.375
2534.533	404.375
2536.909	401.04167
2539.283	388.375
2541.656	402.375
2544.027	421.70833
2546.397	404.04167
2548.765	408.70833
2551.131	399.70833
2553.496	401.70833
2555.86	412.375
2558.221	404.04167
2560.582	396.375
2562.94	394.04167
2565.298	397.70833
2567.653	408.04167
2570.007	386.70833
2572.36	411.375
2574.711	390.04167
2577.06	408.375
2579.408	399.04167
2581.754	396.70833
2584.099	394.04167
2586.442	387.70833
2588.784	396.375
2591.124	400.375
2593.463	392.375
2595.8	393.70833
2598.135	382.04167
2600.469	391.375
2602.802	392.04167
2605.133	398.04167
2607.462	386.70833
2609.79	379.375
2612.116	399.70833
2614.441	393.04167
2616.764	391.70833
2619.086	380.04167
2621.406	369.375
2623.725	389.375
2626.042	388.04167
2628.358	374.70833
2630.672	375.375
2632.985	389.04167
2635.296	383.04167
2637.606	385.04167
2639.914	368.04167
2642.22	378.04167
2644.525	375.70833
2646.829	382.04167
2649.131	393.70833
2651.432	386.375
2653.731	380.375
2656.028	387.70833
2658.324	390.375
2660.619	380.375
2662.912	391.70833
2665.204	372.70833
2667.494	389.375
2669.782	376.04167
2672.07	378.04167
2674.355	383.04167
2676.639	380.70833
2678.922	369.70833
2681.203	385.375
2683.483	369.70833
2685.761	367.70833
2688.038	383.70833
2690.313	386.70833
2692.587	383.04167
2694.859	374.70833
2697.13	375.375
2699.399	379.70833
2701.667	385.70833
2703.933	376.04167
2706.198	380.04167
2708.461	384.375
2710.723	388.04167
2712.984	384.04167
2715.243	387.70833
2717.5	370.70833
2719.757	392.375
2722.011	384.04167
2724.264	392.04167
2726.516	397.04167
2728.766	382.70833
2731.015	389.70833
2733.262	380.70833
2735.508	397.375
2737.753	386.375
2739.996	379.70833
2742.237	374.70833
2744.477	381.70833
2746.716	390.375
2748.953	371.375
2751.189	378.375
2753.423	369.70833
2755.656	363.04167
2757.887	363.375
2760.117	366.70833
2762.346	354.375
2764.573	350.375
2766.798	359.70833
2769.022	357.04167
2771.245	368.04167
2773.467	364.375
2775.686	370.04167
2777.905	367.70833
2780.122	374.70833
2782.337	370.70833
2784.552	359.04167
2786.764	362.04167
2788.976	366.375
2791.186	370.375
2793.394	369.375
2795.601	366.375
2797.807	385.375
2800.011	392.04167
2802.214	395.04167
2804.415	385.70833
2806.615	377.04167
2808.814	377.375
2811.011	395.70833
2813.206	384.375
2815.401	400.04167
2817.594	407.375
2819.785	407.70833
2821.975	405.04167
2824.164	396.04167
2826.351	407.04167
2828.537	430.375
2830.722	431.04167
2832.905	430.70833
2835.086	444.70833
2837.267	479.04167
2839.445	480.70833
2841.623	494.70833
2843.799	514.70833
2845.974	537.04167
2848.147	548.375
2850.319	569.04167
2852.489	594.04167
2854.659	595.375
2856.826	613.375
2858.993	639.375
2861.158	612.375
2863.321	615.375
2865.483	632.04167
2867.644	619.70833
2869.804	615.04167
2871.962	619.375
2874.118	622.04167
2876.274	621.70833
2878.428	625.375
2880.58	626.70833
2882.731	607.70833
2884.881	617.375
2887.03	622.375
2889.177	613.70833
2891.322	637.70833
2893.467	623.04167
2895.61	617.04167
2897.751	638.70833
2899.892	631.04167
2902.03	639.375
2904.168	647.375
2906.304	640.375
2908.439	662.70833
2910.572	657.04167
2912.704	659.375
2914.835	655.04167
2916.965	655.375
2919.093	665.04167
2921.219	643.375
2923.345	679.70833
2925.469	637.04167
2927.591	647.70833
2929.712	617.70833
2931.832	625.04167
2933.951	606.375
2936.068	603.375
2938.184	581.70833
2940.299	564.04167
2942.412	560.70833
2944.524	539.375
2946.634	530.70833
2948.744	496.04167
2950.851	518.04167
2952.958	476.375
2955.063	491.04167
2957.167	474.04167
2959.269	452.70833
2961.371	481.375
2963.471	445.04167
2965.569	451.375
2967.666	426.04167
2969.762	419.70833
2971.857	425.70833
2973.95	399.375
2976.042	400.375
2978.133	394.70833
2980.222	388.375
2982.31	369.375
2984.396	360.04167
2986.482	360.04167
2988.566	349.375
2990.648	345.70833
2992.73	348.375
2994.81	340.70833
2996.889	350.04167
2998.966	344.375
3001.042	353.70833
3003.117	345.375
3005.191	342.70833
3007.263	342.70833
3009.334	329.70833
3011.403	339.375
3013.472	327.04167
3015.539	343.70833
3017.604	335.70833
3019.669	299.04167
3021.732	314.375
3023.794	312.375
3025.854	307.04167
3027.914	305.04167
3029.971	313.04167
3032.028	303.70833
3034.083	304.70833
3036.137	299.04167
3038.19	295.375
3040.242	283.04167
3042.292	283.375
3044.341	284.04167
3046.388	290.70833
3048.435	271.375
3050.48	293.375
3052.524	278.04167
3054.566	267.70833
3056.607	276.04167
3058.647	268.70833
3060.686	258.70833
3062.723	247.375
3064.759	240.375
3066.794	0.375
3068.828	0.70833
3070.86	3.375
