-0.839	473.66667
3.438	555
7.711	184
11.981	61
16.247	47
20.509	50.33333
24.768	47
29.024	59.33333
33.276	46
37.524	51.33333
41.769	47.33333
46.01	39
50.247	48
54.481	60.33333
58.712	61.33333
62.939	49
67.162	63.66667
71.382	59.66667
75.599	49
79.812	66
84.021	82
88.227	60.66667
92.429	61.66667
96.628	52.66667
100.823	73.66667
105.015	77
109.204	71
113.388	77
117.57	80.33333
121.748	87
125.922	86
130.093	105.66667
134.261	102.66667
138.425	101
142.585	145
146.742	139
150.896	167
155.046	214
159.193	339.33333
163.336	582.33333
167.476	1067.33333
171.613	1922.66667
175.746	3132.66667
179.875	4621
184.002	5963.66667
188.124	6822.33333
192.244	7110.66667
196.36	7048
200.472	6900.66667
204.581	6693.66667
208.687	6500.33333
212.79	6430
216.889	6425.66667
220.984	6444.66667
225.077	6478.66667
229.165	6527.33333
233.251	6530.33333
237.333	6504.66667
241.412	6440.33333
245.487	6403.33333
249.559	6335
253.628	6255
257.694	6233.66667
261.756	6145.33333
265.814	5952
269.87	5764.33333
273.922	5579.33333
277.97	5356
282.016	5197
286.058	5101.66667
290.097	5118.66667
294.132	5106
298.164	5031.33333
302.193	4846
306.219	4547
310.241	4215.66667
314.26	3904
318.276	3699.66667
322.288	3517.33333
326.297	3388.33333
330.303	3318.33333
334.305	3227.66667
338.305	3175.66667
342.301	3137
346.294	3131.33333
350.283	3088
354.269	3093
358.252	3078.33333
362.232	3048.33333
366.209	3052.66667
370.182	3013.66667
374.152	3005.66667
378.119	3020.33333
382.083	3004.33333
386.043	3032
390	2994.33333
393.954	3037.33333
397.905	3029.33333
401.852	2988.33333
405.797	2952.66667
409.738	2976.33333
413.676	3000
417.61	3041.66667
421.542	2947
425.47	2890.66667
429.396	2875.33333
433.318	2849.33333
437.236	2869
441.152	2870.66667
445.065	2802.66667
448.974	2849.66667
452.88	2775.33333
456.783	2768.33333
460.683	2757.33333
464.58	2766.66667
468.473	2778.66667
472.364	2790
476.251	2805.33333
480.135	2808.66667
484.016	2850
487.894	2851.33333
491.769	2854.66667
495.641	2838.33333
499.509	2842
503.375	2840
507.237	2820.33333
511.096	2819.33333
514.952	2848.33333
518.805	2857.33333
522.655	2861
526.502	2837
530.346	2826.33333
534.187	2814.33333
538.024	2831
541.859	2836.33333
545.69	2864.33333
549.519	2853.66667
553.344	2837.33333
557.166	2799
560.985	2793.66667
564.802	2764.33333
568.615	2685.66667
572.425	2676.33333
576.232	2655.33333
580.036	2649
583.836	2655.66667
587.634	2677
591.429	2666.66667
595.221	2690
599.01	2744
602.796	2773
606.578	2771.33333
610.358	2789.33333
614.135	2794.66667
617.909	2789.66667
621.679	2755.66667
625.447	2718
629.212	2706
632.973	2733.33333
636.732	2710.33333
640.488	2736
644.241	2703.66667
647.991	2670
651.737	2722
655.481	2726.33333
659.222	2709.66667
662.96	2722.33333
666.695	2740.66667
670.427	2718
674.156	2726
677.882	2719.66667
681.605	2671.33333
685.325	2663.66667
689.043	2688.66667
692.757	2642.33333
696.468	2651.33333
700.177	2649.33333
703.882	2637.66667
707.585	2624
711.284	2631.33333
714.981	2626.66667
718.675	2616.33333
722.366	2628.66667
726.054	2603
729.739	2591
733.421	2616.33333
737.1	2626
740.777	2649.33333
744.45	2647.66667
748.121	2674.33333
751.789	2722
755.453	2711.33333
759.115	2734.66667
762.774	2734.66667
766.431	2744.33333
770.084	2776
773.734	2794.33333
777.382	2823.66667
781.027	2852.66667
784.669	2875.33333
788.308	2883.33333
791.944	2924
795.577	2903.66667
799.208	2959.33333
802.835	2950.66667
806.46	2975.33333
810.082	2996
813.701	3021.66667
817.317	3037.66667
820.931	3037.33333
824.542	3045
828.149	2970
831.754	2934.66667
835.357	2923.33333
838.956	2949.66667
842.553	2932.66667
846.146	2939
849.737	2879
853.326	2865.66667
856.911	2887.33333
860.493	2913
864.073	2946.66667
867.65	2990
871.225	3017.33333
874.796	2993.66667
878.365	2996.33333
881.931	3019.33333
885.494	3029.66667
889.054	3028.66667
892.612	3028.33333
896.166	2990.66667
899.719	2964.66667
903.268	2942.66667
906.814	2921
910.358	2914.66667
913.899	2896.66667
917.438	2913.33333
920.973	2874
924.506	2933.66667
928.036	2981
931.564	3026
935.088	3054
938.61	3042
942.129	3055.66667
945.646	3138
949.16	3192.33333
952.671	3230.66667
956.179	3248.66667
959.685	3242.33333
963.188	3301.66667
966.688	3256.66667
970.185	3166.66667
973.68	3083
977.173	2981.66667
980.662	2982.66667
984.149	2977
987.633	2989.33333
991.114	3009.66667
994.593	3080.66667
998.069	3147.33333
1001.542	3252.33333
1005.013	3192.66667
1008.481	3020
1011.947	2943.33333
1015.409	2933.33333
1018.869	2940.66667
1022.327	2961.33333
1025.782	2920
1029.234	2896.66667
1032.683	2853.66667
1036.13	2772
1039.574	2697.33333
1043.016	2611.33333
1046.455	2584.66667
1049.891	2537.33333
1053.325	2541.66667
1056.756	2534
1060.184	2571.33333
1063.61	2567
1067.033	2593.66667
1070.454	2581
1073.872	2631.33333
1077.287	2596.33333
1080.7	2595.66667
1084.11	2600
1087.517	2552
1090.922	2543
1094.325	2516.66667
1097.724	2507.33333
1101.122	2484.66667
1104.516	2491
1107.908	2494.33333
1111.298	2535.66667
1114.684	2558.66667
1118.069	2586
1121.45	2617
1124.83	2622.66667
1128.206	2622.66667
1131.58	2658
1134.951	2711.33333
1138.32	2809.66667
1141.687	2906.33333
1145.05	2955
1148.412	2987.66667
1151.77	2987.33333
1155.126	2990.66667
1158.48	2953
1161.831	3003
1165.18	2993
1168.525	3056.66667
1171.869	3081.66667
1175.21	3103
1178.548	3139.66667
1181.884	3151.66667
1185.217	3161.33333
1188.548	3249
1191.877	3285
1195.202	3374
1198.526	3435.33333
1201.846	3437
1205.165	3414.33333
1208.48	3413.66667
1211.794	3405
1215.104	3409.33333
1218.413	3402
1221.719	3398.33333
1225.022	3343
1228.323	3303.33333
1231.621	3277.33333
1234.917	3237.66667
1238.21	3256.33333
1241.501	3242
1244.79	3238.66667
1248.076	3265.33333
1251.359	3289.66667
1254.64	3357.33333
1257.919	3362.66667
1261.195	3443.33333
1264.468	3470.66667
1267.74	3521.33333
1271.008	3536.33333
1274.275	3521
1277.538	3484
1280.8	3483.33333
1284.059	3492.33333
1287.315	3497.66667
1290.569	3518.33333
1293.821	3524.33333
1297.07	3563.66667
1300.317	3572.33333
1303.562	3559
1306.803	3520
1310.043	3527.33333
1313.28	3498
1316.515	3496
1319.747	3459
1322.977	3424.66667
1326.204	3410
1329.429	3352.33333
1332.652	3365
1335.872	3352.33333
1339.09	3317.33333
1342.306	3299
1345.519	3277.66667
1348.729	3259.33333
1351.938	3303.33333
1355.144	3259
1358.347	3192
1361.548	3153.66667
1364.747	3148
1367.944	3104
1371.138	3128
1374.329	3129.66667
1377.518	3148.33333
1380.705	3155.33333
1383.89	3147
1387.072	3041.33333
1390.252	2939.33333
1393.429	2836.33333
1396.605	2767.66667
1399.777	2669
1402.948	2639.33333
1406.116	2623.66667
1409.282	2589.66667
1412.445	2593.33333
1415.606	2610
1418.765	2632.66667
1421.921	2686.66667
1425.075	2729
1428.227	2813.66667
1431.376	2918
1434.524	3043.66667
1437.668	3131.66667
1440.811	3160.33333
1443.951	3230
1447.089	3192.33333
1450.224	3177
1453.357	3172
1456.488	3156.66667
1459.617	3117.33333
1462.743	3067
1465.867	2989.33333
1468.989	2978
1472.108	2954.33333
1475.225	2900
1478.34	2873
1481.453	2870
1484.563	2857.33333
1487.671	2921
1490.776	2955.33333
1493.88	3007.33333
1496.981	3041
1500.08	3065.33333
1503.176	3112.66667
1506.271	3179.33333
1509.363	3203
1512.452	3254.33333
1515.54	3286.66667
1518.625	3342
1521.708	3427
1524.789	3561.33333
1527.867	3684.33333
1530.944	3864.66667
1534.018	4015.33333
1537.089	4134.33333
1540.159	4130
1543.226	4112.33333
1546.291	4041.66667
1549.354	3937
1552.415	3835.33333
1555.473	3775
1558.529	3713.66667
1561.583	3670.33333
1564.634	3661.33333
1567.684	3677
1570.731	3728.33333
1573.776	3761
1576.819	3826.66667
1579.859	3913.66667
1582.898	3922.66667
1585.934	3994.66667
1588.968	3983.33333
1591.999	3976
1595.029	3961.33333
1598.056	3982.33333
1601.081	3965.33333
1604.104	3991.33333
1607.125	3951
1610.144	3873
1613.16	3782
1616.174	3703.66667
1619.186	3672.66667
1622.196	3561
1625.203	3462.33333
1628.209	3446.33333
1631.212	3412
1634.213	3428.66667
1637.212	3440
1640.209	3449
1643.203	3365.33333
1646.196	3261.66667
1649.186	3096
1652.174	2977
1655.16	2855.33333
1658.144	2778.66667
1661.125	2607.33333
1664.105	2467.33333
1667.082	2351
1670.057	2213.33333
1673.03	2103.66667
1676.001	1982
1678.97	1871.33333
1681.937	1752.66667
1684.901	1637.66667
1687.863	1593.33333
1690.824	1544
1693.782	1511
1696.738	1450.33333
1699.692	1402
1702.643	1384.33333
1705.593	1370
1708.54	1357.33333
1711.486	1330.66667
1714.429	1289.33333
1717.37	1301
1720.309	1276.33333
1723.246	1285
1726.181	1255
1729.113	1244.66667
1732.044	1224.33333
1734.972	1215.66667
1737.899	1224
1740.823	1226.33333
1743.745	1213
1746.665	1167
1749.583	1156
1752.499	1147.66667
1755.413	1120.33333
1758.325	1104.33333
1761.235	1104.66667
1764.142	1083
1767.048	1069.33333
1769.951	1057.66667
1772.852	1064
1775.752	1078
1778.649	1086.66667
1781.544	1065.33333
1784.437	1018
1787.328	1039
1790.217	1028.66667
1793.104	1002.66667
1795.989	1004.33333
1798.872	999.66667
1801.753	1006.66667
1804.631	997.66667
1807.508	1015
1810.383	1002
1813.255	988.33333
1816.126	984
1818.994	999.33333
1821.861	984
1824.725	976.66667
1827.587	963
1830.448	962
1833.306	941.33333
1836.162	952.66667
1839.017	943
1841.869	943.66667
1844.719	935.33333
1847.567	919.33333
1850.414	923.66667
1853.258	914.33333
1856.1	943.66667
1858.94	932.66667
1861.778	921.66667
1864.614	912
1867.448	915.33333
1870.28	898.33333
1873.111	924
1875.939	906.33333
1878.765	925.33333
1881.589	893.33333
1884.411	908.33333
1887.231	906.33333
1890.049	909
1892.865	909.33333
1895.68	877.66667
1898.492	895.66667
1901.302	888.33333
1904.11	875.66667
1906.916	866.66667
1909.721	856.66667
1912.523	876.66667
1915.323	852.66667
1918.122	847.33333
1920.918	864
1923.712	840.66667
1926.505	853.33333
1929.295	837
1932.084	858.33333
1934.87	846.33333
1937.655	837.33333
1940.438	834
1943.218	834
1945.997	844.33333
1948.774	843.66667
1951.549	845
1954.322	823.66667
1957.093	825.33333
1959.862	820.66667
1962.629	813.33333
1965.394	819.66667
1968.157	802
1970.918	813
1973.678	800.66667
1976.435	815.66667
1979.19	798.33333
1981.944	797
1984.696	800.33333
1987.445	772.66667
1990.193	790.33333
1992.939	805.33333
1995.683	779.33333
1998.425	763
2001.165	797.66667
2003.903	775.66667
2006.639	784.33333
2009.374	783
2012.106	774
2014.837	759
2017.566	778.33333
2020.292	785
2023.017	767.33333
2025.74	765.66667
2028.461	760.66667
2031.18	758.33333
2033.898	739.66667
2036.613	758
2039.327	751.66667
2042.038	736.66667
2044.748	734.66667
2047.456	744
2050.162	722.66667
2052.866	743
2055.568	742
2058.268	732.66667
2060.967	729.33333
2063.663	720.33333
2066.358	720.66667
2069.051	708
2071.742	733
2074.431	732.66667
2077.118	732.33333
2079.804	713
2082.487	724.66667
2085.169	728.33333
2087.849	746
2090.527	724
2093.203	719.66667
2095.877	740
2098.55	735
2101.22	737
2103.889	751
2106.556	742.33333
2109.221	755
2111.884	762.66667
2114.546	801.66667
2117.205	837.33333
2119.863	886.66667
2122.519	936.33333
2125.173	996.33333
2127.825	1052.66667
2130.475	1061.66667
2133.124	1049
2135.771	1018.33333
2138.416	981.33333
2141.059	926.66667
2143.7	905.33333
2146.339	845.66667
2148.977	804.33333
2151.613	791.66667
2154.247	793
2156.879	759
2159.51	749.33333
2162.138	735
2164.765	742.66667
2167.39	717
2170.013	717.66667
2172.634	727.33333
2175.254	715.33333
2177.872	737.66667
2180.488	696
2183.102	690
2185.714	674
2188.325	661.33333
2190.934	680
2193.541	668.66667
2196.146	664
2198.75	646.66667
2201.351	645.66667
2203.951	627.33333
2206.549	632
2209.146	632.33333
2211.74	632
2214.333	626.33333
2216.924	618
2219.514	629.66667
2222.101	617.66667
2224.687	626.33333
2227.271	608.33333
2229.853	597.66667
2232.433	584.66667
2235.012	618
2237.589	615
2240.164	625.66667
2242.738	621.33333
2245.309	592.33333
2247.879	593
2250.448	607
2253.014	579.33333
2255.579	560
2258.142	575.33333
2260.703	566.66667
2263.262	573
2265.82	557.33333
2268.376	566.66667
2270.93	543.66667
2273.483	551.33333
2276.033	545.66667
2278.583	546.66667
2281.13	544
2283.675	537.66667
2286.219	535
2288.761	532.33333
2291.302	536.66667
2293.841	547.66667
2296.377	522.66667
2298.913	531
2301.446	536.33333
2303.978	529.66667
2306.508	524.33333
2309.037	532.66667
2311.563	524.33333
2314.088	524.33333
2316.612	503.66667
2319.133	517
2321.653	516.66667
2324.171	496
2326.688	527.33333
2329.202	511.66667
2331.715	501
2334.227	497.66667
2336.736	507
2339.244	510
2341.751	487.66667
2344.255	504
2346.758	502.66667
2349.259	478.33333
2351.759	493.33333
2354.257	489.33333
2356.753	486.66667
2359.247	480
2361.74	493
2364.231	494.66667
2366.721	491.33333
2369.209	483
2371.695	486.33333
2374.179	478.33333
2376.662	465.33333
2379.143	495.33333
2381.622	470.33333
2384.1	485.66667
2386.576	475.66667
2389.051	483
2391.524	486.66667
2393.995	481.33333
2396.464	473.33333
2398.932	469.66667
2401.398	469
2403.863	470
2406.325	470
2408.787	478.66667
2411.246	461
2413.704	458
2416.16	455.33333
2418.615	458.33333
2421.068	454
2423.519	456.66667
2425.969	459
2428.417	468.66667
2430.863	480
2433.308	462
2435.751	461.66667
2438.193	452.33333
2440.633	467
2443.071	453.33333
2445.508	442.33333
2447.943	448.66667
2450.376	446
2452.808	442.66667
2455.238	435.66667
2457.667	483.33333
2460.093	444
2462.519	439
2464.942	443.66667
2467.365	444.66667
2469.785	448.66667
2472.204	442.66667
2474.621	430
2477.037	459.33333
2479.451	416.66667
2481.863	425.66667
2484.274	431
2486.683	424.33333
2489.091	436
2491.497	425.66667
2493.901	440.33333
2496.304	429.33333
2498.705	439.66667
2501.105	426.66667
2503.503	457.33333
2505.899	412
2508.294	428
2510.687	421.66667
2513.079	428.33333
2515.469	421.33333
2517.858	422.33333
2520.245	431
2522.63	416.33333
2525.014	404.66667
2527.396	409.33333
2529.776	405.33333
2532.156	422
2534.533	406.66667
2536.909	402.33333
2539.283	392
2541.656	401
2544.027	420.66667
2546.397	410
2548.765	407
2551.131	409.66667
2553.496	403
2555.86	416.33333
2558.221	405.33333
2560.582	396.66667
2562.94	395.33333
2565.298	403.33333
2567.653	409.33333
2570.007	387
2572.36	405.66667
2574.711	391
2577.06	410.66667
2579.408	405
2581.754	397
2584.099	407
2586.442	405
2588.784	402.66667
2591.124	396.66667
2593.463	400
2595.8	401.33333
2598.135	382.66667
2600.469	391
2602.802	399
2605.133	403
2607.462	384
2609.79	379
2612.116	398
2614.441	402
2616.764	387.66667
2619.086	387.33333
2621.406	377.33333
2623.725	399.66667
2626.042	401.33333
2628.358	389
2630.672	378.33333
2632.985	397
2635.296	389
2637.606	393.66667
2639.914	379
2642.22	393
2644.525	385.66667
2646.829	392
2649.131	401.33333
2651.432	402.66667
2653.731	395
2656.028	407.66667
2658.324	407
2660.619	393.66667
2662.912	399.66667
2665.204	383.66667
2667.494	404
2669.782	389.66667
2672.07	400
2674.355	409.33333
2676.639	396.33333
2678.922	383.66667
2681.203	394.66667
2683.483	388.66667
2685.761	381.66667
2688.038	400
2690.313	396
2692.587	393.66667
2694.859	388.33333
2697.13	395.66667
2699.399	409.33333
2701.667	401.33333
2703.933	403
2706.198	412
2708.461	415.33333
2710.723	414.33333
2712.984	420.33333
2715.243	413.66667
2717.5	397
2719.757	417
2722.011	407
2724.264	421.33333
2726.516	434.66667
2728.766	415.33333
2731.015	424
2733.262	421.33333
2735.508	428
2737.753	412.66667
2739.996	404.33333
2742.237	406.33333
2744.477	409.33333
2746.716	413
2748.953	406.66667
2751.189	409
2753.423	402.66667
2755.656	388.66667
2757.887	387
2760.117	395
2762.346	384.33333
2764.573	381.33333
2766.798	388
2769.022	393
2771.245	395.33333
2773.467	396.33333
2775.686	398
2777.905	398.33333
2780.122	390
2782.337	400.33333
2784.552	404.33333
2786.764	403.33333
2788.976	397.66667
2791.186	402.33333
2793.394	406
2795.601	422.33333
2797.807	429.66667
2800.011	428.33333
2802.214	430.33333
2804.415	431.33333
2806.615	432.66667
2808.814	431
2811.011	439.66667
2813.206	442.66667
2815.401	458.33333
2817.594	454.33333
2819.785	478.66667
2821.975	461.66667
2824.164	467.66667
2826.351	477.66667
2828.537	500.66667
2830.722	505
2832.905	512.66667
2835.086	536
2837.267	569.66667
2839.445	571.33333
2841.623	589.33333
2843.799	607.33333
2845.974	642.33333
2848.147	673.33333
2850.319	695.66667
2852.489	723.66667
2854.659	740.66667
2856.826	737.66667
2858.993	777.66667
2861.158	756.33333
2863.321	762.66667
2865.483	773.33333
2867.644	790
2869.804	775
2871.962	763.33333
2874.118	769
2876.274	792.33333
2878.428	787.33333
2880.58	766
2882.731	755.66667
2884.881	764.33333
2887.03	767.33333
2889.177	769.33333
2891.322	789
2893.467	777.66667
2895.61	771
2897.751	805.33333
2899.892	782
2902.03	806
2904.168	797.66667
2906.304	817.33333
2908.439	822
2910.572	800.66667
2912.704	821.33333
2914.835	823
2916.965	819
2919.093	840.33333
2921.219	802
2923.345	835
2925.469	805.66667
2927.591	805.66667
2929.712	771.66667
2931.832	782.33333
2933.951	768
2936.068	754.66667
2938.184	726.66667
2940.299	708.33333
2942.412	696
2944.524	655.33333
2946.634	663
2948.744	602.66667
2950.851	625
2952.958	584.33333
2955.063	571.66667
2957.167	583.33333
2959.269	547.33333
2961.371	582.33333
2963.471	521.33333
2965.569	532.33333
2967.666	505.66667
2969.762	504.33333
2971.857	490.33333
2973.95	474
2976.042	471.33333
2978.133	454.66667
2980.222	447.66667
2982.31	430.33333
2984.396	413.33333
2986.482	414
2988.566	409.33333
2990.648	400.66667
2992.73	392.66667
2994.81	388.33333
2996.889	399
2998.966	392
3001.042	385.33333
3003.117	385.66667
3005.191	385.66667
3007.263	377.66667
3009.334	368.66667
3011.403	376.33333
3013.472	369.66667
3015.539	367
3017.604	372.33333
3019.669	327.66667
3021.732	342
3023.794	345.66667
3025.854	331.33333
3027.914	332.33333
3029.971	346.66667
3032.028	326.33333
3034.083	337
3036.137	333
3038.19	327
3040.242	314.33333
3042.292	301.66667
3044.341	303.66667
3046.388	318.66667
3048.435	295.33333
3050.48	315.33333
3052.524	299
3054.566	294
3056.607	300.66667
3058.647	289.66667
3060.686	277
3062.723	270.66667
3064.759	258.33333
3066.794	-1.33333
3068.828	5
3070.86	3.33333
