-0.839	443.83333
3.438	531.5
7.711	166.16667
11.981	61.16667
16.247	48.16667
20.509	48.16667
24.768	44.83333
29.024	55.83333
33.276	45.16667
37.524	51.16667
41.769	47.16667
46.01	32.83333
50.247	46.83333
54.481	61.83333
58.712	62.5
62.939	46.5
67.162	64.16667
71.382	58.5
75.599	46.16667
79.812	66.16667
84.021	81.5
88.227	62.83333
92.429	64.5
96.628	52.5
100.823	69.83333
105.015	78.83333
109.204	65.5
113.388	75.5
117.57	79.5
121.748	85.5
125.922	78.5
130.093	98.83333
134.261	93.5
138.425	97.5
142.585	138.16667
146.742	129.5
150.896	155.16667
155.046	187.5
159.193	297.16667
163.336	496.83333
167.476	915.83333
171.613	1650.5
175.746	2748.83333
179.875	4073.5
184.002	5341.83333
188.124	6236.83333
192.244	6566.16667
196.36	6585.16667
200.472	6504.16667
204.581	6392.83333
208.687	6299.16667
212.79	6238.16667
216.889	6303.16667
220.984	6351.16667
225.077	6388.83333
229.165	6484.16667
233.251	6490.83333
237.333	6526.5
241.412	6480.16667
245.487	6453.16667
249.559	6387.16667
253.628	6337.16667
257.694	6303.16667
261.756	6264.5
265.814	6103.83333
269.87	5887.5
273.922	5667.16667
277.97	5491.83333
282.016	5322.16667
286.058	5286.83333
290.097	5275.83333
294.132	5289.83333
298.164	5297.83333
302.193	5083.16667
306.219	4740.16667
310.241	4359.5
314.26	3992.16667
318.276	3740.83333
322.288	3564.16667
326.297	3390.5
330.303	3273.83333
334.305	3207.16667
338.305	3150.83333
342.301	3104.16667
346.294	3063.5
350.283	3047.16667
354.269	3045.5
358.252	2982.83333
362.232	2982.16667
366.209	2962.5
370.182	2928.5
374.152	2902.5
378.119	2920.16667
382.083	2918.83333
386.043	2920.83333
390	2882.16667
393.954	2900.16667
397.905	2913.16667
401.852	2905.83333
405.797	2851.83333
409.738	2875.83333
413.676	2883.5
417.61	2880.5
421.542	2831.83333
425.47	2788.16667
429.396	2769.5
433.318	2765.16667
437.236	2753.83333
441.152	2776.5
445.065	2735.5
448.974	2708.16667
452.88	2681.83333
456.783	2676.16667
460.683	2655.83333
464.58	2650.16667
468.473	2670.5
472.364	2663.83333
476.251	2676.16667
480.135	2692.5
484.016	2715.16667
487.894	2723.5
491.769	2768.16667
495.641	2733.5
499.509	2735.5
503.375	2744.5
507.237	2741.83333
511.096	2741.16667
514.952	2825.83333
518.805	2896.83333
522.655	2914.16667
526.502	2810.5
530.346	2741.16667
534.187	2749.5
538.024	2752.16667
541.859	2753.16667
545.69	2778.5
549.519	2772.16667
553.344	2753.5
557.166	2714.16667
560.985	2690.5
564.802	2617.16667
568.615	2573.83333
572.425	2542.83333
576.232	2527.16667
580.036	2532.5
583.836	2553.83333
587.634	2534.83333
591.429	2559.5
595.221	2606.5
599.01	2618.83333
602.796	2644.83333
606.578	2673.16667
610.358	2679.83333
614.135	2665.16667
617.909	2641.83333
621.679	2615.16667
625.447	2602.5
629.212	2574.5
632.973	2597.16667
636.732	2608.5
640.488	2608.83333
644.241	2577.5
647.991	2575.5
651.737	2565.83333
655.481	2559.5
659.222	2580.83333
662.96	2568.5
666.695	2577.5
670.427	2607.5
674.156	2612.16667
677.882	2583.16667
681.605	2585.5
685.325	2548.5
689.043	2538.16667
692.757	2539.16667
696.468	2529.16667
700.177	2522.83333
703.882	2504.16667
707.585	2498.5
711.284	2507.83333
714.981	2505.83333
718.675	2486.16667
722.366	2501.16667
726.054	2485.83333
729.739	2488.16667
733.421	2482.5
737.1	2467.5
740.777	2495.83333
744.45	2526.5
748.121	2527.16667
751.789	2573.16667
755.453	2572.5
759.115	2585.5
762.774	2588.16667
766.431	2619.16667
770.084	2648.83333
773.734	2689.16667
777.382	2735.5
781.027	2765.16667
784.669	2764.83333
788.308	2790.16667
791.944	2792.16667
795.577	2791.16667
799.208	2798.5
802.835	2801.5
806.46	2841.5
810.082	2872.83333
813.701	2878.5
817.317	2904.83333
820.931	2884.16667
824.542	2885.5
828.149	2862.83333
831.754	2826.83333
835.357	2828.16667
838.956	2831.83333
842.553	2813.83333
846.146	2823.5
849.737	2793.83333
853.326	2792.83333
856.911	2800.5
860.493	2826.16667
864.073	2853.83333
867.65	2891.5
871.225	2933.5
874.796	2916.83333
878.365	2925.16667
881.931	2935.5
885.494	2961.83333
889.054	2975.83333
892.612	2972.16667
896.166	2947.16667
899.719	2919.16667
903.268	2860.16667
906.814	2846.5
910.358	2826.5
913.899	2827.5
917.438	2820.83333
920.973	2809.5
924.506	2869.16667
928.036	2927.83333
931.564	2944.83333
935.088	2991.16667
938.61	2969.83333
942.129	3009.83333
945.646	3083.16667
949.16	3112.83333
952.671	3189.5
956.179	3201.5
959.685	3158.83333
963.188	3187.83333
966.688	3136.5
970.185	3025.5
973.68	2959.5
977.173	2930.83333
980.662	2852.83333
984.149	2882.83333
987.633	2865.83333
991.114	2887.16667
994.593	2941.16667
998.069	3029.5
1001.542	3110.83333
1005.013	3066.83333
1008.481	2943.16667
1011.947	2888.16667
1015.409	2838.83333
1018.869	2825.5
1022.327	2834.16667
1025.782	2812.83333
1029.234	2812.83333
1032.683	2782.83333
1036.13	2670.83333
1039.574	2584.83333
1043.016	2490.83333
1046.455	2453.83333
1049.891	2427.5
1053.325	2419.5
1056.756	2453.16667
1060.184	2460.16667
1063.61	2461.16667
1067.033	2472.16667
1070.454	2470.5
1073.872	2518.5
1077.287	2504.16667
1080.7	2494.16667
1084.11	2467.83333
1087.517	2487.83333
1090.922	2431.16667
1094.325	2405.5
1097.724	2388.83333
1101.122	2401.83333
1104.516	2395.16667
1107.908	2407.5
1111.298	2464.83333
1114.684	2460.16667
1118.069	2526.16667
1121.45	2554.5
1124.83	2542.83333
1128.206	2548.16667
1131.58	2593.5
1134.951	2663.5
1138.32	2728.16667
1141.687	2844.83333
1145.05	2924.16667
1148.412	2950.5
1151.77	2957.5
1155.126	2953.5
1158.48	2925.16667
1161.831	2958.16667
1165.18	2971.16667
1168.525	3050.83333
1171.869	3072.83333
1175.21	3072.5
1178.548	3087.5
1181.884	3124.16667
1185.217	3149.5
1188.548	3237.83333
1191.877	3284.16667
1195.202	3366.16667
1198.526	3436.83333
1201.846	3440.16667
1205.165	3426.16667
1208.48	3368.16667
1211.794	3341.83333
1215.104	3330.5
1218.413	3314.83333
1221.719	3339.83333
1225.022	3273.5
1228.323	3211.16667
1231.621	3187.83333
1234.917	3173.83333
1238.21	3169.83333
1241.501	3140.16667
1244.79	3144.5
1248.076	3150.16667
1251.359	3176.16667
1254.64	3257.83333
1257.919	3258.83333
1261.195	3314.16667
1264.468	3381.16667
1267.74	3449.5
1271.008	3453.5
1274.275	3397.16667
1277.538	3417.16667
1280.8	3400.5
1284.059	3395.16667
1287.315	3437.16667
1290.569	3426.5
1293.821	3462.16667
1297.07	3471.83333
1300.317	3471.16667
1303.562	3481.5
1306.803	3465.16667
1310.043	3456.5
1313.28	3441.16667
1316.515	3396.16667
1319.747	3406.16667
1322.977	3332.83333
1326.204	3298.16667
1329.429	3258.5
1332.652	3228.5
1335.872	3225.83333
1339.09	3150.5
1342.306	3140.83333
1345.519	3128.5
1348.729	3071.5
1351.938	3057.5
1355.144	3021.16667
1358.347	2960.16667
1361.548	2948.5
1364.747	2959.5
1367.944	2918.16667
1371.138	2928.5
1374.329	2929.83333
1377.518	2944.16667
1380.705	2970.5
1383.89	2936.83333
1387.072	2857.16667
1390.252	2772.16667
1393.429	2659.83333
1396.605	2589.16667
1399.777	2498.5
1402.948	2470.16667
1406.116	2432.83333
1409.282	2433.83333
1412.445	2422.83333
1415.606	2472.5
1418.765	2504.16667
1421.921	2542.83333
1425.075	2598.5
1428.227	2665.5
1431.376	2786.5
1434.524	2900.5
1437.668	2996.16667
1440.811	3021.5
1443.951	3060.5
1447.089	3041.5
1450.224	3080.83333
1453.357	3056.83333
1456.488	3024.83333
1459.617	2968.5
1462.743	2943.16667
1465.867	2883.5
1468.989	2867.5
1472.108	2819.16667
1475.225	2777.16667
1478.34	2776.5
1481.453	2762.16667
1484.563	2771.16667
1487.671	2794.83333
1490.776	2843.16667
1493.88	2892.83333
1496.981	2964.83333
1500.08	2982.83333
1503.176	3038.83333
1506.271	3047.83333
1509.363	3100.83333
1512.452	3129.16667
1515.54	3166.16667
1518.625	3203.5
1521.708	3299.5
1524.789	3384.5
1527.867	3533.16667
1530.944	3686.16667
1534.018	3845.83333
1537.089	3953.83333
1540.159	4005.83333
1543.226	3970.83333
1546.291	3879.16667
1549.354	3836.16667
1552.415	3735.5
1555.473	3644.5
1558.529	3599.83333
1561.583	3564.16667
1564.634	3543.83333
1567.684	3551.5
1570.731	3592.83333
1573.776	3630.16667
1576.819	3658.83333
1579.859	3739.5
1582.898	3793.5
1585.934	3831.5
1588.968	3848.5
1591.999	3812.16667
1595.029	3804.83333
1598.056	3846.16667
1601.081	3845.16667
1604.104	3834.5
1607.125	3787.5
1610.144	3744.16667
1613.16	3660.5
1616.174	3558.5
1619.186	3464.16667
1622.196	3392.83333
1625.203	3301.5
1628.209	3222.16667
1631.212	3180.83333
1634.213	3164.16667
1637.212	3179.16667
1640.209	3111.16667
1643.203	3035.83333
1646.196	2941.5
1649.186	2824.5
1652.174	2692.16667
1655.16	2563.5
1658.144	2483.5
1661.125	2374.5
1664.105	2248.5
1667.082	2147.16667
1670.057	2044.83333
1673.03	1913.5
1676.001	1796.83333
1678.97	1706.5
1681.937	1598.83333
1684.901	1510.83333
1687.863	1463.16667
1690.824	1386.5
1693.782	1370.16667
1696.738	1295.5
1699.692	1282.83333
1702.643	1233.16667
1705.593	1233.16667
1708.54	1223.5
1711.486	1197.16667
1714.429	1186.83333
1717.37	1169.16667
1720.309	1136.16667
1723.246	1154.5
1726.181	1124.83333
1729.113	1135.16667
1732.044	1118.5
1734.972	1084.16667
1737.899	1098.5
1740.823	1083.16667
1743.745	1085.83333
1746.665	1053.83333
1749.583	1022.83333
1752.499	1024.83333
1755.413	999.83333
1758.325	981.83333
1761.235	989.16667
1764.142	958.16667
1767.048	953.16667
1769.951	945.5
1772.852	952.16667
1775.752	941.83333
1778.649	948.16667
1781.544	965.83333
1784.437	910.5
1787.328	933.83333
1790.217	907.16667
1793.104	887.83333
1795.989	887.5
1798.872	877.83333
1801.753	893.83333
1804.631	892.16667
1807.508	896.16667
1810.383	888.5
1813.255	863.83333
1816.126	885.5
1818.994	877.83333
1821.861	855.16667
1824.725	864.83333
1827.587	867.5
1830.448	849.83333
1833.306	833.16667
1836.162	845.5
1839.017	840.16667
1841.869	833.16667
1844.719	841.5
1847.567	811.83333
1850.414	803.16667
1853.258	805.5
1856.1	822.5
1858.94	825.16667
1861.778	825.16667
1864.614	805.16667
1867.448	809.16667
1870.28	794.5
1873.111	827.83333
1875.939	802.16667
1878.765	823.83333
1881.589	800.5
1884.411	802.16667
1887.231	794.5
1890.049	799.16667
1892.865	799.5
1895.68	789.5
1898.492	800.16667
1901.302	791.16667
1904.11	779.5
1906.916	776.16667
1909.721	773.83333
1912.523	787.16667
1915.323	760.5
1918.122	761.5
1920.918	771.16667
1923.712	757.16667
1926.505	749.5
1929.295	752.5
1932.084	764.5
1934.87	752.16667
1937.655	744.5
1940.438	731.5
1943.218	746.83333
1945.997	764.83333
1948.774	751.83333
1951.549	756.5
1954.322	733.16667
1957.093	741.83333
1959.862	731.5
1962.629	726.5
1965.394	735.16667
1968.157	717.5
1970.918	728.5
1973.678	725.5
1976.435	724.5
1979.19	716.5
1981.944	714.5
1984.696	708.83333
1987.445	695.16667
1990.193	698.83333
1992.939	730.5
1995.683	710.83333
1998.425	681.5
2001.165	717.16667
2003.903	695.5
2006.639	699.5
2009.374	703.16667
2012.106	704.16667
2014.837	681.16667
2017.566	700.5
2020.292	699.5
2023.017	688.83333
2025.74	677.83333
2028.461	681.83333
2031.18	687.16667
2033.898	680.16667
2036.613	678.83333
2039.327	689.5
2042.038	667.16667
2044.748	668.16667
2047.456	675.16667
2050.162	667.16667
2052.866	672.16667
2055.568	672.16667
2058.268	675.83333
2060.967	669.83333
2063.663	652.5
2066.358	660.5
2069.051	661.83333
2071.742	661.83333
2074.431	656.83333
2077.118	653.83333
2079.804	645.83333
2082.487	653.5
2085.169	664.5
2087.849	684.83333
2090.527	658.16667
2093.203	660.16667
2095.877	672.16667
2098.55	671.16667
2101.22	669.16667
2103.889	686.16667
2106.556	668.83333
2109.221	675.83333
2111.884	679.16667
2114.546	722.16667
2117.205	746.83333
2119.863	786.16667
2122.519	827.83333
2125.173	855.5
2127.825	924.16667
2130.475	932.83333
2133.124	922.83333
2135.771	896.16667
2138.416	866.83333
2141.059	807.83333
2143.7	799.16667
2146.339	750.16667
2148.977	714.5
2151.613	709.16667
2154.247	696.16667
2156.879	686.83333
2159.51	667.16667
2162.138	659.83333
2164.765	662.5
2167.39	628.16667
2170.013	663.16667
2172.634	654.5
2175.254	651.16667
2177.872	665.16667
2180.488	620.83333
2183.102	639.16667
2185.714	629.16667
2188.325	607.83333
2190.934	612.5
2193.541	617.5
2196.146	614.16667
2198.75	594.16667
2201.351	601.5
2203.951	593.5
2206.549	614.5
2209.146	592.83333
2211.74	597.83333
2214.333	594.5
2216.924	572.83333
2219.514	597.16667
2222.101	575.5
2224.687	594.5
2227.271	581.16667
2229.853	570.83333
2232.433	568.16667
2235.012	588.16667
2237.589	579.83333
2240.164	583.5
2242.738	574.5
2245.309	572.5
2247.879	570.5
2250.448	585.5
2253.014	548.83333
2255.579	540.83333
2258.142	547.16667
2260.703	542.16667
2263.262	553.16667
2265.82	534.5
2268.376	540.16667
2270.93	532.5
2273.483	526.5
2276.033	531.83333
2278.583	526.16667
2281.13	522.16667
2283.675	522.16667
2286.219	532.16667
2288.761	538.16667
2291.302	535.16667
2293.841	539.16667
2296.377	517.83333
2298.913	526.5
2301.446	519.83333
2303.978	521.16667
2306.508	510.16667
2309.037	518.83333
2311.563	521.16667
2314.088	525.16667
2316.612	501.5
2319.133	505.83333
2321.653	514.5
2324.171	504.16667
2326.688	528.5
2329.202	505.5
2331.715	508.16667
2334.227	507.5
2336.736	500.16667
2339.244	504.16667
2341.751	494.16667
2344.255	510.5
2346.758	500.16667
2349.259	488.83333
2351.759	502.16667
2354.257	494.16667
2356.753	488.83333
2359.247	495.83333
2361.74	500.5
2364.231	499.5
2366.721	508.16667
2369.209	493.83333
2371.695	497.5
2374.179	486.5
2376.662	484.83333
2379.143	506.16667
2381.622	489.5
2384.1	512.16667
2386.576	488.83333
2389.051	511.16667
2391.524	507.16667
2393.995	501.16667
2396.464	493.16667
2398.932	493.16667
2401.398	487.5
2403.863	495.83333
2406.325	486.16667
2408.787	496.16667
2411.246	483.5
2413.704	487.5
2416.16	495.16667
2418.615	481.5
2421.068	508.5
2423.519	497.83333
2425.969	474.5
2428.417	495.83333
2430.863	505.83333
2433.308	493.5
2435.751	496.5
2438.193	493.5
2440.633	488.16667
2443.071	495.16667
2445.508	484.5
2447.943	482.16667
2450.376	492.5
2452.808	488.5
2455.238	480.5
2457.667	525.5
2460.093	482.5
2462.519	479.83333
2464.942	486.16667
2467.365	501.83333
2469.785	496.83333
2472.204	491.5
2474.621	480.5
2477.037	504.16667
2479.451	469.16667
2481.863	472.5
2484.274	479.5
2486.683	469.16667
2489.091	494.5
2491.497	495.16667
2493.901	488.83333
2496.304	485.16667
2498.705	488.16667
2501.105	488.16667
2503.503	513.83333
2505.899	471.16667
2508.294	506.5
2510.687	492.16667
2513.079	479.5
2515.469	477.83333
2517.858	494.83333
2520.245	495.16667
2522.63	476.83333
2525.014	476.5
2527.396	473.16667
2529.776	479.16667
2532.156	485.83333
2534.533	467.5
2536.909	479.16667
2539.283	463.16667
2541.656	472.83333
2544.027	498.5
2546.397	484.16667
2548.765	483.83333
2551.131	485.5
2553.496	475.83333
2555.86	487.16667
2558.221	480.16667
2560.582	484.83333
2562.94	471.83333
2565.298	484.83333
2567.653	506.16667
2570.007	463.5
2572.36	503.16667
2574.711	477.5
2577.06	499.5
2579.408	490.16667
2581.754	484.83333
2584.099	493.5
2586.442	485.16667
2588.784	492.16667
2591.124	491.83333
2593.463	485.83333
2595.8	494.5
2598.135	475.5
2600.469	478.16667
2602.802	497.16667
2605.133	499.5
2607.462	478.83333
2609.79	480.16667
2612.116	496.16667
2614.441	496.5
2616.764	494.83333
2619.086	487.16667
2621.406	478.5
2623.725	513.16667
2626.042	501.5
2628.358	487.5
2630.672	496.16667
2632.985	518.5
2635.296	503.16667
2637.606	501.5
2639.914	490.5
2642.22	508.83333
2644.525	496.16667
2646.829	507.83333
2649.131	514.16667
2651.432	523.16667
2653.731	506.83333
2656.028	514.5
2658.324	526.5
2660.619	513.5
2662.912	523.16667
2665.204	505.16667
2667.494	527.83333
2669.782	517.16667
2672.07	529.5
2674.355	527.83333
2676.639	521.5
2678.922	510.16667
2681.203	520.83333
2683.483	513.83333
2685.761	515.16667
2688.038	526.5
2690.313	542.16667
2692.587	517.16667
2694.859	519.83333
2697.13	526.16667
2699.399	543.83333
2701.667	548.16667
2703.933	539.5
2706.198	539.16667
2708.461	542.83333
2710.723	544.83333
2712.984	547.5
2715.243	555.16667
2717.5	546.83333
2719.757	556.83333
2722.011	549.16667
2724.264	563.5
2726.516	571.5
2728.766	567.16667
2731.015	561.5
2733.262	573.5
2735.508	570.5
2737.753	568.16667
2739.996	547.83333
2742.237	551.5
2744.477	563.16667
2746.716	573.83333
2748.953	556.5
2751.189	559.16667
2753.423	554.5
2755.656	542.16667
2757.887	547.16667
2760.117	548.16667
2762.346	537.83333
2764.573	540.16667
2766.798	543.5
2769.022	546.5
2771.245	553.5
2773.467	552.16667
2775.686	561.83333
2777.905	556.5
2780.122	564.5
2782.337	568.83333
2784.552	546.5
2786.764	559.16667
2788.976	572.83333
2791.186	566.5
2793.394	583.5
2795.601	580.5
2797.807	601.16667
2800.011	597.16667
2802.214	590.5
2804.415	595.5
2806.615	599.83333
2808.814	598.5
2811.011	605.83333
2813.206	607.83333
2815.401	616.83333
2817.594	621.5
2819.785	623.16667
2821.975	619.5
2824.164	625.83333
2826.351	631.83333
2828.537	653.5
2830.722	644.83333
2832.905	653.83333
2835.086	690.16667
2837.267	719.16667
2839.445	717.83333
2841.623	731.83333
2843.799	769.16667
2845.974	788.5
2848.147	812.16667
2850.319	835.16667
2852.489	860.5
2854.659	879.83333
2856.826	884.5
2858.993	912.5
2861.158	901.16667
2863.321	901.5
2865.483	913.5
2867.644	912.16667
2869.804	914.5
2871.962	894.16667
2874.118	912.16667
2876.274	920.16667
2878.428	907.16667
2880.58	903.5
2882.731	905.16667
2884.881	905.5
2887.03	905.5
2889.177	908.16667
2891.322	924.16667
2893.467	900.83333
2895.61	925.5
2897.751	919.16667
2899.892	923.5
2902.03	939.83333
2904.168	938.5
2906.304	947.16667
2908.439	964.5
2910.572	953.16667
2912.704	968.83333
2914.835	967.16667
2916.965	969.83333
2919.093	993.16667
2921.219	959.83333
2923.345	973.5
2925.469	953.83333
2927.591	948.83333
2929.712	929.5
2931.832	928.83333
2933.951	917.16667
2936.068	906.83333
2938.184	887.5
2940.299	877.16667
2942.412	832.5
2944.524	824.16667
2946.634	810.16667
2948.744	782.5
2950.851	794.83333
2952.958	769.16667
2955.063	765.5
2957.167	760.16667
2959.269	743.5
2961.371	757.16667
2963.471	717.83333
2965.569	736.83333
2967.666	705.83333
2969.762	698.83333
2971.857	698.83333
2973.95	673.5
2976.042	660.16667
2978.133	656.5
2980.222	646.16667
2982.31	627.16667
2984.396	615.5
2986.482	612.5
2988.566	618.83333
2990.648	601.5
2992.73	610.5
2994.81	607.5
2996.889	599.83333
2998.966	603.83333
3001.042	613.5
3003.117	597.83333
3005.191	599.5
3007.263	599.16667
3009.334	577.83333
3011.403	594.83333
3013.472	582.5
3015.539	573.5
3017.604	580.16667
3019.669	535.83333
3021.732	544.83333
3023.794	542.83333
3025.854	543.5
3027.914	538.5
3029.971	557.83333
3032.028	551.83333
3034.083	548.5
3036.137	538.83333
3038.19	523.5
3040.242	506.16667
3042.292	507.16667
3044.341	493.83333
3046.388	513.5
3048.435	479.83333
3050.48	497.5
3052.524	497.16667
3054.566	480.16667
3056.607	487.83333
3058.647	478.5
3060.686	463.83333
3062.723	448.5
3064.759	435.5
3066.794	-0.83333
3068.828	0.5
3070.86	3.16667
