-0.839	648.70833
3.438	761.70833
7.711	218.375
11.981	66.04167
16.247	47.375
20.509	51.04167
24.768	47.70833
29.024	56.375
33.276	43.70833
37.524	50.04167
41.769	50.375
46.01	36.04167
50.247	48.375
54.481	56.375
58.712	64.375
62.939	46.70833
67.162	61.375
71.382	60.04167
75.599	47.375
79.812	66.70833
84.021	80.70833
88.227	62.70833
92.429	58.375
96.628	50.04167
100.823	75.375
105.015	74.70833
109.204	64.04167
113.388	70.375
117.57	73.04167
121.748	85.70833
125.922	74.70833
130.093	100.04167
134.261	96.70833
138.425	96.375
142.585	134.04167
146.742	123.04167
150.896	151.70833
155.046	192.04167
159.193	300.375
163.336	494.70833
167.476	904.70833
171.613	1667.04167
175.746	2758.375
179.875	4082.70833
184.002	5286.04167
188.124	6204.375
192.244	6503.70833
196.36	6433.04167
200.472	6307.70833
204.581	6149.70833
208.687	6045.04167
212.79	5950.04167
216.889	5935.375
220.984	5946.375
225.077	5948.70833
229.165	5956.375
233.251	5979.70833
237.333	5948.375
241.412	5906.04167
245.487	5871.04167
249.559	5802.04167
253.628	5716.375
257.694	5714.375
261.756	5635.375
265.814	5507.375
269.87	5369.04167
273.922	5189.70833
277.97	5056.04167
282.016	4933.375
286.058	4865.04167
290.097	4867.70833
294.132	4856.04167
298.164	4825.70833
302.193	4646.70833
306.219	4404.375
310.241	4143.375
314.26	3834.375
318.276	3680.04167
322.288	3516.375
326.297	3375.70833
330.303	3286.375
334.305	3245.04167
338.305	3215.70833
342.301	3160.375
346.294	3133.375
350.283	3112.70833
354.269	3095.70833
358.252	3071.375
362.232	3057.04167
366.209	3054.70833
370.182	3052.70833
374.152	3045.375
378.119	3041.375
382.083	3011.375
386.043	3036.70833
390	3010.70833
393.954	2995.04167
397.905	3010.375
401.852	3006.04167
405.797	2970.04167
409.738	3000.375
413.676	2993.70833
417.61	3004.375
421.542	2991.70833
425.47	2985.04167
429.396	2956.04167
433.318	2958.70833
437.236	2914.04167
441.152	2963.70833
445.065	2907.04167
448.974	2920.375
452.88	2886.70833
456.783	2884.375
460.683	2865.70833
464.58	2855.04167
468.473	2858.04167
472.364	2887.375
476.251	2895.375
480.135	2924.04167
484.016	2968.375
487.894	2973.375
491.769	2971.375
495.641	2990.04167
499.509	2967.70833
503.375	2982.70833
507.237	2978.70833
511.096	2955.70833
514.952	2976.375
518.805	2972.375
522.655	2986.70833
526.502	2966.375
530.346	2920.70833
534.187	2935.04167
538.024	2939.375
541.859	2931.375
545.69	2983.70833
549.519	2937.70833
553.344	2921.375
557.166	2900.70833
560.985	2882.04167
564.802	2817.70833
568.615	2764.04167
572.425	2737.70833
576.232	2728.70833
580.036	2745.70833
583.836	2745.70833
587.634	2739.04167
591.429	2764.375
595.221	2796.70833
599.01	2836.375
602.796	2852.04167
606.578	2870.375
610.358	2884.375
614.135	2839.70833
617.909	2851.375
621.679	2849.70833
625.447	2782.70833
629.212	2782.04167
632.973	2790.375
636.732	2776.375
640.488	2787.04167
644.241	2770.04167
647.991	2774.70833
651.737	2770.04167
655.481	2739.04167
659.222	2754.04167
662.96	2756.70833
666.695	2777.70833
670.427	2781.375
674.156	2795.70833
677.882	2783.04167
681.605	2783.375
685.325	2781.375
689.043	2776.375
692.757	2747.375
696.468	2768.70833
700.177	2748.04167
703.882	2714.70833
707.585	2724.70833
711.284	2724.04167
714.981	2701.375
718.675	2704.70833
722.366	2717.70833
726.054	2687.70833
729.739	2687.70833
733.421	2689.70833
737.1	2689.70833
740.777	2688.70833
744.45	2703.375
748.121	2714.04167
751.789	2754.70833
755.453	2721.70833
759.115	2759.04167
762.774	2770.375
766.431	2790.04167
770.084	2803.70833
773.734	2837.04167
777.382	2863.70833
781.027	2855.375
784.669	2888.70833
788.308	2873.375
791.944	2902.70833
795.577	2875.70833
799.208	2886.70833
802.835	2932.375
806.46	2926.375
810.082	2965.04167
813.701	2961.375
817.317	2981.375
820.931	2967.04167
824.542	2945.70833
828.149	2939.70833
831.754	2899.70833
835.357	2891.04167
838.956	2889.04167
842.553	2880.70833
846.146	2885.04167
849.737	2826.70833
853.326	2850.04167
856.911	2827.375
860.493	2863.04167
864.073	2862.375
867.65	2886.04167
871.225	2898.375
874.796	2890.70833
878.365	2915.70833
881.931	2910.375
885.494	2954.375
889.054	2941.375
892.612	2924.375
896.166	2897.04167
899.719	2867.375
903.268	2852.04167
906.814	2811.375
910.358	2803.04167
913.899	2788.04167
917.438	2767.375
920.973	2762.04167
924.506	2801.375
928.036	2842.70833
931.564	2862.04167
935.088	2915.375
938.61	2888.375
942.129	2938.70833
945.646	2975.375
949.16	3033.375
952.671	3068.70833
956.179	3060.70833
959.685	3034.70833
963.188	3032.04167
966.688	2984.70833
970.185	2913.70833
973.68	2890.70833
977.173	2830.70833
980.662	2776.04167
984.149	2787.04167
987.633	2770.04167
991.114	2796.70833
994.593	2844.04167
998.069	2901.375
1001.542	2978.70833
1005.013	2934.70833
1008.481	2808.70833
1011.947	2777.375
1015.409	2740.70833
1018.869	2764.375
1022.327	2747.04167
1025.782	2718.70833
1029.234	2730.375
1032.683	2707.375
1036.13	2624.375
1039.574	2560.375
1043.016	2485.375
1046.455	2443.04167
1049.891	2432.70833
1053.325	2450.375
1056.756	2438.04167
1060.184	2446.04167
1063.61	2442.04167
1067.033	2471.70833
1070.454	2472.70833
1073.872	2499.70833
1077.287	2484.70833
1080.7	2486.375
1084.11	2471.375
1087.517	2449.375
1090.922	2427.04167
1094.325	2395.70833
1097.724	2398.04167
1101.122	2400.04167
1104.516	2370.04167
1107.908	2371.375
1111.298	2397.04167
1114.684	2450.375
1118.069	2461.375
1121.45	2499.04167
1124.83	2469.375
1128.206	2496.375
1131.58	2541.375
1134.951	2572.70833
1138.32	2634.04167
1141.687	2724.375
1145.05	2775.70833
1148.412	2788.375
1151.77	2777.04167
1155.126	2782.375
1158.48	2736.70833
1161.831	2776.70833
1165.18	2781.375
1168.525	2815.04167
1171.869	2851.375
1175.21	2839.375
1178.548	2885.70833
1181.884	2914.70833
1185.217	2925.04167
1188.548	2990.375
1191.877	3014.04167
1195.202	3081.04167
1198.526	3107.70833
1201.846	3160.375
1205.165	3152.04167
1208.48	3118.70833
1211.794	3124.04167
1215.104	3126.04167
1218.413	3118.04167
1221.719	3079.70833
1225.022	3030.04167
1228.323	2995.70833
1231.621	2987.70833
1234.917	2961.70833
1238.21	2967.375
1241.501	2953.375
1244.79	2968.04167
1248.076	2950.375
1251.359	2977.70833
1254.64	3070.70833
1257.919	3065.70833
1261.195	3088.375
1264.468	3130.04167
1267.74	3187.375
1271.008	3212.70833
1274.275	3205.375
1277.538	3149.70833
1280.8	3176.70833
1284.059	3152.04167
1287.315	3167.04167
1290.569	3176.375
1293.821	3183.04167
1297.07	3202.375
1300.317	3202.375
1303.562	3213.04167
1306.803	3191.70833
1310.043	3155.04167
1313.28	3118.375
1316.515	3119.04167
1319.747	3096.375
1322.977	3070.04167
1326.204	3039.70833
1329.429	3015.04167
1332.652	3009.04167
1335.872	3020.70833
1339.09	2988.04167
1342.306	2954.375
1345.519	2930.70833
1348.729	2885.375
1351.938	2843.375
1355.144	2787.375
1358.347	2759.375
1361.548	2750.70833
1364.747	2755.70833
1367.944	2723.04167
1371.138	2709.70833
1374.329	2677.375
1377.518	2720.04167
1380.705	2729.375
1383.89	2714.70833
1387.072	2656.375
1390.252	2567.70833
1393.429	2489.04167
1396.605	2417.375
1399.777	2370.70833
1402.948	2379.375
1406.116	2378.375
1409.282	2360.70833
1412.445	2348.375
1415.606	2367.04167
1418.765	2394.70833
1421.921	2430.04167
1425.075	2467.375
1428.227	2521.04167
1431.376	2617.375
1434.524	2703.04167
1437.668	2777.70833
1440.811	2818.375
1443.951	2829.04167
1447.089	2854.04167
1450.224	2854.70833
1453.357	2821.375
1456.488	2813.04167
1459.617	2787.375
1462.743	2770.04167
1465.867	2721.375
1468.989	2641.375
1472.108	2645.375
1475.225	2584.04167
1478.34	2539.375
1481.453	2558.375
1484.563	2542.375
1487.671	2574.375
1490.776	2598.04167
1493.88	2644.04167
1496.981	2666.375
1500.08	2699.375
1503.176	2712.70833
1506.271	2767.70833
1509.363	2795.70833
1512.452	2809.04167
1515.54	2836.375
1518.625	2867.375
1521.708	2961.375
1524.789	3037.04167
1527.867	3158.04167
1530.944	3308.375
1534.018	3418.70833
1537.089	3519.375
1540.159	3549.04167
1543.226	3552.04167
1546.291	3469.70833
1549.354	3391.04167
1552.415	3331.375
1555.473	3209.70833
1558.529	3173.04167
1561.583	3113.04167
1564.634	3051.375
1567.684	3056.375
1570.731	3073.70833
1573.776	3121.04167
1576.819	3133.04167
1579.859	3155.70833
1582.898	3220.04167
1585.934	3235.04167
1588.968	3268.70833
1591.999	3246.70833
1595.029	3247.04167
1598.056	3249.375
1601.081	3274.70833
1604.104	3267.04167
1607.125	3209.375
1610.144	3162.04167
1613.16	3092.70833
1616.174	3049.70833
1619.186	2996.04167
1622.196	2949.04167
1625.203	2920.70833
1628.209	2888.375
1631.212	2870.70833
1634.213	2898.375
1637.212	2867.70833
1640.209	2825.375
1643.203	2711.70833
1646.196	2623.04167
1649.186	2523.375
1652.174	2429.375
1655.16	2342.04167
1658.144	2259.375
1661.125	2164.375
1664.105	2080.375
1667.082	2000.04167
1670.057	1921.375
1673.03	1802.375
1676.001	1721.04167
1678.97	1644.375
1681.937	1545.375
1684.901	1494.04167
1687.863	1447.04167
1690.824	1395.70833
1693.782	1364.04167
1696.738	1306.375
1699.692	1288.375
1702.643	1257.70833
1705.593	1247.04167
1708.54	1229.04167
1711.486	1230.04167
1714.429	1198.04167
1717.37	1192.04167
1720.309	1164.375
1723.246	1173.04167
1726.181	1163.70833
1729.113	1154.04167
1732.044	1148.70833
1734.972	1141.04167
1737.899	1157.04167
1740.823	1146.70833
1743.745	1140.70833
1746.665	1090.70833
1749.583	1075.04167
1752.499	1067.04167
1755.413	1065.375
1758.325	1044.70833
1761.235	1024.375
1764.142	1016.70833
1767.048	1012.375
1769.951	1016.04167
1772.852	1015.04167
1775.752	987.70833
1778.649	987.70833
1781.544	987.375
1784.437	960.04167
1787.328	976.04167
1790.217	967.04167
1793.104	947.375
1795.989	939.70833
1798.872	942.70833
1801.753	962.70833
1804.631	945.04167
1807.508	949.70833
1810.383	956.04167
1813.255	936.375
1816.126	922.375
1818.994	938.375
1821.861	918.70833
1824.725	938.04167
1827.587	915.04167
1830.448	913.375
1833.306	889.70833
1836.162	907.70833
1839.017	890.04167
1841.869	887.70833
1844.719	882.375
1847.567	874.04167
1850.414	871.04167
1853.258	849.375
1856.1	878.375
1858.94	888.04167
1861.778	871.375
1864.614	876.04167
1867.448	862.70833
1870.28	851.70833
1873.111	877.04167
1875.939	867.375
1878.765	886.375
1881.589	858.04167
1884.411	861.04167
1887.231	864.375
1890.049	839.70833
1892.865	846.70833
1895.68	823.70833
1898.492	853.375
1901.302	833.375
1904.11	842.04167
1906.916	824.70833
1909.721	819.04167
1912.523	823.04167
1915.323	807.375
1918.122	815.04167
1920.918	811.04167
1923.712	793.04167
1926.505	797.375
1929.295	780.70833
1932.084	799.04167
1934.87	805.70833
1937.655	794.70833
1940.438	785.70833
1943.218	796.70833
1945.997	800.04167
1948.774	808.375
1951.549	793.70833
1954.322	773.70833
1957.093	781.04167
1959.862	779.70833
1962.629	780.375
1965.394	783.375
1968.157	754.375
1970.918	759.70833
1973.678	744.70833
1976.435	767.375
1979.19	748.375
1981.944	747.70833
1984.696	746.70833
1987.445	730.70833
1990.193	751.70833
1992.939	754.375
1995.683	738.70833
1998.425	714.375
2001.165	750.375
2003.903	728.04167
2006.639	731.04167
2009.374	738.70833
2012.106	740.70833
2014.837	711.70833
2017.566	734.04167
2020.292	730.70833
2023.017	724.70833
2025.74	708.375
2028.461	716.04167
2031.18	714.70833
2033.898	708.04167
2036.613	708.375
2039.327	714.04167
2042.038	701.70833
2044.748	693.375
2047.456	700.375
2050.162	689.70833
2052.866	693.70833
2055.568	709.375
2058.268	695.04167
2060.967	694.70833
2063.663	680.70833
2066.358	681.04167
2069.051	679.04167
2071.742	680.375
2074.431	686.04167
2077.118	693.70833
2079.804	666.04167
2082.487	676.70833
2085.169	687.375
2087.849	700.04167
2090.527	676.70833
2093.203	678.375
2095.877	697.70833
2098.55	694.375
2101.22	694.04167
2103.889	696.375
2106.556	700.375
2109.221	707.04167
2111.884	701.70833
2114.546	739.04167
2117.205	750.375
2119.863	783.70833
2122.519	813.70833
2125.173	843.70833
2127.825	886.70833
2130.475	921.70833
2133.124	895.04167
2135.771	858.70833
2138.416	848.70833
2141.059	807.70833
2143.7	787.04167
2146.339	745.04167
2148.977	709.70833
2151.613	711.04167
2154.247	685.04167
2156.879	684.70833
2159.51	665.70833
2162.138	645.04167
2164.765	654.70833
2167.39	621.70833
2170.013	646.375
2172.634	633.70833
2175.254	621.375
2177.872	665.04167
2180.488	607.375
2183.102	614.04167
2185.714	622.04167
2188.325	592.04167
2190.934	592.375
2193.541	608.375
2196.146	589.375
2198.75	577.04167
2201.351	581.375
2203.951	565.375
2206.549	578.70833
2209.146	571.70833
2211.74	575.375
2214.333	575.70833
2216.924	548.70833
2219.514	567.375
2222.101	552.70833
2224.687	581.375
2227.271	563.04167
2229.853	550.375
2232.433	534.375
2235.012	559.375
2237.589	556.70833
2240.164	569.375
2242.738	547.04167
2245.309	520.375
2247.879	549.375
2250.448	543.375
2253.014	528.70833
2255.579	521.04167
2258.142	526.70833
2260.703	520.70833
2263.262	519.04167
2265.82	511.375
2268.376	514.70833
2270.93	499.375
2273.483	504.375
2276.033	501.375
2278.583	498.04167
2281.13	495.04167
2283.675	488.375
2286.219	499.375
2288.761	495.375
2291.302	492.04167
2293.841	502.70833
2296.377	469.70833
2298.913	485.04167
2301.446	497.04167
2303.978	487.04167
2306.508	470.70833
2309.037	484.70833
2311.563	473.70833
2314.088	477.375
2316.612	456.70833
2319.133	471.375
2321.653	470.04167
2324.171	468.70833
2326.688	477.04167
2329.202	469.375
2331.715	462.375
2334.227	462.70833
2336.736	469.04167
2339.244	443.375
2341.751	441.70833
2344.255	456.04167
2346.758	460.375
2349.259	442.70833
2351.759	442.375
2354.257	441.70833
2356.753	434.04167
2359.247	443.375
2361.74	449.375
2364.231	449.375
2366.721	447.70833
2369.209	445.04167
2371.695	438.04167
2374.179	444.375
2376.662	427.375
2379.143	445.70833
2381.622	426.70833
2384.1	434.04167
2386.576	433.70833
2389.051	440.04167
2391.524	444.375
2393.995	433.375
2396.464	429.70833
2398.932	424.375
2401.398	419.375
2403.863	424.70833
2406.325	420.04167
2408.787	423.70833
2411.246	425.70833
2413.704	412.70833
2416.16	411.70833
2418.615	413.70833
2421.068	423.70833
2423.519	413.04167
2425.969	413.375
2428.417	408.70833
2430.863	434.70833
2433.308	419.04167
2435.751	417.04167
2438.193	408.04167
2440.633	409.04167
2443.071	422.375
2445.508	407.375
2447.943	404.04167
2450.376	399.70833
2452.808	402.70833
2455.238	398.375
2457.667	423.70833
2460.093	401.70833
2462.519	395.375
2464.942	387.04167
2467.365	400.04167
2469.785	403.04167
2472.204	397.375
2474.621	383.70833
2477.037	405.04167
2479.451	386.375
2481.863	380.375
2484.274	381.04167
2486.683	382.375
2489.091	396.70833
2491.497	388.70833
2493.901	403.04167
2496.304	384.375
2498.705	390.04167
2501.105	384.70833
2503.503	403.70833
2505.899	376.375
2508.294	394.04167
2510.687	382.04167
2513.079	381.70833
2515.469	370.04167
2517.858	380.70833
2520.245	387.04167
2522.63	374.04167
2525.014	371.04167
2527.396	368.70833
2529.776	362.04167
2532.156	378.70833
2534.533	366.04167
2536.909	359.375
2539.283	350.04167
2541.656	358.70833
2544.027	374.375
2546.397	358.70833
2548.765	359.375
2551.131	365.375
2553.496	366.70833
2555.86	364.375
2558.221	365.375
2560.582	366.04167
2562.94	345.70833
2565.298	350.70833
2567.653	366.375
2570.007	339.375
2572.36	366.70833
2574.711	344.04167
2577.06	368.375
2579.408	360.375
2581.754	354.70833
2584.099	359.04167
2586.442	357.375
2588.784	353.375
2591.124	357.375
2593.463	346.375
2595.8	353.70833
2598.135	341.70833
2600.469	344.70833
2602.802	350.04167
2605.133	356.375
2607.462	346.70833
2609.79	330.70833
2612.116	349.375
2614.441	350.70833
2616.764	348.04167
2619.086	348.70833
2621.406	331.04167
2623.725	357.04167
2626.042	355.04167
2628.358	339.70833
2630.672	337.04167
2632.985	351.04167
2635.296	341.04167
2637.606	339.04167
2639.914	337.04167
2642.22	337.04167
2644.525	334.04167
2646.829	340.04167
2649.131	349.70833
2651.432	354.375
2653.731	338.375
2656.028	343.375
2658.324	358.04167
2660.619	335.04167
2662.912	351.375
2665.204	337.70833
2667.494	343.375
2669.782	347.375
2672.07	349.70833
2674.355	350.04167
2676.639	349.70833
2678.922	331.04167
2681.203	344.375
2683.483	331.04167
2685.761	337.04167
2688.038	341.04167
2690.313	362.375
2692.587	343.70833
2694.859	330.375
2697.13	340.04167
2699.399	348.375
2701.667	352.375
2703.933	347.375
2706.198	352.70833
2708.461	358.04167
2710.723	358.375
2712.984	347.70833
2715.243	356.04167
2717.5	346.70833
2719.757	365.04167
2722.011	358.375
2724.264	356.04167
2726.516	363.375
2728.766	354.04167
2731.015	365.375
2733.262	361.375
2735.508	361.04167
2737.753	362.04167
2739.996	346.70833
2742.237	341.375
2744.477	362.70833
2746.716	355.04167
2748.953	346.04167
2751.189	355.04167
2753.423	341.04167
2755.656	336.04167
2757.887	336.04167
2760.117	338.375
2762.346	336.04167
2764.573	326.70833
2766.798	333.375
2769.022	323.375
2771.245	340.375
2773.467	338.375
2775.686	335.70833
2777.905	343.04167
2780.122	349.04167
2782.337	348.375
2784.552	338.375
2786.764	331.375
2788.976	337.04167
2791.186	351.375
2793.394	349.375
2795.601	350.04167
2797.807	363.04167
2800.011	359.375
2802.214	367.70833
2804.415	358.04167
2806.615	358.70833
2808.814	364.04167
2811.011	360.70833
2813.206	368.04167
2815.401	381.70833
2817.594	381.375
2819.785	386.04167
2821.975	376.375
2824.164	375.70833
2826.351	394.04167
2828.537	407.70833
2830.722	401.70833
2832.905	412.04167
2835.086	431.70833
2837.267	452.04167
2839.445	454.70833
2841.623	477.70833
2843.799	487.70833
2845.974	507.70833
2848.147	531.375
2850.319	546.375
2852.489	575.375
2854.659	580.375
2856.826	584.70833
2858.993	618.70833
2861.158	590.70833
2863.321	588.04167
2865.483	606.375
2867.644	611.375
2869.804	592.375
2871.962	598.375
2874.118	589.70833
2876.274	605.70833
2878.428	602.70833
2880.58	599.70833
2882.731	582.70833
2884.881	596.04167
2887.03	599.70833
2889.177	601.375
2891.322	604.375
2893.467	585.375
2895.61	594.375
2897.751	616.375
2899.892	615.70833
2902.03	612.04167
2904.168	614.375
2906.304	617.04167
2908.439	645.375
2910.572	625.375
2912.704	644.375
2914.835	641.04167
2916.965	636.04167
2919.093	645.04167
2921.219	619.04167
2923.345	641.04167
2925.469	612.70833
2927.591	619.04167
2929.712	586.70833
2931.832	596.70833
2933.951	589.04167
2936.068	576.04167
2938.184	561.04167
2940.299	547.375
2942.412	544.04167
2944.524	520.04167
2946.634	507.70833
2948.744	473.375
2950.851	500.04167
2952.958	464.04167
2955.063	468.70833
2957.167	457.375
2959.269	431.70833
2961.371	463.70833
2963.471	421.04167
2965.569	435.04167
2967.666	409.375
2969.762	402.70833
2971.857	394.375
2973.95	373.70833
2976.042	378.04167
2978.133	373.375
2980.222	366.04167
2982.31	356.04167
2984.396	337.375
2986.482	338.04167
2988.566	335.375
2990.648	336.375
2992.73	331.70833
2994.81	324.70833
2996.889	323.04167
2998.966	327.70833
3001.042	333.70833
3003.117	329.70833
3005.191	324.04167
3007.263	324.375
3009.334	307.375
3011.403	321.04167
3013.472	308.375
3015.539	313.375
3017.604	315.04167
3019.669	291.04167
3021.732	291.04167
3023.794	300.375
3025.854	286.375
3027.914	280.70833
3029.971	295.04167
3032.028	286.70833
3034.083	288.375
3036.137	289.70833
3038.19	278.04167
3040.242	270.04167
3042.292	258.375
3044.341	268.04167
3046.388	286.375
3048.435	257.375
3050.48	275.375
3052.524	265.375
3054.566	251.70833
3056.607	265.04167
3058.647	252.375
3060.686	241.375
3062.723	236.375
3064.759	223.04167
3066.794	-0.625
3068.828	3.375
3070.86	2.04167
