-0.839	658.83333
3.438	751.83333
7.711	221.16667
11.981	69.16667
16.247	52.16667
20.509	50.83333
24.768	47.83333
29.024	52.83333
33.276	45.83333
37.524	48.5
41.769	50.5
46.01	35.83333
50.247	50.16667
54.481	58.5
58.712	60.16667
62.939	47.83333
67.162	63.16667
71.382	54.83333
75.599	43.83333
79.812	64.5
84.021	78.83333
88.227	61.16667
92.429	60.5
96.628	51.16667
100.823	69.83333
105.015	72.83333
109.204	64.5
113.388	74.5
117.57	76.16667
121.748	83.5
125.922	76.16667
130.093	95.83333
134.261	99.83333
138.425	96.16667
142.585	134.5
146.742	123.83333
150.896	154.5
155.046	195.16667
159.193	303.83333
163.336	516.16667
167.476	926.16667
171.613	1707.16667
175.746	2831.83333
179.875	4139.5
184.002	5411.16667
188.124	6332.5
192.244	6632.83333
196.36	6663.16667
200.472	6514.5
204.581	6394.5
208.687	6284.5
212.79	6223.16667
216.889	6194.16667
220.984	6194.16667
225.077	6200.83333
229.165	6226.5
233.251	6241.83333
237.333	6199.5
241.412	6178.5
245.487	6146.5
249.559	6105.83333
253.628	6007.5
257.694	5939.83333
261.756	5917.16667
265.814	5798.16667
269.87	5641.5
273.922	5457.16667
277.97	5297.5
282.016	5184.83333
286.058	5126.5
290.097	5099.16667
294.132	5084.16667
298.164	5021.83333
302.193	4891.83333
306.219	4665.16667
310.241	4386.16667
314.26	4057.83333
318.276	3852.16667
322.288	3731.16667
326.297	3596.16667
330.303	3511.16667
334.305	3454.5
338.305	3386.16667
342.301	3386.16667
346.294	3377.83333
350.283	3355.83333
354.269	3307.83333
358.252	3305.16667
362.232	3323.83333
366.209	3279.5
370.182	3260.83333
374.152	3238.83333
378.119	3245.5
382.083	3236.16667
386.043	3266.5
390	3218.5
393.954	3265.16667
397.905	3239.5
401.852	3244.5
405.797	3223.16667
409.738	3223.83333
413.676	3262.16667
417.61	3250.16667
421.542	3254.5
425.47	3201.83333
429.396	3182.16667
433.318	3195.16667
437.236	3150.16667
441.152	3201.5
445.065	3137.83333
448.974	3155.83333
452.88	3138.5
456.783	3136.5
460.683	3108.83333
464.58	3121.16667
468.473	3137.5
472.364	3137.83333
476.251	3155.5
480.135	3156.83333
484.016	3204.16667
487.894	3215.5
491.769	3255.5
495.641	3242.83333
499.509	3230.16667
503.375	3242.5
507.237	3217.83333
511.096	3195.16667
514.952	3218.83333
518.805	3206.16667
522.655	3188.5
526.502	3187.5
530.346	3174.83333
534.187	3160.16667
538.024	3184.83333
541.859	3187.83333
545.69	3205.16667
549.519	3173.5
553.344	3153.83333
557.166	3132.16667
560.985	3102.5
564.802	3061.83333
568.615	3019.16667
572.425	2968.5
576.232	2985.83333
580.036	2969.16667
583.836	2988.83333
587.634	2983.5
591.429	2998.16667
595.221	3037.5
599.01	3088.83333
602.796	3089.16667
606.578	3101.5
610.358	3134.5
614.135	3095.83333
617.909	3119.16667
621.679	3072.5
625.447	3059.83333
629.212	3047.83333
632.973	3038.5
636.732	3015.16667
640.488	3029.5
644.241	3003.16667
647.991	3002.16667
651.737	3018.83333
655.481	2988.16667
659.222	3027.16667
662.96	3006.5
666.695	3027.83333
670.427	3021.83333
674.156	3034.16667
677.882	3014.5
681.605	3014.83333
685.325	3003.16667
689.043	2997.16667
692.757	2979.83333
696.468	2996.83333
700.177	2961.5
703.882	2959.16667
707.585	2938.16667
711.284	2940.83333
714.981	2936.16667
718.675	2912.5
722.366	2952.83333
726.054	2914.5
729.739	2913.16667
733.421	2893.5
737.1	2873.16667
740.777	2919.5
744.45	2936.16667
748.121	2940.16667
751.789	3003.83333
755.453	2958.83333
759.115	2980.83333
762.774	2983.83333
766.431	3011.83333
770.084	3030.16667
773.734	3043.5
777.382	3049.5
781.027	3083.83333
784.669	3093.83333
788.308	3106.16667
791.944	3100.16667
795.577	3078.5
799.208	3124.5
802.835	3148.16667
806.46	3156.16667
810.082	3165.5
813.701	3201.83333
817.317	3207.16667
820.931	3195.16667
824.542	3219.16667
828.149	3142.5
831.754	3122.83333
835.357	3084.16667
838.956	3099.16667
842.553	3084.5
846.146	3081.83333
849.737	3024.83333
853.326	3014.83333
856.911	3024.83333
860.493	3043.83333
864.073	3048.83333
867.65	3073.16667
871.225	3134.5
874.796	3090.5
878.365	3076.16667
881.931	3128.16667
885.494	3125.16667
889.054	3120.83333
892.612	3120.83333
896.166	3062.83333
899.719	3053.5
903.268	3028.5
906.814	3005.16667
910.358	2970.16667
913.899	2991.5
917.438	2955.83333
920.973	2934.5
924.506	2987.83333
928.036	3015.5
931.564	3070.5
935.088	3103.16667
938.61	3073.5
942.129	3126.16667
945.646	3163.16667
949.16	3205.83333
952.671	3249.83333
956.179	3247.83333
959.685	3243.16667
963.188	3255.83333
966.688	3229.16667
970.185	3117.83333
973.68	3089.5
977.173	3023.16667
980.662	2984.83333
984.149	2981.83333
987.633	2944.16667
991.114	3020.83333
994.593	3044.83333
998.069	3097.16667
1001.542	3168.83333
1005.013	3152.16667
1008.481	3006.16667
1011.947	2949.16667
1015.409	2938.83333
1018.869	2898.16667
1022.327	2931.5
1025.782	2902.83333
1029.234	2907.83333
1032.683	2887.83333
1036.13	2824.16667
1039.574	2700.16667
1043.016	2651.16667
1046.455	2605.83333
1049.891	2590.5
1053.325	2615.5
1056.756	2590.5
1060.184	2603.16667
1063.61	2618.16667
1067.033	2609.83333
1070.454	2636.83333
1073.872	2679.83333
1077.287	2645.5
1080.7	2650.83333
1084.11	2656.5
1087.517	2619.16667
1090.922	2584.83333
1094.325	2547.83333
1097.724	2534.16667
1101.122	2530.5
1104.516	2573.5
1107.908	2522.83333
1111.298	2570.5
1114.684	2593.5
1118.069	2622.16667
1121.45	2656.5
1124.83	2613.16667
1128.206	2649.5
1131.58	2674.83333
1134.951	2716.83333
1138.32	2791.83333
1141.687	2865.16667
1145.05	2927.83333
1148.412	2944.16667
1151.77	2934.16667
1155.126	2918.83333
1158.48	2902.83333
1161.831	2932.5
1165.18	2931.83333
1168.525	2981.16667
1171.869	2975.83333
1175.21	3006.16667
1178.548	3032.83333
1181.884	3037.5
1185.217	3075.83333
1188.548	3112.5
1191.877	3174.16667
1195.202	3227.5
1198.526	3271.83333
1201.846	3285.5
1205.165	3301.16667
1208.48	3272.16667
1211.794	3268.16667
1215.104	3291.83333
1218.413	3270.5
1221.719	3239.83333
1225.022	3191.5
1228.323	3148.16667
1231.621	3111.83333
1234.917	3100.16667
1238.21	3106.16667
1241.501	3103.5
1244.79	3097.5
1248.076	3093.5
1251.359	3137.16667
1254.64	3177.16667
1257.919	3224.16667
1261.195	3261.5
1264.468	3312.16667
1267.74	3355.83333
1271.008	3344.83333
1274.275	3374.5
1277.538	3316.83333
1280.8	3298.16667
1284.059	3291.5
1287.315	3342.5
1290.569	3322.5
1293.821	3334.16667
1297.07	3323.16667
1300.317	3356.83333
1303.562	3333.83333
1306.803	3302.83333
1310.043	3277.83333
1313.28	3265.16667
1316.515	3244.5
1319.747	3242.16667
1322.977	3217.5
1326.204	3193.83333
1329.429	3193.16667
1332.652	3193.5
1335.872	3170.5
1339.09	3148.83333
1342.306	3154.16667
1345.519	3087.5
1348.729	3043.83333
1351.938	3013.83333
1355.144	2937.83333
1358.347	2918.5
1361.548	2932.5
1364.747	2916.5
1367.944	2876.83333
1371.138	2873.83333
1374.329	2850.16667
1377.518	2867.83333
1380.705	2870.5
1383.89	2841.16667
1387.072	2779.83333
1390.252	2717.5
1393.429	2651.5
1396.605	2573.5
1399.777	2513.16667
1402.948	2501.83333
1406.116	2488.16667
1409.282	2478.83333
1412.445	2485.83333
1415.606	2494.16667
1418.765	2510.83333
1421.921	2557.83333
1425.075	2563.16667
1428.227	2649.5
1431.376	2746.83333
1434.524	2843.5
1437.668	2917.5
1440.811	2963.83333
1443.951	2951.5
1447.089	2988.83333
1450.224	2977.16667
1453.357	2966.83333
1456.488	2957.83333
1459.617	2921.5
1462.743	2898.5
1465.867	2813.16667
1468.989	2797.16667
1472.108	2770.16667
1475.225	2728.83333
1478.34	2692.16667
1481.453	2712.16667
1484.563	2694.16667
1487.671	2716.83333
1490.776	2717.16667
1493.88	2771.16667
1496.981	2797.5
1500.08	2838.83333
1503.176	2866.16667
1506.271	2888.16667
1509.363	2941.5
1512.452	2942.83333
1515.54	2970.5
1518.625	3045.83333
1521.708	3093.16667
1524.789	3183.5
1527.867	3295.83333
1530.944	3456.83333
1534.018	3571.5
1537.089	3696.16667
1540.159	3702.5
1543.226	3677.16667
1546.291	3597.83333
1549.354	3515.16667
1552.415	3438.83333
1555.473	3356.5
1558.529	3275.83333
1561.583	3244.83333
1564.634	3192.16667
1567.684	3175.16667
1570.731	3200.5
1573.776	3206.16667
1576.819	3273.5
1579.859	3315.5
1582.898	3344.83333
1585.934	3364.16667
1588.968	3376.5
1591.999	3359.5
1595.029	3358.83333
1598.056	3366.83333
1601.081	3381.5
1604.104	3342.83333
1607.125	3339.83333
1610.144	3287.83333
1613.16	3235.5
1616.174	3189.5
1619.186	3138.16667
1622.196	3108.5
1625.203	3047.83333
1628.209	3026.83333
1631.212	3028.5
1634.213	3055.5
1637.212	3088.83333
1640.209	3039.16667
1643.203	2939.83333
1646.196	2836.83333
1649.186	2684.5
1652.174	2582.83333
1655.16	2511.16667
1658.144	2431.83333
1661.125	2316.16667
1664.105	2203.5
1667.082	2105.83333
1670.057	2009.5
1673.03	1907.5
1676.001	1825.16667
1678.97	1741.83333
1681.937	1659.16667
1684.901	1563.16667
1687.863	1536.83333
1690.824	1479.5
1693.782	1457.83333
1696.738	1387.16667
1699.692	1370.16667
1702.643	1327.16667
1705.593	1317.16667
1708.54	1309.5
1711.486	1311.16667
1714.429	1273.16667
1717.37	1262.5
1720.309	1260.5
1723.246	1275.83333
1726.181	1225.83333
1729.113	1245.5
1732.044	1221.16667
1734.972	1208.5
1737.899	1238.16667
1740.823	1208.16667
1743.745	1217.16667
1746.665	1177.83333
1749.583	1149.5
1752.499	1145.16667
1755.413	1141.83333
1758.325	1118.16667
1761.235	1101.5
1764.142	1095.16667
1767.048	1075.83333
1769.951	1074.83333
1772.852	1080.16667
1775.752	1063.16667
1778.649	1072.5
1781.544	1061.5
1784.437	1040.16667
1787.328	1064.83333
1790.217	1046.5
1793.104	1025.5
1795.989	1018.5
1798.872	1009.16667
1801.753	1015.83333
1804.631	1030.83333
1807.508	1030.16667
1810.383	1013.16667
1813.255	1002.83333
1816.126	1022.5
1818.994	1005.5
1821.861	999.5
1824.725	995.16667
1827.587	991.83333
1830.448	971.16667
1833.306	959.83333
1836.162	979.5
1839.017	955.5
1841.869	950.83333
1844.719	958.5
1847.567	949.16667
1850.414	932.5
1853.258	934.83333
1856.1	933.5
1858.94	944.16667
1861.778	939.5
1864.614	940.5
1867.448	918.83333
1870.28	907.16667
1873.111	946.16667
1875.939	926.83333
1878.765	941.5
1881.589	927.16667
1884.411	919.5
1887.231	922.83333
1890.049	921.83333
1892.865	918.83333
1895.68	885.83333
1898.492	911.16667
1901.302	888.83333
1904.11	894.83333
1906.916	892.83333
1909.721	878.16667
1912.523	885.5
1915.323	867.5
1918.122	872.16667
1920.918	872.16667
1923.712	861.83333
1926.505	848.83333
1929.295	846.83333
1932.084	855.16667
1934.87	860.83333
1937.655	858.16667
1940.438	859.5
1943.218	852.5
1945.997	862.5
1948.774	858.16667
1951.549	862.5
1954.322	846.83333
1957.093	844.83333
1959.862	830.83333
1962.629	829.16667
1965.394	823.5
1968.157	803.83333
1970.918	823.83333
1973.678	795.83333
1976.435	814.16667
1979.19	802.5
1981.944	803.5
1984.696	794.83333
1987.445	792.83333
1990.193	794.83333
1992.939	801.5
1995.683	783.83333
1998.425	772.16667
2001.165	814.83333
2003.903	785.83333
2006.639	787.5
2009.374	793.83333
2012.106	788.16667
2014.837	767.5
2017.566	787.5
2020.292	774.83333
2023.017	786.16667
2025.74	779.83333
2028.461	761.16667
2031.18	762.16667
2033.898	754.5
2036.613	766.83333
2039.327	752.5
2042.038	752.16667
2044.748	749.5
2047.456	741.5
2050.162	732.83333
2052.866	743.5
2055.568	757.83333
2058.268	739.83333
2060.967	738.5
2063.663	725.83333
2066.358	737.16667
2069.051	724.5
2071.742	722.5
2074.431	725.5
2077.118	734.16667
2079.804	723.16667
2082.487	727.5
2085.169	734.16667
2087.849	732.83333
2090.527	716.16667
2093.203	719.83333
2095.877	729.83333
2098.55	730.5
2101.22	729.83333
2103.889	741.5
2106.556	738.83333
2109.221	745.5
2111.884	744.5
2114.546	781.5
2117.205	804.16667
2119.863	838.83333
2122.519	850.83333
2125.173	887.16667
2127.825	935.83333
2130.475	943.83333
2133.124	914.16667
2135.771	903.83333
2138.416	896.5
2141.059	848.16667
2143.7	826.16667
2146.339	799.83333
2148.977	765.83333
2151.613	757.83333
2154.247	729.16667
2156.879	732.16667
2159.51	689.83333
2162.138	689.83333
2164.765	689.16667
2167.39	674.16667
2170.013	686.16667
2172.634	673.16667
2175.254	664.5
2177.872	690.83333
2180.488	651.83333
2183.102	651.5
2185.714	658.5
2188.325	621.83333
2190.934	634.83333
2193.541	644.5
2196.146	626.83333
2198.75	612.83333
2201.351	604.16667
2203.951	601.5
2206.549	615.16667
2209.146	602.16667
2211.74	603.5
2214.333	610.5
2216.924	589.5
2219.514	604.5
2222.101	591.5
2224.687	608.5
2227.271	590.16667
2229.853	575.5
2232.433	573.16667
2235.012	599.16667
2237.589	594.5
2240.164	595.83333
2242.738	589.83333
2245.309	563.83333
2247.879	578.16667
2250.448	583.83333
2253.014	559.5
2255.579	550.5
2258.142	558.5
2260.703	547.5
2263.262	553.16667
2265.82	543.16667
2268.376	547.83333
2270.93	531.5
2273.483	531.16667
2276.033	535.16667
2278.583	531.5
2281.13	529.5
2283.675	516.83333
2286.219	520.83333
2288.761	520.5
2291.302	517.83333
2293.841	527.5
2296.377	512.16667
2298.913	513.83333
2301.446	512.83333
2303.978	516.83333
2306.508	510.16667
2309.037	501.5
2311.563	509.16667
2314.088	512.83333
2316.612	496.83333
2319.133	504.5
2321.653	505.83333
2324.171	484.16667
2326.688	509.83333
2329.202	494.16667
2331.715	489.5
2334.227	477.16667
2336.736	496.16667
2339.244	486.83333
2341.751	474.16667
2344.255	491.16667
2346.758	478.16667
2349.259	468.83333
2351.759	469.16667
2354.257	474.83333
2356.753	462.16667
2359.247	477.16667
2361.74	480.83333
2364.231	466.16667
2366.721	468.5
2369.209	457.16667
2371.695	468.83333
2374.179	456.16667
2376.662	455.5
2379.143	474.16667
2381.622	451.16667
2384.1	459.83333
2386.576	450.16667
2389.051	466.5
2391.524	471.83333
2393.995	466.16667
2396.464	438.5
2398.932	448.5
2401.398	437.16667
2403.863	454.16667
2406.325	450.83333
2408.787	452.83333
2411.246	442.16667
2413.704	441.16667
2416.16	434.83333
2418.615	441.16667
2421.068	455.83333
2423.519	437.83333
2425.969	432.5
2428.417	441.5
2430.863	458.83333
2433.308	439.16667
2435.751	439.16667
2438.193	437.83333
2440.633	440.5
2443.071	436.5
2445.508	429.83333
2447.943	427.16667
2450.376	415.83333
2452.808	424.5
2455.238	410.83333
2457.667	458.5
2460.093	419.5
2462.519	413.16667
2464.942	412.83333
2467.365	416.83333
2469.785	426.16667
2472.204	415.5
2474.621	408.83333
2477.037	428.5
2479.451	399.83333
2481.863	399.16667
2484.274	406.83333
2486.683	410.5
2489.091	410.16667
2491.497	407.16667
2493.901	418.5
2496.304	405.5
2498.705	407.16667
2501.105	398.83333
2503.503	425.5
2505.899	395.16667
2508.294	418.83333
2510.687	392.5
2513.079	396.16667
2515.469	386.83333
2517.858	391.16667
2520.245	406.5
2522.63	393.16667
2525.014	385.16667
2527.396	379.83333
2529.776	377.5
2532.156	398.16667
2534.533	374.83333
2536.909	382.83333
2539.283	370.5
2541.656	372.16667
2544.027	402.16667
2546.397	382.5
2548.765	370.16667
2551.131	385.16667
2553.496	371.83333
2555.86	376.16667
2558.221	376.83333
2560.582	378.83333
2562.94	366.83333
2565.298	371.83333
2567.653	387.5
2570.007	356.83333
2572.36	386.5
2574.711	361.83333
2577.06	383.5
2579.408	379.5
2581.754	359.5
2584.099	372.16667
2586.442	365.83333
2588.784	369.16667
2591.124	363.83333
2593.463	370.83333
2595.8	378.16667
2598.135	352.83333
2600.469	356.5
2602.802	370.16667
2605.133	369.16667
2607.462	357.16667
2609.79	354.16667
2612.116	364.5
2614.441	365.16667
2616.764	363.16667
2619.086	355.16667
2621.406	343.16667
2623.725	369.83333
2626.042	361.83333
2628.358	352.5
2630.672	356.83333
2632.985	370.5
2635.296	360.83333
2637.606	353.83333
2639.914	348.83333
2642.22	355.16667
2644.525	357.16667
2646.829	356.83333
2649.131	369.83333
2651.432	371.16667
2653.731	353.16667
2656.028	363.5
2658.324	369.5
2660.619	354.16667
2662.912	361.83333
2665.204	343.83333
2667.494	366.5
2669.782	350.16667
2672.07	368.16667
2674.355	364.5
2676.639	354.16667
2678.922	338.5
2681.203	353.83333
2683.483	342.83333
2685.761	347.5
2688.038	354.5
2690.313	361.5
2692.587	356.5
2694.859	339.16667
2697.13	358.16667
2699.399	358.16667
2701.667	366.83333
2703.933	358.16667
2706.198	364.5
2708.461	361.83333
2710.723	372.16667
2712.984	360.83333
2715.243	363.83333
2717.5	353.83333
2719.757	365.16667
2722.011	360.83333
2724.264	369.16667
2726.516	378.16667
2728.766	367.5
2731.015	373.5
2733.262	372.83333
2735.508	361.83333
2737.753	369.16667
2739.996	356.16667
2742.237	358.5
2744.477	361.16667
2746.716	373.5
2748.953	362.83333
2751.189	360.83333
2753.423	356.5
2755.656	333.83333
2757.887	335.83333
2760.117	350.5
2762.346	336.5
2764.573	329.16667
2766.798	333.16667
2769.022	333.16667
2771.245	344.16667
2773.467	345.5
2775.686	349.16667
2777.905	342.5
2780.122	344.5
2782.337	350.83333
2784.552	342.83333
2786.764	345.83333
2788.976	353.5
2791.186	357.5
2793.394	351.83333
2795.601	365.5
2797.807	365.16667
2800.011	367.5
2802.214	370.16667
2804.415	363.83333
2806.615	364.83333
2808.814	360.16667
2811.011	374.16667
2813.206	370.16667
2815.401	376.83333
2817.594	395.16667
2819.785	387.16667
2821.975	383.16667
2824.164	378.83333
2826.351	386.16667
2828.537	409.16667
2830.722	409.5
2832.905	407.83333
2835.086	435.16667
2837.267	459.16667
2839.445	472.5
2841.623	474.83333
2843.799	492.16667
2845.974	523.16667
2848.147	530.5
2850.319	553.16667
2852.489	573.5
2854.659	573.83333
2856.826	592.5
2858.993	615.5
2861.158	591.83333
2863.321	593.5
2865.483	620.83333
2867.644	617.16667
2869.804	604.5
2871.962	599.5
2874.118	607.16667
2876.274	605.16667
2878.428	596.16667
2880.58	599.83333
2882.731	597.5
2884.881	582.5
2887.03	601.5
2889.177	602.16667
2891.322	615.16667
2893.467	609.5
2895.61	615.16667
2897.751	640.16667
2899.892	608.5
2902.03	616.16667
2904.168	629.16667
2906.304	629.5
2908.439	649.5
2910.572	630.16667
2912.704	642.5
2914.835	647.83333
2916.965	641.83333
2919.093	662.5
2921.219	634.16667
2923.345	648.16667
2925.469	626.16667
2927.591	634.83333
2929.712	610.83333
2931.832	612.16667
2933.951	598.16667
2936.068	580.5
2938.184	570.16667
2940.299	560.16667
2942.412	541.83333
2944.524	512.16667
2946.634	520.5
2948.744	470.83333
2950.851	513.16667
2952.958	465.83333
2955.063	474.16667
2957.167	474.5
2959.269	439.5
2961.371	464.5
2963.471	429.83333
2965.569	440.83333
2967.666	403.83333
2969.762	406.16667
2971.857	396.5
2973.95	384.83333
2976.042	390.83333
2978.133	370.16667
2980.222	366.83333
2982.31	354.83333
2984.396	343.83333
2986.482	349.16667
2988.566	344.5
2990.648	341.83333
2992.73	333.16667
2994.81	327.83333
2996.889	339.5
2998.966	323.83333
3001.042	341.16667
3003.117	330.16667
3005.191	330.83333
3007.263	326.83333
3009.334	322.5
3011.403	323.83333
3013.472	311.16667
3015.539	324.5
3017.604	323.5
3019.669	285.83333
3021.732	294.83333
3023.794	298.16667
3025.854	284.5
3027.914	292.5
3029.971	299.5
3032.028	290.5
3034.083	300.5
3036.137	290.5
3038.19	277.83333
3040.242	269.83333
3042.292	264.5
3044.341	266.83333
3046.388	280.5
3048.435	264.16667
3050.48	279.16667
3052.524	269.5
3054.566	258.16667
3056.607	264.5
3058.647	256.16667
3060.686	242.5
3062.723	235.5
3064.759	226.83333
3066.794	0.83333
3068.828	2.5
3070.86	4.16667
