-0.839	437.79167
3.438	509.45833
7.711	158.125
11.981	62.79167
16.247	44.45833
20.509	50.45833
24.768	42.45833
29.024	55.125
33.276	40.79167
37.524	48.45833
41.769	43.45833
46.01	31.45833
50.247	45.125
54.481	57.45833
58.712	60.125
62.939	45.45833
67.162	58.79167
71.382	54.79167
75.599	44.79167
79.812	62.125
84.021	77.125
88.227	60.125
92.429	56.125
96.628	49.125
100.823	63.79167
105.015	75.45833
109.204	65.79167
113.388	71.125
117.57	71.125
121.748	80.45833
125.922	74.125
130.093	91.125
134.261	96.125
138.425	94.79167
142.585	128.45833
146.742	120.45833
150.896	150.125
155.046	191.125
159.193	295.125
163.336	500.125
167.476	903.79167
171.613	1640.45833
175.746	2706.79167
179.875	3944.45833
184.002	5074.79167
188.124	5836.125
192.244	6055.125
196.36	5963.45833
200.472	5766.45833
204.581	5581.125
208.687	5429.45833
212.79	5309.125
216.889	5298.79167
220.984	5270.79167
225.077	5275.125
229.165	5240.125
233.251	5237.125
237.333	5220.79167
241.412	5125.45833
245.487	5086.45833
249.559	5018.45833
253.628	4957.79167
257.694	4897.125
261.756	4858.125
265.814	4755.125
269.87	4586.79167
273.922	4405.45833
277.97	4280.125
282.016	4166.45833
286.058	4143.79167
290.097	4125.125
294.132	4176.125
298.164	4118.79167
302.193	3951.125
306.219	3705.125
310.241	3428.125
314.26	3194.125
318.276	3006.45833
322.288	2854.79167
326.297	2728.79167
330.303	2657.79167
334.305	2591.45833
338.305	2571.79167
342.301	2527.45833
346.294	2513.45833
350.283	2478.125
354.269	2472.79167
358.252	2456.79167
362.232	2445.45833
366.209	2419.125
370.182	2381.45833
374.152	2392.79167
378.119	2375.45833
382.083	2374.79167
386.043	2400.125
390	2371.125
393.954	2377.45833
397.905	2371.45833
401.852	2356.45833
405.797	2325.79167
409.738	2340.125
413.676	2341.45833
417.61	2336.79167
421.542	2320.45833
425.47	2288.79167
429.396	2272.79167
433.318	2253.45833
437.236	2248.125
441.152	2295.79167
445.065	2238.79167
448.974	2216.45833
452.88	2201.79167
456.783	2196.125
460.683	2182.125
464.58	2161.125
468.473	2172.45833
472.364	2197.125
476.251	2175.125
480.135	2191.125
484.016	2224.125
487.894	2215.45833
491.769	2224.79167
495.641	2224.45833
499.509	2238.45833
503.375	2250.79167
507.237	2223.45833
511.096	2246.45833
514.952	2331.45833
518.805	2370.79167
522.655	2401.45833
526.502	2304.125
530.346	2259.125
534.187	2254.45833
538.024	2266.45833
541.859	2260.125
545.69	2268.125
549.519	2274.125
553.344	2250.79167
557.166	2193.45833
560.985	2185.45833
564.802	2162.79167
568.615	2132.125
572.425	2119.125
576.232	2103.125
580.036	2078.79167
583.836	2090.125
587.634	2088.79167
591.429	2107.125
595.221	2151.45833
599.01	2143.79167
602.796	2176.45833
606.578	2177.125
610.358	2178.125
614.135	2193.45833
617.909	2178.79167
621.679	2143.125
625.447	2123.79167
629.212	2132.79167
632.973	2143.79167
636.732	2131.79167
640.488	2122.45833
644.241	2121.125
647.991	2117.125
651.737	2138.45833
655.481	2132.125
659.222	2143.125
662.96	2132.45833
666.695	2140.79167
670.427	2159.125
674.156	2151.45833
677.882	2119.125
681.605	2139.125
685.325	2088.45833
689.043	2116.45833
692.757	2094.45833
696.468	2084.45833
700.177	2079.79167
703.882	2082.45833
707.585	2058.125
711.284	2040.45833
714.981	2067.125
718.675	2061.45833
722.366	2078.45833
726.054	2057.125
729.739	2052.125
733.421	2071.79167
737.1	2041.45833
740.777	2098.45833
744.45	2088.45833
748.121	2111.45833
751.789	2150.79167
755.453	2127.45833
759.115	2148.45833
762.774	2153.45833
766.431	2151.79167
770.084	2192.79167
773.734	2207.45833
777.382	2251.125
781.027	2246.125
784.669	2282.45833
788.308	2281.45833
791.944	2305.79167
795.577	2300.45833
799.208	2325.79167
802.835	2337.45833
806.46	2365.79167
810.082	2373.125
813.701	2396.79167
817.317	2428.125
820.931	2425.45833
824.542	2397.125
828.149	2364.45833
831.754	2334.125
835.357	2313.79167
838.956	2333.79167
842.553	2311.45833
846.146	2319.79167
849.737	2277.79167
853.326	2273.125
856.911	2284.125
860.493	2308.125
864.073	2318.45833
867.65	2339.45833
871.225	2382.45833
874.796	2375.125
878.365	2382.45833
881.931	2388.125
885.494	2416.79167
889.054	2373.45833
892.612	2394.45833
896.166	2363.45833
899.719	2353.125
903.268	2312.79167
906.814	2322.125
910.358	2285.125
913.899	2310.45833
917.438	2288.45833
920.973	2273.125
924.506	2326.125
928.036	2366.45833
931.564	2397.45833
935.088	2416.125
938.61	2397.125
942.129	2432.125
945.646	2497.125
949.16	2531.125
952.671	2580.79167
956.179	2580.79167
959.685	2593.45833
963.188	2622.125
966.688	2594.125
970.185	2510.79167
973.68	2446.125
977.173	2373.45833
980.662	2330.45833
984.149	2348.125
987.633	2341.125
991.114	2391.79167
994.593	2410.79167
998.069	2488.45833
1001.542	2557.125
1005.013	2484.125
1008.481	2374.79167
1011.947	2331.79167
1015.409	2311.45833
1018.869	2335.45833
1022.327	2329.125
1025.782	2303.125
1029.234	2297.125
1032.683	2269.79167
1036.13	2199.45833
1039.574	2129.45833
1043.016	2081.125
1046.455	2021.45833
1049.891	2001.45833
1053.325	2018.79167
1056.756	2037.45833
1060.184	2043.79167
1063.61	2054.79167
1067.033	2061.45833
1070.454	2076.45833
1073.872	2098.79167
1077.287	2090.45833
1080.7	2110.125
1084.11	2069.125
1087.517	2054.125
1090.922	2032.79167
1094.325	2009.125
1097.724	2006.125
1101.122	2006.125
1104.516	1991.125
1107.908	1990.79167
1111.298	2029.45833
1114.684	2048.125
1118.069	2067.79167
1121.45	2110.45833
1124.83	2083.45833
1128.206	2107.45833
1131.58	2139.79167
1134.951	2180.45833
1138.32	2241.45833
1141.687	2357.125
1145.05	2378.125
1148.412	2383.125
1151.77	2397.45833
1155.126	2362.45833
1158.48	2351.45833
1161.831	2394.45833
1165.18	2384.45833
1168.525	2401.125
1171.869	2432.45833
1175.21	2435.45833
1178.548	2452.45833
1181.884	2489.45833
1185.217	2499.79167
1188.548	2550.45833
1191.877	2615.45833
1195.202	2710.79167
1198.526	2759.125
1201.846	2753.125
1205.165	2753.125
1208.48	2739.125
1211.794	2733.45833
1215.104	2748.45833
1218.413	2731.79167
1221.719	2741.125
1225.022	2702.125
1228.323	2668.45833
1231.621	2633.125
1234.917	2610.79167
1238.21	2636.125
1241.501	2609.125
1244.79	2627.125
1248.076	2612.125
1251.359	2638.125
1254.64	2694.79167
1257.919	2707.125
1261.195	2743.125
1264.468	2788.79167
1267.74	2833.125
1271.008	2859.125
1274.275	2852.125
1277.538	2804.79167
1280.8	2798.79167
1284.059	2801.125
1287.315	2829.79167
1290.569	2855.45833
1293.821	2864.125
1297.07	2891.125
1300.317	2883.45833
1303.562	2890.45833
1306.803	2892.45833
1310.043	2864.125
1313.28	2855.125
1316.515	2839.125
1319.747	2830.79167
1322.977	2793.79167
1326.204	2788.125
1329.429	2743.125
1332.652	2752.79167
1335.872	2706.45833
1339.09	2685.45833
1342.306	2700.45833
1345.519	2652.45833
1348.729	2646.79167
1351.938	2675.79167
1355.144	2635.79167
1358.347	2593.45833
1361.548	2561.45833
1364.747	2551.79167
1367.944	2509.79167
1371.138	2534.79167
1374.329	2515.79167
1377.518	2531.79167
1380.705	2545.45833
1383.89	2531.79167
1387.072	2480.45833
1390.252	2376.45833
1393.429	2286.125
1396.605	2225.79167
1399.777	2152.125
1402.948	2119.45833
1406.116	2106.125
1409.282	2094.45833
1412.445	2107.79167
1415.606	2116.125
1418.765	2140.125
1421.921	2202.45833
1425.075	2215.45833
1428.227	2285.125
1431.376	2408.79167
1434.524	2491.125
1437.668	2562.79167
1440.811	2604.45833
1443.951	2634.79167
1447.089	2637.125
1450.224	2624.125
1453.357	2582.79167
1456.488	2580.125
1459.617	2545.79167
1462.743	2509.125
1465.867	2455.45833
1468.989	2412.79167
1472.108	2381.45833
1475.225	2353.45833
1478.34	2310.45833
1481.453	2321.125
1484.563	2330.79167
1487.671	2361.79167
1490.776	2374.125
1493.88	2411.79167
1496.981	2436.79167
1500.08	2487.45833
1503.176	2497.125
1506.271	2536.125
1509.363	2580.45833
1512.452	2607.45833
1515.54	2627.45833
1518.625	2664.79167
1521.708	2723.45833
1524.789	2822.125
1527.867	2911.79167
1530.944	3034.125
1534.018	3159.45833
1537.089	3259.45833
1540.159	3274.45833
1543.226	3231.125
1546.291	3172.45833
1549.354	3095.79167
1552.415	3048.79167
1555.473	2976.125
1558.529	2925.79167
1561.583	2881.79167
1564.634	2904.125
1567.684	2917.45833
1570.731	2929.125
1573.776	3010.45833
1576.819	3029.45833
1579.859	3105.45833
1582.898	3139.45833
1585.934	3156.45833
1588.968	3192.45833
1591.999	3169.79167
1595.029	3177.125
1598.056	3191.45833
1601.081	3228.125
1604.104	3195.125
1607.125	3173.79167
1610.144	3135.125
1613.16	3075.45833
1616.174	2981.45833
1619.186	2943.125
1622.196	2851.45833
1625.203	2817.45833
1628.209	2752.79167
1631.212	2740.125
1634.213	2750.125
1637.212	2772.79167
1640.209	2761.125
1643.203	2725.79167
1646.196	2649.125
1649.186	2493.79167
1652.174	2424.79167
1655.16	2359.79167
1658.144	2277.45833
1661.125	2156.79167
1664.105	2028.45833
1667.082	1911.45833
1670.057	1815.45833
1673.03	1727.125
1676.001	1597.79167
1678.97	1510.79167
1681.937	1422.79167
1684.901	1345.79167
1687.863	1294.125
1690.824	1240.79167
1693.782	1213.125
1696.738	1168.79167
1699.692	1142.79167
1702.643	1120.125
1705.593	1097.45833
1708.54	1090.79167
1711.486	1069.45833
1714.429	1062.45833
1717.37	1051.45833
1720.309	1023.45833
1723.246	1047.125
1726.181	1016.125
1729.113	1013.125
1732.044	987.125
1734.972	995.79167
1737.899	996.125
1740.823	1000.45833
1743.745	998.79167
1746.665	955.79167
1749.583	930.79167
1752.499	932.45833
1755.413	919.125
1758.325	893.125
1761.235	884.79167
1764.142	874.79167
1767.048	869.79167
1769.951	875.45833
1772.852	870.45833
1775.752	865.125
1778.649	860.45833
1781.544	871.45833
1784.437	827.125
1787.328	844.79167
1790.217	827.45833
1793.104	815.45833
1795.989	820.125
1798.872	804.79167
1801.753	831.79167
1804.631	820.45833
1807.508	830.125
1810.383	820.45833
1813.255	801.79167
1816.126	816.45833
1818.994	808.79167
1821.861	799.45833
1824.725	793.79167
1827.587	805.45833
1830.448	794.125
1833.306	769.125
1836.162	778.45833
1839.017	782.125
1841.869	784.79167
1844.719	764.79167
1847.567	764.79167
1850.414	750.125
1853.258	755.45833
1856.1	753.45833
1858.94	769.45833
1861.778	757.45833
1864.614	764.79167
1867.448	740.45833
1870.28	739.79167
1873.111	769.79167
1875.939	753.79167
1878.765	771.125
1881.589	741.45833
1884.411	740.79167
1887.231	744.79167
1890.049	741.45833
1892.865	746.79167
1895.68	732.125
1898.492	745.125
1901.302	727.125
1904.11	726.45833
1906.916	721.125
1909.721	712.79167
1912.523	713.125
1915.323	705.79167
1918.122	708.125
1920.918	713.125
1923.712	693.79167
1926.505	692.79167
1929.295	696.125
1932.084	718.45833
1934.87	704.125
1937.655	700.125
1940.438	698.79167
1943.218	700.125
1945.997	703.45833
1948.774	708.45833
1951.549	707.45833
1954.322	701.45833
1957.093	684.79167
1959.862	683.79167
1962.629	684.45833
1965.394	683.79167
1968.157	685.45833
1970.918	681.79167
1973.678	663.45833
1976.435	679.45833
1979.19	675.45833
1981.944	668.125
1984.696	657.45833
1987.445	650.45833
1990.193	665.125
1992.939	676.125
1995.683	665.79167
1998.425	639.79167
2001.165	668.45833
2003.903	657.79167
2006.639	662.79167
2009.374	662.45833
2012.106	653.79167
2014.837	635.45833
2017.566	655.45833
2020.292	649.45833
2023.017	657.45833
2025.74	648.79167
2028.461	642.45833
2031.18	633.79167
2033.898	635.79167
2036.613	642.79167
2039.327	647.45833
2042.038	626.45833
2044.748	631.125
2047.456	644.45833
2050.162	622.125
2052.866	628.79167
2055.568	640.125
2058.268	620.45833
2060.967	624.45833
2063.663	616.79167
2066.358	610.125
2069.051	623.125
2071.742	627.45833
2074.431	622.45833
2077.118	616.125
2079.804	618.79167
2082.487	615.45833
2085.169	629.45833
2087.849	656.79167
2090.527	606.45833
2093.203	622.79167
2095.877	631.79167
2098.55	635.79167
2101.22	631.45833
2103.889	649.79167
2106.556	627.79167
2109.221	638.79167
2111.884	641.45833
2114.546	687.45833
2117.205	701.79167
2119.863	738.45833
2122.519	770.125
2125.173	803.45833
2127.825	851.79167
2130.475	859.79167
2133.124	837.125
2135.771	818.79167
2138.416	805.125
2141.059	759.45833
2143.7	743.45833
2146.339	693.79167
2148.977	673.125
2151.613	674.45833
2154.247	650.79167
2156.879	636.45833
2159.51	626.125
2162.138	617.125
2164.765	631.125
2167.39	607.125
2170.013	629.45833
2172.634	627.79167
2175.254	599.125
2177.872	627.79167
2180.488	599.79167
2183.102	594.125
2185.714	597.45833
2188.325	564.125
2190.934	583.45833
2193.541	589.45833
2196.146	570.45833
2198.75	563.45833
2201.351	565.125
2203.951	554.125
2206.549	567.125
2209.146	551.45833
2211.74	558.125
2214.333	554.45833
2216.924	546.79167
2219.514	538.125
2222.101	548.45833
2224.687	563.79167
2227.271	544.45833
2229.853	535.79167
2232.433	542.45833
2235.012	551.45833
2237.589	543.125
2240.164	563.79167
2242.738	543.125
2245.309	523.79167
2247.879	538.79167
2250.448	541.79167
2253.014	525.45833
2255.579	507.79167
2258.142	524.45833
2260.703	512.45833
2263.262	524.45833
2265.82	509.45833
2268.376	518.79167
2270.93	502.79167
2273.483	499.125
2276.033	521.45833
2278.583	503.45833
2281.13	505.45833
2283.675	498.125
2286.219	498.79167
2288.761	497.79167
2291.302	511.45833
2293.841	516.79167
2296.377	491.125
2298.913	503.45833
2301.446	524.79167
2303.978	518.45833
2306.508	491.45833
2309.037	500.125
2311.563	499.45833
2314.088	499.79167
2316.612	479.79167
2319.133	494.79167
2321.653	495.79167
2324.171	483.125
2326.688	507.79167
2329.202	489.125
2331.715	494.45833
2334.227	491.79167
2336.736	484.79167
2339.244	487.125
2341.751	473.79167
2344.255	492.125
2346.758	489.79167
2349.259	466.125
2351.759	485.45833
2354.257	475.79167
2356.753	478.79167
2359.247	477.45833
2361.74	490.79167
2364.231	489.45833
2366.721	483.125
2369.209	469.125
2371.695	486.125
2374.179	482.125
2376.662	469.45833
2379.143	493.125
2381.622	474.125
2384.1	485.45833
2386.576	488.45833
2389.051	485.45833
2391.524	484.45833
2393.995	494.79167
2396.464	476.45833
2398.932	472.79167
2401.398	474.45833
2403.863	481.45833
2406.325	469.79167
2408.787	474.125
2411.246	477.79167
2413.704	470.45833
2416.16	467.79167
2418.615	465.45833
2421.068	492.79167
2423.519	478.79167
2425.969	464.125
2428.417	482.45833
2430.863	502.79167
2433.308	485.45833
2435.751	479.125
2438.193	476.125
2440.633	480.45833
2443.071	480.125
2445.508	468.79167
2447.943	479.125
2450.376	468.125
2452.808	465.125
2455.238	464.125
2457.667	516.45833
2460.093	476.79167
2462.519	461.125
2464.942	477.125
2467.365	481.125
2469.785	476.45833
2472.204	473.125
2474.621	467.125
2477.037	485.45833
2479.451	466.45833
2481.863	467.125
2484.274	466.125
2486.683	480.125
2489.091	488.45833
2491.497	480.45833
2493.901	489.125
2496.304	473.79167
2498.705	483.125
2501.105	477.125
2503.503	502.79167
2505.899	459.125
2508.294	496.125
2510.687	472.79167
2513.079	481.79167
2515.469	471.45833
2517.858	470.45833
2520.245	487.79167
2522.63	473.125
2525.014	458.45833
2527.396	468.79167
2529.776	459.125
2532.156	482.45833
2534.533	460.125
2536.909	471.125
2539.283	456.79167
2541.656	472.45833
2544.027	491.45833
2546.397	468.45833
2548.765	470.45833
2551.131	473.125
2553.496	478.45833
2555.86	478.125
2558.221	487.125
2560.582	466.125
2562.94	467.125
2565.298	481.125
2567.653	491.79167
2570.007	472.79167
2572.36	492.79167
2574.711	477.45833
2577.06	490.79167
2579.408	492.45833
2581.754	479.125
2584.099	489.79167
2586.442	486.45833
2588.784	492.125
2591.124	478.45833
2593.463	472.125
2595.8	493.45833
2598.135	482.45833
2600.469	474.45833
2602.802	494.45833
2605.133	497.125
2607.462	482.125
2609.79	470.45833
2612.116	494.79167
2614.441	483.125
2616.764	488.79167
2619.086	491.45833
2621.406	477.45833
2623.725	498.125
2626.042	503.45833
2628.358	489.79167
2630.672	490.125
2632.985	506.45833
2635.296	502.79167
2637.606	497.79167
2639.914	493.45833
2642.22	504.125
2644.525	499.45833
2646.829	503.45833
2649.131	517.45833
2651.432	516.79167
2653.731	506.79167
2656.028	519.45833
2658.324	515.125
2660.619	512.45833
2662.912	526.79167
2665.204	500.79167
2667.494	515.45833
2669.782	507.45833
2672.07	517.45833
2674.355	525.79167
2676.639	525.79167
2678.922	503.79167
2681.203	524.79167
2683.483	506.45833
2685.761	506.125
2688.038	525.79167
2690.313	538.79167
2692.587	518.79167
2694.859	512.79167
2697.13	538.125
2699.399	528.79167
2701.667	545.125
2703.933	534.45833
2706.198	531.79167
2708.461	551.79167
2710.723	547.45833
2712.984	550.45833
2715.243	544.45833
2717.5	537.45833
2719.757	553.79167
2722.011	561.79167
2724.264	567.45833
2726.516	575.79167
2728.766	563.125
2731.015	569.125
2733.262	568.45833
2735.508	571.125
2737.753	569.125
2739.996	558.45833
2742.237	556.125
2744.477	570.45833
2746.716	571.125
2748.953	560.79167
2751.189	566.79167
2753.423	556.79167
2755.656	542.79167
2757.887	544.45833
2760.117	544.45833
2762.346	542.45833
2764.573	531.79167
2766.798	537.79167
2769.022	549.125
2771.245	540.79167
2773.467	557.79167
2775.686	560.125
2777.905	553.125
2780.122	559.45833
2782.337	572.125
2784.552	562.45833
2786.764	564.125
2788.976	578.125
2791.186	573.79167
2793.394	576.45833
2795.601	585.79167
2797.807	600.79167
2800.011	601.79167
2802.214	597.79167
2804.415	596.79167
2806.615	598.79167
2808.814	598.79167
2811.011	611.45833
2813.206	616.125
2815.401	628.125
2817.594	618.79167
2819.785	638.79167
2821.975	622.45833
2824.164	622.45833
2826.351	641.125
2828.537	660.125
2830.722	662.79167
2832.905	669.125
2835.086	692.125
2837.267	703.125
2839.445	716.79167
2841.623	745.45833
2843.799	768.45833
2845.974	788.45833
2848.147	830.45833
2850.319	840.79167
2852.489	869.45833
2854.659	880.45833
2856.826	894.125
2858.993	923.45833
2861.158	898.79167
2863.321	898.125
2865.483	925.45833
2867.644	915.45833
2869.804	910.79167
2871.962	905.125
2874.118	907.79167
2876.274	916.45833
2878.428	906.79167
2880.58	906.79167
2882.731	900.125
2884.881	909.45833
2887.03	914.45833
2889.177	904.79167
2891.322	907.79167
2893.467	915.45833
2895.61	912.79167
2897.751	944.79167
2899.892	914.125
2902.03	940.45833
2904.168	954.79167
2906.304	951.45833
2908.439	975.125
2910.572	963.45833
2912.704	971.45833
2914.835	966.45833
2916.965	977.45833
2919.093	995.79167
2921.219	961.79167
2923.345	983.79167
2925.469	960.45833
2927.591	969.79167
2929.712	932.125
2931.832	924.79167
2933.951	924.45833
2936.068	914.125
2938.184	887.45833
2940.299	873.79167
2942.412	852.125
2944.524	828.45833
2946.634	828.79167
2948.744	787.45833
2950.851	803.45833
2952.958	775.125
2955.063	788.125
2957.167	764.45833
2959.269	734.79167
2961.371	780.79167
2963.471	736.125
2965.569	733.45833
2967.666	714.79167
2969.762	705.45833
2971.857	709.45833
2973.95	665.79167
2976.042	675.45833
2978.133	660.45833
2980.222	642.79167
2982.31	632.79167
2984.396	616.79167
2986.482	626.79167
2988.566	620.45833
2990.648	612.79167
2992.73	621.79167
2994.81	604.45833
2996.889	619.45833
2998.966	609.79167
3001.042	611.125
3003.117	614.45833
3005.191	610.45833
3007.263	622.45833
3009.334	599.45833
3011.403	600.125
3013.472	596.79167
3015.539	580.79167
3017.604	599.125
3019.669	562.45833
3021.732	562.45833
3023.794	566.125
3025.854	554.79167
3027.914	558.125
3029.971	570.45833
3032.028	568.45833
3034.083	560.125
3036.137	552.125
3038.19	527.125
3040.242	527.45833
3042.292	508.79167
3044.341	512.125
3046.388	529.45833
3048.435	500.79167
3050.48	520.125
3052.524	500.125
3054.566	486.45833
3056.607	495.45833
3058.647	478.125
3060.686	473.45833
3062.723	465.125
3064.759	445.45833
3066.794	-1.20833
3068.828	2.79167
3070.86	5.125
