-0.839	473.83333
3.438	553.5
7.711	171.83333
11.981	60.83333
16.247	48.16667
20.509	53.5
24.768	46.5
29.024	53.16667
33.276	41.5
37.524	48.5
41.769	48.16667
46.01	30.16667
50.247	49.16667
54.481	58.5
58.712	64.16667
62.939	48.83333
67.162	68.16667
71.382	57.16667
75.599	50.83333
79.812	64.83333
84.021	80.5
88.227	65.83333
92.429	61.83333
96.628	52.16667
100.823	74.83333
105.015	73.5
109.204	69.16667
113.388	77.83333
117.57	76.83333
121.748	88.16667
125.922	84.16667
130.093	102.16667
134.261	103.5
138.425	100.5
142.585	145.83333
146.742	137.5
150.896	166.83333
155.046	215.83333
159.193	338.5
163.336	585.16667
167.476	1062.5
171.613	1921.5
175.746	3179.5
179.875	4622.83333
184.002	5953.5
188.124	6897.83333
192.244	7217.16667
196.36	7082.16667
200.472	6926.5
204.581	6767.16667
208.687	6563.16667
212.79	6515.5
216.889	6504.16667
220.984	6523.16667
225.077	6554.5
229.165	6612.83333
233.251	6587.83333
237.333	6568.83333
241.412	6538.83333
245.487	6479.83333
249.559	6377.83333
253.628	6309.83333
257.694	6249.5
261.756	6190.16667
265.814	6041.83333
269.87	5853.16667
273.922	5646.83333
277.97	5441.16667
282.016	5248.16667
286.058	5169.5
290.097	5160.16667
294.132	5148.16667
298.164	5105.5
302.193	4909.16667
306.219	4593.16667
310.241	4286.5
314.26	3954.83333
318.276	3749.16667
322.288	3597.5
326.297	3449.83333
330.303	3355.5
334.305	3286.16667
338.305	3236.83333
342.301	3209.83333
346.294	3204.16667
350.283	3141.16667
354.269	3152.5
358.252	3095.5
362.232	3107.16667
366.209	3099.16667
370.182	3106.83333
374.152	3071.83333
378.119	3085.5
382.083	3044.16667
386.043	3081.5
390	3071.83333
393.954	3063.16667
397.905	3039.5
401.852	3055.5
405.797	3035.16667
409.738	3042.16667
413.676	3066.16667
417.61	3053.16667
421.542	3003.16667
425.47	2939.16667
429.396	2916.16667
433.318	2914.16667
437.236	2895.83333
441.152	2932.83333
445.065	2883.16667
448.974	2868.5
452.88	2850.5
456.783	2816.5
460.683	2835.5
464.58	2823.5
468.473	2832.16667
472.364	2857.5
476.251	2850.5
480.135	2859.16667
484.016	2886.83333
487.894	2912.16667
491.769	2908.83333
495.641	2915.5
499.509	2922.16667
503.375	2916.16667
507.237	2902.5
511.096	2879.83333
514.952	2906.5
518.805	2923.5
522.655	2936.5
526.502	2876.16667
530.346	2889.83333
534.187	2885.83333
538.024	2900.16667
541.859	2901.5
545.69	2936.83333
549.519	2913.5
553.344	2905.5
557.166	2849.16667
560.985	2835.16667
564.802	2806.5
568.615	2764.83333
572.425	2722.5
576.232	2723.16667
580.036	2719.5
583.836	2715.83333
587.634	2713.16667
591.429	2721.83333
595.221	2773.5
599.01	2786.83333
602.796	2809.16667
606.578	2829.16667
610.358	2854.83333
614.135	2836.5
617.909	2831.16667
621.679	2812.83333
625.447	2782.83333
629.212	2775.5
632.973	2784.16667
636.732	2761.83333
640.488	2778.5
644.241	2762.83333
647.991	2754.83333
651.737	2758.83333
655.481	2758.16667
659.222	2785.83333
662.96	2771.5
666.695	2763.83333
670.427	2802.83333
674.156	2807.83333
677.882	2762.83333
681.605	2744.83333
685.325	2724.83333
689.043	2740.16667
692.757	2713.5
696.468	2708.16667
700.177	2700.83333
703.882	2691.5
707.585	2661.5
711.284	2683.16667
714.981	2669.83333
718.675	2700.83333
722.366	2692.5
726.054	2670.83333
729.739	2670.16667
733.421	2677.5
737.1	2659.83333
740.777	2693.83333
744.45	2706.83333
748.121	2718.83333
751.789	2777.5
755.453	2762.5
759.115	2786.83333
762.774	2800.16667
766.431	2794.5
770.084	2830.16667
773.734	2853.5
777.382	2909.5
781.027	2895.5
784.669	2913.83333
788.308	2941.5
791.944	2953.5
795.577	2959.16667
799.208	2985.16667
802.835	3007.83333
806.46	2995.16667
810.082	3055.5
813.701	3077.83333
817.317	3083.83333
820.931	3110.83333
824.542	3082.16667
828.149	3052.83333
831.754	3013.83333
835.357	2990.83333
838.956	2983.16667
842.553	2993.83333
846.146	2969.5
849.737	2931.5
853.326	2953.16667
856.911	2931.83333
860.493	2955.83333
864.073	2981.83333
867.65	3028.5
871.225	3047.5
874.796	3025.83333
878.365	3046.5
881.931	3062.83333
885.494	3073.5
889.054	3075.5
892.612	3084.16667
896.166	3022.5
899.719	3022.5
903.268	2969.83333
906.814	2957.16667
910.358	2979.16667
913.899	2945.5
917.438	2951.16667
920.973	2930.5
924.506	2988.5
928.036	3020.5
931.564	3067.83333
935.088	3102.5
938.61	3091.16667
942.129	3114.83333
945.646	3165.16667
949.16	3213.5
952.671	3242.5
956.179	3315.5
959.685	3297.5
963.188	3333.16667
966.688	3342.5
970.185	3214.5
973.68	3126.5
977.173	3061.5
980.662	2993.5
984.149	3019.83333
987.633	2995.83333
991.114	3053.83333
994.593	3105.16667
998.069	3190.5
1001.542	3313.83333
1005.013	3266.83333
1008.481	3081.83333
1011.947	3010.5
1015.409	2976.16667
1018.869	2996.16667
1022.327	2973.5
1025.782	2946.5
1029.234	2967.16667
1032.683	2887.83333
1036.13	2817.83333
1039.574	2730.5
1043.016	2639.16667
1046.455	2588.83333
1049.891	2571.83333
1053.325	2573.16667
1056.756	2586.5
1060.184	2599.5
1063.61	2604.16667
1067.033	2640.16667
1070.454	2610.5
1073.872	2643.16667
1077.287	2640.83333
1080.7	2644.5
1084.11	2645.5
1087.517	2627.83333
1090.922	2584.16667
1094.325	2567.16667
1097.724	2515.5
1101.122	2543.83333
1104.516	2533.83333
1107.908	2518.83333
1111.298	2566.83333
1114.684	2625.5
1118.069	2614.83333
1121.45	2665.83333
1124.83	2628.83333
1128.206	2646.83333
1131.58	2690.5
1134.951	2753.5
1138.32	2838.16667
1141.687	2921.16667
1145.05	2997.83333
1148.412	3011.16667
1151.77	3015.16667
1155.126	3007.5
1158.48	2986.83333
1161.831	3016.16667
1165.18	3045.16667
1168.525	3089.16667
1171.869	3111.16667
1175.21	3126.5
1178.548	3165.83333
1181.884	3176.16667
1185.217	3189.83333
1188.548	3267.5
1191.877	3324.5
1195.202	3423.5
1198.526	3460.16667
1201.846	3460.5
1205.165	3479.5
1208.48	3460.5
1211.794	3411.16667
1215.104	3440.5
1218.413	3448.5
1221.719	3431.83333
1225.022	3382.83333
1228.323	3322.5
1231.621	3302.5
1234.917	3291.5
1238.21	3292.16667
1241.501	3277.16667
1244.79	3282.5
1248.076	3275.16667
1251.359	3317.83333
1254.64	3384.83333
1257.919	3403.16667
1261.195	3432.5
1264.468	3492.16667
1267.74	3550.5
1271.008	3551.5
1274.275	3531.83333
1277.538	3537.83333
1280.8	3513.16667
1284.059	3512.5
1287.315	3567.16667
1290.569	3537.16667
1293.821	3571.5
1297.07	3607.16667
1300.317	3630.5
1303.562	3598.16667
1306.803	3573.5
1310.043	3567.83333
1313.28	3513.5
1316.515	3525.83333
1319.747	3483.5
1322.977	3514.83333
1326.204	3455.16667
1329.429	3436.5
1332.652	3385.83333
1335.872	3397.5
1339.09	3346.16667
1342.306	3347.5
1345.519	3331.5
1348.729	3335.5
1351.938	3326.16667
1355.144	3293.5
1358.347	3218.83333
1361.548	3178.16667
1364.747	3182.83333
1367.944	3166.83333
1371.138	3148.5
1374.329	3151.16667
1377.518	3195.16667
1380.705	3197.5
1383.89	3154.16667
1387.072	3091.83333
1390.252	2956.83333
1393.429	2878.5
1396.605	2776.83333
1399.777	2697.5
1402.948	2673.83333
1406.116	2638.5
1409.282	2621.83333
1412.445	2632.16667
1415.606	2646.5
1418.765	2664.16667
1421.921	2716.83333
1425.075	2754.83333
1428.227	2845.5
1431.376	2971.16667
1434.524	3059.83333
1437.668	3156.83333
1440.811	3201.16667
1443.951	3233.83333
1447.089	3231.5
1450.224	3237.5
1453.357	3229.83333
1456.488	3211.5
1459.617	3142.16667
1462.743	3112.5
1465.867	3032.83333
1468.989	3018.5
1472.108	2972.83333
1475.225	2938.83333
1478.34	2908.83333
1481.453	2901.5
1484.563	2912.5
1487.671	2943.83333
1490.776	2977.5
1493.88	3028.5
1496.981	3077.16667
1500.08	3111.16667
1503.176	3132.16667
1506.271	3200.83333
1509.363	3250.5
1512.452	3259.83333
1515.54	3317.16667
1518.625	3363.16667
1521.708	3447.16667
1524.789	3556.5
1527.867	3721.5
1530.944	3864.5
1534.018	4026.83333
1537.089	4165.16667
1540.159	4169.83333
1543.226	4128.16667
1546.291	4031.83333
1549.354	3977.83333
1552.415	3865.83333
1555.473	3785.16667
1558.529	3733.5
1561.583	3686.16667
1564.634	3700.5
1567.684	3720.16667
1570.731	3733.5
1573.776	3793.5
1576.819	3839.16667
1579.859	3926.5
1582.898	3978.83333
1585.934	4015.16667
1588.968	4027.83333
1591.999	4001.16667
1595.029	4008.83333
1598.056	3987.83333
1601.081	4034.5
1604.104	4006.16667
1607.125	3962.5
1610.144	3927.83333
1613.16	3822.16667
1616.174	3754.5
1619.186	3646.83333
1622.196	3567.16667
1625.203	3519.16667
1628.209	3466.16667
1631.212	3442.5
1634.213	3493.5
1637.212	3521.16667
1640.209	3509.16667
1643.203	3419.16667
1646.196	3343.83333
1649.186	3145.16667
1652.174	3016.83333
1655.16	2883.5
1658.144	2798.16667
1661.125	2663.16667
1664.105	2525.5
1667.082	2390.5
1670.057	2266.83333
1673.03	2132.83333
1676.001	1987.83333
1678.97	1869.5
1681.937	1757.5
1684.901	1666.16667
1687.863	1612.83333
1690.824	1544.83333
1693.782	1528.5
1696.738	1451.16667
1699.692	1430.83333
1702.643	1397.5
1705.593	1382.83333
1708.54	1363.16667
1711.486	1362.83333
1714.429	1328.83333
1717.37	1313.5
1720.309	1285.5
1723.246	1302.83333
1726.181	1264.83333
1729.113	1270.83333
1732.044	1233.16667
1734.972	1245.16667
1737.899	1243.5
1740.823	1234.83333
1743.745	1239.16667
1746.665	1194.5
1749.583	1173.83333
1752.499	1158.16667
1755.413	1135.83333
1758.325	1113.5
1761.235	1113.5
1764.142	1107.5
1767.048	1083.16667
1769.951	1088.16667
1772.852	1089.16667
1775.752	1092.16667
1778.649	1105.16667
1781.544	1079.16667
1784.437	1042.16667
1787.328	1056.5
1790.217	1045.83333
1793.104	1011.83333
1795.989	1017.83333
1798.872	1013.5
1801.753	1032.16667
1804.631	1015.83333
1807.508	1024.83333
1810.383	1019.16667
1813.255	1001.83333
1816.126	1005.5
1818.994	994.5
1821.861	991.5
1824.725	990.5
1827.587	988.83333
1830.448	978.16667
1833.306	947.5
1836.162	972.16667
1839.017	963.83333
1841.869	957.5
1844.719	952.5
1847.567	946.5
1850.414	929.16667
1853.258	935.83333
1856.1	943.83333
1858.94	957.5
1861.778	936.83333
1864.614	942.16667
1867.448	935.83333
1870.28	905.83333
1873.111	953.5
1875.939	930.16667
1878.765	949.5
1881.589	918.16667
1884.411	924.5
1887.231	923.16667
1890.049	908.16667
1892.865	905.16667
1895.68	898.5
1898.492	920.16667
1901.302	891.16667
1904.11	895.16667
1906.916	894.5
1909.721	871.5
1912.523	895.5
1915.323	865.83333
1918.122	866.16667
1920.918	885.83333
1923.712	856.83333
1926.505	875.16667
1929.295	851.5
1932.084	864.16667
1934.87	856.83333
1937.655	854.83333
1940.438	863.5
1943.218	858.16667
1945.997	859.5
1948.774	861.83333
1951.549	859.83333
1954.322	853.16667
1957.093	843.83333
1959.862	832.5
1962.629	820.16667
1965.394	828.83333
1968.157	823.5
1970.918	826.16667
1973.678	810.5
1976.435	823.5
1979.19	803.16667
1981.944	810.16667
1984.696	820.5
1987.445	790.16667
1990.193	805.83333
1992.939	807.5
1995.683	794.16667
1998.425	776.16667
2001.165	809.5
2003.903	795.83333
2006.639	799.5
2009.374	796.5
2012.106	794.83333
2014.837	772.83333
2017.566	777.16667
2020.292	796.83333
2023.017	783.83333
2025.74	780.5
2028.461	773.83333
2031.18	771.5
2033.898	772.5
2036.613	762.83333
2039.327	780.83333
2042.038	750.5
2044.748	760.83333
2047.456	760.83333
2050.162	739.16667
2052.866	749.16667
2055.568	760.83333
2058.268	746.16667
2060.967	759.5
2063.663	732.5
2066.358	735.16667
2069.051	735.5
2071.742	748.83333
2074.431	740.16667
2077.118	725.16667
2079.804	723.5
2082.487	726.16667
2085.169	743.16667
2087.849	755.16667
2090.527	728.16667
2093.203	726.5
2095.877	741.83333
2098.55	738.83333
2101.22	764.83333
2103.889	746.5
2106.556	748.83333
2109.221	765.83333
2111.884	778.16667
2114.546	809.83333
2117.205	837.16667
2119.863	905.83333
2122.519	938.83333
2125.173	1000.16667
2127.825	1058.16667
2130.475	1081.5
2133.124	1062.83333
2135.771	1034.83333
2138.416	1001.83333
2141.059	940.5
2143.7	904.83333
2146.339	861.5
2148.977	819.83333
2151.613	818.5
2154.247	781.5
2156.879	772.5
2159.51	747.83333
2162.138	743.16667
2164.765	744.5
2167.39	716.5
2170.013	745.83333
2172.634	718.5
2175.254	711.16667
2177.872	740.16667
2180.488	700.5
2183.102	699.16667
2185.714	699.16667
2188.325	668.5
2190.934	678.5
2193.541	676.5
2196.146	676.16667
2198.75	661.5
2201.351	642.5
2203.951	641.16667
2206.549	651.5
2209.146	644.16667
2211.74	630.16667
2214.333	642.5
2216.924	622.83333
2219.514	636.83333
2222.101	624.16667
2224.687	644.5
2227.271	630.5
2229.853	605.5
2232.433	612.16667
2235.012	631.83333
2237.589	618.83333
2240.164	628.83333
2242.738	609.5
2245.309	600.5
2247.879	607.83333
2250.448	610.83333
2253.014	584.5
2255.579	582.5
2258.142	575.16667
2260.703	572.83333
2263.262	574.83333
2265.82	570.5
2268.376	567.5
2270.93	550.16667
2273.483	556.16667
2276.033	565.16667
2278.583	549.83333
2281.13	558.16667
2283.675	545.5
2286.219	544.16667
2288.761	554.5
2291.302	552.16667
2293.841	555.5
2296.377	527.83333
2298.913	540.16667
2301.446	547.83333
2303.978	539.16667
2306.508	526.5
2309.037	528.16667
2311.563	539.16667
2314.088	532.16667
2316.612	521.83333
2319.133	522.83333
2321.653	524.16667
2324.171	513.5
2326.688	535.83333
2329.202	505.5
2331.715	528.83333
2334.227	510.16667
2336.736	513.5
2339.244	512.83333
2341.751	494.16667
2344.255	511.16667
2346.758	506.83333
2349.259	488.83333
2351.759	497.5
2354.257	491.83333
2356.753	492.83333
2359.247	495.83333
2361.74	508.83333
2364.231	496.16667
2366.721	497.5
2369.209	491.5
2371.695	495.5
2374.179	477.16667
2376.662	483.83333
2379.143	491.5
2381.622	481.5
2384.1	492.83333
2386.576	490.5
2389.051	496.16667
2391.524	490.83333
2393.995	489.16667
2396.464	479.83333
2398.932	482.16667
2401.398	472.16667
2403.863	479.5
2406.325	464.83333
2408.787	465.5
2411.246	470.5
2413.704	465.16667
2416.16	466.83333
2418.615	450.83333
2421.068	481.16667
2423.519	477.83333
2425.969	464.5
2428.417	470.16667
2430.863	470.83333
2433.308	468.5
2435.751	464.16667
2438.193	458.16667
2440.633	456.83333
2443.071	463.16667
2445.508	451.16667
2447.943	451.16667
2450.376	448.16667
2452.808	444.5
2455.238	449.5
2457.667	476.5
2460.093	448.83333
2462.519	432.5
2464.942	435.16667
2467.365	445.5
2469.785	454.83333
2472.204	444.5
2474.621	437.16667
2477.037	456.5
2479.451	425.5
2481.863	424.83333
2484.274	429.5
2486.683	442.5
2489.091	438.83333
2491.497	429.5
2493.901	437.5
2496.304	432.5
2498.705	439.5
2501.105	429.16667
2503.503	454.83333
2505.899	417.16667
2508.294	444.5
2510.687	433.83333
2513.079	422.83333
2515.469	418.5
2517.858	424.83333
2520.245	438.16667
2522.63	425.83333
2525.014	413.5
2527.396	410.83333
2529.776	406.16667
2532.156	428.83333
2534.533	409.16667
2536.909	408.83333
2539.283	401.5
2541.656	409.5
2544.027	428.83333
2546.397	416.83333
2548.765	406.5
2551.131	414.16667
2553.496	416.83333
2555.86	416.83333
2558.221	407.83333
2560.582	402.16667
2562.94	400.5
2565.298	410.16667
2567.653	414.16667
2570.007	394.16667
2572.36	414.5
2574.711	391.5
2577.06	416.5
2579.408	412.16667
2581.754	401.16667
2584.099	401.16667
2586.442	397.5
2588.784	401.16667
2591.124	400.83333
2593.463	400.83333
2595.8	402.83333
2598.135	386.16667
2600.469	392.16667
2602.802	401.5
2605.133	417.83333
2607.462	387.16667
2609.79	386.16667
2612.116	406.83333
2614.441	393.5
2616.764	397.5
2619.086	394.16667
2621.406	385.16667
2623.725	401.5
2626.042	394.5
2628.358	387.83333
2630.672	391.16667
2632.985	401.5
2635.296	396.16667
2637.606	391.16667
2639.914	388.5
2642.22	389.83333
2644.525	388.83333
2646.829	400.83333
2649.131	407.16667
2651.432	412.16667
2653.731	401.16667
2656.028	407.83333
2658.324	408.5
2660.619	394.16667
2662.912	404.83333
2665.204	388.83333
2667.494	400.83333
2669.782	394.16667
2672.07	396.5
2674.355	398.5
2676.639	400.16667
2678.922	388.5
2681.203	392.16667
2683.483	384.5
2685.761	391.83333
2688.038	402.5
2690.313	406.16667
2692.587	397.16667
2694.859	394.83333
2697.13	399.83333
2699.399	409.16667
2701.667	414.83333
2703.933	409.5
2706.198	410.83333
2708.461	412.16667
2710.723	416.83333
2712.984	413.16667
2715.243	416.83333
2717.5	403.5
2719.757	425.83333
2722.011	417.16667
2724.264	422.83333
2726.516	427.16667
2728.766	410.5
2731.015	424.83333
2733.262	430.16667
2735.508	414.16667
2737.753	424.5
2739.996	402.83333
2742.237	409.16667
2744.477	418.83333
2746.716	423.16667
2748.953	406.83333
2751.189	408.83333
2753.423	408.16667
2755.656	395.83333
2757.887	395.5
2760.117	395.5
2762.346	393.83333
2764.573	378.16667
2766.798	391.83333
2769.022	395.5
2771.245	391.83333
2773.467	393.16667
2775.686	400.5
2777.905	406.5
2780.122	401.16667
2782.337	404.83333
2784.552	400.5
2786.764	407.16667
2788.976	408.16667
2791.186	411.5
2793.394	413.5
2795.601	419.16667
2797.807	429.5
2800.011	427.16667
2802.214	433.16667
2804.415	433.16667
2806.615	436.83333
2808.814	448.16667
2811.011	446.83333
2813.206	453.83333
2815.401	462.5
2817.594	459.5
2819.785	467.83333
2821.975	470.5
2824.164	460.83333
2826.351	478.83333
2828.537	492.83333
2830.722	500.83333
2832.905	501.16667
2835.086	531.16667
2837.267	562.5
2839.445	560.83333
2841.623	594.16667
2843.799	610.16667
2845.974	644.16667
2848.147	673.16667
2850.319	701.5
2852.489	727.83333
2854.659	735.16667
2856.826	745.83333
2858.993	781.83333
2861.158	741.5
2863.321	756.5
2865.483	779.83333
2867.644	775.16667
2869.804	775.16667
2871.962	767.83333
2874.118	775.83333
2876.274	795.83333
2878.428	784.83333
2880.58	784.16667
2882.731	771.5
2884.881	772.16667
2887.03	772.5
2889.177	773.5
2891.322	794.83333
2893.467	785.5
2895.61	783.16667
2897.751	804.5
2899.892	792.5
2902.03	818.16667
2904.168	804.5
2906.304	805.5
2908.439	817.5
2910.572	809.16667
2912.704	821.16667
2914.835	826.16667
2916.965	823.5
2919.093	841.5
2921.219	812.16667
2923.345	836.83333
2925.469	801.5
2927.591	808.83333
2929.712	775.83333
2931.832	782.16667
2933.951	761.16667
2936.068	744.16667
2938.184	730.16667
2940.299	726.5
2942.412	707.16667
2944.524	659.16667
2946.634	659.5
2948.744	604.83333
2950.851	627.5
2952.958	582.16667
2955.063	580.16667
2957.167	576.16667
2959.269	546.16667
2961.371	571.5
2963.471	528.16667
2965.569	532.5
2967.666	498.5
2969.762	499.83333
2971.857	492.16667
2973.95	465.83333
2976.042	468.83333
2978.133	452.5
2980.222	446.5
2982.31	433.83333
2984.396	405.16667
2986.482	426.16667
2988.566	416.83333
2990.648	402.16667
2992.73	396.5
2994.81	385.5
2996.889	388.5
2998.966	389.5
3001.042	399.16667
3003.117	384.83333
3005.191	379.83333
3007.263	383.83333
3009.334	369.83333
3011.403	382.83333
3013.472	360.16667
3015.539	370.83333
3017.604	373.16667
3019.669	329.16667
3021.732	346.5
3023.794	347.16667
3025.854	341.5
3027.914	337.5
3029.971	341.5
3032.028	335.16667
3034.083	335.5
3036.137	321.5
3038.19	318.5
3040.242	321.5
3042.292	303.16667
3044.341	304.5
3046.388	323.5
3048.435	294.16667
3050.48	318.16667
3052.524	304.16667
3054.566	289.5
3056.607	304.16667
3058.647	287.5
3060.686	272.83333
3062.723	265.83333
3064.759	251.83333
3066.794	-1.5
3068.828	1.16667
3070.86	3.16667
