-0.839	441.79167
3.438	531.125
7.711	165.79167
11.981	60.79167
16.247	47.79167
20.509	53.125
24.768	45.125
29.024	57.45833
33.276	45.79167
37.524	55.125
41.769	50.125
46.01	32.79167
50.247	47.79167
54.481	62.79167
58.712	66.125
62.939	54.79167
67.162	65.45833
71.382	58.45833
75.599	51.79167
79.812	63.45833
84.021	88.79167
88.227	66.79167
92.429	64.45833
96.628	59.125
100.823	69.45833
105.015	82.125
109.204	69.79167
113.388	78.79167
117.57	80.79167
121.748	92.125
125.922	85.125
130.093	105.125
134.261	110.79167
138.425	107.79167
142.585	149.45833
146.742	135.125
150.896	166.79167
155.046	211.79167
159.193	326.125
163.336	555.125
167.476	982.125
171.613	1838.79167
175.746	3049.79167
179.875	4565.45833
184.002	6010.125
188.124	7051.125
192.244	7554.125
196.36	7642.125
200.472	7578.125
204.581	7495.125
208.687	7433.125
212.79	7460.79167
216.889	7512.125
220.984	7596.79167
225.077	7701.125
229.165	7762.45833
233.251	7857.125
237.333	7859.79167
241.412	7840.79167
245.487	7760.125
249.559	7706.79167
253.628	7642.45833
257.694	7639.45833
261.756	7571.45833
265.814	7479.79167
269.87	7253.79167
273.922	7043.125
277.97	6828.125
282.016	6639.125
286.058	6459.125
290.097	6462.45833
294.132	6492.125
298.164	6491.45833
302.193	6351.79167
306.219	6050.45833
310.241	5625.79167
314.26	5227.45833
318.276	4911.125
322.288	4724.125
326.297	4516.79167
330.303	4378.79167
334.305	4330.125
338.305	4281.125
342.301	4217.45833
346.294	4201.45833
350.283	4207.79167
354.269	4140.125
358.252	4122.125
362.232	4140.125
366.209	4128.79167
370.182	4105.79167
374.152	4092.45833
378.119	4099.45833
382.083	4094.45833
386.043	4088.79167
390	4071.79167
393.954	4139.79167
397.905	4106.45833
401.852	4115.45833
405.797	4082.125
409.738	4115.125
413.676	4151.79167
417.61	4210.45833
421.542	4096.45833
425.47	3995.45833
429.396	3949.79167
433.318	3932.45833
437.236	3954.79167
441.152	3939.79167
445.065	3905.125
448.974	3924.79167
452.88	3870.79167
456.783	3866.125
460.683	3844.45833
464.58	3846.45833
468.473	3853.79167
472.364	3878.79167
476.251	3866.79167
480.135	3905.125
484.016	3963.125
487.894	3963.125
491.769	3960.45833
495.641	3971.45833
499.509	3968.45833
503.375	3949.79167
507.237	3964.79167
511.096	3946.79167
514.952	4012.45833
518.805	4074.45833
522.655	4103.45833
526.502	3986.45833
530.346	3943.45833
534.187	3923.79167
538.024	3905.45833
541.859	3936.79167
545.69	3983.79167
549.519	3909.45833
553.344	3903.79167
557.166	3857.79167
560.985	3819.125
564.802	3768.125
568.615	3729.125
572.425	3668.125
576.232	3654.125
580.036	3660.45833
583.836	3640.45833
587.634	3652.125
591.429	3683.45833
595.221	3761.79167
599.01	3771.125
602.796	3785.45833
606.578	3829.79167
610.358	3829.45833
614.135	3795.125
617.909	3785.125
621.679	3738.45833
625.447	3726.79167
629.212	3734.125
632.973	3712.79167
636.732	3718.125
640.488	3726.125
644.241	3669.125
647.991	3689.125
651.737	3724.79167
655.481	3723.45833
659.222	3780.125
662.96	3765.125
666.695	3744.79167
670.427	3743.45833
674.156	3770.45833
677.882	3699.45833
681.605	3694.45833
685.325	3646.125
689.043	3660.45833
692.757	3628.79167
696.468	3612.125
700.177	3619.45833
703.882	3579.125
707.585	3564.125
711.284	3562.45833
714.981	3569.125
718.675	3564.45833
722.366	3561.125
726.054	3523.125
729.739	3531.79167
733.421	3535.125
737.1	3508.125
740.777	3538.125
744.45	3547.45833
748.121	3573.45833
751.789	3618.45833
755.453	3625.125
759.115	3627.79167
762.774	3659.45833
766.431	3671.45833
770.084	3692.45833
773.734	3723.45833
777.382	3767.45833
781.027	3757.79167
784.669	3782.125
788.308	3779.125
791.944	3793.79167
795.577	3796.79167
799.208	3845.45833
802.835	3831.125
806.46	3866.79167
810.082	3909.125
813.701	3943.79167
817.317	4005.45833
820.931	3981.125
824.542	3956.125
828.149	3879.45833
831.754	3823.79167
835.357	3789.79167
838.956	3778.125
842.553	3803.79167
846.146	3782.45833
849.737	3745.125
853.326	3711.45833
856.911	3687.79167
860.493	3734.45833
864.073	3791.125
867.65	3816.45833
871.225	3854.79167
874.796	3820.45833
878.365	3819.125
881.931	3820.45833
885.494	3858.45833
889.054	3851.45833
892.612	3855.45833
896.166	3810.45833
899.719	3791.79167
903.268	3738.125
906.814	3722.79167
910.358	3701.125
913.899	3694.45833
917.438	3688.125
920.973	3678.125
924.506	3711.125
928.036	3750.125
931.564	3872.45833
935.088	3877.79167
938.61	3862.45833
942.129	3862.79167
945.646	3963.45833
949.16	4001.45833
952.671	4086.45833
956.179	4100.45833
959.685	4108.125
963.188	4163.45833
966.688	4106.45833
970.185	4020.125
973.68	3886.45833
977.173	3764.45833
980.662	3739.45833
984.149	3739.79167
987.633	3733.79167
991.114	3772.79167
994.593	3795.79167
998.069	3920.45833
1001.542	4022.45833
1005.013	3975.125
1008.481	3789.45833
1011.947	3699.45833
1015.409	3647.79167
1018.869	3646.45833
1022.327	3663.79167
1025.782	3638.125
1029.234	3628.45833
1032.683	3574.79167
1036.13	3490.125
1039.574	3346.79167
1043.016	3288.79167
1046.455	3223.125
1049.891	3179.45833
1053.325	3191.79167
1056.756	3189.79167
1060.184	3196.45833
1063.61	3199.45833
1067.033	3231.79167
1070.454	3207.45833
1073.872	3268.79167
1077.287	3258.125
1080.7	3258.125
1084.11	3255.79167
1087.517	3217.125
1090.922	3180.45833
1094.325	3134.79167
1097.724	3087.79167
1101.122	3097.45833
1104.516	3087.79167
1107.908	3077.45833
1111.298	3147.79167
1114.684	3154.125
1118.069	3221.45833
1121.45	3240.45833
1124.83	3196.79167
1128.206	3255.125
1131.58	3267.45833
1134.951	3336.45833
1138.32	3424.79167
1141.687	3545.45833
1145.05	3634.79167
1148.412	3661.79167
1151.77	3633.79167
1155.126	3643.45833
1158.48	3593.45833
1161.831	3625.79167
1165.18	3629.79167
1168.525	3667.125
1171.869	3704.45833
1175.21	3729.79167
1178.548	3749.45833
1181.884	3779.125
1185.217	3786.79167
1188.548	3873.125
1191.877	3908.125
1195.202	4036.45833
1198.526	4053.45833
1201.846	4081.79167
1205.165	4123.45833
1208.48	4092.45833
1211.794	4053.45833
1215.104	4063.125
1218.413	4035.79167
1221.719	4016.125
1225.022	3934.79167
1228.323	3881.79167
1231.621	3858.45833
1234.917	3823.79167
1238.21	3851.125
1241.501	3837.125
1244.79	3839.45833
1248.076	3775.79167
1251.359	3851.45833
1254.64	3954.125
1257.919	3962.79167
1261.195	3999.79167
1264.468	4105.45833
1267.74	4132.79167
1271.008	4138.125
1274.275	4153.79167
1277.538	4098.45833
1280.8	4124.45833
1284.059	4090.79167
1287.315	4135.125
1290.569	4121.79167
1293.821	4106.79167
1297.07	4125.79167
1300.317	4137.125
1303.562	4113.45833
1306.803	4138.45833
1310.043	4082.79167
1313.28	4061.79167
1316.515	4051.79167
1319.747	4060.79167
1322.977	4050.79167
1326.204	3985.79167
1329.429	3988.79167
1332.652	3954.125
1335.872	3921.79167
1339.09	3920.79167
1342.306	3878.45833
1345.519	3835.79167
1348.729	3834.45833
1351.938	3843.45833
1355.144	3795.79167
1358.347	3698.125
1361.548	3682.125
1364.747	3672.125
1367.944	3643.45833
1371.138	3631.79167
1374.329	3625.125
1377.518	3628.45833
1380.705	3633.79167
1383.89	3630.79167
1387.072	3522.45833
1390.252	3415.125
1393.429	3319.79167
1396.605	3217.45833
1399.777	3115.79167
1402.948	3076.125
1406.116	3079.125
1409.282	3024.125
1412.445	3037.125
1415.606	3068.125
1418.765	3072.45833
1421.921	3110.79167
1425.075	3170.79167
1428.227	3258.125
1431.376	3356.79167
1434.524	3500.125
1437.668	3585.125
1440.811	3645.125
1443.951	3678.125
1447.089	3679.125
1450.224	3667.125
1453.357	3658.79167
1456.488	3624.125
1459.617	3597.79167
1462.743	3563.45833
1465.867	3477.125
1468.989	3437.79167
1472.108	3392.125
1475.225	3354.79167
1478.34	3360.125
1481.453	3361.125
1484.563	3356.45833
1487.671	3389.45833
1490.776	3409.45833
1493.88	3455.45833
1496.981	3480.125
1500.08	3532.45833
1503.176	3571.79167
1506.271	3652.79167
1509.363	3671.45833
1512.452	3675.45833
1515.54	3741.45833
1518.625	3782.79167
1521.708	3872.125
1524.789	3972.45833
1527.867	4117.45833
1530.944	4317.45833
1534.018	4427.45833
1537.089	4544.45833
1540.159	4548.45833
1543.226	4503.79167
1546.291	4378.79167
1549.354	4307.45833
1552.415	4268.79167
1555.473	4151.45833
1558.529	4105.125
1561.583	4083.125
1564.634	4056.79167
1567.684	4066.79167
1570.731	4082.45833
1573.776	4146.79167
1576.819	4232.79167
1579.859	4300.79167
1582.898	4352.125
1585.934	4376.45833
1588.968	4381.79167
1591.999	4389.79167
1595.029	4354.45833
1598.056	4364.125
1601.081	4371.125
1604.104	4352.125
1607.125	4330.79167
1610.144	4243.79167
1613.16	4203.45833
1616.174	4126.45833
1619.186	4061.125
1622.196	3998.125
1625.203	3937.79167
1628.209	3863.79167
1631.212	3848.45833
1634.213	3876.125
1637.212	3953.125
1640.209	3912.79167
1643.203	3847.79167
1646.196	3698.79167
1649.186	3516.45833
1652.174	3364.125
1655.16	3247.45833
1658.144	3139.125
1661.125	2989.125
1664.105	2797.125
1667.082	2665.79167
1670.057	2535.45833
1673.03	2417.125
1676.001	2251.45833
1678.97	2121.45833
1681.937	1999.45833
1684.901	1892.45833
1687.863	1856.45833
1690.824	1786.79167
1693.782	1721.45833
1696.738	1673.45833
1699.692	1657.125
1702.643	1597.125
1705.593	1596.79167
1708.54	1580.45833
1711.486	1559.79167
1714.429	1541.125
1717.37	1540.125
1720.309	1495.45833
1723.246	1512.45833
1726.181	1501.79167
1729.113	1485.125
1732.044	1445.79167
1734.972	1444.79167
1737.899	1454.45833
1740.823	1435.125
1743.745	1449.79167
1746.665	1397.45833
1749.583	1375.125
1752.499	1364.45833
1755.413	1357.79167
1758.325	1317.125
1761.235	1309.125
1764.142	1319.45833
1767.048	1287.79167
1769.951	1289.45833
1772.852	1290.45833
1775.752	1301.45833
1778.649	1334.125
1781.544	1295.79167
1784.437	1240.45833
1787.328	1252.125
1790.217	1227.125
1793.104	1218.79167
1795.989	1212.45833
1798.872	1205.79167
1801.753	1221.79167
1804.631	1197.79167
1807.508	1199.125
1810.383	1223.45833
1813.255	1195.79167
1816.126	1183.79167
1818.994	1193.125
1821.861	1169.79167
1824.725	1166.125
1827.587	1178.79167
1830.448	1153.125
1833.306	1143.125
1836.162	1136.45833
1839.017	1130.125
1841.869	1131.79167
1844.719	1108.79167
1847.567	1108.79167
1850.414	1117.79167
1853.258	1101.125
1856.1	1120.45833
1858.94	1119.79167
1861.778	1095.125
1864.614	1102.125
1867.448	1101.125
1870.28	1094.45833
1873.111	1104.79167
1875.939	1100.45833
1878.765	1103.125
1881.589	1091.79167
1884.411	1085.125
1887.231	1087.125
1890.049	1080.45833
1892.865	1088.79167
1895.68	1068.79167
1898.492	1080.125
1901.302	1060.45833
1904.11	1072.79167
1906.916	1036.45833
1909.721	1045.125
1912.523	1043.79167
1915.323	1021.79167
1918.122	1027.45833
1920.918	1020.79167
1923.712	1028.79167
1926.505	1011.125
1929.295	993.79167
1932.084	1010.45833
1934.87	1012.125
1937.655	1007.45833
1940.438	1008.45833
1943.218	993.45833
1945.997	1008.45833
1948.774	1012.45833
1951.549	1011.45833
1954.322	1009.125
1957.093	981.79167
1959.862	980.79167
1962.629	972.79167
1965.394	979.125
1968.157	961.125
1970.918	972.79167
1973.678	947.125
1976.435	979.45833
1979.19	956.125
1981.944	938.45833
1984.696	942.125
1987.445	939.125
1990.193	952.45833
1992.939	964.125
1995.683	933.45833
1998.425	928.45833
2001.165	959.45833
2003.903	918.79167
2006.639	924.45833
2009.374	935.125
2012.106	932.45833
2014.837	900.125
2017.566	924.45833
2020.292	911.79167
2023.017	915.45833
2025.74	915.79167
2028.461	904.79167
2031.18	907.125
2033.898	901.45833
2036.613	909.125
2039.327	905.45833
2042.038	886.45833
2044.748	896.125
2047.456	890.79167
2050.162	867.79167
2052.866	882.45833
2055.568	889.125
2058.268	868.79167
2060.967	877.125
2063.663	860.79167
2066.358	868.125
2069.051	858.125
2071.742	863.125
2074.431	872.79167
2077.118	857.45833
2079.804	840.125
2082.487	852.45833
2085.169	871.45833
2087.849	878.45833
2090.527	850.125
2093.203	860.45833
2095.877	858.125
2098.55	856.45833
2101.22	869.45833
2103.889	858.79167
2106.556	875.45833
2109.221	883.125
2111.884	876.79167
2114.546	906.45833
2117.205	921.79167
2119.863	961.45833
2122.519	983.79167
2125.173	1023.79167
2127.825	1085.125
2130.475	1104.125
2133.124	1089.45833
2135.771	1070.45833
2138.416	1044.79167
2141.059	1002.125
2143.7	975.125
2146.339	923.79167
2148.977	881.45833
2151.613	884.79167
2154.247	846.45833
2156.879	857.45833
2159.51	836.125
2162.138	823.79167
2164.765	822.125
2167.39	815.79167
2170.013	819.79167
2172.634	824.45833
2175.254	807.79167
2177.872	833.45833
2180.488	789.125
2183.102	795.79167
2185.714	780.125
2188.325	758.125
2190.934	783.125
2193.541	775.125
2196.146	775.125
2198.75	748.45833
2201.351	759.79167
2203.951	746.45833
2206.549	759.79167
2209.146	751.45833
2211.74	754.45833
2214.333	753.125
2216.924	730.125
2219.514	722.79167
2222.101	723.125
2224.687	748.125
2227.271	730.45833
2229.853	726.79167
2232.433	714.79167
2235.012	745.125
2237.589	726.79167
2240.164	736.125
2242.738	725.79167
2245.309	708.125
2247.879	706.45833
2250.448	710.125
2253.014	689.45833
2255.579	665.45833
2258.142	689.45833
2260.703	671.79167
2263.262	674.125
2265.82	669.79167
2268.376	680.45833
2270.93	665.45833
2273.483	659.125
2276.033	668.125
2278.583	658.125
2281.13	657.79167
2283.675	645.79167
2286.219	651.79167
2288.761	650.79167
2291.302	659.125
2293.841	662.125
2296.377	639.125
2298.913	637.79167
2301.446	652.125
2303.978	629.79167
2306.508	628.45833
2309.037	636.125
2311.563	641.125
2314.088	623.79167
2316.612	619.45833
2319.133	623.45833
2321.653	625.79167
2324.171	615.79167
2326.688	647.79167
2329.202	611.125
2331.715	629.79167
2334.227	612.79167
2336.736	620.79167
2339.244	603.79167
2341.751	596.125
2344.255	619.45833
2346.758	612.45833
2349.259	595.45833
2351.759	611.125
2354.257	598.79167
2356.753	593.79167
2359.247	598.45833
2361.74	608.125
2364.231	605.45833
2366.721	606.79167
2369.209	595.125
2371.695	598.45833
2374.179	600.79167
2376.662	590.45833
2379.143	605.125
2381.622	589.125
2384.1	611.125
2386.576	598.125
2389.051	609.45833
2391.524	622.79167
2393.995	600.79167
2396.464	587.125
2398.932	583.45833
2401.398	590.45833
2403.863	585.79167
2406.325	579.125
2408.787	586.125
2411.246	576.79167
2413.704	576.45833
2416.16	574.125
2418.615	579.45833
2421.068	583.45833
2423.519	586.79167
2425.969	574.125
2428.417	582.125
2430.863	608.79167
2433.308	582.79167
2435.751	577.79167
2438.193	575.79167
2440.633	582.79167
2443.071	589.45833
2445.508	561.79167
2447.943	573.45833
2450.376	562.79167
2452.808	559.45833
2455.238	562.125
2457.667	598.79167
2460.093	565.125
2462.519	555.45833
2464.942	564.125
2467.365	572.125
2469.785	573.79167
2472.204	564.45833
2474.621	556.79167
2477.037	583.45833
2479.451	541.79167
2481.863	537.45833
2484.274	542.79167
2486.683	546.45833
2489.091	570.125
2491.497	557.79167
2493.901	559.45833
2496.304	553.125
2498.705	571.125
2501.105	546.125
2503.503	583.45833
2505.899	536.125
2508.294	568.45833
2510.687	548.45833
2513.079	551.45833
2515.469	549.125
2517.858	557.125
2520.245	561.45833
2522.63	537.45833
2525.014	548.125
2527.396	545.79167
2529.776	530.125
2532.156	557.79167
2534.533	538.79167
2536.909	535.125
2539.283	532.125
2541.656	542.79167
2544.027	554.79167
2546.397	541.125
2548.765	530.125
2551.131	541.79167
2553.496	540.79167
2555.86	541.45833
2558.221	544.79167
2560.582	533.125
2562.94	532.125
2565.298	538.79167
2567.653	558.125
2570.007	519.79167
2572.36	549.125
2574.711	532.79167
2577.06	549.79167
2579.408	544.125
2581.754	531.79167
2584.099	546.125
2586.442	530.125
2588.784	546.79167
2591.124	541.45833
2593.463	535.79167
2595.8	542.125
2598.135	529.79167
2600.469	529.45833
2602.802	538.79167
2605.133	551.45833
2607.462	530.125
2609.79	533.125
2612.116	537.45833
2614.441	544.79167
2616.764	540.45833
2619.086	543.79167
2621.406	525.45833
2623.725	557.79167
2626.042	550.45833
2628.358	540.45833
2630.672	533.79167
2632.985	557.79167
2635.296	546.125
2637.606	538.79167
2639.914	532.125
2642.22	531.45833
2644.525	538.79167
2646.829	550.125
2649.131	559.45833
2651.432	563.79167
2653.731	556.125
2656.028	561.45833
2658.324	564.79167
2660.619	554.45833
2662.912	564.79167
2665.204	548.45833
2667.494	559.79167
2669.782	546.45833
2672.07	560.45833
2674.355	559.125
2676.639	549.45833
2678.922	548.125
2681.203	558.79167
2683.483	546.79167
2685.761	559.79167
2688.038	556.79167
2690.313	574.125
2692.587	556.45833
2694.859	554.79167
2697.13	563.79167
2699.399	564.79167
2701.667	573.79167
2703.933	558.79167
2706.198	568.125
2708.461	580.79167
2710.723	576.79167
2712.984	572.125
2715.243	587.79167
2717.5	573.45833
2719.757	593.125
2722.011	581.45833
2724.264	589.45833
2726.516	607.45833
2728.766	590.125
2731.015	602.125
2733.262	606.79167
2735.508	594.79167
2737.753	590.125
2739.996	572.125
2742.237	582.79167
2744.477	586.79167
2746.716	591.45833
2748.953	588.45833
2751.189	586.125
2753.423	568.79167
2755.656	566.79167
2757.887	568.125
2760.117	569.125
2762.346	561.125
2764.573	556.79167
2766.798	563.79167
2769.022	557.45833
2771.245	563.125
2773.467	574.79167
2775.686	571.45833
2777.905	568.79167
2780.122	572.79167
2782.337	588.45833
2784.552	574.79167
2786.764	577.45833
2788.976	580.79167
2791.186	582.45833
2793.394	597.79167
2795.601	594.45833
2797.807	605.125
2800.011	604.79167
2802.214	601.45833
2804.415	600.125
2806.615	602.125
2808.814	600.125
2811.011	611.45833
2813.206	612.79167
2815.401	632.79167
2817.594	621.45833
2819.785	640.79167
2821.975	624.125
2824.164	636.125
2826.351	648.45833
2828.537	660.45833
2830.722	667.79167
2832.905	678.125
2835.086	696.45833
2837.267	722.125
2839.445	738.45833
2841.623	747.45833
2843.799	764.125
2845.974	797.79167
2848.147	835.45833
2850.319	856.45833
2852.489	878.125
2854.659	896.125
2856.826	906.79167
2858.993	944.45833
2861.158	913.125
2863.321	917.79167
2865.483	938.79167
2867.644	929.79167
2869.804	934.45833
2871.962	939.125
2874.118	948.125
2876.274	954.45833
2878.428	950.125
2880.58	936.79167
2882.731	930.125
2884.881	926.125
2887.03	933.125
2889.177	924.125
2891.322	940.45833
2893.467	940.45833
2895.61	949.125
2897.751	960.79167
2899.892	944.45833
2902.03	960.125
2904.168	960.125
2906.304	960.79167
2908.439	984.125
2910.572	985.125
2912.704	991.125
2914.835	1001.79167
2916.965	977.125
2919.093	1014.79167
2921.219	979.125
2923.345	1001.125
2925.469	979.125
2927.591	973.45833
2929.712	963.45833
2931.832	940.45833
2933.951	929.45833
2936.068	930.79167
2938.184	898.125
2940.299	893.79167
2942.412	870.125
2944.524	844.45833
2946.634	824.79167
2948.744	780.45833
2950.851	812.79167
2952.958	769.45833
2955.063	768.79167
2957.167	763.45833
2959.269	743.45833
2961.371	767.45833
2963.471	713.125
2965.569	733.79167
2967.666	701.79167
2969.762	696.125
2971.857	694.45833
2973.95	677.79167
2976.042	668.79167
2978.133	656.125
2980.222	643.125
2982.31	631.45833
2984.396	609.125
2986.482	615.125
2988.566	615.45833
2990.648	596.45833
2992.73	598.125
2994.81	587.125
2996.889	594.125
2998.966	590.79167
3001.042	601.45833
3003.117	592.79167
3005.191	597.125
3007.263	586.79167
3009.334	567.125
3011.403	585.79167
3013.472	572.45833
3015.539	576.125
3017.604	571.45833
3019.669	534.79167
3021.732	546.45833
3023.794	542.125
3025.854	540.125
3027.914	532.45833
3029.971	543.125
3032.028	532.125
3034.083	540.45833
3036.137	531.79167
3038.19	513.45833
3040.242	503.45833
3042.292	488.79167
3044.341	501.125
3046.388	499.79167
3048.435	483.125
3050.48	493.125
3052.524	483.125
3054.566	464.45833
3056.607	480.79167
3058.647	471.125
3060.686	448.125
3062.723	440.125
3064.759	422.125
3066.794	1.45833
3068.828	1.79167
3070.86	2.125
