-0.839	468.375
3.438	556.04167
7.711	170.70833
11.981	60.04167
16.247	46.04167
20.509	51.04167
24.768	45.70833
29.024	57.04167
33.276	46.70833
37.524	50.70833
41.769	48.70833
46.01	36.375
50.247	48.70833
54.481	56.70833
58.712	63.375
62.939	45.375
67.162	66.375
71.382	58.04167
75.599	44.375
79.812	62.70833
84.021	81.70833
88.227	63.04167
92.429	59.04167
96.628	52.375
100.823	73.04167
105.015	72.70833
109.204	70.70833
113.388	75.04167
117.57	75.04167
121.748	88.04167
125.922	82.375
130.093	97.70833
134.261	97.04167
138.425	95.04167
142.585	138.04167
146.742	130.70833
150.896	163.04167
155.046	204.04167
159.193	317.375
163.336	542.70833
167.476	992.04167
171.613	1769.70833
175.746	2914.70833
179.875	4266.04167
184.002	5514.70833
188.124	6347.375
192.244	6625.375
196.36	6524.04167
200.472	6371.70833
204.581	6125.375
208.687	5923.04167
212.79	5872.375
216.889	5815.04167
220.984	5794.70833
225.077	5789.375
229.165	5790.375
233.251	5761.04167
237.333	5714.04167
241.412	5658.375
245.487	5634.04167
249.559	5538.70833
253.628	5450.70833
257.694	5386.04167
261.756	5328.375
265.814	5231.70833
269.87	5110.04167
273.922	4920.70833
277.97	4759.04167
282.016	4630.70833
286.058	4562.375
290.097	4550.70833
294.132	4531.04167
298.164	4501.70833
302.193	4384.375
306.219	4151.375
310.241	3859.375
314.26	3570.375
318.276	3385.375
322.288	3263.04167
326.297	3101.375
330.303	3037.04167
334.305	2991.04167
338.305	2967.04167
342.301	2910.375
346.294	2900.375
350.283	2875.375
354.269	2879.70833
358.252	2824.04167
362.232	2836.375
366.209	2820.04167
370.182	2806.70833
374.152	2793.70833
378.119	2812.70833
382.083	2787.70833
386.043	2796.04167
390	2778.375
393.954	2794.04167
397.905	2784.04167
401.852	2794.375
405.797	2745.04167
409.738	2770.04167
413.676	2777.04167
417.61	2759.04167
421.542	2737.04167
425.47	2729.375
429.396	2684.375
433.318	2667.70833
437.236	2678.04167
441.152	2685.04167
445.065	2656.375
448.974	2653.04167
452.88	2590.375
456.783	2597.04167
460.683	2597.04167
464.58	2588.04167
468.473	2577.375
472.364	2607.04167
476.251	2593.70833
480.135	2627.375
484.016	2663.70833
487.894	2653.70833
491.769	2672.04167
495.641	2650.70833
499.509	2649.70833
503.375	2639.375
507.237	2679.375
511.096	2657.375
514.952	2723.04167
518.805	2760.70833
522.655	2805.375
526.502	2705.70833
530.346	2656.04167
534.187	2630.04167
538.024	2642.70833
541.859	2655.375
545.69	2669.375
549.519	2655.04167
553.344	2648.70833
557.166	2610.70833
560.985	2588.70833
564.802	2555.375
568.615	2526.375
572.425	2477.70833
576.232	2472.04167
580.036	2447.04167
583.836	2468.04167
587.634	2475.04167
591.429	2475.375
595.221	2536.04167
599.01	2537.04167
602.796	2566.04167
606.578	2591.04167
610.358	2580.375
614.135	2589.375
617.909	2576.70833
621.679	2556.375
625.447	2519.04167
629.212	2535.375
632.973	2511.04167
636.732	2531.70833
640.488	2513.70833
644.241	2495.375
647.991	2502.375
651.737	2547.375
655.481	2554.375
659.222	2587.375
662.96	2578.70833
666.695	2593.70833
670.427	2581.375
674.156	2577.04167
677.882	2538.04167
681.605	2512.04167
685.325	2508.70833
689.043	2496.375
692.757	2477.04167
696.468	2482.375
700.177	2466.375
703.882	2435.04167
707.585	2441.04167
711.284	2439.375
714.981	2428.70833
718.675	2442.375
722.366	2443.70833
726.054	2425.04167
729.739	2433.375
733.421	2433.70833
737.1	2434.70833
740.777	2443.375
744.45	2467.70833
748.121	2446.375
751.789	2497.70833
755.453	2486.375
759.115	2517.70833
762.774	2506.375
766.431	2530.375
770.084	2559.04167
773.734	2561.70833
777.382	2594.70833
781.027	2611.375
784.669	2618.70833
788.308	2623.04167
791.944	2647.04167
795.577	2666.375
799.208	2685.04167
802.835	2697.70833
806.46	2748.375
810.082	2742.375
813.701	2771.375
817.317	2814.04167
820.931	2800.70833
824.542	2763.375
828.149	2751.04167
831.754	2687.70833
835.357	2653.375
838.956	2647.70833
842.553	2650.04167
846.146	2629.375
849.737	2596.375
853.326	2599.04167
856.911	2574.70833
860.493	2599.375
864.073	2627.04167
867.65	2657.70833
871.225	2675.375
874.796	2673.70833
878.365	2676.70833
881.931	2674.70833
885.494	2701.375
889.054	2699.70833
892.612	2675.375
896.166	2653.04167
899.719	2648.70833
903.268	2619.375
906.814	2615.70833
910.358	2610.375
913.899	2590.375
917.438	2607.70833
920.973	2601.70833
924.506	2627.375
928.036	2686.04167
931.564	2717.04167
935.088	2736.70833
938.61	2732.04167
942.129	2733.70833
945.646	2783.70833
949.16	2821.375
952.671	2869.70833
956.179	2914.04167
959.685	2919.04167
963.188	2973.70833
966.688	3001.70833
970.185	2884.70833
973.68	2801.04167
977.173	2705.375
980.662	2662.04167
984.149	2676.70833
987.633	2654.70833
991.114	2687.375
994.593	2717.70833
998.069	2785.70833
1001.542	2875.375
1005.013	2840.04167
1008.481	2675.70833
1011.947	2624.70833
1015.409	2616.70833
1018.869	2603.04167
1022.327	2605.375
1025.782	2591.70833
1029.234	2582.04167
1032.683	2544.04167
1036.13	2484.70833
1039.574	2430.70833
1043.016	2348.375
1046.455	2319.70833
1049.891	2288.375
1053.325	2306.375
1056.756	2306.70833
1060.184	2316.04167
1063.61	2346.04167
1067.033	2334.70833
1070.454	2335.70833
1073.872	2384.70833
1077.287	2376.375
1080.7	2385.04167
1084.11	2372.04167
1087.517	2347.375
1090.922	2304.375
1094.325	2270.04167
1097.724	2239.375
1101.122	2261.375
1104.516	2254.375
1107.908	2227.70833
1111.298	2265.70833
1114.684	2299.375
1118.069	2327.70833
1121.45	2333.70833
1124.83	2333.70833
1128.206	2336.375
1131.58	2363.04167
1134.951	2421.70833
1138.32	2484.04167
1141.687	2573.375
1145.05	2597.70833
1148.412	2624.04167
1151.77	2610.375
1155.126	2592.70833
1158.48	2575.375
1161.831	2566.70833
1165.18	2577.70833
1168.525	2638.04167
1171.869	2623.70833
1175.21	2656.70833
1178.548	2674.375
1181.884	2700.375
1185.217	2709.375
1188.548	2752.04167
1191.877	2789.70833
1195.202	2870.70833
1198.526	2939.04167
1201.846	2965.70833
1205.165	2967.70833
1208.48	2969.375
1211.794	2957.04167
1215.104	2953.70833
1218.413	2946.375
1221.719	2955.04167
1225.022	2892.70833
1228.323	2855.70833
1231.621	2851.375
1234.917	2815.04167
1238.21	2835.04167
1241.501	2815.70833
1244.79	2821.04167
1248.076	2799.70833
1251.359	2845.70833
1254.64	2898.375
1257.919	2895.375
1261.195	2983.70833
1264.468	2983.04167
1267.74	3038.70833
1271.008	3051.70833
1274.275	3054.04167
1277.538	3032.70833
1280.8	3014.04167
1284.059	3022.70833
1287.315	3059.04167
1290.569	3067.375
1293.821	3079.04167
1297.07	3079.70833
1300.317	3099.04167
1303.562	3094.375
1306.803	3071.375
1310.043	3079.70833
1313.28	3052.04167
1316.515	3050.04167
1319.747	3058.375
1322.977	3012.70833
1326.204	3034.04167
1329.429	2993.04167
1332.652	3010.70833
1335.872	3025.04167
1339.09	2973.375
1342.306	2949.04167
1345.519	2960.375
1348.729	2960.70833
1351.938	2965.04167
1355.144	2944.375
1358.347	2880.375
1361.548	2819.70833
1364.747	2807.375
1367.944	2811.375
1371.138	2822.70833
1374.329	2805.375
1377.518	2815.04167
1380.705	2836.04167
1383.89	2802.70833
1387.072	2724.04167
1390.252	2637.04167
1393.429	2528.70833
1396.605	2433.04167
1399.777	2367.375
1402.948	2367.375
1406.116	2336.04167
1409.282	2315.04167
1412.445	2303.375
1415.606	2306.04167
1418.765	2332.04167
1421.921	2379.375
1425.075	2409.70833
1428.227	2491.70833
1431.376	2591.04167
1434.524	2696.70833
1437.668	2777.375
1440.811	2827.04167
1443.951	2826.04167
1447.089	2832.375
1450.224	2834.375
1453.357	2806.375
1456.488	2802.70833
1459.617	2744.04167
1462.743	2722.70833
1465.867	2675.70833
1468.989	2630.04167
1472.108	2601.375
1475.225	2569.375
1478.34	2542.04167
1481.453	2543.375
1484.563	2561.375
1487.671	2569.375
1490.776	2574.375
1493.88	2626.70833
1496.981	2638.70833
1500.08	2671.70833
1503.176	2690.375
1506.271	2768.04167
1509.363	2782.375
1512.452	2788.70833
1515.54	2837.04167
1518.625	2873.375
1521.708	2933.70833
1524.789	3006.375
1527.867	3117.04167
1530.944	3262.70833
1534.018	3365.375
1537.089	3424.375
1540.159	3446.70833
1543.226	3395.70833
1546.291	3311.04167
1549.354	3238.70833
1552.415	3192.375
1555.473	3095.375
1558.529	3061.375
1561.583	3036.70833
1564.634	3042.04167
1567.684	3056.04167
1570.731	3102.375
1573.776	3144.375
1576.819	3203.375
1579.859	3254.04167
1582.898	3334.375
1585.934	3364.375
1588.968	3368.375
1591.999	3344.375
1595.029	3354.375
1598.056	3328.04167
1601.081	3360.375
1604.104	3351.375
1607.125	3348.04167
1610.144	3282.04167
1613.16	3215.04167
1616.174	3189.04167
1619.186	3130.70833
1622.196	3090.70833
1625.203	3029.04167
1628.209	2995.04167
1631.212	2987.70833
1634.213	3055.70833
1637.212	3143.375
1640.209	3151.04167
1643.203	3104.375
1646.196	2993.04167
1649.186	2844.04167
1652.174	2737.375
1655.16	2636.04167
1658.144	2569.70833
1661.125	2424.70833
1664.105	2265.04167
1667.082	2144.70833
1670.057	2043.70833
1673.03	1918.70833
1676.001	1792.04167
1678.97	1677.04167
1681.937	1586.375
1684.901	1511.375
1687.863	1450.70833
1690.824	1393.375
1693.782	1364.04167
1696.738	1313.04167
1699.692	1311.04167
1702.643	1255.04167
1705.593	1243.04167
1708.54	1231.04167
1711.486	1234.70833
1714.429	1204.375
1717.37	1211.04167
1720.309	1184.04167
1723.246	1192.04167
1726.181	1164.375
1729.113	1163.375
1732.044	1141.04167
1734.972	1134.70833
1737.899	1144.04167
1740.823	1132.04167
1743.745	1155.70833
1746.665	1091.04167
1749.583	1077.375
1752.499	1065.04167
1755.413	1067.04167
1758.325	1049.70833
1761.235	1031.375
1764.142	1033.04167
1767.048	1010.375
1769.951	1016.375
1772.852	1020.375
1775.752	1007.70833
1778.649	1004.375
1781.544	1010.70833
1784.437	971.70833
1787.328	1004.70833
1790.217	977.375
1793.104	948.70833
1795.989	959.70833
1798.872	961.375
1801.753	968.04167
1804.631	948.375
1807.508	970.70833
1810.383	960.04167
1813.255	946.70833
1816.126	946.04167
1818.994	944.04167
1821.861	927.04167
1824.725	941.04167
1827.587	935.70833
1830.448	913.70833
1833.306	899.04167
1836.162	909.375
1839.017	910.04167
1841.869	908.375
1844.719	902.70833
1847.567	881.70833
1850.414	872.375
1853.258	884.70833
1856.1	894.04167
1858.94	902.70833
1861.778	888.70833
1864.614	892.70833
1867.448	884.375
1870.28	867.04167
1873.111	895.04167
1875.939	884.04167
1878.765	900.70833
1881.589	875.375
1884.411	872.04167
1887.231	866.70833
1890.049	872.04167
1892.865	855.70833
1895.68	846.04167
1898.492	865.04167
1901.302	854.375
1904.11	857.04167
1906.916	827.70833
1909.721	831.04167
1912.523	841.70833
1915.323	830.04167
1918.122	820.375
1920.918	837.04167
1923.712	819.04167
1926.505	812.70833
1929.295	810.70833
1932.084	825.04167
1934.87	808.70833
1937.655	804.70833
1940.438	813.04167
1943.218	817.04167
1945.997	826.375
1948.774	819.04167
1951.549	823.04167
1954.322	815.70833
1957.093	804.04167
1959.862	799.375
1962.629	797.70833
1965.394	790.04167
1968.157	772.375
1970.918	781.375
1973.678	767.375
1976.435	780.04167
1979.19	773.70833
1981.944	760.70833
1984.696	785.70833
1987.445	758.04167
1990.193	775.70833
1992.939	773.70833
1995.683	753.04167
1998.425	750.70833
2001.165	782.04167
2003.903	754.375
2006.639	761.70833
2009.374	757.375
2012.106	756.70833
2014.837	741.04167
2017.566	768.04167
2020.292	758.375
2023.017	755.70833
2025.74	748.04167
2028.461	741.70833
2031.18	740.04167
2033.898	728.70833
2036.613	735.375
2039.327	739.375
2042.038	731.375
2044.748	722.04167
2047.456	725.375
2050.162	718.04167
2052.866	739.70833
2055.568	728.04167
2058.268	719.04167
2060.967	728.04167
2063.663	703.04167
2066.358	704.70833
2069.051	701.70833
2071.742	712.70833
2074.431	712.70833
2077.118	705.04167
2079.804	708.04167
2082.487	708.04167
2085.169	714.70833
2087.849	728.04167
2090.527	687.70833
2093.203	706.375
2095.877	721.04167
2098.55	724.04167
2101.22	709.375
2103.889	721.04167
2106.556	714.375
2109.221	724.04167
2111.884	723.375
2114.546	749.70833
2117.205	783.70833
2119.863	804.70833
2122.519	833.70833
2125.173	861.70833
2127.825	908.04167
2130.475	920.70833
2133.124	903.375
2135.771	891.70833
2138.416	871.375
2141.059	838.70833
2143.7	811.70833
2146.339	774.04167
2148.977	735.375
2151.613	746.375
2154.247	725.375
2156.879	714.04167
2159.51	698.04167
2162.138	687.375
2164.765	679.375
2167.39	688.70833
2170.013	692.375
2172.634	685.375
2175.254	674.04167
2177.872	703.70833
2180.488	665.04167
2183.102	662.70833
2185.714	666.04167
2188.325	637.70833
2190.934	652.70833
2193.541	647.70833
2196.146	646.70833
2198.75	632.70833
2201.351	622.375
2203.951	627.70833
2206.549	634.70833
2209.146	630.375
2211.74	622.375
2214.333	622.375
2216.924	603.04167
2219.514	615.04167
2222.101	607.04167
2224.687	624.70833
2227.271	612.04167
2229.853	603.04167
2232.433	592.04167
2235.012	627.04167
2237.589	623.04167
2240.164	633.70833
2242.738	610.70833
2245.309	604.70833
2247.879	621.04167
2250.448	615.375
2253.014	593.70833
2255.579	575.04167
2258.142	597.70833
2260.703	575.04167
2263.262	582.70833
2265.82	567.70833
2268.376	583.04167
2270.93	562.04167
2273.483	572.375
2276.033	569.375
2278.583	566.70833
2281.13	567.375
2283.675	558.04167
2286.219	554.04167
2288.761	555.70833
2291.302	575.70833
2293.841	577.375
2296.377	552.04167
2298.913	545.70833
2301.446	562.70833
2303.978	560.375
2306.508	547.375
2309.037	550.375
2311.563	553.375
2314.088	556.04167
2316.612	530.70833
2319.133	555.70833
2321.653	557.70833
2324.171	541.375
2326.688	556.70833
2329.202	550.375
2331.715	540.375
2334.227	549.70833
2336.736	544.70833
2339.244	538.04167
2341.751	524.70833
2344.255	542.70833
2346.758	536.04167
2349.259	519.375
2351.759	537.375
2354.257	537.70833
2356.753	524.70833
2359.247	532.04167
2361.74	536.04167
2364.231	531.04167
2366.721	540.04167
2369.209	524.70833
2371.695	530.70833
2374.179	521.04167
2376.662	509.375
2379.143	536.70833
2381.622	522.375
2384.1	536.375
2386.576	528.375
2389.051	537.04167
2391.524	548.375
2393.995	530.70833
2396.464	521.70833
2398.932	529.04167
2401.398	523.375
2403.863	522.04167
2406.325	513.04167
2408.787	528.375
2411.246	524.70833
2413.704	517.04167
2416.16	510.375
2418.615	517.04167
2421.068	531.04167
2423.519	528.04167
2425.969	520.375
2428.417	520.04167
2430.863	547.04167
2433.308	523.70833
2435.751	518.375
2438.193	513.375
2440.633	520.70833
2443.071	526.375
2445.508	515.04167
2447.943	507.375
2450.376	507.375
2452.808	513.04167
2455.238	509.375
2457.667	552.375
2460.093	511.04167
2462.519	502.04167
2464.942	500.70833
2467.365	512.375
2469.785	528.04167
2472.204	520.70833
2474.621	505.375
2477.037	528.04167
2479.451	502.375
2481.863	496.70833
2484.274	511.70833
2486.683	512.04167
2489.091	517.04167
2491.497	515.70833
2493.901	515.375
2496.304	506.375
2498.705	520.70833
2501.105	508.70833
2503.503	539.70833
2505.899	498.04167
2508.294	527.04167
2510.687	517.375
2513.079	509.70833
2515.469	493.70833
2517.858	509.375
2520.245	518.70833
2522.63	506.70833
2525.014	491.375
2527.396	502.04167
2529.776	499.375
2532.156	514.70833
2534.533	504.04167
2536.909	510.04167
2539.283	483.70833
2541.656	508.375
2544.027	516.375
2546.397	502.375
2548.765	500.04167
2551.131	509.375
2553.496	502.04167
2555.86	515.70833
2558.221	503.375
2560.582	505.04167
2562.94	495.04167
2565.298	495.70833
2567.653	526.04167
2570.007	493.375
2572.36	514.70833
2574.711	504.04167
2577.06	521.375
2579.408	512.70833
2581.754	505.04167
2584.099	513.04167
2586.442	504.375
2588.784	513.04167
2591.124	519.70833
2593.463	514.375
2595.8	515.04167
2598.135	494.04167
2600.469	504.375
2602.802	527.70833
2605.133	522.04167
2607.462	503.70833
2609.79	495.375
2612.116	506.04167
2614.441	516.375
2616.764	519.04167
2619.086	513.375
2621.406	500.375
2623.725	540.70833
2626.042	519.70833
2628.358	512.70833
2630.672	511.70833
2632.985	537.04167
2635.296	524.375
2637.606	511.70833
2639.914	511.04167
2642.22	520.70833
2644.525	529.70833
2646.829	527.375
2649.131	536.04167
2651.432	531.70833
2653.731	529.70833
2656.028	540.375
2658.324	544.70833
2660.619	530.375
2662.912	545.04167
2665.204	529.70833
2667.494	546.04167
2669.782	524.04167
2672.07	540.375
2674.355	542.04167
2676.639	539.70833
2678.922	531.70833
2681.203	541.70833
2683.483	534.04167
2685.761	524.70833
2688.038	538.70833
2690.313	552.375
2692.587	534.04167
2694.859	536.70833
2697.13	545.375
2699.399	547.04167
2701.667	566.04167
2703.933	556.04167
2706.198	546.70833
2708.461	571.70833
2710.723	553.70833
2712.984	559.70833
2715.243	567.04167
2717.5	557.375
2719.757	573.04167
2722.011	573.70833
2724.264	581.70833
2726.516	597.375
2728.766	573.70833
2731.015	585.70833
2733.262	579.04167
2735.508	582.375
2737.753	581.04167
2739.996	576.375
2742.237	574.375
2744.477	579.70833
2746.716	574.70833
2748.953	568.70833
2751.189	580.04167
2753.423	568.375
2755.656	565.70833
2757.887	566.04167
2760.117	566.04167
2762.346	562.70833
2764.573	558.70833
2766.798	559.375
2769.022	564.04167
2771.245	568.70833
2773.467	568.375
2775.686	576.375
2777.905	570.04167
2780.122	573.375
2782.337	584.375
2784.552	573.70833
2786.764	582.70833
2788.976	584.375
2791.186	584.70833
2793.394	596.04167
2795.601	600.70833
2797.807	607.04167
2800.011	611.375
2802.214	606.375
2804.415	609.70833
2806.615	616.04167
2808.814	616.04167
2811.011	627.70833
2813.206	617.04167
2815.401	630.04167
2817.594	628.04167
2819.785	637.04167
2821.975	630.04167
2824.164	626.70833
2826.351	650.70833
2828.537	668.375
2830.722	670.04167
2832.905	672.375
2835.086	704.04167
2837.267	727.70833
2839.445	731.04167
2841.623	752.70833
2843.799	767.04167
2845.974	803.70833
2848.147	832.375
2850.319	859.04167
2852.489	872.04167
2854.659	882.375
2856.826	899.04167
2858.993	916.70833
2861.158	902.70833
2863.321	905.04167
2865.483	930.04167
2867.644	915.04167
2869.804	908.04167
2871.962	920.70833
2874.118	916.70833
2876.274	921.70833
2878.428	916.375
2880.58	915.70833
2882.731	895.70833
2884.881	912.375
2887.03	940.70833
2889.177	911.70833
2891.322	923.70833
2893.467	921.04167
2895.61	929.70833
2897.751	946.375
2899.892	937.04167
2902.03	948.375
2904.168	959.04167
2906.304	959.70833
2908.439	975.375
2910.572	967.04167
2912.704	979.04167
2914.835	985.70833
2916.965	989.04167
2919.093	993.04167
2921.219	981.70833
2923.345	992.375
2925.469	963.04167
2927.591	979.375
2929.712	940.04167
2931.832	951.04167
2933.951	920.375
2936.068	913.375
2938.184	890.04167
2940.299	888.375
2942.412	866.375
2944.524	838.04167
2946.634	824.04167
2948.744	794.04167
2950.851	821.70833
2952.958	786.70833
2955.063	778.70833
2957.167	775.375
2959.269	746.70833
2961.371	785.375
2963.471	744.375
2965.569	745.70833
2967.666	726.70833
2969.762	714.04167
2971.857	705.375
2973.95	685.375
2976.042	686.04167
2978.133	666.70833
2980.222	669.375
2982.31	642.375
2984.396	627.04167
2986.482	634.70833
2988.566	631.70833
2990.648	624.04167
2992.73	617.375
2994.81	609.04167
2996.889	619.375
2998.966	612.70833
3001.042	620.70833
3003.117	618.375
3005.191	621.375
3007.263	625.70833
3009.334	599.70833
3011.403	607.70833
3013.472	596.375
3015.539	598.04167
3017.604	602.04167
3019.669	558.04167
3021.732	575.04167
3023.794	577.04167
3025.854	557.70833
3027.914	559.375
3029.971	577.70833
3032.028	563.375
3034.083	560.375
3036.137	566.375
3038.19	534.375
3040.242	533.70833
3042.292	515.375
3044.341	518.04167
3046.388	520.375
3048.435	497.70833
3050.48	527.375
3052.524	512.375
3054.566	502.70833
3056.607	507.04167
3058.647	492.70833
3060.686	472.375
3062.723	455.70833
3064.759	441.04167
3066.794	-0.29167
3068.828	2.04167
3070.86	3.04167
