-0.839	624.91667
3.438	743.25
7.711	217.58333
11.981	66.25
16.247	48.25
20.509	52.91667
24.768	44.25
29.024	59.25
33.276	43.91667
37.524	49.25
41.769	49.58333
46.01	34.25
50.247	47.91667
54.481	59.58333
58.712	59.91667
62.939	48.91667
67.162	63.58333
71.382	56.58333
75.599	45.58333
79.812	60.91667
84.021	76.91667
88.227	59.25
92.429	60.25
96.628	53.58333
100.823	70.91667
105.015	74.91667
109.204	65.58333
113.388	69.91667
117.57	74.58333
121.748	84.91667
125.922	76.58333
130.093	94.25
134.261	98.25
138.425	97.25
142.585	139.91667
146.742	121.58333
150.896	151.58333
155.046	196.58333
159.193	298.91667
163.336	503.91667
167.476	920.58333
171.613	1683.58333
175.746	2800.91667
179.875	4093.25
184.002	5340.25
188.124	6242.25
192.244	6555.25
196.36	6519.58333
200.472	6398.25
204.581	6310.91667
208.687	6144.58333
212.79	6048.25
216.889	6063.25
220.984	6076.58333
225.077	6064.58333
229.165	6070.91667
233.251	6117.58333
237.333	6103.58333
241.412	6079.25
245.487	6019.58333
249.559	5956.58333
253.628	5895.25
257.694	5844.91667
261.756	5792.58333
265.814	5690.25
269.87	5503.25
273.922	5343.58333
277.97	5173.91667
282.016	5063.58333
286.058	5002.91667
290.097	4972.25
294.132	4970.91667
298.164	4939.58333
302.193	4773.91667
306.219	4532.25
310.241	4267.25
314.26	3945.58333
318.276	3787.25
322.288	3628.25
326.297	3514.25
330.303	3410.25
334.305	3357.58333
338.305	3302.25
342.301	3261.58333
346.294	3257.91667
350.283	3255.25
354.269	3216.25
358.252	3181.91667
362.232	3188.58333
366.209	3186.58333
370.182	3149.91667
374.152	3109.58333
378.119	3163.58333
382.083	3142.91667
386.043	3158.58333
390	3136.58333
393.954	3123.58333
397.905	3119.25
401.852	3125.91667
405.797	3108.91667
409.738	3110.91667
413.676	3126.25
417.61	3154.25
421.542	3140.25
425.47	3115.58333
429.396	3092.25
433.318	3079.91667
437.236	3082.91667
441.152	3092.58333
445.065	3039.91667
448.974	3069.91667
452.88	3020.25
456.783	3018.91667
460.683	2997.58333
464.58	2994.58333
468.473	3009.58333
472.364	3028.25
476.251	3045.25
480.135	3060.91667
484.016	3092.25
487.894	3135.91667
491.769	3137.58333
495.641	3118.91667
499.509	3141.25
503.375	3129.58333
507.237	3115.58333
511.096	3091.91667
514.952	3104.25
518.805	3099.58333
522.655	3102.91667
526.502	3069.58333
530.346	3064.58333
534.187	3076.91667
538.024	3079.91667
541.859	3063.25
545.69	3100.91667
549.519	3083.58333
553.344	3046.58333
557.166	3019.58333
560.985	3006.58333
564.802	2958.91667
568.615	2906.58333
572.425	2878.58333
576.232	2894.58333
580.036	2873.91667
583.836	2856.58333
587.634	2873.58333
591.429	2892.25
595.221	2962.58333
599.01	2957.25
602.796	2994.25
606.578	2993.91667
610.358	3008.25
614.135	2973.91667
617.909	2984.91667
621.679	2961.91667
625.447	2939.25
629.212	2939.91667
632.973	2920.91667
636.732	2917.58333
640.488	2913.91667
644.241	2900.58333
647.991	2920.58333
651.737	2897.25
655.481	2901.25
659.222	2891.25
662.96	2915.25
666.695	2919.91667
670.427	2926.91667
674.156	2933.58333
677.882	2919.58333
681.605	2900.25
685.325	2893.91667
689.043	2920.58333
692.757	2897.58333
696.468	2876.25
700.177	2866.25
703.882	2827.91667
707.585	2837.58333
711.284	2816.58333
714.981	2842.58333
718.675	2826.58333
722.366	2819.25
726.054	2807.58333
729.739	2807.91667
733.421	2835.91667
737.1	2797.25
740.777	2826.91667
744.45	2821.58333
748.121	2835.91667
751.789	2887.91667
755.453	2858.25
759.115	2878.91667
762.774	2882.58333
766.431	2911.91667
770.084	2938.91667
773.734	2937.25
777.382	2973.58333
781.027	2984.91667
784.669	2972.25
788.308	2995.91667
791.944	3003.25
795.577	3002.91667
799.208	3032.58333
802.835	3019.25
806.46	3062.91667
810.082	3063.91667
813.701	3081.58333
817.317	3121.25
820.931	3119.58333
824.542	3071.91667
828.149	3035.91667
831.754	3014.25
835.357	2995.58333
838.956	3018.58333
842.553	3005.58333
846.146	2985.91667
849.737	2942.25
853.326	2959.25
856.911	2938.25
860.493	2947.25
864.073	2964.58333
867.65	2990.91667
871.225	3021.58333
874.796	3010.91667
878.365	3030.25
881.931	3014.91667
885.494	3047.91667
889.054	3035.58333
892.612	3057.25
896.166	3011.91667
899.719	2964.25
903.268	2901.91667
906.814	2924.58333
910.358	2895.91667
913.899	2883.58333
917.438	2887.25
920.973	2854.25
924.506	2919.91667
928.036	2932.58333
931.564	2982.91667
935.088	3020.25
938.61	3008.58333
942.129	3032.58333
945.646	3070.25
949.16	3129.91667
952.671	3174.58333
956.179	3172.58333
959.685	3145.25
963.188	3167.91667
966.688	3136.58333
970.185	3030.25
973.68	2975.58333
977.173	2934.25
980.662	2901.58333
984.149	2905.91667
987.633	2865.58333
991.114	2897.58333
994.593	2956.58333
998.069	3030.91667
1001.542	3080.25
1005.013	3067.91667
1008.481	2934.25
1011.947	2874.58333
1015.409	2850.25
1018.869	2843.91667
1022.327	2846.58333
1025.782	2825.91667
1029.234	2827.58333
1032.683	2809.91667
1036.13	2750.25
1039.574	2634.58333
1043.016	2584.25
1046.455	2534.91667
1049.891	2527.91667
1053.325	2547.91667
1056.756	2518.58333
1060.184	2543.91667
1063.61	2545.91667
1067.033	2568.58333
1070.454	2577.58333
1073.872	2607.58333
1077.287	2576.91667
1080.7	2573.91667
1084.11	2570.25
1087.517	2542.58333
1090.922	2517.58333
1094.325	2479.58333
1097.724	2459.25
1101.122	2496.58333
1104.516	2472.91667
1107.908	2481.91667
1111.298	2509.25
1114.684	2516.25
1118.069	2540.58333
1121.45	2566.25
1124.83	2573.91667
1128.206	2572.91667
1131.58	2611.58333
1134.951	2656.25
1138.32	2730.25
1141.687	2813.25
1145.05	2877.25
1148.412	2859.91667
1151.77	2843.91667
1155.126	2855.91667
1158.48	2864.25
1161.831	2849.91667
1165.18	2858.91667
1168.525	2904.58333
1171.869	2938.91667
1175.21	2941.91667
1178.548	2965.58333
1181.884	2993.25
1185.217	3015.25
1188.548	3045.91667
1191.877	3079.91667
1195.202	3172.25
1198.526	3216.58333
1201.846	3250.91667
1205.165	3218.58333
1208.48	3221.58333
1211.794	3187.58333
1215.104	3209.25
1218.413	3203.58333
1221.719	3166.58333
1225.022	3133.58333
1228.323	3089.25
1231.621	3066.25
1234.917	3025.25
1238.21	3051.25
1241.501	3030.91667
1244.79	3038.58333
1248.076	3057.58333
1251.359	3086.91667
1254.64	3143.91667
1257.919	3156.91667
1261.195	3189.25
1264.468	3237.91667
1267.74	3267.25
1271.008	3274.58333
1274.275	3298.91667
1277.538	3251.91667
1280.8	3235.25
1284.059	3224.58333
1287.315	3255.58333
1290.569	3250.58333
1293.821	3247.91667
1297.07	3286.25
1300.317	3264.91667
1303.562	3252.91667
1306.803	3251.91667
1310.043	3247.25
1313.28	3211.25
1316.515	3161.91667
1319.747	3174.25
1322.977	3141.25
1326.204	3144.91667
1329.429	3080.25
1332.652	3118.25
1335.872	3111.58333
1339.09	3067.58333
1342.306	3057.58333
1345.519	3014.91667
1348.729	2977.25
1351.938	2953.58333
1355.144	2883.25
1358.347	2838.58333
1361.548	2830.91667
1364.747	2853.91667
1367.944	2795.25
1371.138	2800.91667
1374.329	2798.58333
1377.518	2775.58333
1380.705	2804.91667
1383.89	2776.58333
1387.072	2730.91667
1390.252	2661.58333
1393.429	2584.91667
1396.605	2525.91667
1399.777	2445.58333
1402.948	2450.25
1406.116	2428.25
1409.282	2404.25
1412.445	2414.91667
1415.606	2442.25
1418.765	2447.58333
1421.921	2487.58333
1425.075	2520.25
1428.227	2601.58333
1431.376	2682.58333
1434.524	2770.58333
1437.668	2864.91667
1440.811	2891.25
1443.951	2900.58333
1447.089	2910.25
1450.224	2922.91667
1453.357	2894.91667
1456.488	2894.25
1459.617	2840.91667
1462.743	2851.25
1465.867	2794.58333
1468.989	2761.58333
1472.108	2711.58333
1475.225	2659.91667
1478.34	2629.58333
1481.453	2639.91667
1484.563	2627.58333
1487.671	2660.58333
1490.776	2665.58333
1493.88	2696.58333
1496.981	2719.91667
1500.08	2774.25
1503.176	2801.91667
1506.271	2833.91667
1509.363	2869.25
1512.452	2899.58333
1515.54	2936.91667
1518.625	2981.91667
1521.708	3044.58333
1524.789	3098.91667
1527.867	3235.91667
1530.944	3372.91667
1534.018	3514.25
1537.089	3609.58333
1540.159	3623.58333
1543.226	3599.91667
1546.291	3553.25
1549.354	3454.58333
1552.415	3396.91667
1555.473	3292.58333
1558.529	3222.91667
1561.583	3186.58333
1564.634	3103.91667
1567.684	3131.91667
1570.731	3122.25
1573.776	3153.58333
1576.819	3213.25
1579.859	3241.58333
1582.898	3289.58333
1585.934	3298.25
1588.968	3314.25
1591.999	3271.91667
1595.029	3318.91667
1598.056	3313.25
1601.081	3333.25
1604.104	3320.58333
1607.125	3282.58333
1610.144	3236.25
1613.16	3200.58333
1616.174	3107.25
1619.186	3105.58333
1622.196	3035.91667
1625.203	2989.91667
1628.209	2978.58333
1631.212	2978.58333
1634.213	3001.58333
1637.212	2997.91667
1640.209	2939.25
1643.203	2833.25
1646.196	2755.25
1649.186	2626.58333
1652.174	2524.58333
1655.16	2421.25
1658.144	2358.58333
1661.125	2254.25
1664.105	2165.58333
1667.082	2071.25
1670.057	1991.58333
1673.03	1877.25
1676.001	1788.91667
1678.97	1705.25
1681.937	1603.58333
1684.901	1529.91667
1687.863	1501.25
1690.824	1435.91667
1693.782	1411.25
1696.738	1357.58333
1699.692	1331.25
1702.643	1303.25
1705.593	1277.91667
1708.54	1278.91667
1711.486	1277.91667
1714.429	1239.25
1717.37	1258.91667
1720.309	1231.91667
1723.246	1227.58333
1726.181	1194.25
1729.113	1209.58333
1732.044	1186.91667
1734.972	1174.25
1737.899	1182.25
1740.823	1193.91667
1743.745	1185.58333
1746.665	1135.58333
1749.583	1120.58333
1752.499	1114.91667
1755.413	1106.58333
1758.325	1093.58333
1761.235	1079.25
1764.142	1066.91667
1767.048	1052.58333
1769.951	1045.25
1772.852	1040.58333
1775.752	1020.91667
1778.649	1027.58333
1781.544	1026.25
1784.437	1002.91667
1787.328	1023.25
1790.217	1014.91667
1793.104	977.91667
1795.989	988.91667
1798.872	980.91667
1801.753	1006.25
1804.631	987.25
1807.508	991.58333
1810.383	984.58333
1813.255	987.25
1816.126	979.58333
1818.994	968.91667
1821.861	961.58333
1824.725	960.25
1827.587	962.91667
1830.448	938.58333
1833.306	930.91667
1836.162	940.25
1839.017	941.25
1841.869	932.58333
1844.719	931.25
1847.567	910.58333
1850.414	898.25
1853.258	912.25
1856.1	924.25
1858.94	918.25
1861.778	904.58333
1864.614	899.25
1867.448	910.91667
1870.28	897.58333
1873.111	914.25
1875.939	906.91667
1878.765	908.58333
1881.589	884.25
1884.411	894.58333
1887.231	891.91667
1890.049	887.58333
1892.865	890.91667
1895.68	879.25
1898.492	882.25
1901.302	863.91667
1904.11	857.25
1906.916	851.91667
1909.721	844.58333
1912.523	865.58333
1915.323	847.25
1918.122	844.25
1920.918	848.58333
1923.712	833.25
1926.505	826.58333
1929.295	826.58333
1932.084	835.58333
1934.87	819.58333
1937.655	828.91667
1940.438	815.58333
1943.218	825.58333
1945.997	820.58333
1948.774	823.25
1951.549	832.25
1954.322	811.58333
1957.093	815.58333
1959.862	809.25
1962.629	805.25
1965.394	813.25
1968.157	798.25
1970.918	790.91667
1973.678	782.58333
1976.435	797.25
1979.19	788.58333
1981.944	770.25
1984.696	778.91667
1987.445	762.25
1990.193	776.25
1992.939	784.58333
1995.683	772.25
1998.425	754.91667
2001.165	782.58333
2003.903	762.58333
2006.639	765.58333
2009.374	762.58333
2012.106	758.58333
2014.837	740.58333
2017.566	751.25
2020.292	760.25
2023.017	752.25
2025.74	751.58333
2028.461	733.58333
2031.18	750.25
2033.898	733.91667
2036.613	738.91667
2039.327	740.91667
2042.038	731.91667
2044.748	723.91667
2047.456	733.91667
2050.162	717.58333
2052.866	726.91667
2055.568	724.91667
2058.268	717.58333
2060.967	727.91667
2063.663	709.91667
2066.358	713.58333
2069.051	700.25
2071.742	712.25
2074.431	704.25
2077.118	704.91667
2079.804	684.25
2082.487	700.58333
2085.169	707.25
2087.849	722.25
2090.527	685.91667
2093.203	709.25
2095.877	704.25
2098.55	717.25
2101.22	718.58333
2103.889	732.91667
2106.556	723.91667
2109.221	729.58333
2111.884	727.25
2114.546	757.25
2117.205	780.91667
2119.863	822.91667
2122.519	834.91667
2125.173	865.91667
2127.825	924.25
2130.475	927.58333
2133.124	913.91667
2135.771	879.91667
2138.416	861.25
2141.059	839.25
2143.7	806.25
2146.339	783.58333
2148.977	736.25
2151.613	739.25
2154.247	719.25
2156.879	703.58333
2159.51	688.58333
2162.138	671.58333
2164.765	670.91667
2167.39	656.91667
2170.013	676.58333
2172.634	658.91667
2175.254	662.25
2177.872	688.25
2180.488	635.91667
2183.102	646.58333
2185.714	634.25
2188.325	603.25
2190.934	627.25
2193.541	635.58333
2196.146	612.58333
2198.75	592.91667
2201.351	596.91667
2203.951	593.58333
2206.549	610.91667
2209.146	593.58333
2211.74	593.25
2214.333	586.91667
2216.924	575.91667
2219.514	582.58333
2222.101	573.58333
2224.687	591.58333
2227.271	576.58333
2229.853	555.25
2232.433	557.58333
2235.012	582.91667
2237.589	577.25
2240.164	587.91667
2242.738	564.58333
2245.309	553.91667
2247.879	560.58333
2250.448	554.25
2253.014	547.25
2255.579	534.91667
2258.142	542.91667
2260.703	538.58333
2263.262	537.91667
2265.82	525.58333
2268.376	527.25
2270.93	517.91667
2273.483	523.91667
2276.033	524.91667
2278.583	509.25
2281.13	503.91667
2283.675	500.91667
2286.219	509.91667
2288.761	507.58333
2291.302	512.58333
2293.841	519.58333
2296.377	496.58333
2298.913	505.91667
2301.446	515.25
2303.978	501.58333
2306.508	496.91667
2309.037	484.58333
2311.563	505.25
2314.088	499.91667
2316.612	484.91667
2319.133	483.91667
2321.653	487.91667
2324.171	485.58333
2326.688	498.58333
2329.202	472.58333
2331.715	477.58333
2334.227	476.91667
2336.736	476.91667
2339.244	461.58333
2341.751	460.58333
2344.255	468.25
2346.758	468.91667
2349.259	449.58333
2351.759	469.58333
2354.257	454.58333
2356.753	452.58333
2359.247	460.58333
2361.74	462.91667
2364.231	453.25
2366.721	459.91667
2369.209	447.25
2371.695	457.91667
2374.179	449.58333
2376.662	438.91667
2379.143	461.25
2381.622	445.91667
2384.1	457.91667
2386.576	450.58333
2389.051	461.25
2391.524	468.91667
2393.995	454.58333
2396.464	444.58333
2398.932	441.58333
2401.398	436.25
2403.863	437.58333
2406.325	430.91667
2408.787	440.58333
2411.246	430.91667
2413.704	428.25
2416.16	429.25
2418.615	433.58333
2421.068	441.58333
2423.519	431.91667
2425.969	432.25
2428.417	424.25
2430.863	442.91667
2433.308	433.58333
2435.751	420.25
2438.193	422.58333
2440.633	431.58333
2443.071	432.58333
2445.508	415.91667
2447.943	421.25
2450.376	408.25
2452.808	410.91667
2455.238	405.58333
2457.667	444.58333
2460.093	404.91667
2462.519	396.91667
2464.942	414.25
2467.365	410.91667
2469.785	412.91667
2472.204	409.91667
2474.621	401.58333
2477.037	423.25
2479.451	393.91667
2481.863	391.58333
2484.274	393.91667
2486.683	402.58333
2489.091	404.58333
2491.497	398.58333
2493.901	402.91667
2496.304	398.58333
2498.705	395.58333
2501.105	384.91667
2503.503	414.58333
2505.899	379.91667
2508.294	407.91667
2510.687	385.91667
2513.079	382.91667
2515.469	379.91667
2517.858	377.91667
2520.245	395.58333
2522.63	373.58333
2525.014	385.25
2527.396	369.25
2529.776	385.25
2532.156	387.25
2534.533	375.58333
2536.909	375.25
2539.283	370.25
2541.656	362.91667
2544.027	382.91667
2546.397	373.91667
2548.765	362.25
2551.131	375.91667
2553.496	363.25
2555.86	369.91667
2558.221	371.91667
2560.582	365.58333
2562.94	358.58333
2565.298	366.58333
2567.653	383.25
2570.007	358.25
2572.36	371.58333
2574.711	352.25
2577.06	376.58333
2579.408	369.58333
2581.754	357.58333
2584.099	367.25
2586.442	355.91667
2588.784	362.58333
2591.124	356.25
2593.463	357.58333
2595.8	361.91667
2598.135	346.25
2600.469	354.58333
2602.802	366.91667
2605.133	370.91667
2607.462	344.91667
2609.79	343.91667
2612.116	357.58333
2614.441	358.25
2616.764	352.91667
2619.086	357.25
2621.406	342.25
2623.725	365.91667
2626.042	355.58333
2628.358	349.91667
2630.672	339.25
2632.985	367.25
2635.296	358.25
2637.606	348.91667
2639.914	338.25
2642.22	353.91667
2644.525	352.58333
2646.829	350.25
2649.131	361.25
2651.432	356.25
2653.731	343.25
2656.028	358.25
2658.324	358.91667
2660.619	346.58333
2662.912	356.58333
2665.204	339.91667
2667.494	351.91667
2669.782	343.25
2672.07	352.58333
2674.355	357.91667
2676.639	348.25
2678.922	336.25
2681.203	362.25
2683.483	337.91667
2685.761	334.25
2688.038	349.58333
2690.313	359.25
2692.587	354.25
2694.859	342.25
2697.13	349.91667
2699.399	359.58333
2701.667	359.25
2703.933	359.58333
2706.198	356.25
2708.461	365.25
2710.723	354.25
2712.984	364.91667
2715.243	358.91667
2717.5	350.91667
2719.757	375.25
2722.011	356.58333
2724.264	367.58333
2726.516	382.91667
2728.766	363.25
2731.015	370.58333
2733.262	357.91667
2735.508	364.25
2737.753	368.58333
2739.996	357.58333
2742.237	352.91667
2744.477	360.25
2746.716	364.58333
2748.953	350.58333
2751.189	355.58333
2753.423	347.25
2755.656	343.91667
2757.887	331.58333
2760.117	346.25
2762.346	337.91667
2764.573	338.91667
2766.798	339.25
2769.022	333.91667
2771.245	344.25
2773.467	345.91667
2775.686	350.25
2777.905	346.58333
2780.122	352.58333
2782.337	346.25
2784.552	341.25
2786.764	349.91667
2788.976	345.25
2791.186	341.58333
2793.394	350.91667
2795.601	356.25
2797.807	365.91667
2800.011	363.25
2802.214	373.25
2804.415	367.91667
2806.615	358.58333
2808.814	366.91667
2811.011	388.91667
2813.206	373.25
2815.401	380.25
2817.594	377.58333
2819.785	393.91667
2821.975	386.58333
2824.164	372.58333
2826.351	396.25
2828.537	398.58333
2830.722	406.58333
2832.905	415.58333
2835.086	434.58333
2837.267	450.58333
2839.445	462.91667
2841.623	475.25
2843.799	490.58333
2845.974	513.25
2848.147	540.58333
2850.319	552.25
2852.489	577.91667
2854.659	579.25
2856.826	591.58333
2858.993	619.91667
2861.158	592.25
2863.321	600.25
2865.483	607.91667
2867.644	613.58333
2869.804	604.58333
2871.962	604.91667
2874.118	604.91667
2876.274	607.58333
2878.428	598.91667
2880.58	597.25
2882.731	591.25
2884.881	594.58333
2887.03	607.91667
2889.177	604.25
2891.322	618.25
2893.467	613.58333
2895.61	612.25
2897.751	633.58333
2899.892	628.58333
2902.03	624.58333
2904.168	620.58333
2906.304	619.25
2908.439	638.91667
2910.572	632.91667
2912.704	646.91667
2914.835	641.25
2916.965	635.58333
2919.093	647.91667
2921.219	620.91667
2923.345	638.58333
2925.469	620.91667
2927.591	622.91667
2929.712	604.58333
2931.832	608.25
2933.951	597.58333
2936.068	589.25
2938.184	565.58333
2940.299	553.25
2942.412	548.25
2944.524	517.58333
2946.634	518.91667
2948.744	466.91667
2950.851	506.25
2952.958	471.91667
2955.063	467.25
2957.167	465.91667
2959.269	447.91667
2961.371	460.58333
2963.471	426.91667
2965.569	434.25
2967.666	410.91667
2969.762	410.25
2971.857	402.58333
2973.95	384.58333
2976.042	386.91667
2978.133	377.91667
2980.222	369.25
2982.31	358.58333
2984.396	342.58333
2986.482	347.25
2988.566	340.91667
2990.648	341.91667
2992.73	341.25
2994.81	326.58333
2996.889	331.91667
2998.966	333.91667
3001.042	344.58333
3003.117	323.58333
3005.191	324.58333
3007.263	323.58333
3009.334	324.25
3011.403	315.25
3013.472	307.91667
3015.539	313.91667
3017.604	325.25
3019.669	288.25
3021.732	293.25
3023.794	294.25
3025.854	292.58333
3027.914	289.58333
3029.971	306.91667
3032.028	279.91667
3034.083	300.58333
3036.137	291.91667
3038.19	279.91667
3040.242	272.91667
3042.292	269.58333
3044.341	267.58333
3046.388	281.58333
3048.435	258.25
3050.48	274.58333
3052.524	275.91667
3054.566	250.58333
3056.607	264.58333
3058.647	254.91667
3060.686	242.58333
3062.723	243.25
3064.759	227.25
3066.794	-0.41667
3068.828	2.25
3070.86	3.58333
