-0.839	457.95833
3.438	547.625
7.711	162.625
11.981	55.95833
16.247	40.95833
20.509	49.625
24.768	43.625
29.024	53.29167
33.276	41.625
37.524	47.625
41.769	49.29167
46.01	31.95833
50.247	43.29167
54.481	57.95833
58.712	58.29167
62.939	47.29167
67.162	61.29167
71.382	52.95833
75.599	42.95833
79.812	58.29167
84.021	78.29167
88.227	56.625
92.429	58.625
96.628	51.95833
100.823	68.95833
105.015	71.625
109.204	64.95833
113.388	71.29167
117.57	69.95833
121.748	80.625
125.922	73.29167
130.093	90.625
134.261	90.29167
138.425	94.625
142.585	130.29167
146.742	122.95833
150.896	149.95833
155.046	193.625
159.193	301.29167
163.336	511.95833
167.476	946.29167
171.613	1691.95833
175.746	2758.625
179.875	4036.95833
184.002	5183.625
188.124	5986.29167
192.244	6190.29167
196.36	6061.29167
200.472	5879.95833
204.581	5713.95833
208.687	5510.625
212.79	5414.95833
216.889	5351.95833
220.984	5307.625
225.077	5321.29167
229.165	5307.95833
233.251	5310.29167
237.333	5250.29167
241.412	5165.29167
245.487	5109.95833
249.559	5045.95833
253.628	5022.625
257.694	4953.625
261.756	4879.625
265.814	4748.625
269.87	4608.29167
273.922	4444.29167
277.97	4277.95833
282.016	4167.95833
286.058	4121.29167
290.097	4126.95833
294.132	4131.625
298.164	4111.29167
302.193	3947.29167
306.219	3678.625
310.241	3442.29167
314.26	3189.29167
318.276	2982.29167
322.288	2842.625
326.297	2726.625
330.303	2639.95833
334.305	2590.95833
338.305	2543.95833
342.301	2518.29167
346.294	2508.625
350.283	2470.625
354.269	2468.95833
358.252	2438.95833
362.232	2457.29167
366.209	2427.29167
370.182	2399.29167
374.152	2376.625
378.119	2384.95833
382.083	2373.29167
386.043	2385.29167
390	2350.29167
393.954	2366.625
397.905	2355.95833
401.852	2353.625
405.797	2351.625
409.738	2324.95833
413.676	2338.625
417.61	2325.29167
421.542	2314.29167
425.47	2269.625
429.396	2258.95833
433.318	2243.29167
437.236	2246.95833
441.152	2262.625
445.065	2226.625
448.974	2215.95833
452.88	2211.29167
456.783	2175.625
460.683	2168.625
464.58	2174.625
468.473	2178.29167
472.364	2182.29167
476.251	2185.29167
480.135	2198.29167
484.016	2214.29167
487.894	2250.29167
491.769	2230.29167
495.641	2220.95833
499.509	2230.95833
503.375	2243.29167
507.237	2246.29167
511.096	2241.95833
514.952	2298.625
518.805	2352.95833
522.655	2380.95833
526.502	2297.625
530.346	2216.29167
534.187	2237.625
538.024	2226.29167
541.859	2238.625
545.69	2254.625
549.519	2260.95833
553.344	2231.29167
557.166	2184.625
560.985	2166.625
564.802	2149.625
568.615	2113.95833
572.425	2096.625
576.232	2084.625
580.036	2080.625
583.836	2080.29167
587.634	2098.625
591.429	2093.29167
595.221	2151.95833
599.01	2156.29167
602.796	2170.625
606.578	2183.625
610.358	2199.625
614.135	2160.29167
617.909	2179.29167
621.679	2126.29167
625.447	2121.29167
629.212	2111.95833
632.973	2142.29167
636.732	2098.29167
640.488	2134.95833
644.241	2090.625
647.991	2105.625
651.737	2134.625
655.481	2130.29167
659.222	2141.95833
662.96	2146.29167
666.695	2160.625
670.427	2137.29167
674.156	2163.95833
677.882	2147.29167
681.605	2127.95833
685.325	2104.95833
689.043	2098.625
692.757	2092.625
696.468	2086.29167
700.177	2082.95833
703.882	2063.29167
707.585	2046.95833
711.284	2073.95833
714.981	2051.95833
718.675	2054.95833
722.366	2080.29167
726.054	2046.95833
729.739	2056.95833
733.421	2060.625
737.1	2063.29167
740.777	2078.625
744.45	2095.95833
748.121	2096.29167
751.789	2138.29167
755.453	2106.29167
759.115	2139.95833
762.774	2151.29167
766.431	2150.95833
770.084	2175.95833
773.734	2193.95833
777.382	2243.29167
781.027	2253.625
784.669	2246.625
788.308	2274.29167
791.944	2292.29167
795.577	2315.95833
799.208	2337.625
802.835	2345.95833
806.46	2355.29167
810.082	2360.95833
813.701	2395.29167
817.317	2427.625
820.931	2427.625
824.542	2403.29167
828.149	2350.625
831.754	2341.29167
835.357	2309.95833
838.956	2322.29167
842.553	2313.625
846.146	2302.625
849.737	2259.29167
853.326	2250.95833
856.911	2269.29167
860.493	2283.95833
864.073	2286.29167
867.65	2323.625
871.225	2368.625
874.796	2345.625
878.365	2350.625
881.931	2371.29167
885.494	2396.29167
889.054	2364.625
892.612	2368.625
896.166	2349.29167
899.719	2322.95833
903.268	2305.625
906.814	2294.95833
910.358	2278.95833
913.899	2259.29167
917.438	2292.29167
920.973	2280.95833
924.506	2316.29167
928.036	2360.29167
931.564	2386.625
935.088	2426.95833
938.61	2407.625
942.129	2436.95833
945.646	2483.29167
949.16	2536.29167
952.671	2579.625
956.179	2589.29167
959.685	2570.625
963.188	2603.625
966.688	2592.29167
970.185	2513.625
973.68	2448.95833
977.173	2405.29167
980.662	2361.95833
984.149	2357.625
987.633	2326.95833
991.114	2364.625
994.593	2418.95833
998.069	2461.95833
1001.542	2508.95833
1005.013	2497.95833
1008.481	2369.625
1011.947	2309.625
1015.409	2314.29167
1018.869	2317.625
1022.327	2315.29167
1025.782	2312.29167
1029.234	2285.29167
1032.683	2265.625
1036.13	2200.625
1039.574	2128.95833
1043.016	2068.29167
1046.455	2016.625
1049.891	2019.95833
1053.325	2029.29167
1056.756	2030.29167
1060.184	2036.29167
1063.61	2047.95833
1067.033	2064.95833
1070.454	2050.95833
1073.872	2104.625
1077.287	2085.625
1080.7	2090.625
1084.11	2087.95833
1087.517	2070.625
1090.922	2023.29167
1094.325	1999.29167
1097.724	1975.625
1101.122	1986.625
1104.516	2003.95833
1107.908	1967.95833
1111.298	2026.29167
1114.684	2034.625
1118.069	2090.95833
1121.45	2093.95833
1124.83	2076.625
1128.206	2100.95833
1131.58	2127.95833
1134.951	2148.95833
1138.32	2230.29167
1141.687	2309.95833
1145.05	2359.29167
1148.412	2379.95833
1151.77	2369.625
1155.126	2365.625
1158.48	2336.29167
1161.831	2342.95833
1165.18	2344.29167
1168.525	2399.625
1171.869	2423.625
1175.21	2445.95833
1178.548	2449.29167
1181.884	2466.95833
1185.217	2481.29167
1188.548	2539.29167
1191.877	2576.625
1195.202	2679.29167
1198.526	2724.625
1201.846	2727.625
1205.165	2747.29167
1208.48	2752.625
1211.794	2731.625
1215.104	2716.95833
1218.413	2735.29167
1221.719	2701.95833
1225.022	2674.95833
1228.323	2644.29167
1231.621	2612.29167
1234.917	2607.625
1238.21	2617.95833
1241.501	2597.95833
1244.79	2592.95833
1248.076	2572.625
1251.359	2625.95833
1254.64	2672.29167
1257.919	2705.625
1261.195	2718.625
1264.468	2759.625
1267.74	2802.95833
1271.008	2808.625
1274.275	2827.625
1277.538	2806.29167
1280.8	2785.625
1284.059	2772.95833
1287.315	2828.29167
1290.569	2831.625
1293.821	2830.625
1297.07	2873.95833
1300.317	2879.95833
1303.562	2862.95833
1306.803	2843.95833
1310.043	2841.29167
1313.28	2826.95833
1316.515	2832.625
1319.747	2801.95833
1322.977	2802.625
1326.204	2774.625
1329.429	2735.625
1332.652	2730.625
1335.872	2727.625
1339.09	2657.95833
1342.306	2671.95833
1345.519	2641.625
1348.729	2642.29167
1351.938	2665.29167
1355.144	2628.95833
1358.347	2568.625
1361.548	2557.29167
1364.747	2550.29167
1367.944	2517.29167
1371.138	2533.95833
1374.329	2525.625
1377.518	2538.625
1380.705	2530.95833
1383.89	2537.95833
1387.072	2444.29167
1390.252	2361.29167
1393.429	2287.29167
1396.605	2217.29167
1399.777	2145.625
1402.948	2120.625
1406.116	2101.625
1409.282	2092.625
1412.445	2085.95833
1415.606	2106.625
1418.765	2126.29167
1421.921	2162.95833
1425.075	2208.95833
1428.227	2284.29167
1431.376	2375.625
1434.524	2466.29167
1437.668	2561.95833
1440.811	2592.625
1443.951	2602.625
1447.089	2627.95833
1450.224	2621.625
1453.357	2593.95833
1456.488	2572.29167
1459.617	2554.625
1462.743	2511.29167
1465.867	2420.625
1468.989	2406.95833
1472.108	2385.29167
1475.225	2319.95833
1478.34	2326.95833
1481.453	2301.625
1484.563	2298.29167
1487.671	2345.29167
1490.776	2383.95833
1493.88	2407.625
1496.981	2434.95833
1500.08	2465.95833
1503.176	2468.625
1506.271	2536.95833
1509.363	2558.625
1512.452	2588.29167
1515.54	2605.95833
1518.625	2634.95833
1521.708	2703.625
1524.789	2782.625
1527.867	2882.29167
1530.944	3044.95833
1534.018	3144.95833
1537.089	3238.29167
1540.159	3264.95833
1543.226	3237.29167
1546.291	3154.95833
1549.354	3072.625
1552.415	3008.29167
1555.473	2921.29167
1558.529	2902.625
1561.583	2875.95833
1564.634	2864.625
1567.684	2920.95833
1570.731	2918.29167
1573.776	2977.95833
1576.819	3011.95833
1579.859	3072.625
1582.898	3128.29167
1585.934	3157.625
1588.968	3156.29167
1591.999	3150.29167
1595.029	3156.95833
1598.056	3163.95833
1601.081	3196.95833
1604.104	3165.95833
1607.125	3136.625
1610.144	3125.29167
1613.16	3039.29167
1616.174	2990.625
1619.186	2960.625
1622.196	2853.29167
1625.203	2798.29167
1628.209	2754.625
1631.212	2763.29167
1634.213	2762.29167
1637.212	2790.625
1640.209	2783.625
1643.203	2737.625
1646.196	2677.29167
1649.186	2529.29167
1652.174	2429.95833
1655.16	2359.95833
1658.144	2293.625
1661.125	2155.625
1664.105	2041.29167
1667.082	1928.625
1670.057	1825.625
1673.03	1729.625
1676.001	1590.625
1678.97	1515.95833
1681.937	1422.95833
1684.901	1340.29167
1687.863	1301.625
1690.824	1239.625
1693.782	1212.29167
1696.738	1170.29167
1699.692	1136.29167
1702.643	1102.95833
1705.593	1097.95833
1708.54	1088.625
1711.486	1089.625
1714.429	1062.625
1717.37	1052.625
1720.309	1012.95833
1723.246	1041.29167
1726.181	1020.625
1729.113	1005.95833
1732.044	983.625
1734.972	989.625
1737.899	993.95833
1740.823	988.95833
1743.745	997.95833
1746.665	959.95833
1749.583	930.29167
1752.499	931.625
1755.413	928.625
1758.325	898.29167
1761.235	882.29167
1764.142	887.95833
1767.048	870.625
1769.951	864.625
1772.852	864.95833
1775.752	869.29167
1778.649	865.625
1781.544	872.29167
1784.437	834.29167
1787.328	858.625
1790.217	838.29167
1793.104	806.95833
1795.989	817.625
1798.872	816.95833
1801.753	832.29167
1804.631	815.95833
1807.508	821.29167
1810.383	824.625
1813.255	809.95833
1816.126	806.29167
1818.994	810.29167
1821.861	819.29167
1824.725	807.95833
1827.587	804.95833
1830.448	800.29167
1833.306	774.95833
1836.162	778.29167
1839.017	777.95833
1841.869	777.95833
1844.719	776.95833
1847.567	760.29167
1850.414	760.625
1853.258	753.29167
1856.1	772.95833
1858.94	773.625
1861.778	756.29167
1864.614	748.29167
1867.448	752.625
1870.28	733.29167
1873.111	771.29167
1875.939	758.95833
1878.765	769.625
1881.589	751.625
1884.411	739.29167
1887.231	750.625
1890.049	745.95833
1892.865	749.95833
1895.68	728.625
1898.492	738.95833
1901.302	734.29167
1904.11	729.625
1906.916	718.625
1909.721	714.95833
1912.523	728.625
1915.323	708.625
1918.122	714.95833
1920.918	710.625
1923.712	716.625
1926.505	704.625
1929.295	698.95833
1932.084	718.29167
1934.87	706.625
1937.655	695.625
1940.438	694.29167
1943.218	696.29167
1945.997	700.95833
1948.774	716.95833
1951.549	708.29167
1954.322	695.625
1957.093	690.95833
1959.862	693.625
1962.629	687.625
1965.394	672.95833
1968.157	677.625
1970.918	671.95833
1973.678	670.29167
1976.435	689.625
1979.19	672.95833
1981.944	660.625
1984.696	660.95833
1987.445	648.625
1990.193	666.29167
1992.939	669.29167
1995.683	659.95833
1998.425	647.29167
2001.165	679.95833
2003.903	649.29167
2006.639	663.29167
2009.374	656.625
2012.106	646.29167
2014.837	636.625
2017.566	654.95833
2020.292	663.625
2023.017	651.625
2025.74	646.625
2028.461	636.95833
2031.18	633.625
2033.898	645.95833
2036.613	639.95833
2039.327	643.29167
2042.038	622.95833
2044.748	623.95833
2047.456	635.625
2050.162	619.95833
2052.866	630.625
2055.568	638.625
2058.268	619.95833
2060.967	626.95833
2063.663	617.625
2066.358	619.95833
2069.051	610.625
2071.742	624.625
2074.431	624.29167
2077.118	605.625
2079.804	612.95833
2082.487	621.29167
2085.169	621.29167
2087.849	643.625
2090.527	617.95833
2093.203	616.95833
2095.877	626.625
2098.55	634.95833
2101.22	630.625
2103.889	636.95833
2106.556	625.29167
2109.221	643.625
2111.884	648.29167
2114.546	672.29167
2117.205	700.29167
2119.863	727.29167
2122.519	758.29167
2125.173	795.29167
2127.825	843.625
2130.475	854.29167
2133.124	829.29167
2135.771	816.95833
2138.416	796.625
2141.059	755.29167
2143.7	734.625
2146.339	705.29167
2148.977	661.29167
2151.613	671.625
2154.247	651.625
2156.879	635.29167
2159.51	627.625
2162.138	622.29167
2164.765	612.29167
2167.39	608.625
2170.013	610.625
2172.634	609.29167
2175.254	598.95833
2177.872	624.95833
2180.488	587.29167
2183.102	596.95833
2185.714	584.29167
2188.325	564.95833
2190.934	573.29167
2193.541	583.625
2196.146	562.625
2198.75	557.625
2201.351	560.625
2203.951	543.625
2206.549	563.95833
2209.146	551.29167
2211.74	548.29167
2214.333	562.29167
2216.924	541.625
2219.514	553.29167
2222.101	553.29167
2224.687	560.625
2227.271	546.29167
2229.853	530.95833
2232.433	531.29167
2235.012	548.95833
2237.589	554.95833
2240.164	568.625
2242.738	537.625
2245.309	533.95833
2247.879	542.95833
2250.448	547.625
2253.014	516.29167
2255.579	516.29167
2258.142	525.95833
2260.703	507.29167
2263.262	518.95833
2265.82	514.625
2268.376	509.625
2270.93	506.625
2273.483	509.29167
2276.033	508.29167
2278.583	509.95833
2281.13	499.29167
2283.675	494.95833
2286.219	509.625
2288.761	502.625
2291.302	498.95833
2293.841	508.625
2296.377	492.625
2298.913	493.29167
2301.446	509.95833
2303.978	502.29167
2306.508	487.625
2309.037	500.625
2311.563	498.29167
2314.088	497.95833
2316.612	477.29167
2319.133	490.29167
2321.653	490.95833
2324.171	482.95833
2326.688	501.95833
2329.202	484.95833
2331.715	488.29167
2334.227	488.625
2336.736	487.95833
2339.244	478.625
2341.751	485.625
2344.255	490.95833
2346.758	488.29167
2349.259	470.29167
2351.759	478.29167
2354.257	468.95833
2356.753	469.625
2359.247	477.29167
2361.74	479.95833
2364.231	490.29167
2366.721	488.625
2369.209	466.29167
2371.695	488.625
2374.179	465.625
2376.662	462.95833
2379.143	482.29167
2381.622	479.625
2384.1	477.29167
2386.576	480.29167
2389.051	486.95833
2391.524	494.95833
2393.995	495.625
2396.464	474.95833
2398.932	469.95833
2401.398	470.95833
2403.863	472.95833
2406.325	472.625
2408.787	474.625
2411.246	477.29167
2413.704	461.625
2416.16	464.95833
2418.615	477.29167
2421.068	484.95833
2423.519	483.95833
2425.969	468.29167
2428.417	472.95833
2430.863	502.95833
2433.308	486.29167
2435.751	477.625
2438.193	476.625
2440.633	483.625
2443.071	482.625
2445.508	471.29167
2447.943	468.625
2450.376	463.95833
2452.808	481.625
2455.238	467.95833
2457.667	510.95833
2460.093	465.625
2462.519	467.625
2464.942	480.95833
2467.365	472.29167
2469.785	486.29167
2472.204	468.29167
2474.621	469.625
2477.037	489.625
2479.451	464.625
2481.863	466.29167
2484.274	466.29167
2486.683	475.625
2489.091	472.625
2491.497	468.95833
2493.901	467.29167
2496.304	475.95833
2498.705	483.95833
2501.105	466.29167
2503.503	502.625
2505.899	459.29167
2508.294	485.29167
2510.687	480.95833
2513.079	475.625
2515.469	461.29167
2517.858	480.625
2520.245	487.29167
2522.63	468.29167
2525.014	472.29167
2527.396	460.29167
2529.776	466.95833
2532.156	477.95833
2534.533	470.95833
2536.909	468.29167
2539.283	456.29167
2541.656	466.625
2544.027	490.95833
2546.397	462.95833
2548.765	467.625
2551.131	463.625
2553.496	475.95833
2555.86	484.29167
2558.221	477.625
2560.582	466.29167
2562.94	464.29167
2565.298	484.625
2567.653	488.95833
2570.007	470.625
2572.36	487.625
2574.711	464.625
2577.06	492.625
2579.408	491.29167
2581.754	483.625
2584.099	483.29167
2586.442	479.95833
2588.784	491.625
2591.124	484.625
2593.463	481.29167
2595.8	477.29167
2598.135	471.625
2600.469	480.29167
2602.802	484.625
2605.133	498.29167
2607.462	472.95833
2609.79	474.95833
2612.116	501.29167
2614.441	489.29167
2616.764	488.95833
2619.086	479.95833
2621.406	470.29167
2623.725	495.95833
2626.042	503.29167
2628.358	481.625
2630.672	488.95833
2632.985	509.625
2635.296	497.625
2637.606	494.29167
2639.914	489.29167
2642.22	486.625
2644.525	503.95833
2646.829	500.95833
2649.131	511.29167
2651.432	519.95833
2653.731	505.29167
2656.028	513.29167
2658.324	513.95833
2660.619	499.95833
2662.912	514.95833
2665.204	501.29167
2667.494	515.95833
2669.782	503.29167
2672.07	512.95833
2674.355	521.625
2676.639	514.95833
2678.922	503.29167
2681.203	506.625
2683.483	496.625
2685.761	494.625
2688.038	515.95833
2690.313	534.29167
2692.587	525.95833
2694.859	520.95833
2697.13	523.625
2699.399	531.29167
2701.667	540.625
2703.933	541.95833
2706.198	534.29167
2708.461	552.625
2710.723	544.625
2712.984	546.625
2715.243	551.95833
2717.5	536.625
2719.757	553.95833
2722.011	545.29167
2724.264	558.625
2726.516	566.29167
2728.766	556.95833
2731.015	555.625
2733.262	564.29167
2735.508	568.29167
2737.753	561.625
2739.996	555.625
2742.237	555.95833
2744.477	553.625
2746.716	569.95833
2748.953	559.29167
2751.189	558.95833
2753.423	560.625
2755.656	543.95833
2757.887	546.95833
2760.117	546.29167
2762.346	530.625
2764.573	530.29167
2766.798	547.625
2769.022	536.95833
2771.245	555.625
2773.467	546.625
2775.686	554.29167
2777.905	559.625
2780.122	568.625
2782.337	569.29167
2784.552	558.625
2786.764	557.95833
2788.976	566.95833
2791.186	568.29167
2793.394	579.625
2795.601	578.95833
2797.807	596.625
2800.011	594.95833
2802.214	602.625
2804.415	590.625
2806.615	592.29167
2808.814	601.625
2811.011	611.625
2813.206	596.29167
2815.401	608.29167
2817.594	617.29167
2819.785	629.29167
2821.975	626.29167
2824.164	628.29167
2826.351	632.29167
2828.537	656.625
2830.722	655.95833
2832.905	665.625
2835.086	693.29167
2837.267	706.95833
2839.445	721.95833
2841.623	746.625
2843.799	752.29167
2845.974	782.625
2848.147	820.29167
2850.319	831.29167
2852.489	877.95833
2854.659	871.625
2856.826	882.625
2858.993	907.29167
2861.158	893.625
2863.321	885.29167
2865.483	920.29167
2867.644	904.29167
2869.804	900.29167
2871.962	916.95833
2874.118	904.95833
2876.274	909.625
2878.428	916.625
2880.58	911.95833
2882.731	896.29167
2884.881	901.95833
2887.03	896.625
2889.177	905.95833
2891.322	912.95833
2893.467	912.625
2895.61	904.95833
2897.751	931.95833
2899.892	921.625
2902.03	937.95833
2904.168	931.625
2906.304	938.625
2908.439	954.29167
2910.572	948.95833
2912.704	962.625
2914.835	962.625
2916.965	967.29167
2919.093	980.625
2921.219	959.625
2923.345	981.29167
2925.469	952.625
2927.591	956.625
2929.712	922.95833
2931.832	927.625
2933.951	911.625
2936.068	908.95833
2938.184	889.625
2940.299	865.95833
2942.412	848.625
2944.524	824.95833
2946.634	820.625
2948.744	776.625
2950.851	819.29167
2952.958	778.29167
2955.063	776.29167
2957.167	767.95833
2959.269	740.95833
2961.371	763.625
2963.471	724.95833
2965.569	735.29167
2967.666	716.29167
2969.762	705.29167
2971.857	690.95833
2973.95	675.95833
2976.042	674.29167
2978.133	651.625
2980.222	656.29167
2982.31	629.29167
2984.396	624.95833
2986.482	614.29167
2988.566	620.95833
2990.648	616.625
2992.73	615.95833
2994.81	600.95833
2996.889	611.29167
2998.966	610.95833
3001.042	611.625
3003.117	611.625
3005.191	600.29167
3007.263	599.29167
3009.334	594.29167
3011.403	603.625
3013.472	587.95833
3015.539	591.29167
3017.604	590.625
3019.669	547.95833
3021.732	560.29167
3023.794	569.95833
3025.854	554.95833
3027.914	556.29167
3029.971	566.625
3032.028	551.95833
3034.083	558.625
3036.137	543.625
3038.19	529.95833
3040.242	514.95833
3042.292	511.625
3044.341	507.95833
3046.388	515.29167
3048.435	496.29167
3050.48	516.29167
3052.524	508.29167
3054.566	480.29167
3056.607	497.625
3058.647	481.29167
3060.686	474.625
3062.723	460.95833
3064.759	439.29167
3066.794	0.95833
3068.828	3.625
3070.86	1.625
