-0.839	451.70833
3.438	531.70833
7.711	159.04167
11.981	56.04167
16.247	44.70833
20.509	47.375
24.768	43.375
29.024	51.70833
33.276	44.04167
37.524	51.70833
41.769	45.04167
46.01	33.375
50.247	44.04167
54.481	63.04167
58.712	59.04167
62.939	46.70833
67.162	60.70833
71.382	59.375
75.599	45.70833
79.812	60.375
84.021	85.04167
88.227	56.04167
92.429	60.04167
96.628	52.04167
100.823	71.04167
105.015	72.70833
109.204	63.375
113.388	74.04167
117.57	74.04167
121.748	88.70833
125.922	74.04167
130.093	99.375
134.261	100.04167
138.425	97.70833
142.585	137.375
146.742	128.04167
150.896	156.70833
155.046	195.375
159.193	298.375
163.336	500.375
167.476	912.70833
171.613	1664.70833
175.746	2769.04167
179.875	4095.70833
184.002	5337.375
188.124	6250.04167
192.244	6626.70833
196.36	6615.04167
200.472	6541.375
204.581	6434.70833
208.687	6350.04167
212.79	6314.04167
216.889	6339.375
220.984	6430.04167
225.077	6481.70833
229.165	6551.375
233.251	6590.70833
237.333	6585.70833
241.412	6550.375
245.487	6551.375
249.559	6490.375
253.628	6427.70833
257.694	6354.70833
261.756	6300.04167
265.814	6167.04167
269.87	5992.04167
273.922	5751.375
277.97	5589.375
282.016	5419.375
286.058	5327.70833
290.097	5335.375
294.132	5377.04167
298.164	5321.70833
302.193	5140.70833
306.219	4812.04167
310.241	4421.70833
314.26	4047.70833
318.276	3786.375
322.288	3585.70833
326.297	3455.04167
330.303	3307.375
334.305	3265.375
338.305	3187.04167
342.301	3135.04167
346.294	3093.375
350.283	3097.70833
354.269	3064.04167
358.252	3051.375
362.232	3040.70833
366.209	3014.375
370.182	2985.375
374.152	2972.375
378.119	2960.375
382.083	2960.70833
386.043	2975.70833
390	2957.04167
393.954	2971.70833
397.905	2954.70833
401.852	2952.70833
405.797	2928.375
409.738	2927.375
413.676	2923.04167
417.61	2924.375
421.542	2889.04167
425.47	2861.375
429.396	2822.375
433.318	2814.70833
437.236	2803.375
441.152	2830.70833
445.065	2775.04167
448.974	2763.70833
452.88	2723.04167
456.783	2724.04167
460.683	2702.70833
464.58	2699.375
468.473	2723.04167
472.364	2731.70833
476.251	2714.70833
480.135	2724.70833
484.016	2765.70833
487.894	2778.70833
491.769	2784.04167
495.641	2794.375
499.509	2796.375
503.375	2820.04167
507.237	2794.70833
511.096	2802.375
514.952	2862.70833
518.805	2942.375
522.655	2952.70833
526.502	2859.375
530.346	2814.70833
534.187	2822.04167
538.024	2804.04167
541.859	2826.375
545.69	2828.375
549.519	2826.04167
553.344	2832.04167
557.166	2754.04167
560.985	2703.375
564.802	2680.70833
568.615	2627.375
572.425	2584.70833
576.232	2572.04167
580.036	2568.375
583.836	2578.04167
587.634	2599.375
591.429	2585.375
595.221	2671.70833
599.01	2686.70833
602.796	2713.70833
606.578	2721.70833
610.358	2738.375
614.135	2706.04167
617.909	2681.375
621.679	2655.04167
625.447	2642.70833
629.212	2644.70833
632.973	2648.70833
636.732	2658.04167
640.488	2645.375
644.241	2630.375
647.991	2618.375
651.737	2651.70833
655.481	2618.375
659.222	2628.04167
662.96	2631.04167
666.695	2635.70833
670.427	2633.70833
674.156	2638.375
677.882	2647.375
681.605	2630.375
685.325	2579.375
689.043	2593.375
692.757	2567.04167
696.468	2591.04167
700.177	2584.70833
703.882	2570.70833
707.585	2545.70833
711.284	2553.375
714.981	2548.375
718.675	2540.375
722.366	2544.375
726.054	2522.70833
729.739	2529.375
733.421	2559.375
737.1	2531.70833
740.777	2552.375
744.45	2574.70833
748.121	2564.70833
751.789	2618.04167
755.453	2601.375
759.115	2629.04167
762.774	2659.04167
766.431	2673.70833
770.084	2704.04167
773.734	2743.70833
777.382	2774.375
781.027	2815.70833
784.669	2833.04167
788.308	2845.04167
791.944	2844.375
795.577	2847.04167
799.208	2864.04167
802.835	2849.70833
806.46	2882.70833
810.082	2923.375
813.701	2943.375
817.317	2940.375
820.931	2961.04167
824.542	2930.70833
828.149	2918.375
831.754	2883.70833
835.357	2865.70833
838.956	2870.04167
842.553	2865.04167
846.146	2865.70833
849.737	2835.04167
853.326	2831.375
856.911	2824.04167
860.493	2877.04167
864.073	2887.04167
867.65	2952.375
871.225	2960.04167
874.796	2941.375
878.365	2946.375
881.931	2967.04167
885.494	2992.04167
889.054	3006.70833
892.612	3000.375
896.166	2971.375
899.719	2946.04167
903.268	2912.04167
906.814	2888.375
910.358	2872.375
913.899	2886.375
917.438	2881.375
920.973	2846.04167
924.506	2905.375
928.036	2944.70833
931.564	2976.375
935.088	3012.04167
938.61	3038.70833
942.129	3071.375
945.646	3124.375
949.16	3192.375
952.671	3238.375
956.179	3256.70833
959.685	3222.70833
963.188	3243.70833
966.688	3185.04167
970.185	3095.04167
973.68	3012.04167
977.173	2955.70833
980.662	2912.70833
984.149	2893.70833
987.633	2877.70833
991.114	2942.70833
994.593	2963.70833
998.069	3056.04167
1001.542	3174.04167
1005.013	3116.70833
1008.481	2963.70833
1011.947	2915.70833
1015.409	2877.375
1018.869	2879.70833
1022.327	2867.70833
1025.782	2847.04167
1029.234	2850.04167
1032.683	2812.04167
1036.13	2705.375
1039.574	2624.375
1043.016	2526.70833
1046.455	2506.70833
1049.891	2460.375
1053.325	2487.04167
1056.756	2477.70833
1060.184	2496.70833
1063.61	2513.375
1067.033	2516.375
1070.454	2522.375
1073.872	2562.70833
1077.287	2541.70833
1080.7	2546.04167
1084.11	2540.04167
1087.517	2493.70833
1090.922	2476.375
1094.325	2439.375
1097.724	2406.70833
1101.122	2424.375
1104.516	2421.04167
1107.908	2443.375
1111.298	2462.04167
1114.684	2490.375
1118.069	2519.375
1121.45	2594.70833
1124.83	2569.04167
1128.206	2581.70833
1131.58	2610.70833
1134.951	2673.04167
1138.32	2772.375
1141.687	2877.04167
1145.05	2959.04167
1148.412	2978.375
1151.77	2998.70833
1155.126	2997.70833
1158.48	2963.70833
1161.831	2979.04167
1165.18	3000.70833
1168.525	3057.04167
1171.869	3106.70833
1175.21	3102.04167
1178.548	3121.04167
1181.884	3167.375
1185.217	3175.375
1188.548	3258.375
1191.877	3276.375
1195.202	3411.04167
1198.526	3460.375
1201.846	3470.70833
1205.165	3448.375
1208.48	3408.70833
1211.794	3376.04167
1215.104	3389.375
1218.413	3350.70833
1221.719	3308.70833
1225.022	3291.375
1228.323	3252.04167
1231.621	3209.375
1234.917	3194.375
1238.21	3217.70833
1241.501	3190.04167
1244.79	3182.70833
1248.076	3172.70833
1251.359	3204.04167
1254.64	3277.375
1257.919	3306.70833
1261.195	3335.04167
1264.468	3424.70833
1267.74	3451.375
1271.008	3492.375
1274.275	3478.04167
1277.538	3457.04167
1280.8	3445.375
1284.059	3434.04167
1287.315	3469.04167
1290.569	3466.375
1293.821	3488.70833
1297.07	3508.04167
1300.317	3526.04167
1303.562	3500.70833
1306.803	3505.70833
1310.043	3494.70833
1313.28	3433.375
1316.515	3440.70833
1319.747	3407.04167
1322.977	3398.375
1326.204	3329.70833
1329.429	3294.70833
1332.652	3271.04167
1335.872	3263.70833
1339.09	3217.70833
1342.306	3189.70833
1345.519	3141.70833
1348.729	3107.375
1351.938	3110.04167
1355.144	3057.04167
1358.347	3011.70833
1361.548	3024.375
1364.747	2967.70833
1367.944	2958.04167
1371.138	2966.70833
1374.329	2960.04167
1377.518	2991.04167
1380.705	2976.70833
1383.89	2986.04167
1387.072	2905.04167
1390.252	2788.375
1393.429	2706.04167
1396.605	2614.375
1399.777	2546.70833
1402.948	2493.375
1406.116	2485.04167
1409.282	2488.375
1412.445	2457.70833
1415.606	2504.04167
1418.765	2515.375
1421.921	2560.70833
1425.075	2610.04167
1428.227	2701.70833
1431.376	2807.04167
1434.524	2927.04167
1437.668	3004.375
1440.811	3058.70833
1443.951	3100.375
1447.089	3096.04167
1450.224	3089.375
1453.357	3086.70833
1456.488	3076.70833
1459.617	3007.04167
1462.743	2976.70833
1465.867	2899.04167
1468.989	2873.04167
1472.108	2856.04167
1475.225	2803.04167
1478.34	2790.375
1481.453	2788.04167
1484.563	2775.375
1487.671	2832.375
1490.776	2872.375
1493.88	2928.375
1496.981	2965.70833
1500.08	3012.04167
1503.176	3054.04167
1506.271	3098.70833
1509.363	3142.70833
1512.452	3173.375
1515.54	3217.375
1518.625	3224.70833
1521.708	3338.04167
1524.789	3402.70833
1527.867	3546.375
1530.944	3744.375
1534.018	3868.04167
1537.089	3998.375
1540.159	4027.04167
1543.226	3982.375
1546.291	3931.375
1549.354	3835.375
1552.415	3764.04167
1555.473	3667.70833
1558.529	3637.04167
1561.583	3592.375
1564.634	3560.04167
1567.684	3576.70833
1570.731	3598.70833
1573.776	3660.70833
1576.819	3720.04167
1579.859	3777.70833
1582.898	3803.375
1585.934	3878.04167
1588.968	3884.70833
1591.999	3856.375
1595.029	3862.04167
1598.056	3884.375
1601.081	3891.375
1604.104	3858.04167
1607.125	3820.375
1610.144	3724.70833
1613.16	3689.375
1616.174	3597.70833
1619.186	3510.375
1622.196	3408.375
1625.203	3336.70833
1628.209	3278.375
1631.212	3226.375
1634.213	3234.375
1637.212	3229.375
1640.209	3188.70833
1643.203	3102.70833
1646.196	2967.375
1649.186	2833.70833
1652.174	2713.375
1655.16	2614.04167
1658.144	2529.70833
1661.125	2384.375
1664.105	2283.70833
1667.082	2169.04167
1670.057	2055.04167
1673.03	1923.375
1676.001	1825.375
1678.97	1716.04167
1681.937	1607.375
1684.901	1513.70833
1687.863	1480.70833
1690.824	1404.04167
1693.782	1394.04167
1696.738	1312.70833
1699.692	1282.04167
1702.643	1261.04167
1705.593	1243.70833
1708.54	1223.375
1711.486	1230.04167
1714.429	1194.70833
1717.37	1182.375
1720.309	1163.70833
1723.246	1173.04167
1726.181	1135.70833
1729.113	1141.70833
1732.044	1121.04167
1734.972	1123.70833
1737.899	1124.375
1740.823	1116.04167
1743.745	1099.375
1746.665	1071.375
1749.583	1039.70833
1752.499	1032.04167
1755.413	1030.375
1758.325	1003.04167
1761.235	982.70833
1764.142	974.70833
1767.048	950.70833
1769.951	960.04167
1772.852	967.04167
1775.752	959.70833
1778.649	975.70833
1781.544	950.04167
1784.437	927.04167
1787.328	943.375
1790.217	918.375
1793.104	904.70833
1795.989	909.70833
1798.872	893.70833
1801.753	910.70833
1804.631	905.04167
1807.508	905.375
1810.383	897.04167
1813.255	887.70833
1816.126	882.375
1818.994	887.375
1821.861	876.70833
1824.725	874.375
1827.587	870.70833
1830.448	866.70833
1833.306	846.375
1836.162	857.70833
1839.017	849.70833
1841.869	842.70833
1844.719	851.04167
1847.567	825.375
1850.414	816.04167
1853.258	822.70833
1856.1	836.375
1858.94	840.375
1861.778	827.375
1864.614	820.70833
1867.448	826.70833
1870.28	813.375
1873.111	842.70833
1875.939	822.04167
1878.765	840.375
1881.589	811.375
1884.411	816.375
1887.231	818.375
1890.049	807.04167
1892.865	809.375
1895.68	797.70833
1898.492	801.04167
1901.302	796.70833
1904.11	797.70833
1906.916	792.04167
1909.721	789.375
1912.523	780.375
1915.323	756.375
1918.122	772.375
1920.918	774.375
1923.712	752.70833
1926.505	745.04167
1929.295	756.375
1932.084	769.04167
1934.87	765.04167
1937.655	760.70833
1940.438	754.375
1943.218	760.70833
1945.997	754.04167
1948.774	766.70833
1951.549	759.70833
1954.322	737.70833
1957.093	760.70833
1959.862	744.04167
1962.629	749.375
1965.394	746.70833
1968.157	735.70833
1970.918	740.70833
1973.678	721.04167
1976.435	742.375
1979.19	721.70833
1981.944	722.70833
1984.696	728.04167
1987.445	703.375
1990.193	692.375
1992.939	729.70833
1995.683	717.375
1998.425	693.70833
2001.165	738.70833
2003.903	706.375
2006.639	712.70833
2009.374	714.70833
2012.106	710.375
2014.837	683.375
2017.566	711.70833
2020.292	706.04167
2023.017	712.70833
2025.74	692.70833
2028.461	691.375
2031.18	685.70833
2033.898	693.04167
2036.613	698.04167
2039.327	692.375
2042.038	687.375
2044.748	683.375
2047.456	697.375
2050.162	674.04167
2052.866	673.375
2055.568	685.70833
2058.268	676.04167
2060.967	676.70833
2063.663	663.70833
2066.358	662.70833
2069.051	662.375
2071.742	665.70833
2074.431	665.70833
2077.118	661.375
2079.804	667.04167
2082.487	668.04167
2085.169	681.04167
2087.849	687.70833
2090.527	663.375
2093.203	663.04167
2095.877	686.04167
2098.55	670.70833
2101.22	686.70833
2103.889	681.70833
2106.556	681.04167
2109.221	701.375
2111.884	686.375
2114.546	723.70833
2117.205	745.375
2119.863	790.375
2122.519	819.70833
2125.173	868.375
2127.825	913.375
2130.475	941.04167
2133.124	919.375
2135.771	897.04167
2138.416	880.70833
2141.059	823.04167
2143.7	802.70833
2146.339	755.375
2148.977	718.375
2151.613	715.375
2154.247	697.04167
2156.879	683.375
2159.51	666.04167
2162.138	664.04167
2164.765	671.04167
2167.39	656.375
2170.013	668.70833
2172.634	661.70833
2175.254	642.04167
2177.872	681.04167
2180.488	635.04167
2183.102	650.375
2185.714	637.375
2188.325	614.375
2190.934	619.70833
2193.541	631.375
2196.146	622.70833
2198.75	604.375
2201.351	605.375
2203.951	595.375
2206.549	618.70833
2209.146	603.375
2211.74	600.375
2214.333	602.70833
2216.924	579.375
2219.514	588.70833
2222.101	581.04167
2224.687	591.375
2227.271	595.375
2229.853	569.375
2232.433	575.04167
2235.012	602.04167
2237.589	584.70833
2240.164	600.70833
2242.738	580.375
2245.309	565.04167
2247.879	575.70833
2250.448	572.70833
2253.014	554.04167
2255.579	541.04167
2258.142	557.04167
2260.703	546.04167
2263.262	555.04167
2265.82	534.70833
2268.376	541.375
2270.93	531.04167
2273.483	523.04167
2276.033	543.375
2278.583	538.04167
2281.13	537.70833
2283.675	521.375
2286.219	523.70833
2288.761	531.375
2291.302	533.375
2293.841	539.375
2296.377	513.04167
2298.913	520.04167
2301.446	541.70833
2303.978	515.375
2306.508	521.70833
2309.037	514.70833
2311.563	526.04167
2314.088	526.04167
2316.612	506.375
2319.133	514.375
2321.653	513.375
2324.171	508.375
2326.688	522.375
2329.202	503.04167
2331.715	511.70833
2334.227	508.70833
2336.736	512.375
2339.244	509.70833
2341.751	492.04167
2344.255	514.70833
2346.758	511.04167
2349.259	492.70833
2351.759	495.70833
2354.257	496.04167
2356.753	490.375
2359.247	503.04167
2361.74	507.04167
2364.231	503.375
2366.721	500.04167
2369.209	495.70833
2371.695	504.70833
2374.179	485.375
2376.662	488.04167
2379.143	508.04167
2381.622	499.04167
2384.1	502.70833
2386.576	497.375
2389.051	511.70833
2391.524	509.70833
2393.995	507.375
2396.464	493.04167
2398.932	492.375
2401.398	495.04167
2403.863	487.375
2406.325	487.375
2408.787	494.04167
2411.246	481.04167
2413.704	487.375
2416.16	490.375
2418.615	487.375
2421.068	497.375
2423.519	497.375
2425.969	487.04167
2428.417	492.375
2430.863	508.70833
2433.308	491.04167
2435.751	492.04167
2438.193	493.375
2440.633	493.04167
2443.071	492.375
2445.508	477.04167
2447.943	484.375
2450.376	479.375
2452.808	492.375
2455.238	482.70833
2457.667	523.04167
2460.093	487.375
2462.519	483.04167
2464.942	483.375
2467.365	488.375
2469.785	498.70833
2472.204	493.04167
2474.621	477.04167
2477.037	498.04167
2479.451	472.375
2481.863	476.04167
2484.274	483.375
2486.683	494.375
2489.091	504.04167
2491.497	476.04167
2493.901	484.70833
2496.304	477.70833
2498.705	493.375
2501.105	478.375
2503.503	509.04167
2505.899	467.375
2508.294	500.70833
2510.687	492.04167
2513.079	494.70833
2515.469	482.375
2517.858	478.04167
2520.245	490.70833
2522.63	480.375
2525.014	475.70833
2527.396	474.70833
2529.776	473.04167
2532.156	494.04167
2534.533	470.70833
2536.909	479.70833
2539.283	470.70833
2541.656	476.375
2544.027	504.04167
2546.397	487.70833
2548.765	476.70833
2551.131	480.70833
2553.496	474.375
2555.86	483.70833
2558.221	484.375
2560.582	483.04167
2562.94	470.375
2565.298	481.375
2567.653	501.70833
2570.007	471.375
2572.36	494.04167
2574.711	475.04167
2577.06	497.04167
2579.408	487.70833
2581.754	493.375
2584.099	491.70833
2586.442	488.375
2588.784	498.70833
2591.124	497.375
2593.463	493.70833
2595.8	502.375
2598.135	474.04167
2600.469	490.04167
2602.802	496.70833
2605.133	499.04167
2607.462	491.04167
2609.79	477.70833
2612.116	491.04167
2614.441	496.70833
2616.764	492.04167
2619.086	491.70833
2621.406	475.375
2623.725	510.04167
2626.042	501.04167
2628.358	478.70833
2630.672	503.04167
2632.985	508.375
2635.296	494.70833
2637.606	498.375
2639.914	489.04167
2642.22	498.375
2644.525	493.375
2646.829	512.70833
2649.131	506.375
2651.432	502.04167
2653.731	514.375
2656.028	518.70833
2658.324	516.04167
2660.619	507.375
2662.912	516.375
2665.204	505.70833
2667.494	516.04167
2669.782	516.04167
2672.07	527.70833
2674.355	518.70833
2676.639	513.70833
2678.922	506.375
2681.203	519.04167
2683.483	509.70833
2685.761	507.375
2688.038	527.04167
2690.313	530.04167
2692.587	516.70833
2694.859	517.70833
2697.13	528.04167
2699.399	521.04167
2701.667	537.70833
2703.933	532.375
2706.198	526.04167
2708.461	540.70833
2710.723	550.04167
2712.984	546.70833
2715.243	543.70833
2717.5	539.04167
2719.757	555.70833
2722.011	542.04167
2724.264	554.70833
2726.516	575.375
2728.766	558.04167
2731.015	555.375
2733.262	563.70833
2735.508	565.04167
2737.753	563.04167
2739.996	556.70833
2742.237	547.04167
2744.477	556.70833
2746.716	563.375
2748.953	553.04167
2751.189	548.04167
2753.423	546.04167
2755.656	544.375
2757.887	534.70833
2760.117	543.375
2762.346	534.375
2764.573	536.375
2766.798	545.375
2769.022	533.375
2771.245	555.375
2773.467	538.375
2775.686	556.04167
2777.905	557.375
2780.122	566.375
2782.337	565.04167
2784.552	559.375
2786.764	558.04167
2788.976	560.04167
2791.186	565.375
2793.394	568.375
2795.601	576.375
2797.807	591.70833
2800.011	581.70833
2802.214	586.375
2804.415	599.375
2806.615	587.70833
2808.814	585.375
2811.011	605.70833
2813.206	591.375
2815.401	607.04167
2817.594	611.375
2819.785	620.375
2821.975	608.375
2824.164	619.375
2826.351	636.04167
2828.537	642.375
2830.722	652.04167
2832.905	648.375
2835.086	686.375
2837.267	697.70833
2839.445	713.04167
2841.623	734.70833
2843.799	751.375
2845.974	782.375
2848.147	801.70833
2850.319	830.375
2852.489	858.70833
2854.659	877.70833
2856.826	862.04167
2858.993	913.04167
2861.158	881.70833
2863.321	894.375
2865.483	911.375
2867.644	904.04167
2869.804	908.04167
2871.962	892.04167
2874.118	900.04167
2876.274	908.375
2878.428	904.04167
2880.58	904.375
2882.731	881.375
2884.881	900.04167
2887.03	904.04167
2889.177	906.70833
2891.322	910.70833
2893.467	905.375
2895.61	911.375
2897.751	931.04167
2899.892	910.04167
2902.03	934.70833
2904.168	937.04167
2906.304	931.70833
2908.439	950.04167
2910.572	944.04167
2912.704	967.04167
2914.835	960.04167
2916.965	954.375
2919.093	980.04167
2921.219	947.375
2923.345	994.375
2925.469	961.04167
2927.591	956.70833
2929.712	920.04167
2931.832	921.04167
2933.951	916.04167
2936.068	904.375
2938.184	878.04167
2940.299	863.70833
2942.412	847.04167
2944.524	813.04167
2946.634	814.04167
2948.744	774.70833
2950.851	796.70833
2952.958	757.375
2955.063	773.70833
2957.167	747.375
2959.269	723.04167
2961.371	746.375
2963.471	718.70833
2965.569	720.375
2967.666	691.70833
2969.762	699.70833
2971.857	681.375
2973.95	660.70833
2976.042	667.04167
2978.133	649.04167
2980.222	641.70833
2982.31	606.70833
2984.396	604.04167
2986.482	617.70833
2988.566	601.04167
2990.648	600.70833
2992.73	600.70833
2994.81	581.04167
2996.889	595.70833
2998.966	594.04167
3001.042	606.04167
3003.117	595.04167
3005.191	591.04167
3007.263	590.375
3009.334	573.04167
3011.403	589.375
3013.472	563.04167
3015.539	569.04167
3017.604	572.375
3019.669	528.375
3021.732	536.04167
3023.794	536.375
3025.854	535.04167
3027.914	537.04167
3029.971	552.375
3032.028	543.04167
3034.083	543.70833
3036.137	531.04167
3038.19	513.375
3040.242	512.04167
3042.292	497.70833
3044.341	491.04167
3046.388	502.70833
3048.435	479.375
3050.48	496.375
3052.524	485.70833
3054.566	468.70833
3056.607	487.04167
3058.647	473.04167
3060.686	443.70833
3062.723	448.375
3064.759	425.70833
3066.794	0.375
3068.828	2.70833
3070.86	3.04167
