-0.839	432.70833
3.438	525.04167
7.711	159.04167
11.981	59.375
16.247	45.04167
20.509	49.375
24.768	44.04167
29.024	53.70833
33.276	45.375
37.524	48.375
41.769	45.04167
46.01	28.70833
50.247	44.375
54.481	59.70833
58.712	62.04167
62.939	46.70833
67.162	63.04167
71.382	56.04167
75.599	46.04167
79.812	65.70833
84.021	78.375
88.227	61.375
92.429	57.375
96.628	47.375
100.823	69.375
105.015	74.70833
109.204	65.70833
113.388	70.70833
117.57	73.04167
121.748	86.70833
125.922	72.70833
130.093	92.04167
134.261	93.04167
138.425	87.375
142.585	129.04167
146.742	123.04167
150.896	146.375
155.046	188.375
159.193	300.04167
163.336	498.375
167.476	924.70833
171.613	1667.70833
175.746	2713.70833
179.875	3983.375
184.002	5115.70833
188.124	5869.04167
192.244	6082.375
196.36	6016.70833
200.472	5835.70833
204.581	5643.04167
208.687	5460.70833
212.79	5359.70833
216.889	5316.70833
220.984	5305.375
225.077	5324.375
229.165	5284.70833
233.251	5291.04167
237.333	5225.04167
241.412	5197.375
245.487	5106.70833
249.559	5078.375
253.628	5020.04167
257.694	4941.375
261.756	4875.70833
265.814	4780.04167
269.87	4647.70833
273.922	4435.70833
277.97	4343.70833
282.016	4211.70833
286.058	4161.375
290.097	4167.375
294.132	4206.04167
298.164	4131.04167
302.193	3965.375
306.219	3732.375
310.241	3482.375
314.26	3233.70833
318.276	3020.04167
322.288	2896.70833
326.297	2772.04167
330.303	2696.70833
334.305	2610.70833
338.305	2611.375
342.301	2566.375
346.294	2547.04167
350.283	2527.375
354.269	2509.04167
358.252	2493.375
362.232	2459.70833
366.209	2465.375
370.182	2430.04167
374.152	2415.375
378.119	2445.70833
382.083	2415.375
386.043	2405.375
390	2416.70833
393.954	2414.04167
397.905	2412.375
401.852	2417.70833
405.797	2373.375
409.738	2356.04167
413.676	2388.375
417.61	2363.375
421.542	2353.04167
425.47	2312.04167
429.396	2300.375
433.318	2285.70833
437.236	2280.70833
441.152	2293.04167
445.065	2256.04167
448.974	2254.375
452.88	2222.70833
456.783	2240.375
460.683	2197.375
464.58	2223.375
468.473	2215.375
472.364	2219.375
476.251	2230.70833
480.135	2226.70833
484.016	2249.70833
487.894	2269.04167
491.769	2281.375
495.641	2271.04167
499.509	2265.70833
503.375	2269.04167
507.237	2269.04167
511.096	2283.375
514.952	2356.375
518.805	2427.04167
522.655	2450.375
526.502	2362.70833
530.346	2284.375
534.187	2311.375
538.024	2279.375
541.859	2290.04167
545.69	2314.375
549.519	2275.04167
553.344	2284.70833
557.166	2224.375
560.985	2218.04167
564.802	2188.70833
568.615	2141.70833
572.425	2119.375
576.232	2127.70833
580.036	2132.04167
583.836	2123.04167
587.634	2110.70833
591.429	2125.04167
595.221	2167.375
599.01	2189.04167
602.796	2197.70833
606.578	2233.70833
610.358	2228.04167
614.135	2221.375
617.909	2210.375
621.679	2187.70833
625.447	2162.375
629.212	2169.04167
632.973	2177.70833
636.732	2171.70833
640.488	2185.70833
644.241	2141.04167
647.991	2162.70833
651.737	2174.375
655.481	2163.70833
659.222	2190.04167
662.96	2182.70833
666.695	2197.375
670.427	2209.70833
674.156	2194.04167
677.882	2178.375
681.605	2147.70833
685.325	2139.375
689.043	2133.375
692.757	2117.375
696.468	2117.04167
700.177	2105.04167
703.882	2093.70833
707.585	2083.70833
711.284	2092.375
714.981	2082.70833
718.675	2104.70833
722.366	2094.70833
726.054	2091.70833
729.739	2094.04167
733.421	2106.375
737.1	2084.70833
740.777	2131.70833
744.45	2127.375
748.121	2142.04167
751.789	2179.04167
755.453	2166.04167
759.115	2171.04167
762.774	2181.375
766.431	2199.04167
770.084	2231.04167
773.734	2234.70833
777.382	2269.04167
781.027	2281.375
784.669	2296.375
788.308	2309.375
791.944	2330.04167
795.577	2362.375
799.208	2343.04167
802.835	2380.04167
806.46	2404.70833
810.082	2426.04167
813.701	2431.04167
817.317	2449.70833
820.931	2459.70833
824.542	2435.70833
828.149	2391.04167
831.754	2377.70833
835.357	2363.70833
838.956	2358.375
842.553	2338.70833
846.146	2317.70833
849.737	2306.04167
853.326	2294.04167
856.911	2316.70833
860.493	2323.04167
864.073	2337.375
867.65	2349.70833
871.225	2396.70833
874.796	2405.70833
878.365	2400.04167
881.931	2391.70833
885.494	2411.375
889.054	2409.70833
892.612	2415.70833
896.166	2380.70833
899.719	2372.70833
903.268	2323.04167
906.814	2339.04167
910.358	2320.70833
913.899	2325.70833
917.438	2303.375
920.973	2324.375
924.506	2362.04167
928.036	2373.375
931.564	2447.04167
935.088	2431.04167
938.61	2440.04167
942.129	2469.375
945.646	2499.70833
949.16	2564.375
952.671	2609.375
956.179	2629.70833
959.685	2619.70833
963.188	2640.375
966.688	2632.375
970.185	2542.04167
973.68	2491.375
977.173	2400.375
980.662	2372.375
984.149	2372.04167
987.633	2333.04167
991.114	2413.375
994.593	2434.375
998.069	2509.04167
1001.542	2564.375
1005.013	2539.04167
1008.481	2392.70833
1011.947	2356.04167
1015.409	2371.04167
1018.869	2332.375
1022.327	2354.04167
1025.782	2309.04167
1029.234	2334.04167
1032.683	2290.375
1036.13	2221.375
1039.574	2145.04167
1043.016	2075.04167
1046.455	2064.375
1049.891	2041.70833
1053.325	2040.70833
1056.756	2034.04167
1060.184	2059.04167
1063.61	2072.04167
1067.033	2079.70833
1070.454	2078.70833
1073.872	2077.70833
1077.287	2111.375
1080.7	2112.04167
1084.11	2114.375
1087.517	2100.375
1090.922	2062.375
1094.325	2019.70833
1097.724	2019.70833
1101.122	2028.04167
1104.516	2024.375
1107.908	2018.375
1111.298	2063.70833
1114.684	2064.70833
1118.069	2111.375
1121.45	2125.04167
1124.83	2090.375
1128.206	2131.04167
1131.58	2149.375
1134.951	2186.04167
1138.32	2270.04167
1141.687	2357.375
1145.05	2392.375
1148.412	2407.375
1151.77	2403.375
1155.126	2404.04167
1158.48	2373.04167
1161.831	2388.70833
1165.18	2385.70833
1168.525	2450.04167
1171.869	2449.04167
1175.21	2472.04167
1178.548	2497.04167
1181.884	2502.70833
1185.217	2534.375
1188.548	2581.70833
1191.877	2638.04167
1195.202	2698.04167
1198.526	2777.70833
1201.846	2780.375
1205.165	2775.375
1208.48	2778.375
1211.794	2767.375
1215.104	2757.04167
1218.413	2752.04167
1221.719	2768.70833
1225.022	2689.04167
1228.323	2667.04167
1231.621	2644.04167
1234.917	2636.04167
1238.21	2651.70833
1241.501	2636.375
1244.79	2626.04167
1248.076	2604.70833
1251.359	2642.70833
1254.64	2714.04167
1257.919	2720.375
1261.195	2755.70833
1264.468	2802.375
1267.74	2843.04167
1271.008	2857.375
1274.275	2858.04167
1277.538	2837.70833
1280.8	2828.375
1284.059	2820.70833
1287.315	2867.70833
1290.569	2865.04167
1293.821	2892.04167
1297.07	2906.04167
1300.317	2919.04167
1303.562	2895.04167
1306.803	2894.04167
1310.043	2899.70833
1313.28	2852.04167
1316.515	2845.04167
1319.747	2833.70833
1322.977	2823.04167
1326.204	2797.70833
1329.429	2756.04167
1332.652	2752.375
1335.872	2725.375
1339.09	2702.04167
1342.306	2697.70833
1345.519	2678.04167
1348.729	2651.04167
1351.938	2686.70833
1355.144	2659.04167
1358.347	2598.375
1361.548	2581.70833
1364.747	2560.70833
1367.944	2532.70833
1371.138	2563.04167
1374.329	2542.375
1377.518	2591.70833
1380.705	2577.375
1383.89	2566.375
1387.072	2500.04167
1390.252	2379.70833
1393.429	2313.375
1396.605	2256.04167
1399.777	2165.375
1402.948	2150.70833
1406.116	2145.375
1409.282	2128.375
1412.445	2113.04167
1415.606	2134.70833
1418.765	2135.70833
1421.921	2196.70833
1425.075	2253.70833
1428.227	2297.04167
1431.376	2402.70833
1434.524	2516.04167
1437.668	2576.70833
1440.811	2610.70833
1443.951	2624.375
1447.089	2663.70833
1450.224	2658.70833
1453.357	2617.375
1456.488	2606.70833
1459.617	2582.375
1462.743	2528.70833
1465.867	2449.70833
1468.989	2430.70833
1472.108	2409.04167
1475.225	2373.04167
1478.34	2333.70833
1481.453	2335.04167
1484.563	2364.70833
1487.671	2381.04167
1490.776	2406.375
1493.88	2444.70833
1496.981	2497.70833
1500.08	2517.375
1503.176	2541.04167
1506.271	2574.70833
1509.363	2610.70833
1512.452	2610.04167
1515.54	2646.04167
1518.625	2683.375
1521.708	2746.04167
1524.789	2823.375
1527.867	2941.04167
1530.944	3053.70833
1534.018	3164.70833
1537.089	3253.70833
1540.159	3291.70833
1543.226	3248.04167
1546.291	3193.04167
1549.354	3121.70833
1552.415	3037.70833
1555.473	2990.375
1558.529	2949.70833
1561.583	2900.70833
1564.634	2905.04167
1567.684	2934.375
1570.731	2985.70833
1573.776	3000.375
1576.819	3055.70833
1579.859	3116.70833
1582.898	3153.375
1585.934	3199.70833
1588.968	3229.70833
1591.999	3187.04167
1595.029	3190.70833
1598.056	3225.70833
1601.081	3211.375
1604.104	3198.375
1607.125	3209.375
1610.144	3141.375
1613.16	3070.04167
1616.174	2991.04167
1619.186	2932.70833
1622.196	2872.70833
1625.203	2817.04167
1628.209	2802.04167
1631.212	2764.70833
1634.213	2776.70833
1637.212	2815.375
1640.209	2811.04167
1643.203	2740.04167
1646.196	2666.70833
1649.186	2543.70833
1652.174	2452.04167
1655.16	2360.04167
1658.144	2269.375
1661.125	2158.70833
1664.105	2055.375
1667.082	1940.70833
1670.057	1830.375
1673.03	1727.04167
1676.001	1606.70833
1678.97	1530.70833
1681.937	1436.04167
1684.901	1358.70833
1687.863	1318.70833
1690.824	1243.70833
1693.782	1212.375
1696.738	1181.70833
1699.692	1153.04167
1702.643	1114.375
1705.593	1111.375
1708.54	1092.375
1711.486	1108.70833
1714.429	1071.70833
1717.37	1064.04167
1720.309	1031.04167
1723.246	1060.375
1726.181	1018.04167
1729.113	1023.70833
1732.044	1004.04167
1734.972	1005.04167
1737.899	1005.70833
1740.823	1004.70833
1743.745	1012.70833
1746.665	962.70833
1749.583	942.70833
1752.499	947.375
1755.413	930.375
1758.325	909.04167
1761.235	922.04167
1764.142	885.375
1767.048	886.375
1769.951	881.70833
1772.852	884.70833
1775.752	883.70833
1778.649	884.70833
1781.544	880.70833
1784.437	850.70833
1787.328	867.375
1790.217	848.375
1793.104	829.70833
1795.989	834.375
1798.872	823.04167
1801.753	846.04167
1804.631	832.04167
1807.508	830.04167
1810.383	832.70833
1813.255	834.70833
1816.126	830.04167
1818.994	810.375
1821.861	802.375
1824.725	817.70833
1827.587	803.04167
1830.448	801.70833
1833.306	793.04167
1836.162	799.375
1839.017	789.70833
1841.869	782.375
1844.719	781.375
1847.567	770.04167
1850.414	758.70833
1853.258	771.04167
1856.1	784.375
1858.94	781.375
1861.778	770.375
1864.614	765.375
1867.448	761.375
1870.28	753.04167
1873.111	783.70833
1875.939	763.70833
1878.765	771.375
1881.589	747.04167
1884.411	759.375
1887.231	755.375
1890.049	757.375
1892.865	752.04167
1895.68	739.375
1898.492	746.04167
1901.302	756.04167
1904.11	732.70833
1906.916	747.70833
1909.721	712.04167
1912.523	737.70833
1915.323	717.04167
1918.122	721.04167
1920.918	728.70833
1923.712	724.375
1926.505	706.70833
1929.295	703.375
1932.084	728.70833
1934.87	714.04167
1937.655	712.375
1940.438	710.04167
1943.218	708.375
1945.997	707.04167
1948.774	721.70833
1951.549	716.04167
1954.322	697.04167
1957.093	705.04167
1959.862	700.04167
1962.629	688.375
1965.394	688.70833
1968.157	686.375
1970.918	693.04167
1973.678	685.70833
1976.435	694.70833
1979.19	673.04167
1981.944	668.375
1984.696	680.70833
1987.445	667.375
1990.193	681.375
1992.939	696.04167
1995.683	670.04167
1998.425	659.375
2001.165	685.04167
2003.903	672.70833
2006.639	666.375
2009.374	671.375
2012.106	658.375
2014.837	646.04167
2017.566	668.70833
2020.292	667.70833
2023.017	662.375
2025.74	652.70833
2028.461	642.375
2031.18	645.04167
2033.898	637.04167
2036.613	642.04167
2039.327	645.04167
2042.038	635.04167
2044.748	640.04167
2047.456	644.375
2050.162	632.04167
2052.866	635.04167
2055.568	633.04167
2058.268	635.04167
2060.967	634.04167
2063.663	625.04167
2066.358	633.70833
2069.051	618.70833
2071.742	633.375
2074.431	628.70833
2077.118	631.375
2079.804	630.04167
2082.487	624.375
2085.169	639.04167
2087.849	655.04167
2090.527	616.70833
2093.203	629.04167
2095.877	646.04167
2098.55	634.04167
2101.22	648.04167
2103.889	644.70833
2106.556	638.70833
2109.221	658.70833
2111.884	659.70833
2114.546	692.70833
2117.205	707.375
2119.863	749.375
2122.519	760.70833
2125.173	805.04167
2127.825	862.70833
2130.475	877.04167
2133.124	848.70833
2135.771	820.04167
2138.416	808.04167
2141.059	760.70833
2143.7	733.375
2146.339	707.375
2148.977	668.375
2151.613	682.70833
2154.247	653.375
2156.879	645.04167
2159.51	633.375
2162.138	621.375
2164.765	623.70833
2167.39	615.70833
2170.013	632.375
2172.634	615.70833
2175.254	609.70833
2177.872	640.04167
2180.488	592.70833
2183.102	603.70833
2185.714	591.375
2188.325	576.70833
2190.934	585.04167
2193.541	597.375
2196.146	575.375
2198.75	563.04167
2201.351	560.70833
2203.951	556.04167
2206.549	568.04167
2209.146	559.04167
2211.74	559.70833
2214.333	565.04167
2216.924	545.375
2219.514	558.375
2222.101	553.375
2224.687	575.70833
2227.271	541.04167
2229.853	548.375
2232.433	536.375
2235.012	557.70833
2237.589	552.70833
2240.164	572.375
2242.738	539.375
2245.309	541.70833
2247.879	552.70833
2250.448	553.70833
2253.014	527.375
2255.579	518.04167
2258.142	530.04167
2260.703	517.04167
2263.262	531.70833
2265.82	518.70833
2268.376	525.375
2270.93	507.70833
2273.483	512.04167
2276.033	516.375
2278.583	504.04167
2281.13	516.04167
2283.675	518.375
2286.219	502.70833
2288.761	501.04167
2291.302	512.375
2293.841	520.70833
2296.377	498.375
2298.913	503.70833
2301.446	511.04167
2303.978	506.70833
2306.508	494.375
2309.037	498.375
2311.563	502.70833
2314.088	508.04167
2316.612	486.70833
2319.133	504.70833
2321.653	496.04167
2324.171	488.04167
2326.688	509.70833
2329.202	492.04167
2331.715	497.04167
2334.227	491.04167
2336.736	496.375
2339.244	490.04167
2341.751	483.375
2344.255	493.375
2346.758	488.375
2349.259	478.04167
2351.759	488.375
2354.257	477.70833
2356.753	473.375
2359.247	483.70833
2361.74	489.04167
2364.231	482.04167
2366.721	487.70833
2369.209	480.04167
2371.695	489.375
2374.179	481.70833
2376.662	468.04167
2379.143	483.375
2381.622	486.04167
2384.1	490.70833
2386.576	489.375
2389.051	494.70833
2391.524	503.70833
2393.995	491.04167
2396.464	478.04167
2398.932	479.04167
2401.398	477.375
2403.863	486.375
2406.325	472.04167
2408.787	479.375
2411.246	486.375
2413.704	472.375
2416.16	475.70833
2418.615	474.375
2421.068	492.70833
2423.519	483.04167
2425.969	473.375
2428.417	485.70833
2430.863	505.70833
2433.308	488.375
2435.751	477.70833
2438.193	474.375
2440.633	482.04167
2443.071	491.70833
2445.508	476.04167
2447.943	470.70833
2450.376	486.70833
2452.808	485.375
2455.238	472.70833
2457.667	505.375
2460.093	473.375
2462.519	472.04167
2464.942	475.70833
2467.365	472.04167
2469.785	484.70833
2472.204	481.04167
2474.621	467.04167
2477.037	486.375
2479.451	472.375
2481.863	462.375
2484.274	461.375
2486.683	481.04167
2489.091	481.375
2491.497	475.375
2493.901	478.04167
2496.304	472.70833
2498.705	478.375
2501.105	480.70833
2503.503	501.375
2505.899	475.70833
2508.294	484.375
2510.687	476.04167
2513.079	480.04167
2515.469	468.375
2517.858	481.04167
2520.245	487.375
2522.63	474.04167
2525.014	478.375
2527.396	476.70833
2529.776	466.70833
2532.156	486.04167
2534.533	480.70833
2536.909	470.70833
2539.283	449.04167
2541.656	473.375
2544.027	486.375
2546.397	475.375
2548.765	464.70833
2551.131	477.375
2553.496	478.70833
2555.86	479.04167
2558.221	481.375
2560.582	478.70833
2562.94	471.70833
2565.298	470.70833
2567.653	492.04167
2570.007	473.375
2572.36	487.375
2574.711	473.70833
2577.06	495.70833
2579.408	484.375
2581.754	485.375
2584.099	494.375
2586.442	483.375
2588.784	497.04167
2591.124	487.04167
2593.463	484.70833
2595.8	495.04167
2598.135	484.04167
2600.469	472.375
2602.802	494.04167
2605.133	501.70833
2607.462	482.04167
2609.79	475.04167
2612.116	492.375
2614.441	489.375
2616.764	489.70833
2619.086	492.375
2621.406	480.70833
2623.725	502.70833
2626.042	503.70833
2628.358	494.375
2630.672	489.70833
2632.985	511.70833
2635.296	497.375
2637.606	501.04167
2639.914	487.04167
2642.22	492.375
2644.525	505.375
2646.829	507.04167
2649.131	528.70833
2651.432	510.70833
2653.731	513.04167
2656.028	523.04167
2658.324	531.70833
2660.619	511.04167
2662.912	513.70833
2665.204	495.375
2667.494	521.375
2669.782	523.70833
2672.07	526.375
2674.355	525.04167
2676.639	526.70833
2678.922	518.375
2681.203	526.70833
2683.483	510.04167
2685.761	511.70833
2688.038	525.70833
2690.313	542.04167
2692.587	526.70833
2694.859	515.70833
2697.13	529.70833
2699.399	538.375
2701.667	545.375
2703.933	528.70833
2706.198	547.04167
2708.461	550.70833
2710.723	549.70833
2712.984	544.70833
2715.243	551.04167
2717.5	546.375
2719.757	568.70833
2722.011	550.70833
2724.264	564.375
2726.516	576.70833
2728.766	556.375
2731.015	578.04167
2733.262	572.04167
2735.508	568.04167
2737.753	569.70833
2739.996	562.70833
2742.237	556.70833
2744.477	566.04167
2746.716	562.375
2748.953	562.04167
2751.189	563.70833
2753.423	555.04167
2755.656	552.70833
2757.887	545.04167
2760.117	555.70833
2762.346	546.04167
2764.573	546.375
2766.798	556.70833
2769.022	553.375
2771.245	558.375
2773.467	550.04167
2775.686	562.70833
2777.905	557.04167
2780.122	565.70833
2782.337	571.375
2784.552	566.70833
2786.764	563.04167
2788.976	567.375
2791.186	569.375
2793.394	584.04167
2795.601	591.375
2797.807	593.04167
2800.011	599.04167
2802.214	598.04167
2804.415	607.04167
2806.615	598.375
2808.814	604.70833
2811.011	613.04167
2813.206	597.70833
2815.401	620.70833
2817.594	627.70833
2819.785	639.04167
2821.975	627.70833
2824.164	620.375
2826.351	642.04167
2828.537	655.70833
2830.722	657.375
2832.905	672.04167
2835.086	701.375
2837.267	718.70833
2839.445	721.70833
2841.623	742.04167
2843.799	763.375
2845.974	788.70833
2848.147	828.04167
2850.319	847.70833
2852.489	885.04167
2854.659	886.04167
2856.826	901.04167
2858.993	924.375
2861.158	901.04167
2863.321	903.70833
2865.483	926.70833
2867.644	937.70833
2869.804	900.375
2871.962	909.70833
2874.118	914.70833
2876.274	914.375
2878.428	912.375
2880.58	917.375
2882.731	899.375
2884.881	896.375
2887.03	909.70833
2889.177	907.04167
2891.322	927.04167
2893.467	907.70833
2895.61	926.04167
2897.751	942.04167
2899.892	940.375
2902.03	953.70833
2904.168	948.375
2906.304	965.70833
2908.439	977.70833
2910.572	965.04167
2912.704	967.70833
2914.835	973.375
2916.965	975.375
2919.093	982.375
2921.219	978.375
2923.345	987.70833
2925.469	966.70833
2927.591	958.70833
2929.712	923.375
2931.832	939.375
2933.951	928.70833
2936.068	903.70833
2938.184	887.04167
2940.299	878.04167
2942.412	868.375
2944.524	820.70833
2946.634	831.70833
2948.744	790.375
2950.851	801.70833
2952.958	778.375
2955.063	773.70833
2957.167	780.04167
2959.269	725.375
2961.371	759.70833
2963.471	741.375
2965.569	757.04167
2967.666	715.375
2969.762	713.375
2971.857	709.375
2973.95	691.04167
2976.042	674.70833
2978.133	670.04167
2980.222	664.375
2982.31	639.375
2984.396	629.375
2986.482	632.04167
2988.566	621.70833
2990.648	618.70833
2992.73	619.70833
2994.81	602.70833
2996.889	615.04167
2998.966	613.70833
3001.042	617.04167
3003.117	612.04167
3005.191	609.70833
3007.263	600.04167
3009.334	597.375
3011.403	596.04167
3013.472	589.375
3015.539	591.04167
3017.604	595.04167
3019.669	554.70833
3021.732	557.04167
3023.794	570.70833
3025.854	562.04167
3027.914	564.04167
3029.971	569.70833
3032.028	552.04167
3034.083	558.375
3036.137	549.375
3038.19	532.375
3040.242	524.70833
3042.292	505.04167
3044.341	513.04167
3046.388	522.04167
3048.435	496.375
3050.48	513.04167
3052.524	495.70833
3054.566	482.70833
3056.607	499.375
3058.647	481.375
3060.686	474.375
3062.723	457.70833
3064.759	433.70833
3066.794	-0.29167
3068.828	2.04167
3070.86	4.70833
