-0.839	443.58333
3.438	522.25
7.711	159.91667
11.981	64.91667
16.247	46.58333
20.509	52.25
24.768	49.91667
29.024	56.58333
33.276	48.25
37.524	48.58333
41.769	49.58333
46.01	33.91667
50.247	52.91667
54.481	58.91667
58.712	65.91667
62.939	51.91667
67.162	66.58333
71.382	57.58333
75.599	47.58333
79.812	63.25
84.021	82.25
88.227	59.91667
92.429	59.91667
96.628	52.58333
100.823	74.25
105.015	79.58333
109.204	68.25
113.388	77.25
117.57	76.25
121.748	91.25
125.922	79.25
130.093	99.25
134.261	100.91667
138.425	100.25
142.585	139.58333
146.742	127.91667
150.896	165.25
155.046	198.25
159.193	306.91667
163.336	505.91667
167.476	935.91667
171.613	1712.58333
175.746	2848.91667
179.875	4253.58333
184.002	5594.91667
188.124	6542.91667
192.244	6953.58333
196.36	6989.58333
200.472	6919.25
204.581	6836.58333
208.687	6750.91667
212.79	6728.58333
216.889	6785.91667
220.984	6885.91667
225.077	6932.91667
229.165	6988.58333
233.251	7083.58333
237.333	7114.91667
241.412	7073.25
245.487	7050.25
249.559	6944.25
253.628	6939.91667
257.694	6873.58333
261.756	6807.25
265.814	6701.58333
269.87	6446.58333
273.922	6243.58333
277.97	6043.91667
282.016	5854.91667
286.058	5767.25
290.097	5729.91667
294.132	5743.91667
298.164	5760.58333
302.193	5577.58333
306.219	5281.58333
310.241	4901.91667
314.26	4509.25
318.276	4184.58333
322.288	4019.91667
326.297	3840.25
330.303	3725.58333
334.305	3664.91667
338.305	3580.91667
342.301	3540.91667
346.294	3514.58333
350.283	3485.25
354.269	3470.91667
358.252	3472.58333
362.232	3438.25
366.209	3425.25
370.182	3419.58333
374.152	3371.58333
378.119	3400.91667
382.083	3395.91667
386.043	3417.25
390	3354.91667
393.954	3375.91667
397.905	3402.91667
401.852	3374.25
405.797	3339.91667
409.738	3369.91667
413.676	3374.58333
417.61	3370.58333
421.542	3288.25
425.47	3285.58333
429.396	3274.25
433.318	3236.91667
437.236	3248.91667
441.152	3266.25
445.065	3210.25
448.974	3191.91667
452.88	3187.58333
456.783	3152.25
460.683	3145.58333
464.58	3132.91667
468.473	3140.91667
472.364	3136.25
476.251	3155.58333
480.135	3173.25
484.016	3216.25
487.894	3229.58333
491.769	3247.58333
495.641	3253.25
499.509	3241.58333
503.375	3249.58333
507.237	3256.58333
511.096	3239.25
514.952	3296.25
518.805	3376.58333
522.655	3392.25
526.502	3308.91667
530.346	3218.91667
534.187	3244.25
538.024	3219.58333
541.859	3233.91667
545.69	3251.58333
549.519	3224.58333
553.344	3199.58333
557.166	3164.25
560.985	3133.58333
564.802	3097.91667
568.615	3022.91667
572.425	3010.25
576.232	3002.25
580.036	2982.91667
583.836	2986.91667
587.634	2989.58333
591.429	3001.91667
595.221	3070.58333
599.01	3100.91667
602.796	3110.58333
606.578	3151.91667
610.358	3148.25
614.135	3124.58333
617.909	3097.58333
621.679	3091.58333
625.447	3032.58333
629.212	3050.58333
632.973	3057.91667
636.732	3060.25
640.488	3037.91667
644.241	3018.25
647.991	3004.91667
651.737	3029.91667
655.481	3049.25
659.222	3057.91667
662.96	3037.58333
666.695	3076.58333
670.427	3111.58333
674.156	3064.91667
677.882	3057.58333
681.605	3024.25
685.325	3005.25
689.043	3011.91667
692.757	2967.91667
696.468	2974.91667
700.177	2972.25
703.882	2923.91667
707.585	2943.25
711.284	2927.58333
714.981	2917.25
718.675	2912.25
722.366	2928.25
726.054	2881.91667
729.739	2924.91667
733.421	2909.91667
737.1	2902.58333
740.777	2939.58333
744.45	2939.25
748.121	2971.58333
751.789	2998.91667
755.453	2980.91667
759.115	3013.91667
762.774	3032.91667
766.431	3043.25
770.084	3086.91667
773.734	3098.25
777.382	3154.58333
781.027	3165.91667
784.669	3175.91667
788.308	3206.58333
791.944	3197.91667
795.577	3196.25
799.208	3197.91667
802.835	3242.25
806.46	3265.25
810.082	3309.25
813.701	3330.58333
817.317	3368.91667
820.931	3352.25
824.542	3336.91667
828.149	3307.25
831.754	3262.25
835.357	3220.91667
838.956	3226.25
842.553	3204.25
846.146	3198.58333
849.737	3172.58333
853.326	3140.58333
856.911	3142.58333
860.493	3185.91667
864.073	3212.58333
867.65	3259.58333
871.225	3288.58333
874.796	3267.58333
878.365	3284.91667
881.931	3288.91667
885.494	3334.25
889.054	3327.91667
892.612	3304.58333
896.166	3302.58333
899.719	3250.58333
903.268	3209.91667
906.814	3180.91667
910.358	3172.58333
913.899	3147.25
917.438	3146.25
920.973	3149.25
924.506	3214.58333
928.036	3283.91667
931.564	3305.25
935.088	3363.91667
938.61	3353.25
942.129	3342.91667
945.646	3429.58333
949.16	3477.91667
952.671	3519.91667
956.179	3559.58333
959.685	3583.25
963.188	3610.58333
966.688	3566.91667
970.185	3463.91667
973.68	3357.25
977.173	3286.91667
980.662	3228.58333
984.149	3219.91667
987.633	3230.58333
991.114	3257.25
994.593	3302.91667
998.069	3378.58333
1001.542	3490.25
1005.013	3429.91667
1008.481	3265.91667
1011.947	3214.58333
1015.409	3179.58333
1018.869	3198.58333
1022.327	3176.58333
1025.782	3165.91667
1029.234	3146.58333
1032.683	3119.25
1036.13	3024.25
1039.574	2927.25
1043.016	2830.91667
1046.455	2772.25
1049.891	2755.91667
1053.325	2760.91667
1056.756	2767.25
1060.184	2769.25
1063.61	2782.25
1067.033	2785.91667
1070.454	2793.58333
1073.872	2825.25
1077.287	2799.25
1080.7	2812.25
1084.11	2814.91667
1087.517	2783.58333
1090.922	2748.58333
1094.325	2699.25
1097.724	2683.58333
1101.122	2682.58333
1104.516	2691.91667
1107.908	2670.91667
1111.298	2709.91667
1114.684	2751.58333
1118.069	2803.25
1121.45	2812.25
1124.83	2801.25
1128.206	2818.25
1131.58	2884.91667
1134.951	2933.25
1138.32	3012.91667
1141.687	3101.91667
1145.05	3209.58333
1148.412	3231.25
1151.77	3222.91667
1155.126	3218.91667
1158.48	3192.58333
1161.831	3217.91667
1165.18	3220.25
1168.525	3268.91667
1171.869	3296.91667
1175.21	3328.25
1178.548	3359.58333
1181.884	3379.91667
1185.217	3406.58333
1188.548	3449.58333
1191.877	3511.58333
1195.202	3622.91667
1198.526	3686.91667
1201.846	3696.91667
1205.165	3696.25
1208.48	3686.58333
1211.794	3654.25
1215.104	3642.58333
1218.413	3647.25
1221.719	3617.91667
1225.022	3558.91667
1228.323	3492.91667
1231.621	3478.91667
1234.917	3437.91667
1238.21	3463.91667
1241.501	3438.91667
1244.79	3435.25
1248.076	3415.91667
1251.359	3485.58333
1254.64	3540.58333
1257.919	3560.58333
1261.195	3608.25
1264.468	3661.25
1267.74	3722.25
1271.008	3730.91667
1274.275	3712.58333
1277.538	3707.25
1280.8	3681.25
1284.059	3711.58333
1287.315	3720.58333
1290.569	3725.58333
1293.821	3739.58333
1297.07	3737.91667
1300.317	3772.58333
1303.562	3743.91667
1306.803	3738.25
1310.043	3736.58333
1313.28	3692.91667
1316.515	3702.25
1319.747	3679.91667
1322.977	3656.91667
1326.204	3593.58333
1329.429	3567.25
1332.652	3563.25
1335.872	3555.91667
1339.09	3521.25
1342.306	3460.58333
1345.519	3432.25
1348.729	3431.91667
1351.938	3434.25
1355.144	3392.58333
1358.347	3291.91667
1361.548	3283.58333
1364.747	3287.58333
1367.944	3257.91667
1371.138	3255.91667
1374.329	3185.91667
1377.518	3210.91667
1380.705	3258.58333
1383.89	3219.91667
1387.072	3161.58333
1390.252	3049.25
1393.429	2929.91667
1396.605	2854.58333
1399.777	2777.25
1402.948	2715.91667
1406.116	2694.25
1409.282	2693.25
1412.445	2668.58333
1415.606	2688.25
1418.765	2736.91667
1421.921	2781.91667
1425.075	2814.25
1428.227	2922.58333
1431.376	3050.25
1434.524	3146.58333
1437.668	3252.91667
1440.811	3310.25
1443.951	3322.58333
1447.089	3315.58333
1450.224	3325.25
1453.357	3322.91667
1456.488	3281.25
1459.617	3257.91667
1462.743	3199.58333
1465.867	3124.91667
1468.989	3120.25
1472.108	3076.25
1475.225	3009.91667
1478.34	3037.91667
1481.453	3024.25
1484.563	3025.25
1487.671	3046.58333
1490.776	3075.58333
1493.88	3146.25
1496.981	3178.58333
1500.08	3196.91667
1503.176	3256.91667
1506.271	3317.25
1509.363	3375.58333
1512.452	3381.58333
1515.54	3415.25
1518.625	3438.25
1521.708	3542.25
1524.789	3621.58333
1527.867	3778.25
1530.944	3951.58333
1534.018	4106.91667
1537.089	4204.91667
1540.159	4203.91667
1543.226	4197.91667
1546.291	4121.58333
1549.354	4012.25
1552.415	3949.25
1555.473	3880.91667
1558.529	3811.58333
1561.583	3763.58333
1564.634	3763.58333
1567.684	3755.58333
1570.731	3798.58333
1573.776	3870.25
1576.819	3917.91667
1579.859	3977.91667
1582.898	4020.58333
1585.934	4073.58333
1588.968	4102.25
1591.999	4039.91667
1595.029	4052.25
1598.056	4072.58333
1601.081	4093.58333
1604.104	4052.91667
1607.125	4031.25
1610.144	3954.91667
1613.16	3858.91667
1616.174	3826.58333
1619.186	3741.91667
1622.196	3646.58333
1625.203	3598.91667
1628.209	3532.25
1631.212	3527.25
1634.213	3549.25
1637.212	3600.25
1640.209	3551.91667
1643.203	3467.25
1646.196	3358.25
1649.186	3155.91667
1652.174	3019.58333
1655.16	2895.91667
1658.144	2823.91667
1661.125	2657.91667
1664.105	2535.58333
1667.082	2410.91667
1670.057	2271.58333
1673.03	2128.58333
1676.001	2007.91667
1678.97	1884.25
1681.937	1777.91667
1684.901	1676.91667
1687.863	1621.25
1690.824	1555.58333
1693.782	1529.58333
1696.738	1456.58333
1699.692	1423.25
1702.643	1394.91667
1705.593	1372.25
1708.54	1361.58333
1711.486	1357.91667
1714.429	1326.91667
1717.37	1330.58333
1720.309	1292.91667
1723.246	1295.91667
1726.181	1281.91667
1729.113	1274.25
1732.044	1249.25
1734.972	1237.58333
1737.899	1258.58333
1740.823	1253.91667
1743.745	1241.25
1746.665	1195.25
1749.583	1174.58333
1752.499	1150.58333
1755.413	1145.58333
1758.325	1127.91667
1761.235	1134.58333
1764.142	1110.25
1767.048	1098.91667
1769.951	1085.25
1772.852	1086.91667
1775.752	1086.25
1778.649	1089.58333
1781.544	1088.91667
1784.437	1051.25
1787.328	1061.91667
1790.217	1045.25
1793.104	1020.91667
1795.989	1030.25
1798.872	1020.25
1801.753	1030.25
1804.631	1030.91667
1807.508	1034.91667
1810.383	1030.25
1813.255	1023.91667
1816.126	1011.91667
1818.994	1000.91667
1821.861	996.58333
1824.725	993.25
1827.587	989.58333
1830.448	973.25
1833.306	951.25
1836.162	972.91667
1839.017	962.58333
1841.869	960.25
1844.719	968.58333
1847.567	949.25
1850.414	926.25
1853.258	945.91667
1856.1	960.25
1858.94	947.25
1861.778	948.91667
1864.614	940.58333
1867.448	937.91667
1870.28	916.91667
1873.111	954.25
1875.939	934.91667
1878.765	952.58333
1881.589	924.25
1884.411	925.58333
1887.231	918.58333
1890.049	920.25
1892.865	923.91667
1895.68	909.91667
1898.492	919.25
1901.302	909.25
1904.11	899.58333
1906.916	894.91667
1909.721	870.25
1912.523	889.58333
1915.323	875.58333
1918.122	871.25
1920.918	877.91667
1923.712	863.91667
1926.505	862.25
1929.295	855.25
1932.084	869.91667
1934.87	856.58333
1937.655	853.91667
1940.438	853.91667
1943.218	856.25
1945.997	873.25
1948.774	875.91667
1951.549	878.91667
1954.322	852.58333
1957.093	843.58333
1959.862	831.91667
1962.629	844.58333
1965.394	837.25
1968.157	828.58333
1970.918	836.91667
1973.678	825.58333
1976.435	840.25
1979.19	820.58333
1981.944	813.58333
1984.696	816.58333
1987.445	797.58333
1990.193	809.58333
1992.939	832.91667
1995.683	800.58333
1998.425	787.58333
2001.165	816.25
2003.903	798.25
2006.639	795.91667
2009.374	807.58333
2012.106	799.91667
2014.837	784.58333
2017.566	795.91667
2020.292	797.91667
2023.017	795.58333
2025.74	787.25
2028.461	772.58333
2031.18	780.91667
2033.898	772.91667
2036.613	780.91667
2039.327	782.58333
2042.038	767.25
2044.748	758.25
2047.456	779.25
2050.162	746.25
2052.866	760.58333
2055.568	759.58333
2058.268	751.58333
2060.967	754.91667
2063.663	741.58333
2066.358	741.58333
2069.051	737.58333
2071.742	736.25
2074.431	747.58333
2077.118	750.58333
2079.804	729.58333
2082.487	743.91667
2085.169	745.58333
2087.849	760.91667
2090.527	732.91667
2093.203	731.25
2095.877	750.25
2098.55	760.91667
2101.22	751.58333
2103.889	762.58333
2106.556	753.25
2109.221	767.58333
2111.884	753.25
2114.546	790.25
2117.205	805.91667
2119.863	848.91667
2122.519	880.58333
2125.173	927.25
2127.825	978.25
2130.475	1000.25
2133.124	970.91667
2135.771	962.25
2138.416	940.91667
2141.059	892.25
2143.7	859.25
2146.339	836.91667
2148.977	787.91667
2151.613	773.91667
2154.247	755.91667
2156.879	756.58333
2159.51	734.25
2162.138	717.58333
2164.765	730.91667
2167.39	714.25
2170.013	734.91667
2172.634	730.25
2175.254	719.91667
2177.872	746.58333
2180.488	691.58333
2183.102	708.91667
2185.714	691.91667
2188.325	679.58333
2190.934	676.91667
2193.541	689.58333
2196.146	685.91667
2198.75	655.91667
2201.351	665.58333
2203.951	657.58333
2206.549	671.58333
2209.146	658.58333
2211.74	661.91667
2214.333	659.58333
2216.924	645.58333
2219.514	652.25
2222.101	637.25
2224.687	667.25
2227.271	638.91667
2229.853	626.91667
2232.433	630.25
2235.012	647.58333
2237.589	648.58333
2240.164	656.91667
2242.738	635.25
2245.309	619.91667
2247.879	633.58333
2250.448	638.25
2253.014	602.91667
2255.579	597.25
2258.142	612.91667
2260.703	595.58333
2263.262	598.25
2265.82	592.91667
2268.376	604.91667
2270.93	581.25
2273.483	589.25
2276.033	591.25
2278.583	585.91667
2281.13	575.91667
2283.675	572.91667
2286.219	574.91667
2288.761	580.25
2291.302	593.58333
2293.841	583.25
2296.377	555.25
2298.913	565.25
2301.446	581.91667
2303.978	576.25
2306.508	573.58333
2309.037	574.91667
2311.563	568.91667
2314.088	572.58333
2316.612	562.58333
2319.133	568.58333
2321.653	563.91667
2324.171	552.25
2326.688	565.91667
2329.202	549.91667
2331.715	559.25
2334.227	552.91667
2336.736	561.91667
2339.244	553.91667
2341.751	538.91667
2344.255	550.58333
2346.758	547.91667
2349.259	545.58333
2351.759	555.25
2354.257	541.25
2356.753	537.58333
2359.247	536.25
2361.74	546.91667
2364.231	544.91667
2366.721	536.58333
2369.209	542.25
2371.695	540.58333
2374.179	538.91667
2376.662	525.25
2379.143	540.58333
2381.622	531.58333
2384.1	541.91667
2386.576	537.25
2389.051	540.25
2391.524	547.25
2393.995	535.91667
2396.464	526.25
2398.932	540.58333
2401.398	530.91667
2403.863	529.91667
2406.325	528.58333
2408.787	532.25
2411.246	530.91667
2413.704	536.25
2416.16	526.25
2418.615	527.25
2421.068	527.58333
2423.519	533.25
2425.969	521.58333
2428.417	524.58333
2430.863	548.91667
2433.308	534.91667
2435.751	526.91667
2438.193	528.25
2440.633	518.25
2443.071	532.25
2445.508	514.25
2447.943	517.91667
2450.376	514.25
2452.808	513.25
2455.238	510.91667
2457.667	547.58333
2460.093	511.25
2462.519	510.58333
2464.942	516.91667
2467.365	513.91667
2469.785	531.58333
2472.204	514.91667
2474.621	510.25
2477.037	530.58333
2479.451	501.91667
2481.863	507.58333
2484.274	507.58333
2486.683	500.91667
2489.091	514.91667
2491.497	512.58333
2493.901	520.58333
2496.304	512.91667
2498.705	516.25
2501.105	521.58333
2503.503	532.25
2505.899	504.91667
2508.294	532.58333
2510.687	522.25
2513.079	514.25
2515.469	502.91667
2517.858	519.25
2520.245	526.91667
2522.63	506.25
2525.014	504.91667
2527.396	508.25
2529.776	504.25
2532.156	519.58333
2534.533	501.25
2536.909	489.91667
2539.283	489.58333
2541.656	502.58333
2544.027	526.58333
2546.397	500.25
2548.765	499.58333
2551.131	514.25
2553.496	500.91667
2555.86	507.25
2558.221	511.25
2560.582	499.91667
2562.94	486.91667
2565.298	504.25
2567.653	512.91667
2570.007	496.25
2572.36	517.91667
2574.711	498.91667
2577.06	523.91667
2579.408	514.91667
2581.754	507.25
2584.099	506.91667
2586.442	502.25
2588.784	515.91667
2591.124	513.91667
2593.463	511.25
2595.8	516.25
2598.135	501.91667
2600.469	500.58333
2602.802	510.58333
2605.133	508.58333
2607.462	511.25
2609.79	503.25
2612.116	509.58333
2614.441	513.91667
2616.764	499.25
2619.086	516.58333
2621.406	501.91667
2623.725	525.25
2626.042	505.91667
2628.358	505.58333
2630.672	501.91667
2632.985	540.58333
2635.296	513.58333
2637.606	521.91667
2639.914	509.91667
2642.22	515.91667
2644.525	514.91667
2646.829	522.91667
2649.131	531.25
2651.432	544.58333
2653.731	529.91667
2656.028	539.91667
2658.324	545.58333
2660.619	517.58333
2662.912	543.58333
2665.204	525.58333
2667.494	538.91667
2669.782	524.91667
2672.07	541.25
2674.355	540.91667
2676.639	532.91667
2678.922	520.91667
2681.203	528.58333
2683.483	529.25
2685.761	523.25
2688.038	537.25
2690.313	544.91667
2692.587	535.91667
2694.859	526.58333
2697.13	536.91667
2699.399	548.58333
2701.667	537.58333
2703.933	541.25
2706.198	545.58333
2708.461	562.91667
2710.723	548.91667
2712.984	551.25
2715.243	550.58333
2717.5	539.58333
2719.757	565.58333
2722.011	559.91667
2724.264	567.58333
2726.516	574.91667
2728.766	558.91667
2731.015	570.25
2733.262	574.91667
2735.508	567.25
2737.753	561.25
2739.996	553.58333
2742.237	561.25
2744.477	568.25
2746.716	567.25
2748.953	555.58333
2751.189	564.91667
2753.423	549.91667
2755.656	551.58333
2757.887	546.91667
2760.117	547.58333
2762.346	544.91667
2764.573	541.91667
2766.798	544.58333
2769.022	544.25
2771.245	548.58333
2773.467	551.58333
2775.686	558.91667
2777.905	558.91667
2780.122	570.25
2782.337	576.91667
2784.552	550.58333
2786.764	561.58333
2788.976	562.91667
2791.186	565.25
2793.394	577.91667
2795.601	565.91667
2797.807	594.25
2800.011	584.58333
2802.214	595.91667
2804.415	594.25
2806.615	596.58333
2808.814	600.58333
2811.011	604.58333
2813.206	598.58333
2815.401	608.25
2817.594	608.91667
2819.785	618.25
2821.975	617.91667
2824.164	615.25
2826.351	632.91667
2828.537	646.25
2830.722	650.25
2832.905	651.91667
2835.086	687.25
2837.267	698.25
2839.445	720.25
2841.623	738.91667
2843.799	758.58333
2845.974	786.58333
2848.147	819.91667
2850.319	837.25
2852.489	862.25
2854.659	872.25
2856.826	873.91667
2858.993	920.25
2861.158	886.91667
2863.321	894.58333
2865.483	921.25
2867.644	915.91667
2869.804	916.25
2871.962	915.91667
2874.118	907.58333
2876.274	926.25
2878.428	913.58333
2880.58	900.58333
2882.731	905.58333
2884.881	904.25
2887.03	912.91667
2889.177	909.25
2891.322	925.91667
2893.467	917.25
2895.61	911.25
2897.751	935.91667
2899.892	930.91667
2902.03	935.58333
2904.168	941.25
2906.304	954.58333
2908.439	972.25
2910.572	962.25
2912.704	976.91667
2914.835	972.91667
2916.965	963.58333
2919.093	993.25
2921.219	964.58333
2923.345	980.58333
2925.469	956.58333
2927.591	957.91667
2929.712	937.25
2931.832	941.58333
2933.951	916.91667
2936.068	908.58333
2938.184	872.91667
2940.299	869.91667
2942.412	848.58333
2944.524	823.25
2946.634	827.25
2948.744	784.58333
2950.851	798.25
2952.958	764.25
2955.063	767.25
2957.167	762.25
2959.269	734.58333
2961.371	743.91667
2963.471	714.25
2965.569	719.58333
2967.666	703.25
2969.762	682.91667
2971.857	688.58333
2973.95	661.58333
2976.042	662.58333
2978.133	645.25
2980.222	640.91667
2982.31	625.91667
2984.396	604.58333
2986.482	609.58333
2988.566	599.58333
2990.648	595.58333
2992.73	594.91667
2994.81	588.58333
2996.889	594.58333
2998.966	582.25
3001.042	598.91667
3003.117	595.91667
3005.191	585.25
3007.263	585.91667
3009.334	573.58333
3011.403	573.91667
3013.472	562.58333
3015.539	565.25
3017.604	560.91667
3019.669	541.58333
3021.732	547.58333
3023.794	538.91667
3025.854	528.91667
3027.914	537.58333
3029.971	541.58333
3032.028	529.25
3034.083	538.58333
3036.137	522.25
3038.19	508.58333
3040.242	497.58333
3042.292	492.91667
3044.341	490.58333
3046.388	499.25
3048.435	468.25
3050.48	498.91667
3052.524	486.58333
3054.566	473.91667
3056.607	477.58333
3058.647	457.58333
3060.686	449.58333
3062.723	433.58333
3064.759	418.91667
3066.794	-1.08333
3068.828	4.25
3070.86	1.58333
