-0.839	641.25
3.438	731.91667
7.711	211.25
11.981	67.58333
16.247	46.58333
20.509	49.91667
24.768	46.91667
29.024	55.91667
33.276	47.58333
37.524	50.91667
41.769	48.91667
46.01	32.25
50.247	48.25
54.481	59.91667
58.712	60.91667
62.939	45.25
67.162	66.25
71.382	55.91667
75.599	43.91667
79.812	63.91667
84.021	78.91667
88.227	60.58333
92.429	58.58333
96.628	47.91667
100.823	69.25
105.015	70.58333
109.204	66.58333
113.388	74.58333
117.57	73.58333
121.748	85.25
125.922	75.91667
130.093	89.25
134.261	92.91667
138.425	92.91667
142.585	136.91667
146.742	127.58333
150.896	146.91667
155.046	183.91667
159.193	292.58333
163.336	472.91667
167.476	880.91667
171.613	1626.25
175.746	2664.58333
179.875	3948.91667
184.002	5164.91667
188.124	6000.25
192.244	6347.25
196.36	6345.91667
200.472	6217.58333
204.581	6126.25
208.687	5996.25
212.79	5958.58333
216.889	5964.25
220.984	5980.25
225.077	6021.25
229.165	6043.58333
233.251	6066.91667
237.333	6064.58333
241.412	6043.91667
245.487	6013.58333
249.559	5946.58333
253.628	5877.25
257.694	5845.25
261.756	5800.25
265.814	5717.91667
269.87	5545.25
273.922	5338.91667
277.97	5222.58333
282.016	5106.25
286.058	5007.58333
290.097	5021.25
294.132	5014.25
298.164	4984.58333
302.193	4801.91667
306.219	4544.91667
310.241	4284.58333
314.26	3970.58333
318.276	3780.25
322.288	3645.58333
326.297	3488.58333
330.303	3431.25
334.305	3352.25
338.305	3311.91667
342.301	3276.58333
346.294	3265.58333
350.283	3215.58333
354.269	3214.58333
358.252	3183.91667
362.232	3193.58333
366.209	3184.58333
370.182	3166.91667
374.152	3121.25
378.119	3131.58333
382.083	3122.58333
386.043	3165.58333
390	3118.58333
393.954	3121.25
397.905	3104.91667
401.852	3108.91667
405.797	3096.25
409.738	3111.25
413.676	3112.25
417.61	3160.91667
421.542	3115.58333
425.47	3093.58333
429.396	3049.91667
433.318	3065.25
437.236	3069.58333
441.152	3073.91667
445.065	3027.25
448.974	3010.91667
452.88	2997.58333
456.783	2984.25
460.683	2985.91667
464.58	2991.58333
468.473	2961.25
472.364	3001.25
476.251	3007.58333
480.135	3050.91667
484.016	3088.58333
487.894	3080.58333
491.769	3100.25
495.641	3093.58333
499.509	3103.58333
503.375	3111.58333
507.237	3104.91667
511.096	3099.58333
514.952	3095.91667
518.805	3071.91667
522.655	3104.58333
526.502	3050.91667
530.346	3027.25
534.187	3045.25
538.024	3038.25
541.859	3035.25
545.69	3077.91667
549.519	3037.58333
553.344	3026.25
557.166	3008.25
560.985	2972.58333
564.802	2934.25
568.615	2877.91667
572.425	2850.25
576.232	2838.91667
580.036	2826.58333
583.836	2844.25
587.634	2854.91667
591.429	2868.58333
595.221	2923.91667
599.01	2938.91667
602.796	2979.25
606.578	3007.91667
610.358	2983.58333
614.135	2973.58333
617.909	2985.91667
621.679	2949.58333
625.447	2921.58333
629.212	2910.91667
632.973	2901.58333
636.732	2911.58333
640.488	2896.25
644.241	2873.91667
647.991	2878.58333
651.737	2913.25
655.481	2875.58333
659.222	2890.58333
662.96	2880.91667
666.695	2867.91667
670.427	2908.58333
674.156	2914.25
677.882	2905.91667
681.605	2876.91667
685.325	2852.91667
689.043	2884.25
692.757	2854.91667
696.468	2867.91667
700.177	2863.91667
703.882	2831.58333
707.585	2808.25
711.284	2808.25
714.981	2833.25
718.675	2811.25
722.366	2823.25
726.054	2785.25
729.739	2802.25
733.421	2800.58333
737.1	2768.91667
740.777	2792.91667
744.45	2812.25
748.121	2820.25
751.789	2864.91667
755.453	2853.25
759.115	2869.58333
762.774	2897.91667
766.431	2912.91667
770.084	2912.91667
773.734	2926.91667
777.382	2957.91667
781.027	2995.91667
784.669	2982.91667
788.308	2990.91667
791.944	2980.58333
795.577	3008.91667
799.208	3027.91667
802.835	3019.91667
806.46	3031.91667
810.082	3051.58333
813.701	3076.91667
817.317	3110.58333
820.931	3105.58333
824.542	3083.25
828.149	3038.91667
831.754	3032.58333
835.357	2994.91667
838.956	3017.25
842.553	2989.58333
846.146	2969.25
849.737	2960.25
853.326	2945.91667
856.911	2938.91667
860.493	2985.58333
864.073	3002.91667
867.65	2993.91667
871.225	3031.58333
874.796	3005.91667
878.365	3023.58333
881.931	3051.25
885.494	3050.25
889.054	3059.58333
892.612	3062.25
896.166	3047.58333
899.719	2994.91667
903.268	2954.58333
906.814	2930.58333
910.358	2902.91667
913.899	2894.25
917.438	2908.25
920.973	2876.58333
924.506	2911.91667
928.036	2957.91667
931.564	3005.58333
935.088	3024.91667
938.61	3005.25
942.129	3031.58333
945.646	3094.25
949.16	3152.58333
952.671	3174.58333
956.179	3180.91667
959.685	3165.25
963.188	3166.25
966.688	3112.25
970.185	3050.91667
973.68	3018.58333
977.173	2932.25
980.662	2928.91667
984.149	2923.25
987.633	2881.58333
991.114	2920.91667
994.593	2986.91667
998.069	3041.91667
1001.542	3123.91667
1005.013	3077.91667
1008.481	2929.58333
1011.947	2896.25
1015.409	2875.91667
1018.869	2871.91667
1022.327	2871.91667
1025.782	2876.91667
1029.234	2848.91667
1032.683	2832.25
1036.13	2765.91667
1039.574	2660.58333
1043.016	2579.58333
1046.455	2541.58333
1049.891	2529.58333
1053.325	2555.91667
1056.756	2543.58333
1060.184	2553.58333
1063.61	2573.25
1067.033	2584.58333
1070.454	2585.91667
1073.872	2611.25
1077.287	2596.58333
1080.7	2599.91667
1084.11	2603.58333
1087.517	2578.25
1090.922	2550.58333
1094.325	2526.58333
1097.724	2509.25
1101.122	2501.58333
1104.516	2490.58333
1107.908	2495.91667
1111.298	2525.91667
1114.684	2548.58333
1118.069	2584.91667
1121.45	2608.25
1124.83	2567.25
1128.206	2600.25
1131.58	2650.58333
1134.951	2678.91667
1138.32	2735.58333
1141.687	2849.91667
1145.05	2895.91667
1148.412	2913.58333
1151.77	2907.58333
1155.126	2902.91667
1158.48	2872.91667
1161.831	2899.91667
1165.18	2896.25
1168.525	2970.58333
1171.869	2983.25
1175.21	3018.25
1178.548	3028.58333
1181.884	3024.25
1185.217	3055.58333
1188.548	3110.25
1191.877	3175.91667
1195.202	3227.25
1198.526	3266.58333
1201.846	3265.91667
1205.165	3282.91667
1208.48	3268.58333
1211.794	3252.25
1215.104	3258.91667
1218.413	3251.58333
1221.719	3247.58333
1225.022	3188.25
1228.323	3139.25
1231.621	3107.58333
1234.917	3103.58333
1238.21	3138.58333
1241.501	3106.91667
1244.79	3097.25
1248.076	3102.58333
1251.359	3141.25
1254.64	3207.58333
1257.919	3211.25
1261.195	3249.91667
1264.468	3291.58333
1267.74	3330.25
1271.008	3358.91667
1274.275	3327.25
1277.538	3318.25
1280.8	3309.58333
1284.059	3285.91667
1287.315	3330.58333
1290.569	3309.91667
1293.821	3308.91667
1297.07	3337.91667
1300.317	3393.58333
1303.562	3450.58333
1306.803	3314.58333
1310.043	3302.91667
1313.28	3255.91667
1316.515	3246.58333
1319.747	3241.91667
1322.977	3205.91667
1326.204	3177.91667
1329.429	3164.91667
1332.652	3178.25
1335.872	3124.25
1339.09	3146.25
1342.306	3127.91667
1345.519	3082.25
1348.729	3030.25
1351.938	3011.25
1355.144	2957.58333
1358.347	2900.25
1361.548	2903.91667
1364.747	2899.91667
1367.944	2840.25
1371.138	2840.58333
1374.329	2823.91667
1377.518	2844.25
1380.705	2854.58333
1383.89	2830.58333
1387.072	2758.25
1390.252	2696.91667
1393.429	2638.91667
1396.605	2587.91667
1399.777	2517.91667
1402.948	2474.58333
1406.116	2478.25
1409.282	2469.25
1412.445	2470.25
1415.606	2512.58333
1418.765	2529.91667
1421.921	2545.25
1425.075	2595.58333
1428.227	2643.91667
1431.376	2725.58333
1434.524	2841.91667
1437.668	2917.91667
1440.811	2955.58333
1443.951	2981.91667
1447.089	2985.91667
1450.224	2966.58333
1453.357	2973.58333
1456.488	2957.25
1459.617	2924.91667
1462.743	2895.25
1465.867	2826.58333
1468.989	2807.25
1472.108	2764.91667
1475.225	2719.25
1478.34	2687.91667
1481.453	2685.25
1484.563	2678.25
1487.671	2711.25
1490.776	2724.25
1493.88	2764.58333
1496.981	2769.58333
1500.08	2829.91667
1503.176	2870.58333
1506.271	2901.58333
1509.363	2940.91667
1512.452	2973.91667
1515.54	3012.91667
1518.625	3016.91667
1521.708	3099.91667
1524.789	3196.58333
1527.867	3318.58333
1530.944	3497.91667
1534.018	3606.58333
1537.089	3710.58333
1540.159	3714.25
1543.226	3679.91667
1546.291	3598.25
1549.354	3543.25
1552.415	3474.91667
1555.473	3333.91667
1558.529	3309.91667
1561.583	3262.58333
1564.634	3204.91667
1567.684	3179.91667
1570.731	3195.91667
1573.776	3213.58333
1576.819	3253.25
1579.859	3308.25
1582.898	3351.91667
1585.934	3371.91667
1588.968	3358.58333
1591.999	3366.58333
1595.029	3361.91667
1598.056	3364.91667
1601.081	3400.25
1604.104	3351.91667
1607.125	3330.25
1610.144	3291.91667
1613.16	3225.58333
1616.174	3199.25
1619.186	3151.25
1622.196	3086.91667
1625.203	3079.91667
1628.209	3060.91667
1631.212	3040.91667
1634.213	3047.58333
1637.212	3016.58333
1640.209	2966.25
1643.203	2904.25
1646.196	2780.91667
1649.186	2642.58333
1652.174	2550.91667
1655.16	2456.58333
1658.144	2392.58333
1661.125	2284.25
1664.105	2190.91667
1667.082	2091.91667
1670.057	2006.91667
1673.03	1899.58333
1676.001	1812.91667
1678.97	1739.91667
1681.937	1639.91667
1684.901	1545.25
1687.863	1520.25
1690.824	1462.91667
1693.782	1442.58333
1696.738	1382.58333
1699.692	1360.25
1702.643	1312.91667
1705.593	1313.58333
1708.54	1289.25
1711.486	1302.25
1714.429	1259.58333
1717.37	1263.91667
1720.309	1224.91667
1723.246	1264.25
1726.181	1216.58333
1729.113	1226.91667
1732.044	1211.91667
1734.972	1190.91667
1737.899	1195.25
1740.823	1218.25
1743.745	1201.25
1746.665	1158.91667
1749.583	1140.91667
1752.499	1119.58333
1755.413	1115.91667
1758.325	1096.91667
1761.235	1085.25
1764.142	1089.91667
1767.048	1060.25
1769.951	1066.91667
1772.852	1067.25
1775.752	1061.91667
1778.649	1039.25
1781.544	1054.58333
1784.437	1037.58333
1787.328	1036.58333
1790.217	1027.58333
1793.104	1002.25
1795.989	1010.91667
1798.872	1003.25
1801.753	1011.91667
1804.631	992.58333
1807.508	1014.25
1810.383	998.58333
1813.255	990.25
1816.126	989.25
1818.994	981.58333
1821.861	970.58333
1824.725	985.58333
1827.587	976.25
1830.448	969.91667
1833.306	938.58333
1836.162	963.91667
1839.017	938.25
1841.869	947.25
1844.719	950.25
1847.567	926.91667
1850.414	918.91667
1853.258	919.58333
1856.1	934.58333
1858.94	943.58333
1861.778	916.91667
1864.614	913.25
1867.448	919.58333
1870.28	906.25
1873.111	914.91667
1875.939	913.91667
1878.765	921.58333
1881.589	903.25
1884.411	899.91667
1887.231	918.91667
1890.049	902.25
1892.865	910.25
1895.68	896.58333
1898.492	893.25
1901.302	883.91667
1904.11	878.58333
1906.916	879.58333
1909.721	859.58333
1912.523	872.58333
1915.323	858.58333
1918.122	860.91667
1920.918	867.25
1923.712	842.91667
1926.505	841.91667
1929.295	828.25
1932.084	850.91667
1934.87	852.58333
1937.655	839.25
1940.438	839.91667
1943.218	834.58333
1945.997	845.25
1948.774	846.91667
1951.549	851.25
1954.322	840.91667
1957.093	822.91667
1959.862	822.58333
1962.629	822.25
1965.394	802.91667
1968.157	800.58333
1970.918	797.25
1973.678	796.58333
1976.435	815.58333
1979.19	792.91667
1981.944	789.25
1984.696	790.58333
1987.445	763.91667
1990.193	798.91667
1992.939	814.25
1995.683	785.91667
1998.425	759.91667
2001.165	792.25
2003.903	774.91667
2006.639	768.91667
2009.374	787.58333
2012.106	765.91667
2014.837	752.91667
2017.566	768.91667
2020.292	769.91667
2023.017	773.91667
2025.74	754.91667
2028.461	753.58333
2031.18	758.25
2033.898	742.25
2036.613	752.91667
2039.327	754.91667
2042.038	748.25
2044.748	734.25
2047.456	747.91667
2050.162	738.58333
2052.866	731.25
2055.568	748.58333
2058.268	722.91667
2060.967	726.25
2063.663	725.25
2066.358	727.91667
2069.051	716.58333
2071.742	726.25
2074.431	711.25
2077.118	709.58333
2079.804	700.58333
2082.487	722.91667
2085.169	737.25
2087.849	735.58333
2090.527	723.91667
2093.203	725.25
2095.877	729.58333
2098.55	729.58333
2101.22	736.58333
2103.889	740.58333
2106.556	743.58333
2109.221	753.91667
2111.884	743.91667
2114.546	785.58333
2117.205	793.58333
2119.863	837.25
2122.519	857.58333
2125.173	900.25
2127.825	957.58333
2130.475	963.91667
2133.124	958.58333
2135.771	921.25
2138.416	905.25
2141.059	862.58333
2143.7	837.91667
2146.339	806.25
2148.977	760.91667
2151.613	766.91667
2154.247	728.58333
2156.879	724.58333
2159.51	698.91667
2162.138	689.91667
2164.765	699.91667
2167.39	670.58333
2170.013	702.58333
2172.634	681.25
2175.254	686.58333
2177.872	695.25
2180.488	650.58333
2183.102	658.58333
2185.714	644.58333
2188.325	632.58333
2190.934	639.25
2193.541	650.58333
2196.146	628.91667
2198.75	615.58333
2201.351	613.91667
2203.951	599.58333
2206.549	612.91667
2209.146	607.91667
2211.74	611.91667
2214.333	612.58333
2216.924	586.91667
2219.514	595.58333
2222.101	590.58333
2224.687	601.91667
2227.271	593.25
2229.853	574.58333
2232.433	571.58333
2235.012	585.25
2237.589	581.25
2240.164	592.25
2242.738	579.91667
2245.309	568.25
2247.879	573.25
2250.448	579.25
2253.014	541.25
2255.579	530.58333
2258.142	549.91667
2260.703	543.91667
2263.262	548.58333
2265.82	538.25
2268.376	532.58333
2270.93	525.58333
2273.483	525.58333
2276.033	541.58333
2278.583	527.91667
2281.13	528.25
2283.675	512.58333
2286.219	519.58333
2288.761	528.58333
2291.302	518.91667
2293.841	520.58333
2296.377	511.58333
2298.913	515.25
2301.446	519.91667
2303.978	505.25
2306.508	513.58333
2309.037	508.91667
2311.563	501.25
2314.088	510.91667
2316.612	479.58333
2319.133	497.91667
2321.653	499.91667
2324.171	484.58333
2326.688	506.58333
2329.202	483.91667
2331.715	489.25
2334.227	478.91667
2336.736	491.58333
2339.244	478.25
2341.751	471.25
2344.255	484.25
2346.758	483.58333
2349.259	456.91667
2351.759	483.25
2354.257	467.58333
2356.753	463.25
2359.247	454.91667
2361.74	470.25
2364.231	469.91667
2366.721	466.25
2369.209	461.91667
2371.695	467.25
2374.179	461.25
2376.662	446.58333
2379.143	472.58333
2381.622	460.91667
2384.1	467.58333
2386.576	446.25
2389.051	469.58333
2391.524	472.58333
2393.995	455.91667
2396.464	465.58333
2398.932	452.25
2401.398	445.91667
2403.863	444.58333
2406.325	441.91667
2408.787	453.25
2411.246	444.25
2413.704	449.91667
2416.16	440.91667
2418.615	434.58333
2421.068	450.58333
2423.519	450.25
2425.969	435.25
2428.417	437.58333
2430.863	464.91667
2433.308	446.25
2435.751	438.25
2438.193	431.25
2440.633	440.58333
2443.071	439.58333
2445.508	421.91667
2447.943	423.58333
2450.376	420.91667
2452.808	429.58333
2455.238	422.25
2457.667	458.58333
2460.093	416.25
2462.519	420.91667
2464.942	423.58333
2467.365	424.58333
2469.785	423.91667
2472.204	421.58333
2474.621	411.25
2477.037	423.91667
2479.451	404.58333
2481.863	401.58333
2484.274	409.25
2486.683	419.25
2489.091	415.91667
2491.497	412.58333
2493.901	417.58333
2496.304	403.91667
2498.705	407.91667
2501.105	410.58333
2503.503	428.25
2505.899	392.58333
2508.294	416.25
2510.687	400.91667
2513.079	415.91667
2515.469	390.25
2517.858	394.58333
2520.245	406.58333
2522.63	398.25
2525.014	390.58333
2527.396	394.58333
2529.776	384.91667
2532.156	407.58333
2534.533	387.25
2536.909	385.25
2539.283	376.25
2541.656	376.91667
2544.027	398.58333
2546.397	389.58333
2548.765	389.58333
2551.131	389.25
2553.496	385.91667
2555.86	390.25
2558.221	386.58333
2560.582	378.91667
2562.94	373.58333
2565.298	379.25
2567.653	392.91667
2570.007	365.25
2572.36	382.91667
2574.711	364.91667
2577.06	387.58333
2579.408	391.91667
2581.754	374.25
2584.099	382.91667
2586.442	375.58333
2588.784	375.25
2591.124	376.25
2593.463	373.25
2595.8	388.25
2598.135	358.25
2600.469	365.91667
2602.802	380.91667
2605.133	381.58333
2607.462	366.25
2609.79	354.58333
2612.116	375.58333
2614.441	372.25
2616.764	366.91667
2619.086	368.91667
2621.406	354.25
2623.725	384.25
2626.042	377.58333
2628.358	364.25
2630.672	359.58333
2632.985	382.91667
2635.296	372.58333
2637.606	376.25
2639.914	345.91667
2642.22	363.25
2644.525	363.58333
2646.829	375.25
2649.131	378.58333
2651.432	381.91667
2653.731	369.91667
2656.028	378.91667
2658.324	380.58333
2660.619	361.58333
2662.912	375.91667
2665.204	364.91667
2667.494	375.91667
2669.782	364.91667
2672.07	373.25
2674.355	375.91667
2676.639	363.58333
2678.922	355.58333
2681.203	366.25
2683.483	359.25
2685.761	355.58333
2688.038	375.25
2690.313	380.25
2692.587	371.58333
2694.859	366.58333
2697.13	371.91667
2699.399	369.25
2701.667	377.25
2703.933	374.25
2706.198	370.91667
2708.461	376.25
2710.723	389.91667
2712.984	371.58333
2715.243	374.25
2717.5	370.25
2719.757	389.91667
2722.011	375.91667
2724.264	387.58333
2726.516	390.58333
2728.766	375.25
2731.015	383.25
2733.262	386.25
2735.508	391.58333
2737.753	382.58333
2739.996	372.25
2742.237	366.25
2744.477	386.25
2746.716	381.91667
2748.953	366.91667
2751.189	381.25
2753.423	364.25
2755.656	359.91667
2757.887	353.58333
2760.117	362.25
2762.346	349.58333
2764.573	350.91667
2766.798	361.25
2769.022	354.25
2771.245	359.58333
2773.467	357.58333
2775.686	360.25
2777.905	358.91667
2780.122	374.25
2782.337	371.58333
2784.552	367.25
2786.764	365.91667
2788.976	368.91667
2791.186	368.58333
2793.394	376.58333
2795.601	372.25
2797.807	380.91667
2800.011	381.91667
2802.214	388.58333
2804.415	383.58333
2806.615	381.58333
2808.814	379.91667
2811.011	384.58333
2813.206	386.91667
2815.401	406.58333
2817.594	402.25
2819.785	408.91667
2821.975	396.91667
2824.164	399.25
2826.351	411.58333
2828.537	427.91667
2830.722	425.25
2832.905	419.58333
2835.086	456.25
2837.267	469.25
2839.445	477.25
2841.623	489.25
2843.799	504.25
2845.974	521.58333
2848.147	542.25
2850.319	549.91667
2852.489	585.58333
2854.659	583.58333
2856.826	598.58333
2858.993	626.91667
2861.158	600.25
2863.321	612.91667
2865.483	619.25
2867.644	612.91667
2869.804	606.25
2871.962	606.91667
2874.118	610.58333
2876.274	603.58333
2878.428	609.91667
2880.58	599.91667
2882.731	599.58333
2884.881	598.25
2887.03	606.91667
2889.177	604.91667
2891.322	614.25
2893.467	604.25
2895.61	613.58333
2897.751	634.58333
2899.892	613.25
2902.03	623.25
2904.168	616.91667
2906.304	621.25
2908.439	646.91667
2910.572	630.25
2912.704	650.25
2914.835	641.58333
2916.965	634.91667
2919.093	660.25
2921.219	632.25
2923.345	651.25
2925.469	632.25
2927.591	626.58333
2929.712	605.25
2931.832	600.25
2933.951	595.58333
2936.068	587.25
2938.184	583.25
2940.299	564.58333
2942.412	551.25
2944.524	526.25
2946.634	530.25
2948.744	483.58333
2950.851	516.25
2952.958	483.25
2955.063	485.25
2957.167	483.25
2959.269	444.91667
2961.371	481.91667
2963.471	449.58333
2965.569	455.25
2967.666	432.58333
2969.762	424.91667
2971.857	415.58333
2973.95	401.91667
2976.042	408.91667
2978.133	391.25
2980.222	380.91667
2982.31	368.91667
2984.396	361.58333
2986.482	360.91667
2988.566	363.58333
2990.648	354.25
2992.73	350.58333
2994.81	346.58333
2996.889	360.25
2998.966	352.91667
3001.042	357.91667
3003.117	351.58333
3005.191	348.25
3007.263	352.58333
3009.334	336.25
3011.403	343.58333
3013.472	331.25
3015.539	341.91667
3017.604	343.91667
3019.669	309.58333
3021.732	319.91667
3023.794	324.58333
3025.854	314.91667
3027.914	317.25
3029.971	320.25
3032.028	318.91667
3034.083	317.58333
3036.137	316.91667
3038.19	305.58333
3040.242	297.58333
3042.292	283.25
3044.341	296.58333
3046.388	306.91667
3048.435	280.91667
3050.48	297.25
3052.524	291.91667
3054.566	277.25
3056.607	287.91667
3058.647	277.91667
3060.686	265.58333
3062.723	257.91667
3064.759	252.25
3066.794	-0.41667
3068.828	2.91667
3070.86	1.91667
