-0.839	644.70833
3.438	771.04167
7.711	217.70833
11.981	65.70833
16.247	45.04167
20.509	51.375
24.768	45.04167
29.024	56.375
33.276	43.375
37.524	49.375
41.769	46.04167
46.01	36.04167
50.247	45.375
54.481	56.04167
58.712	62.375
62.939	46.375
67.162	62.375
71.382	53.375
75.599	46.04167
79.812	62.70833
84.021	78.04167
88.227	61.04167
92.429	59.04167
96.628	48.375
100.823	73.375
105.015	73.375
109.204	65.70833
113.388	76.04167
117.57	73.04167
121.748	88.375
125.922	75.375
130.093	96.375
134.261	93.70833
138.425	92.04167
142.585	136.04167
146.742	126.375
150.896	156.70833
155.046	195.375
159.193	308.04167
163.336	503.04167
167.476	932.04167
171.613	1699.70833
175.746	2826.04167
179.875	4141.70833
184.002	5341.70833
188.124	6205.04167
192.244	6526.375
196.36	6449.375
200.472	6273.375
204.581	6152.70833
208.687	5987.70833
212.79	5891.04167
216.889	5907.375
220.984	5856.04167
225.077	5872.375
229.165	5860.70833
233.251	5862.04167
237.333	5819.375
241.412	5795.04167
245.487	5726.04167
249.559	5668.04167
253.628	5624.70833
257.694	5560.04167
261.756	5509.04167
265.814	5361.70833
269.87	5267.375
273.922	5070.70833
277.97	4973.70833
282.016	4849.375
286.058	4786.70833
290.097	4819.70833
294.132	4798.375
298.164	4771.70833
302.193	4579.375
306.219	4335.04167
310.241	4074.04167
314.26	3796.70833
318.276	3608.375
322.288	3461.04167
326.297	3317.375
330.303	3222.375
334.305	3166.70833
338.305	3116.04167
342.301	3105.70833
346.294	3061.375
350.283	3041.04167
354.269	3016.375
358.252	3009.04167
362.232	2994.375
366.209	2972.04167
370.182	2953.04167
374.152	2927.70833
378.119	2968.70833
382.083	2924.04167
386.043	2938.04167
390	2906.375
393.954	2943.375
397.905	2927.70833
401.852	2921.70833
405.797	2893.375
409.738	2908.375
413.676	2933.375
417.61	2925.375
421.542	2934.70833
425.47	2876.70833
429.396	2882.375
433.318	2844.04167
437.236	2842.375
441.152	2849.375
445.065	2849.70833
448.974	2837.375
452.88	2805.375
456.783	2781.04167
460.683	2780.04167
464.58	2793.04167
468.473	2779.04167
472.364	2801.04167
476.251	2801.70833
480.135	2833.375
484.016	2869.70833
487.894	2900.375
491.769	2886.70833
495.641	2895.04167
499.509	2895.375
503.375	2886.70833
507.237	2872.375
511.096	2853.04167
514.952	2867.375
518.805	2880.70833
522.655	2904.04167
526.502	2850.04167
530.346	2832.375
534.187	2841.375
538.024	2835.04167
541.859	2831.04167
545.69	2868.04167
549.519	2850.70833
553.344	2840.70833
557.166	2795.04167
560.985	2758.04167
564.802	2732.375
568.615	2696.375
572.425	2653.375
576.232	2661.375
580.036	2647.375
583.836	2624.70833
587.634	2662.04167
591.429	2663.70833
595.221	2719.70833
599.01	2748.375
602.796	2784.04167
606.578	2789.70833
610.358	2783.04167
614.135	2774.70833
617.909	2784.70833
621.679	2743.375
625.447	2729.04167
629.212	2727.70833
632.973	2698.04167
636.732	2696.375
640.488	2692.70833
644.241	2683.04167
647.991	2696.375
651.737	2703.70833
655.481	2661.70833
659.222	2684.04167
662.96	2680.375
666.695	2692.375
670.427	2704.04167
674.156	2705.70833
677.882	2679.375
681.605	2714.70833
685.325	2694.04167
689.043	2683.375
692.757	2664.70833
696.468	2651.70833
700.177	2661.70833
703.882	2650.70833
707.585	2613.375
711.284	2617.375
714.981	2638.04167
718.675	2610.375
722.366	2634.375
726.054	2625.04167
729.739	2592.70833
733.421	2604.375
737.1	2615.70833
740.777	2613.375
744.45	2642.375
748.121	2623.04167
751.789	2687.70833
755.453	2657.375
759.115	2703.04167
762.774	2693.375
766.431	2715.375
770.084	2734.375
773.734	2746.04167
777.382	2785.04167
781.027	2801.375
784.669	2798.375
788.308	2803.375
791.944	2825.375
795.577	2810.70833
799.208	2852.04167
802.835	2825.70833
806.46	2824.70833
810.082	2868.04167
813.701	2849.70833
817.317	2885.375
820.931	2882.375
824.542	2891.04167
828.149	2855.375
831.754	2831.70833
835.357	2825.70833
838.956	2823.375
842.553	2808.04167
846.146	2833.04167
849.737	2761.375
853.326	2776.70833
856.911	2766.04167
860.493	2784.04167
864.073	2795.375
867.65	2831.70833
871.225	2854.70833
874.796	2846.04167
878.365	2856.04167
881.931	2850.375
885.494	2878.375
889.054	2868.04167
892.612	2875.04167
896.166	2861.375
899.719	2815.04167
903.268	2785.375
906.814	2758.04167
910.358	2747.375
913.899	2736.04167
917.438	2722.70833
920.973	2682.04167
924.506	2734.375
928.036	2766.70833
931.564	2797.375
935.088	2828.375
938.61	2828.375
942.129	2876.375
945.646	2909.70833
949.16	2946.04167
952.671	2985.375
956.179	2964.375
959.685	2963.70833
963.188	2977.04167
966.688	2919.375
970.185	2842.70833
973.68	2793.04167
977.173	2769.70833
980.662	2728.375
984.149	2735.70833
987.633	2676.375
991.114	2728.375
994.593	2769.04167
998.069	2845.04167
1001.542	2909.04167
1005.013	2862.70833
1008.481	2729.04167
1011.947	2701.70833
1015.409	2675.70833
1018.869	2691.70833
1022.327	2693.04167
1025.782	2644.04167
1029.234	2653.375
1032.683	2630.375
1036.13	2568.04167
1039.574	2494.375
1043.016	2405.375
1046.455	2389.375
1049.891	2361.375
1053.325	2373.375
1056.756	2363.70833
1060.184	2399.375
1063.61	2387.375
1067.033	2415.375
1070.454	2404.375
1073.872	2430.04167
1077.287	2444.375
1080.7	2424.70833
1084.11	2415.04167
1087.517	2402.375
1090.922	2362.375
1094.325	2353.04167
1097.724	2332.70833
1101.122	2340.375
1104.516	2329.70833
1107.908	2315.375
1111.298	2377.70833
1114.684	2354.70833
1118.069	2425.04167
1121.45	2442.70833
1124.83	2427.375
1128.206	2479.04167
1131.58	2465.375
1134.951	2540.375
1138.32	2607.70833
1141.687	2687.70833
1145.05	2733.04167
1148.412	2739.70833
1151.77	2731.70833
1155.126	2730.04167
1158.48	2728.04167
1161.831	2753.70833
1165.18	2725.70833
1168.525	2785.375
1171.869	2813.04167
1175.21	2816.375
1178.548	2850.375
1181.884	2876.375
1185.217	2872.375
1188.548	2936.375
1191.877	2945.375
1195.202	3022.04167
1198.526	3073.375
1201.846	3102.375
1205.165	3091.375
1208.48	3081.04167
1211.794	3074.04167
1215.104	3043.70833
1218.413	3049.375
1221.719	3047.375
1225.022	2999.375
1228.323	2937.04167
1231.621	2927.375
1234.917	2888.70833
1238.21	2902.04167
1241.501	2903.375
1244.79	2902.04167
1248.076	2899.04167
1251.359	2949.375
1254.64	3021.04167
1257.919	3018.04167
1261.195	3051.375
1264.468	3113.04167
1267.74	3131.04167
1271.008	3147.375
1274.275	3136.04167
1277.538	3124.375
1280.8	3104.04167
1284.059	3102.04167
1287.315	3121.70833
1290.569	3106.375
1293.821	3128.04167
1297.07	3112.04167
1300.317	3125.04167
1303.562	3130.70833
1306.803	3102.04167
1310.043	3101.375
1313.28	3054.04167
1316.515	3035.70833
1319.747	3040.375
1322.977	2981.375
1326.204	2984.04167
1329.429	2938.04167
1332.652	2968.04167
1335.872	2948.70833
1339.09	2920.04167
1342.306	2902.04167
1345.519	2861.70833
1348.729	2804.375
1351.938	2779.375
1355.144	2742.04167
1358.347	2700.70833
1361.548	2697.375
1364.747	2676.04167
1367.944	2648.04167
1371.138	2645.70833
1374.329	2627.04167
1377.518	2665.04167
1380.705	2640.04167
1383.89	2642.04167
1387.072	2594.375
1390.252	2502.04167
1393.429	2458.375
1396.605	2395.375
1399.777	2335.375
1402.948	2323.04167
1406.116	2312.375
1409.282	2290.70833
1412.445	2299.375
1415.606	2338.04167
1418.765	2332.04167
1421.921	2375.375
1425.075	2416.70833
1428.227	2452.375
1431.376	2563.375
1434.524	2653.375
1437.668	2732.04167
1440.811	2754.04167
1443.951	2782.70833
1447.089	2786.70833
1450.224	2785.70833
1453.357	2788.375
1456.488	2763.04167
1459.617	2725.375
1462.743	2703.70833
1465.867	2637.04167
1468.989	2617.70833
1472.108	2598.375
1475.225	2537.70833
1478.34	2528.04167
1481.453	2520.375
1484.563	2494.375
1487.671	2519.04167
1490.776	2539.04167
1493.88	2580.70833
1496.981	2610.70833
1500.08	2640.70833
1503.176	2675.375
1506.271	2708.375
1509.363	2745.70833
1512.452	2749.70833
1515.54	2793.04167
1518.625	2826.375
1521.708	2916.70833
1524.789	2998.04167
1527.867	3101.375
1530.944	3240.375
1534.018	3371.375
1537.089	3446.375
1540.159	3468.70833
1543.226	3466.04167
1546.291	3381.375
1549.354	3345.375
1552.415	3277.04167
1555.473	3134.70833
1558.529	3058.04167
1561.583	3026.04167
1564.634	2979.04167
1567.684	3009.375
1570.731	3024.70833
1573.776	3058.375
1576.819	3082.375
1579.859	3107.375
1582.898	3157.04167
1585.934	3199.04167
1588.968	3182.375
1591.999	3194.375
1595.029	3187.70833
1598.056	3208.04167
1601.081	3218.70833
1604.104	3199.375
1607.125	3161.375
1610.144	3086.04167
1613.16	3034.04167
1616.174	2995.70833
1619.186	2941.04167
1622.196	2879.70833
1625.203	2846.70833
1628.209	2829.375
1631.212	2789.375
1634.213	2804.70833
1637.212	2770.04167
1640.209	2715.04167
1643.203	2625.375
1646.196	2518.70833
1649.186	2427.375
1652.174	2350.04167
1655.16	2257.70833
1658.144	2204.70833
1661.125	2090.04167
1664.105	2037.04167
1667.082	1934.375
1670.057	1866.375
1673.03	1777.375
1676.001	1680.70833
1678.97	1597.70833
1681.937	1519.375
1684.901	1457.04167
1687.863	1411.04167
1690.824	1347.04167
1693.782	1337.375
1696.738	1276.70833
1699.692	1248.70833
1702.643	1226.04167
1705.593	1219.70833
1708.54	1193.375
1711.486	1219.70833
1714.429	1166.04167
1717.37	1182.70833
1720.309	1149.04167
1723.246	1148.04167
1726.181	1130.375
1729.113	1125.70833
1732.044	1104.375
1734.972	1108.375
1737.899	1131.04167
1740.823	1092.70833
1743.745	1115.04167
1746.665	1070.70833
1749.583	1051.70833
1752.499	1037.70833
1755.413	1028.04167
1758.325	1013.04167
1761.235	1006.375
1764.142	989.375
1767.048	981.375
1769.951	997.70833
1772.852	971.375
1775.752	969.04167
1778.649	967.04167
1781.544	978.375
1784.437	944.375
1787.328	968.70833
1790.217	935.70833
1793.104	922.375
1795.989	919.375
1798.872	915.70833
1801.753	927.70833
1804.631	913.04167
1807.508	934.70833
1810.383	928.375
1813.255	910.70833
1816.126	914.375
1818.994	909.70833
1821.861	900.375
1824.725	900.375
1827.587	901.375
1830.448	893.375
1833.306	869.04167
1836.162	872.375
1839.017	869.70833
1841.869	873.375
1844.719	854.70833
1847.567	843.375
1850.414	828.04167
1853.258	839.375
1856.1	860.70833
1858.94	862.04167
1861.778	842.04167
1864.614	848.04167
1867.448	844.375
1870.28	829.375
1873.111	860.70833
1875.939	841.04167
1878.765	848.70833
1881.589	823.04167
1884.411	834.375
1887.231	834.70833
1890.049	828.70833
1892.865	825.04167
1895.68	806.375
1898.492	830.04167
1901.302	808.375
1904.11	811.375
1906.916	805.04167
1909.721	791.375
1912.523	789.70833
1915.323	782.70833
1918.122	782.375
1920.918	784.70833
1923.712	764.375
1926.505	767.70833
1929.295	758.04167
1932.084	778.04167
1934.87	777.04167
1937.655	777.375
1940.438	764.375
1943.218	767.70833
1945.997	776.375
1948.774	784.375
1951.549	775.375
1954.322	768.375
1957.093	762.70833
1959.862	758.375
1962.629	743.04167
1965.394	749.70833
1968.157	733.70833
1970.918	747.04167
1973.678	732.04167
1976.435	736.70833
1979.19	730.04167
1981.944	708.375
1984.696	727.04167
1987.445	722.375
1990.193	734.70833
1992.939	730.375
1995.683	722.70833
1998.425	703.70833
2001.165	736.04167
2003.903	710.04167
2006.639	723.375
2009.374	717.04167
2012.106	716.04167
2014.837	700.375
2017.566	709.375
2020.292	711.375
2023.017	710.04167
2025.74	689.04167
2028.461	691.70833
2031.18	696.04167
2033.898	683.375
2036.613	688.375
2039.327	691.70833
2042.038	685.375
2044.748	680.375
2047.456	683.70833
2050.162	668.375
2052.866	668.04167
2055.568	678.70833
2058.268	673.375
2060.967	676.04167
2063.663	662.04167
2066.358	657.70833
2069.051	651.70833
2071.742	668.375
2074.431	677.70833
2077.118	664.70833
2079.804	655.04167
2082.487	660.70833
2085.169	673.04167
2087.849	674.375
2090.527	655.375
2093.203	666.375
2095.877	675.70833
2098.55	672.04167
2101.22	671.04167
2103.889	683.04167
2106.556	675.375
2109.221	690.04167
2111.884	690.04167
2114.546	719.04167
2117.205	740.375
2119.863	771.375
2122.519	793.04167
2125.173	830.70833
2127.825	873.70833
2130.475	887.375
2133.124	859.70833
2135.771	851.375
2138.416	826.375
2141.059	780.04167
2143.7	766.04167
2146.339	739.04167
2148.977	698.04167
2151.613	688.375
2154.247	678.375
2156.879	659.04167
2159.51	641.70833
2162.138	639.375
2164.765	632.375
2167.39	609.04167
2170.013	634.375
2172.634	628.70833
2175.254	606.04167
2177.872	644.04167
2180.488	593.70833
2183.102	604.375
2185.714	601.70833
2188.325	576.70833
2190.934	587.375
2193.541	592.04167
2196.146	575.375
2198.75	570.375
2201.351	560.375
2203.951	555.375
2206.549	579.70833
2209.146	559.70833
2211.74	562.375
2214.333	574.70833
2216.924	544.04167
2219.514	545.70833
2222.101	538.70833
2224.687	568.70833
2227.271	548.04167
2229.853	539.375
2232.433	529.70833
2235.012	549.375
2237.589	540.375
2240.164	543.375
2242.738	532.04167
2245.309	520.04167
2247.879	533.70833
2250.448	537.04167
2253.014	514.375
2255.579	501.375
2258.142	515.375
2260.703	498.375
2263.262	512.375
2265.82	507.04167
2268.376	514.04167
2270.93	494.375
2273.483	485.04167
2276.033	496.04167
2278.583	492.70833
2281.13	485.70833
2283.675	479.375
2286.219	472.04167
2288.761	480.04167
2291.302	476.375
2293.841	483.70833
2296.377	463.375
2298.913	474.375
2301.446	483.375
2303.978	474.04167
2306.508	461.375
2309.037	475.375
2311.563	467.375
2314.088	461.70833
2316.612	449.70833
2319.133	456.375
2321.653	462.375
2324.171	452.375
2326.688	463.375
2329.202	455.70833
2331.715	460.70833
2334.227	450.375
2336.736	453.70833
2339.244	451.04167
2341.751	435.04167
2344.255	462.04167
2346.758	456.375
2349.259	435.04167
2351.759	438.375
2354.257	443.375
2356.753	432.70833
2359.247	438.70833
2361.74	432.375
2364.231	440.04167
2366.721	432.04167
2369.209	429.70833
2371.695	434.04167
2374.179	433.04167
2376.662	409.375
2379.143	440.375
2381.622	431.04167
2384.1	430.70833
2386.576	417.70833
2389.051	428.70833
2391.524	432.375
2393.995	434.375
2396.464	425.70833
2398.932	413.70833
2401.398	411.375
2403.863	414.375
2406.325	406.04167
2408.787	417.70833
2411.246	408.70833
2413.704	402.04167
2416.16	403.375
2418.615	405.04167
2421.068	415.70833
2423.519	408.375
2425.969	396.375
2428.417	403.70833
2430.863	435.375
2433.308	413.70833
2435.751	410.375
2438.193	413.375
2440.633	404.70833
2443.071	398.04167
2445.508	400.70833
2447.943	399.04167
2450.376	391.04167
2452.808	397.70833
2455.238	391.70833
2457.667	433.04167
2460.093	389.375
2462.519	384.04167
2464.942	392.375
2467.365	392.04167
2469.785	401.375
2472.204	386.70833
2474.621	383.375
2477.037	399.04167
2479.451	368.375
2481.863	374.375
2484.274	376.70833
2486.683	385.70833
2489.091	389.70833
2491.497	374.375
2493.901	387.70833
2496.304	371.04167
2498.705	388.70833
2501.105	369.375
2503.503	406.375
2505.899	361.70833
2508.294	381.375
2510.687	379.375
2513.079	372.375
2515.469	360.70833
2517.858	372.04167
2520.245	385.70833
2522.63	366.04167
2525.014	362.04167
2527.396	354.04167
2529.776	362.04167
2532.156	379.04167
2534.533	359.70833
2536.909	351.375
2539.283	347.04167
2541.656	357.375
2544.027	371.375
2546.397	364.70833
2548.765	347.70833
2551.131	358.70833
2553.496	359.04167
2555.86	360.04167
2558.221	352.70833
2560.582	354.375
2562.94	342.375
2565.298	355.70833
2567.653	377.04167
2570.007	341.375
2572.36	362.375
2574.711	345.375
2577.06	363.375
2579.408	352.70833
2581.754	347.375
2584.099	353.375
2586.442	349.70833
2588.784	355.04167
2591.124	354.375
2593.463	346.70833
2595.8	351.375
2598.135	334.04167
2600.469	340.70833
2602.802	352.04167
2605.133	359.70833
2607.462	335.375
2609.79	332.04167
2612.116	342.04167
2614.441	347.04167
2616.764	339.70833
2619.086	335.375
2621.406	332.375
2623.725	348.375
2626.042	353.375
2628.358	339.375
2630.672	329.375
2632.985	359.70833
2635.296	343.375
2637.606	339.04167
2639.914	330.70833
2642.22	338.375
2644.525	338.04167
2646.829	342.70833
2649.131	349.04167
2651.432	352.375
2653.731	341.04167
2656.028	354.04167
2658.324	349.04167
2660.619	339.70833
2662.912	346.70833
2665.204	332.70833
2667.494	342.04167
2669.782	338.70833
2672.07	352.04167
2674.355	352.70833
2676.639	342.375
2678.922	330.375
2681.203	338.375
2683.483	328.375
2685.761	333.70833
2688.038	351.04167
2690.313	361.04167
2692.587	337.04167
2694.859	343.70833
2697.13	345.04167
2699.399	340.04167
2701.667	353.375
2703.933	346.375
2706.198	347.70833
2708.461	353.04167
2710.723	357.04167
2712.984	354.04167
2715.243	352.375
2717.5	340.04167
2719.757	364.70833
2722.011	354.70833
2724.264	365.375
2726.516	364.04167
2728.766	353.04167
2731.015	362.375
2733.262	360.70833
2735.508	355.70833
2737.753	358.70833
2739.996	348.375
2742.237	345.375
2744.477	356.375
2746.716	366.375
2748.953	357.04167
2751.189	355.375
2753.423	348.04167
2755.656	339.04167
2757.887	333.375
2760.117	337.375
2762.346	330.70833
2764.573	322.70833
2766.798	332.04167
2769.022	327.375
2771.245	341.375
2773.467	336.70833
2775.686	337.04167
2777.905	333.70833
2780.122	343.375
2782.337	344.04167
2784.552	338.375
2786.764	338.70833
2788.976	347.04167
2791.186	341.375
2793.394	349.70833
2795.601	354.70833
2797.807	355.375
2800.011	365.375
2802.214	365.04167
2804.415	356.04167
2806.615	361.375
2808.814	362.04167
2811.011	368.70833
2813.206	368.375
2815.401	380.375
2817.594	374.04167
2819.785	389.70833
2821.975	378.375
2824.164	385.375
2826.351	404.70833
2828.537	403.70833
2830.722	409.375
2832.905	414.375
2835.086	438.375
2837.267	448.70833
2839.445	448.375
2841.623	471.375
2843.799	480.70833
2845.974	512.375
2848.147	531.04167
2850.319	543.04167
2852.489	574.70833
2854.659	582.70833
2856.826	585.04167
2858.993	617.70833
2861.158	589.375
2863.321	585.04167
2865.483	605.375
2867.644	596.70833
2869.804	589.04167
2871.962	602.375
2874.118	592.70833
2876.274	595.04167
2878.428	606.70833
2880.58	586.70833
2882.731	581.375
2884.881	580.04167
2887.03	596.04167
2889.177	598.04167
2891.322	612.375
2893.467	602.04167
2895.61	599.70833
2897.751	622.70833
2899.892	605.04167
2902.03	612.70833
2904.168	617.04167
2906.304	621.04167
2908.439	632.70833
2910.572	616.375
2912.704	629.04167
2914.835	624.375
2916.965	619.04167
2919.093	636.375
2921.219	623.04167
2923.345	640.04167
2925.469	606.375
2927.591	622.04167
2929.712	594.375
2931.832	605.70833
2933.951	591.70833
2936.068	574.04167
2938.184	561.375
2940.299	542.70833
2942.412	540.375
2944.524	509.04167
2946.634	511.375
2948.744	466.375
2950.851	496.70833
2952.958	461.70833
2955.063	470.04167
2957.167	458.04167
2959.269	434.70833
2961.371	461.04167
2963.471	426.375
2965.569	433.375
2967.666	399.04167
2969.762	403.04167
2971.857	400.70833
2973.95	381.375
2976.042	381.04167
2978.133	366.70833
2980.222	359.375
2982.31	354.04167
2984.396	341.04167
2986.482	348.04167
2988.566	339.04167
2990.648	336.04167
2992.73	336.04167
2994.81	325.04167
2996.889	326.375
2998.966	327.70833
3001.042	333.04167
3003.117	319.70833
3005.191	319.375
3007.263	322.375
3009.334	306.70833
3011.403	313.70833
3013.472	312.04167
3015.539	315.70833
3017.604	320.375
3019.669	280.70833
3021.732	296.375
3023.794	295.375
3025.854	285.375
3027.914	293.70833
3029.971	298.70833
3032.028	286.375
3034.083	290.70833
3036.137	291.70833
3038.19	281.04167
3040.242	268.375
3042.292	269.04167
3044.341	268.04167
3046.388	277.70833
3048.435	261.70833
3050.48	281.375
3052.524	266.04167
3054.566	252.04167
3056.607	262.04167
3058.647	261.70833
3060.686	244.375
3062.723	241.375
3064.759	217.70833
3066.794	0.04167
3068.828	3.04167
3070.86	1.04167
