-0.839	479.54167
3.438	572.54167
7.711	177.20833
11.981	60.20833
16.247	46.875
20.509	50.20833
24.768	45.875
29.024	50.20833
33.276	43.875
37.524	47.20833
41.769	45.875
46.01	29.875
50.247	42.54167
54.481	58.875
58.712	64.875
62.939	51.20833
67.162	62.54167
71.382	57.54167
75.599	45.875
79.812	63.54167
84.021	75.54167
88.227	63.54167
92.429	60.54167
96.628	53.54167
100.823	72.875
105.015	77.20833
109.204	71.20833
113.388	75.20833
117.57	76.875
121.748	87.54167
125.922	77.20833
130.093	97.875
134.261	101.54167
138.425	95.54167
142.585	137.54167
146.742	127.54167
150.896	165.54167
155.046	210.54167
159.193	332.54167
163.336	560.875
167.476	1024.875
171.613	1870.875
175.746	3090.20833
179.875	4482.54167
184.002	5772.875
188.124	6687.20833
192.244	6932.20833
196.36	6838.54167
200.472	6674.20833
204.581	6504.54167
208.687	6302.875
212.79	6243.20833
216.889	6265.20833
220.984	6265.54167
225.077	6322.54167
229.165	6341.875
233.251	6354.875
237.333	6330.54167
241.412	6256.875
245.487	6219.54167
249.559	6136.875
253.628	6084.875
257.694	6030.875
261.756	5956.20833
265.814	5828.54167
269.87	5586.875
273.922	5367.875
277.97	5218.54167
282.016	5044.54167
286.058	4970.54167
290.097	4984.875
294.132	4976.54167
298.164	4910.20833
302.193	4717.875
306.219	4447.875
310.241	4082.54167
314.26	3764.875
318.276	3541.54167
322.288	3399.54167
326.297	3269.54167
330.303	3172.54167
334.305	3094.875
338.305	3061.875
342.301	3026.54167
346.294	3037.20833
350.283	2995.875
354.269	2949.20833
358.252	2942.875
362.232	2928.875
366.209	2914.54167
370.182	2875.54167
374.152	2868.54167
378.119	2879.875
382.083	2864.875
386.043	2876.20833
390	2873.20833
393.954	2888.875
397.905	2866.54167
401.852	2865.875
405.797	2828.54167
409.738	2858.875
413.676	2866.20833
417.61	2900.20833
421.542	2811.875
425.47	2750.875
429.396	2728.20833
433.318	2737.54167
437.236	2710.875
441.152	2739.54167
445.065	2687.54167
448.974	2688.20833
452.88	2652.54167
456.783	2628.875
460.683	2626.875
464.58	2628.875
468.473	2610.54167
472.364	2654.875
476.251	2659.20833
480.135	2650.20833
484.016	2693.20833
487.894	2717.20833
491.769	2734.54167
495.641	2722.54167
499.509	2715.54167
503.375	2703.54167
507.237	2704.54167
511.096	2714.20833
514.952	2726.875
518.805	2741.875
522.655	2750.875
526.502	2681.54167
530.346	2696.875
534.187	2691.20833
538.024	2695.875
541.859	2742.20833
545.69	2758.20833
549.519	2740.20833
553.344	2716.20833
557.166	2691.875
560.985	2671.54167
564.802	2633.20833
568.615	2573.20833
572.425	2532.875
576.232	2522.54167
580.036	2540.54167
583.836	2559.20833
587.634	2560.875
591.429	2554.875
595.221	2584.54167
599.01	2608.20833
602.796	2633.54167
606.578	2657.54167
610.358	2666.54167
614.135	2656.875
617.909	2636.20833
621.679	2617.54167
625.447	2601.54167
629.212	2602.54167
632.973	2602.875
636.732	2609.20833
640.488	2590.20833
644.241	2570.875
647.991	2579.20833
651.737	2584.54167
655.481	2589.54167
659.222	2574.54167
662.96	2576.54167
666.695	2588.875
670.427	2622.54167
674.156	2597.20833
677.882	2574.20833
681.605	2567.875
685.325	2555.54167
689.043	2544.20833
692.757	2527.875
696.468	2538.875
700.177	2522.20833
703.882	2508.54167
707.585	2499.20833
711.284	2496.875
714.981	2502.875
718.675	2488.54167
722.366	2515.54167
726.054	2483.875
729.739	2518.20833
733.421	2501.875
737.1	2483.875
740.777	2515.54167
744.45	2541.875
748.121	2549.875
751.789	2592.875
755.453	2594.20833
759.115	2580.20833
762.774	2624.20833
766.431	2638.54167
770.084	2646.20833
773.734	2647.54167
777.382	2718.20833
781.027	2730.875
784.669	2770.875
788.308	2769.875
791.944	2783.54167
795.577	2797.875
799.208	2799.875
802.835	2829.875
806.46	2835.875
810.082	2875.875
813.701	2880.875
817.317	2903.875
820.931	2893.54167
824.542	2898.20833
828.149	2870.54167
831.754	2824.875
835.357	2818.54167
838.956	2839.875
842.553	2823.54167
846.146	2822.20833
849.737	2796.875
853.326	2777.20833
856.911	2791.54167
860.493	2805.875
864.073	2834.875
867.65	2896.54167
871.225	2935.54167
874.796	2894.20833
878.365	2892.875
881.931	2937.20833
885.494	2936.875
889.054	2915.54167
892.612	2948.54167
896.166	2919.20833
899.719	2870.54167
903.268	2856.20833
906.814	2851.875
910.358	2819.54167
913.899	2807.54167
917.438	2812.54167
920.973	2797.20833
924.506	2830.875
928.036	2893.20833
931.564	2907.20833
935.088	2967.20833
938.61	2941.20833
942.129	2981.875
945.646	3025.875
949.16	3072.54167
952.671	3127.20833
956.179	3153.875
959.685	3113.875
963.188	3168.54167
966.688	3134.54167
970.185	3023.20833
973.68	2978.54167
977.173	2904.20833
980.662	2847.875
984.149	2868.20833
987.633	2880.54167
991.114	2897.875
994.593	2976.875
998.069	3064.54167
1001.542	3155.54167
1005.013	3079.875
1008.481	2925.20833
1011.947	2864.20833
1015.409	2837.20833
1018.869	2862.875
1022.327	2831.54167
1025.782	2819.54167
1029.234	2792.20833
1032.683	2758.54167
1036.13	2686.20833
1039.574	2593.875
1043.016	2511.20833
1046.455	2471.54167
1049.891	2447.875
1053.325	2449.20833
1056.756	2466.20833
1060.184	2466.54167
1063.61	2511.54167
1067.033	2495.20833
1070.454	2489.54167
1073.872	2539.875
1077.287	2502.875
1080.7	2523.20833
1084.11	2512.54167
1087.517	2490.54167
1090.922	2442.875
1094.325	2418.20833
1097.724	2420.54167
1101.122	2412.54167
1104.516	2412.875
1107.908	2412.875
1111.298	2439.20833
1114.684	2471.875
1118.069	2519.875
1121.45	2532.54167
1124.83	2545.20833
1128.206	2546.875
1131.58	2570.54167
1134.951	2648.20833
1138.32	2742.54167
1141.687	2817.20833
1145.05	2906.54167
1148.412	2921.875
1151.77	2913.875
1155.126	2911.875
1158.48	2916.20833
1161.831	2924.20833
1165.18	2945.875
1168.525	2992.54167
1171.869	3031.875
1175.21	3039.20833
1178.548	3079.20833
1181.884	3089.20833
1185.217	3102.54167
1188.548	3154.20833
1191.877	3234.20833
1195.202	3342.20833
1198.526	3338.20833
1201.846	3333.20833
1205.165	3359.875
1208.48	3342.54167
1211.794	3326.20833
1215.104	3331.20833
1218.413	3307.54167
1221.719	3308.54167
1225.022	3281.875
1228.323	3226.54167
1231.621	3205.875
1234.917	3158.20833
1238.21	3204.875
1241.501	3174.875
1244.79	3167.54167
1248.076	3161.20833
1251.359	3229.54167
1254.64	3284.875
1257.919	3290.20833
1261.195	3332.875
1264.468	3396.20833
1267.74	3435.875
1271.008	3459.20833
1274.275	3442.875
1277.538	3424.20833
1280.8	3421.54167
1284.059	3401.875
1287.315	3445.54167
1290.569	3458.54167
1293.821	3482.875
1297.07	3466.875
1300.317	3503.54167
1303.562	3501.875
1306.803	3484.54167
1310.043	3476.54167
1313.28	3430.20833
1316.515	3388.20833
1319.747	3387.875
1322.977	3378.875
1326.204	3315.54167
1329.429	3283.54167
1332.652	3275.20833
1335.872	3266.20833
1339.09	3218.54167
1342.306	3196.20833
1345.519	3159.875
1348.729	3184.20833
1351.938	3205.875
1355.144	3134.54167
1358.347	3086.875
1361.548	3050.20833
1364.747	3057.20833
1367.944	3011.875
1371.138	3035.875
1374.329	3030.20833
1377.518	3047.54167
1380.705	3077.875
1383.89	3050.54167
1387.072	2984.20833
1390.252	2830.54167
1393.429	2745.875
1396.605	2665.54167
1399.777	2589.20833
1402.948	2549.20833
1406.116	2551.54167
1409.282	2523.54167
1412.445	2528.875
1415.606	2530.54167
1418.765	2565.54167
1421.921	2619.54167
1425.075	2684.875
1428.227	2744.875
1431.376	2883.875
1434.524	2997.20833
1437.668	3043.20833
1440.811	3097.20833
1443.951	3134.875
1447.089	3142.875
1450.224	3108.54167
1453.357	3139.875
1456.488	3082.20833
1459.617	3062.875
1462.743	3005.54167
1465.867	2934.54167
1468.989	2902.54167
1472.108	2858.875
1475.225	2819.20833
1478.34	2788.54167
1481.453	2801.20833
1484.563	2827.20833
1487.671	2844.54167
1490.776	2882.20833
1493.88	2945.875
1496.981	2983.54167
1500.08	3047.54167
1503.176	3084.875
1506.271	3114.54167
1509.363	3153.875
1512.452	3191.875
1515.54	3242.54167
1518.625	3288.54167
1521.708	3376.54167
1524.789	3456.54167
1527.867	3604.54167
1530.944	3815.20833
1534.018	3948.54167
1537.089	4038.54167
1540.159	4073.54167
1543.226	4045.875
1546.291	3959.54167
1549.354	3895.54167
1552.415	3791.875
1555.473	3707.20833
1558.529	3674.875
1561.583	3635.20833
1564.634	3645.875
1567.684	3635.20833
1570.731	3669.875
1573.776	3698.54167
1576.819	3764.54167
1579.859	3849.875
1582.898	3868.54167
1585.934	3916.875
1588.968	3952.54167
1591.999	3928.875
1595.029	3907.875
1598.056	3893.875
1601.081	3940.875
1604.104	3900.875
1607.125	3870.875
1610.144	3822.875
1613.16	3715.875
1616.174	3644.20833
1619.186	3572.20833
1622.196	3467.875
1625.203	3396.875
1628.209	3339.20833
1631.212	3306.20833
1634.213	3319.54167
1637.212	3324.20833
1640.209	3297.20833
1643.203	3221.20833
1646.196	3119.54167
1649.186	2994.54167
1652.174	2847.20833
1655.16	2760.875
1658.144	2661.875
1661.125	2519.20833
1664.105	2382.875
1667.082	2279.875
1670.057	2165.875
1673.03	2042.20833
1676.001	1919.54167
1678.97	1778.20833
1681.937	1696.54167
1684.901	1608.875
1687.863	1548.20833
1690.824	1477.875
1693.782	1461.875
1696.738	1396.20833
1699.692	1360.875
1702.643	1327.875
1705.593	1317.875
1708.54	1299.54167
1711.486	1289.875
1714.429	1252.20833
1717.37	1270.20833
1720.309	1228.875
1723.246	1232.54167
1726.181	1204.20833
1729.113	1213.875
1732.044	1179.20833
1734.972	1167.54167
1737.899	1188.875
1740.823	1169.54167
1743.745	1170.20833
1746.665	1127.20833
1749.583	1103.20833
1752.499	1094.54167
1755.413	1088.20833
1758.325	1070.54167
1761.235	1055.54167
1764.142	1046.54167
1767.048	1023.20833
1769.951	1024.875
1772.852	1027.20833
1775.752	1030.20833
1778.649	1030.54167
1781.544	1026.875
1784.437	986.875
1787.328	1006.54167
1790.217	980.54167
1793.104	950.20833
1795.989	955.875
1798.872	953.20833
1801.753	966.54167
1804.631	959.54167
1807.508	970.20833
1810.383	952.20833
1813.255	946.875
1816.126	951.20833
1818.994	945.54167
1821.861	934.54167
1824.725	945.20833
1827.587	935.20833
1830.448	927.54167
1833.306	895.875
1836.162	910.54167
1839.017	902.20833
1841.869	898.20833
1844.719	891.54167
1847.567	876.875
1850.414	873.54167
1853.258	870.54167
1856.1	892.20833
1858.94	886.875
1861.778	888.875
1864.614	875.875
1867.448	870.54167
1870.28	857.20833
1873.111	886.875
1875.939	870.875
1878.765	879.20833
1881.589	871.875
1884.411	868.54167
1887.231	872.875
1890.049	849.20833
1892.865	864.875
1895.68	844.875
1898.492	860.20833
1901.302	840.875
1904.11	847.875
1906.916	844.54167
1909.721	834.875
1912.523	825.20833
1915.323	824.54167
1918.122	834.54167
1920.918	829.20833
1923.712	812.875
1926.505	804.54167
1929.295	799.875
1932.084	824.54167
1934.87	789.875
1937.655	808.20833
1940.438	805.20833
1943.218	809.875
1945.997	816.20833
1948.774	821.20833
1951.549	825.20833
1954.322	810.54167
1957.093	800.875
1959.862	792.20833
1962.629	787.20833
1965.394	791.20833
1968.157	772.54167
1970.918	775.54167
1973.678	761.875
1976.435	784.875
1979.19	777.875
1981.944	756.20833
1984.696	755.54167
1987.445	754.875
1990.193	761.875
1992.939	770.20833
1995.683	756.875
1998.425	736.875
2001.165	768.20833
2003.903	738.875
2006.639	739.54167
2009.374	755.54167
2012.106	749.54167
2014.837	723.875
2017.566	744.875
2020.292	735.54167
2023.017	739.54167
2025.74	728.54167
2028.461	728.875
2031.18	724.54167
2033.898	714.875
2036.613	729.54167
2039.327	716.875
2042.038	717.20833
2044.748	703.20833
2047.456	720.20833
2050.162	706.875
2052.866	710.875
2055.568	714.54167
2058.268	704.20833
2060.967	704.875
2063.663	693.20833
2066.358	700.20833
2069.051	694.54167
2071.742	695.54167
2074.431	693.875
2077.118	690.875
2079.804	687.875
2082.487	693.875
2085.169	703.20833
2087.849	704.20833
2090.527	688.875
2093.203	701.20833
2095.877	713.54167
2098.55	706.875
2101.22	704.875
2103.889	712.20833
2106.556	712.875
2109.221	734.875
2111.884	738.20833
2114.546	782.875
2117.205	814.875
2119.863	884.54167
2122.519	916.20833
2125.173	977.875
2127.825	1031.875
2130.475	1047.54167
2133.124	1019.54167
2135.771	1001.875
2138.416	973.875
2141.059	915.54167
2143.7	880.875
2146.339	826.875
2148.977	785.54167
2151.613	787.20833
2154.247	756.54167
2156.879	737.20833
2159.51	713.875
2162.138	704.875
2164.765	705.875
2167.39	694.875
2170.013	709.20833
2172.634	691.875
2175.254	683.20833
2177.872	715.875
2180.488	665.20833
2183.102	661.54167
2185.714	653.875
2188.325	631.875
2190.934	634.54167
2193.541	639.875
2196.146	647.20833
2198.75	607.54167
2201.351	609.875
2203.951	600.875
2206.549	619.20833
2209.146	619.875
2211.74	611.54167
2214.333	609.875
2216.924	593.20833
2219.514	604.875
2222.101	596.54167
2224.687	603.875
2227.271	589.875
2229.853	587.875
2232.433	567.875
2235.012	594.20833
2237.589	582.20833
2240.164	610.20833
2242.738	591.20833
2245.309	572.20833
2247.879	583.20833
2250.448	575.20833
2253.014	548.54167
2255.579	534.875
2258.142	546.875
2260.703	536.54167
2263.262	547.54167
2265.82	536.875
2268.376	543.20833
2270.93	531.875
2273.483	521.20833
2276.033	530.20833
2278.583	523.20833
2281.13	521.20833
2283.675	507.54167
2286.219	510.875
2288.761	508.54167
2291.302	517.875
2293.841	526.54167
2296.377	504.875
2298.913	508.20833
2301.446	520.875
2303.978	508.54167
2306.508	500.20833
2309.037	510.875
2311.563	509.54167
2314.088	510.20833
2316.612	476.20833
2319.133	494.54167
2321.653	502.54167
2324.171	484.20833
2326.688	505.20833
2329.202	486.875
2331.715	487.875
2334.227	484.54167
2336.736	485.54167
2339.244	479.20833
2341.751	471.20833
2344.255	483.875
2346.758	472.875
2349.259	459.20833
2351.759	482.54167
2354.257	470.20833
2356.753	471.20833
2359.247	481.54167
2361.74	473.875
2364.231	472.54167
2366.721	482.875
2369.209	456.875
2371.695	466.875
2374.179	459.20833
2376.662	454.54167
2379.143	476.20833
2381.622	460.875
2384.1	468.54167
2386.576	468.54167
2389.051	476.54167
2391.524	476.20833
2393.995	465.875
2396.464	459.20833
2398.932	460.54167
2401.398	453.20833
2403.863	456.20833
2406.325	449.20833
2408.787	449.875
2411.246	452.875
2413.704	444.875
2416.16	439.54167
2418.615	447.54167
2421.068	449.54167
2423.519	449.20833
2425.969	436.20833
2428.417	439.54167
2430.863	469.875
2433.308	452.20833
2435.751	442.875
2438.193	443.54167
2440.633	436.54167
2443.071	438.875
2445.508	429.54167
2447.943	432.54167
2450.376	429.20833
2452.808	428.54167
2455.238	424.875
2457.667	464.54167
2460.093	428.54167
2462.519	421.54167
2464.942	431.875
2467.365	434.20833
2469.785	434.54167
2472.204	426.20833
2474.621	410.875
2477.037	444.875
2479.451	407.875
2481.863	413.875
2484.274	411.54167
2486.683	414.20833
2489.091	426.54167
2491.497	419.54167
2493.901	418.54167
2496.304	420.20833
2498.705	424.875
2501.105	409.54167
2503.503	441.875
2505.899	397.875
2508.294	427.20833
2510.687	413.20833
2513.079	418.875
2515.469	406.54167
2517.858	411.54167
2520.245	415.54167
2522.63	401.54167
2525.014	403.875
2527.396	400.54167
2529.776	394.875
2532.156	412.875
2534.533	393.20833
2536.909	399.20833
2539.283	380.20833
2541.656	392.875
2544.027	412.875
2546.397	399.875
2548.765	396.875
2551.131	392.20833
2553.496	395.54167
2555.86	404.20833
2558.221	392.54167
2560.582	385.54167
2562.94	373.875
2565.298	389.54167
2567.653	397.875
2570.007	371.54167
2572.36	394.54167
2574.711	381.20833
2577.06	401.20833
2579.408	396.54167
2581.754	387.875
2584.099	391.54167
2586.442	386.54167
2588.784	401.875
2591.124	381.20833
2593.463	385.54167
2595.8	389.875
2598.135	372.54167
2600.469	376.54167
2602.802	394.20833
2605.133	394.875
2607.462	380.875
2609.79	366.20833
2612.116	387.20833
2614.441	381.20833
2616.764	387.20833
2619.086	379.875
2621.406	367.54167
2623.725	396.20833
2626.042	387.875
2628.358	378.54167
2630.672	374.20833
2632.985	391.875
2635.296	389.54167
2637.606	377.875
2639.914	374.54167
2642.22	371.54167
2644.525	381.875
2646.829	381.54167
2649.131	392.54167
2651.432	389.875
2653.731	378.875
2656.028	394.875
2658.324	392.20833
2660.619	381.54167
2662.912	394.875
2665.204	377.54167
2667.494	399.20833
2669.782	373.54167
2672.07	395.54167
2674.355	396.54167
2676.639	382.875
2678.922	381.875
2681.203	384.54167
2683.483	365.54167
2685.761	382.875
2688.038	394.875
2690.313	401.54167
2692.587	381.20833
2694.859	378.20833
2697.13	379.875
2699.399	397.20833
2701.667	400.20833
2703.933	395.54167
2706.198	397.875
2708.461	401.875
2710.723	416.875
2712.984	399.54167
2715.243	409.875
2717.5	400.54167
2719.757	416.54167
2722.011	407.54167
2724.264	415.875
2726.516	431.54167
2728.766	414.20833
2731.015	414.20833
2733.262	411.875
2735.508	408.54167
2737.753	407.54167
2739.996	404.54167
2742.237	396.54167
2744.477	412.20833
2746.716	412.20833
2748.953	401.20833
2751.189	397.54167
2753.423	388.875
2755.656	390.54167
2757.887	379.54167
2760.117	390.20833
2762.346	377.20833
2764.573	380.54167
2766.798	380.54167
2769.022	375.54167
2771.245	392.875
2773.467	389.20833
2775.686	389.54167
2777.905	394.875
2780.122	389.54167
2782.337	398.20833
2784.552	390.20833
2786.764	399.54167
2788.976	400.54167
2791.186	416.54167
2793.394	401.875
2795.601	397.875
2797.807	424.875
2800.011	425.20833
2802.214	432.20833
2804.415	423.20833
2806.615	428.20833
2808.814	438.20833
2811.011	438.20833
2813.206	432.875
2815.401	455.20833
2817.594	455.20833
2819.785	468.875
2821.975	455.875
2824.164	465.875
2826.351	472.875
2828.537	500.20833
2830.722	496.54167
2832.905	504.875
2835.086	524.54167
2837.267	560.54167
2839.445	570.54167
2841.623	573.54167
2843.799	594.20833
2845.974	632.54167
2848.147	669.54167
2850.319	697.54167
2852.489	715.54167
2854.659	736.54167
2856.826	739.54167
2858.993	770.20833
2861.158	745.875
2863.321	757.875
2865.483	765.54167
2867.644	769.54167
2869.804	764.875
2871.962	768.20833
2874.118	772.875
2876.274	780.875
2878.428	785.875
2880.58	775.20833
2882.731	768.20833
2884.881	757.875
2887.03	763.875
2889.177	761.20833
2891.322	780.20833
2893.467	774.20833
2895.61	765.875
2897.751	794.20833
2899.892	774.875
2902.03	792.20833
2904.168	797.20833
2906.304	799.20833
2908.439	815.875
2910.572	807.54167
2912.704	820.20833
2914.835	812.20833
2916.965	801.54167
2919.093	823.54167
2921.219	814.54167
2923.345	827.54167
2925.469	801.875
2927.591	808.54167
2929.712	764.875
2931.832	769.54167
2933.951	753.20833
2936.068	745.20833
2938.184	718.54167
2940.299	700.54167
2942.412	688.875
2944.524	652.54167
2946.634	644.20833
2948.744	595.54167
2950.851	620.20833
2952.958	585.54167
2955.063	585.54167
2957.167	575.875
2959.269	537.20833
2961.371	555.54167
2963.471	529.20833
2965.569	531.54167
2967.666	504.20833
2969.762	491.20833
2971.857	476.54167
2973.95	464.54167
2976.042	471.20833
2978.133	456.20833
2980.222	436.54167
2982.31	421.20833
2984.396	401.20833
2986.482	407.875
2988.566	400.54167
2990.648	397.20833
2992.73	401.20833
2994.81	374.875
2996.889	385.54167
2998.966	386.20833
3001.042	386.875
3003.117	376.20833
3005.191	383.54167
3007.263	383.875
3009.334	361.875
3011.403	364.54167
3013.472	357.20833
3015.539	358.54167
3017.604	371.875
3019.669	326.54167
3021.732	329.875
3023.794	341.54167
3025.854	333.20833
3027.914	328.875
3029.971	344.54167
3032.028	330.875
3034.083	331.54167
3036.137	326.54167
3038.19	312.54167
3040.242	301.875
3042.292	296.54167
3044.341	306.54167
3046.388	318.20833
3048.435	298.20833
3050.48	310.875
3052.524	306.20833
3054.566	282.875
3056.607	297.54167
3058.647	282.54167
3060.686	266.20833
3062.723	271.54167
3064.759	248.20833
3066.794	0.875
3068.828	2.875
3070.86	1.20833
