-0.839	441.75
3.438	530.41667
7.711	168.08333
11.981	61.08333
16.247	44.41667
20.509	48.41667
24.768	49.75
29.024	53.08333
33.276	45.75
37.524	50.41667
41.769	49.08333
46.01	35.08333
50.247	46.75
54.481	60.75
58.712	62.08333
62.939	50.75
67.162	63.41667
71.382	55.75
75.599	50.08333
79.812	58.75
84.021	81.08333
88.227	60.41667
92.429	61.75
96.628	53.08333
100.823	72.75
105.015	72.41667
109.204	70.41667
113.388	78.08333
117.57	80.75
121.748	83.08333
125.922	83.08333
130.093	99.75
134.261	100.08333
138.425	99.08333
142.585	139.08333
146.742	129.41667
150.896	155.75
155.046	191.75
159.193	293.75
163.336	489.41667
167.476	897.08333
171.613	1667.41667
175.746	2770.08333
179.875	4114.08333
184.002	5399.08333
188.124	6290.75
192.244	6656.41667
196.36	6686.08333
200.472	6569.75
204.581	6474.75
208.687	6369.08333
212.79	6360.41667
216.889	6401.08333
220.984	6440.08333
225.077	6541.75
229.165	6609.41667
233.251	6624.41667
237.333	6656.75
241.412	6630.41667
245.487	6597.41667
249.559	6541.75
253.628	6475.41667
257.694	6408.75
261.756	6363.75
265.814	6224.75
269.87	6045.41667
273.922	5770.75
277.97	5635.41667
282.016	5446.08333
286.058	5380.75
290.097	5385.41667
294.132	5397.08333
298.164	5372.75
302.193	5196.08333
306.219	4824.75
310.241	4464.41667
314.26	4099.08333
318.276	3813.41667
322.288	3658.08333
326.297	3489.75
330.303	3356.75
334.305	3293.41667
338.305	3199.41667
342.301	3167.08333
346.294	3154.75
350.283	3151.08333
354.269	3087.41667
358.252	3071.75
362.232	3078.08333
366.209	3049.08333
370.182	3030.75
374.152	3001.75
378.119	3011.75
382.083	3011.08333
386.043	2990.41667
390	2986.41667
393.954	3012.75
397.905	3002.75
401.852	2987.08333
405.797	2948.75
409.738	2950.75
413.676	2971.41667
417.61	2977.41667
421.542	2924.75
425.47	2872.08333
429.396	2845.75
433.318	2852.41667
437.236	2825.08333
441.152	2853.08333
445.065	2805.75
448.974	2813.08333
452.88	2762.75
456.783	2747.08333
460.683	2741.41667
464.58	2746.41667
468.473	2752.75
472.364	2762.41667
476.251	2743.75
480.135	2774.75
484.016	2791.75
487.894	2818.08333
491.769	2838.08333
495.641	2833.75
499.509	2845.41667
503.375	2858.75
507.237	2830.41667
511.096	2867.08333
514.952	2911.41667
518.805	2977.75
522.655	2995.41667
526.502	2917.08333
530.346	2823.75
534.187	2830.75
538.024	2826.08333
541.859	2850.41667
545.69	2881.08333
549.519	2853.41667
553.344	2840.75
557.166	2773.75
560.985	2750.41667
564.802	2710.41667
568.615	2645.75
572.425	2626.41667
576.232	2625.08333
580.036	2614.75
583.836	2627.75
587.634	2612.41667
591.429	2627.41667
595.221	2709.41667
599.01	2724.41667
602.796	2751.75
606.578	2775.75
610.358	2764.75
614.135	2720.08333
617.909	2733.75
621.679	2708.41667
625.447	2677.75
629.212	2676.08333
632.973	2667.08333
636.732	2677.41667
640.488	2669.08333
644.241	2652.41667
647.991	2656.41667
651.737	2684.08333
655.481	2636.75
659.222	2683.41667
662.96	2669.41667
666.695	2687.75
670.427	2693.75
674.156	2691.75
677.882	2683.08333
681.605	2648.08333
685.325	2660.41667
689.043	2623.75
692.757	2606.41667
696.468	2619.75
700.177	2606.41667
703.882	2585.75
707.585	2586.08333
711.284	2564.41667
714.981	2562.08333
718.675	2586.75
722.366	2580.75
726.054	2563.75
729.739	2568.41667
733.421	2559.75
737.1	2557.75
740.777	2582.08333
744.45	2594.75
748.121	2626.75
751.789	2642.75
755.453	2635.75
759.115	2649.41667
762.774	2687.41667
766.431	2705.41667
770.084	2735.41667
773.734	2761.08333
777.382	2823.41667
781.027	2846.08333
784.669	2848.75
788.308	2867.75
791.944	2873.08333
795.577	2868.08333
799.208	2876.08333
802.835	2919.08333
806.46	2900.08333
810.082	2933.08333
813.701	2954.41667
817.317	2973.08333
820.931	2984.41667
824.542	2964.08333
828.149	2937.41667
831.754	2905.75
835.357	2895.75
838.956	2900.41667
842.553	2893.41667
846.146	2894.08333
849.737	2863.41667
853.326	2880.41667
856.911	2857.08333
860.493	2895.41667
864.073	2926.08333
867.65	2986.08333
871.225	2988.08333
874.796	3005.75
878.365	2993.75
881.931	3022.41667
885.494	3032.08333
889.054	3025.41667
892.612	3049.41667
896.166	2992.41667
899.719	2974.08333
903.268	2922.75
906.814	2905.41667
910.358	2929.08333
913.899	2873.41667
917.438	2893.41667
920.973	2872.41667
924.506	2908.08333
928.036	2958.08333
931.564	3019.41667
935.088	3050.41667
938.61	3035.08333
942.129	3096.75
945.646	3171.41667
949.16	3222.08333
952.671	3287.08333
956.179	3285.41667
959.685	3248.08333
963.188	3259.41667
966.688	3220.75
970.185	3131.41667
973.68	3026.41667
977.173	2989.41667
980.662	2930.75
984.149	2943.75
987.633	2922.75
991.114	2971.75
994.593	3003.75
998.069	3098.75
1001.542	3211.08333
1005.013	3124.75
1008.481	2975.41667
1011.947	2929.75
1015.409	2922.08333
1018.869	2895.08333
1022.327	2920.75
1025.782	2880.75
1029.234	2860.08333
1032.683	2831.75
1036.13	2739.08333
1039.574	2620.75
1043.016	2553.41667
1046.455	2516.08333
1049.891	2472.75
1053.325	2503.08333
1056.756	2502.08333
1060.184	2507.08333
1063.61	2530.75
1067.033	2550.41667
1070.454	2543.08333
1073.872	2559.41667
1077.287	2558.41667
1080.7	2561.08333
1084.11	2538.08333
1087.517	2539.41667
1090.922	2495.41667
1094.325	2472.08333
1097.724	2438.08333
1101.122	2478.75
1104.516	2430.41667
1107.908	2443.08333
1111.298	2505.08333
1114.684	2543.75
1118.069	2575.08333
1121.45	2593.75
1124.83	2572.41667
1128.206	2594.08333
1131.58	2649.75
1134.951	2708.41667
1138.32	2791.41667
1141.687	2890.41667
1145.05	2966.41667
1148.412	2990.75
1151.77	3016.08333
1155.126	3016.41667
1158.48	2992.41667
1161.831	3012.41667
1165.18	3018.08333
1168.525	3071.75
1171.869	3110.08333
1175.21	3128.08333
1178.548	3154.41667
1181.884	3173.41667
1185.217	3196.41667
1188.548	3298.08333
1191.877	3331.75
1195.202	3406.41667
1198.526	3462.41667
1201.846	3488.75
1205.165	3461.75
1208.48	3429.75
1211.794	3399.75
1215.104	3391.08333
1218.413	3395.75
1221.719	3375.08333
1225.022	3330.08333
1228.323	3260.08333
1231.621	3245.41667
1234.917	3216.08333
1238.21	3244.75
1241.501	3228.41667
1244.79	3196.41667
1248.076	3217.75
1251.359	3220.75
1254.64	3285.41667
1257.919	3327.41667
1261.195	3365.75
1264.468	3429.08333
1267.74	3467.08333
1271.008	3526.75
1274.275	3497.08333
1277.538	3451.08333
1280.8	3450.75
1284.059	3426.75
1287.315	3475.75
1290.569	3483.41667
1293.821	3493.08333
1297.07	3536.41667
1300.317	3561.08333
1303.562	3531.41667
1306.803	3535.41667
1310.043	3495.41667
1313.28	3463.08333
1316.515	3436.08333
1319.747	3408.08333
1322.977	3411.75
1326.204	3352.08333
1329.429	3306.75
1332.652	3296.41667
1335.872	3285.41667
1339.09	3224.08333
1342.306	3213.41667
1345.519	3203.41667
1348.729	3143.41667
1351.938	3144.41667
1355.144	3101.08333
1358.347	3039.08333
1361.548	3001.41667
1364.747	3010.08333
1367.944	2965.08333
1371.138	2998.41667
1374.329	2986.75
1377.518	2987.41667
1380.705	3025.75
1383.89	2994.08333
1387.072	2918.41667
1390.252	2815.41667
1393.429	2710.75
1396.605	2638.08333
1399.777	2549.75
1402.948	2501.41667
1406.116	2500.08333
1409.282	2504.41667
1412.445	2486.41667
1415.606	2521.41667
1418.765	2508.08333
1421.921	2586.75
1425.075	2632.75
1428.227	2737.75
1431.376	2836.75
1434.524	2956.75
1437.668	3039.41667
1440.811	3073.75
1443.951	3115.75
1447.089	3122.08333
1450.224	3123.75
1453.357	3096.75
1456.488	3072.08333
1459.617	3041.41667
1462.743	2964.08333
1465.867	2930.41667
1468.989	2896.08333
1472.108	2852.41667
1475.225	2839.75
1478.34	2803.41667
1481.453	2806.08333
1484.563	2798.75
1487.671	2839.41667
1490.776	2893.08333
1493.88	2926.41667
1496.981	2979.41667
1500.08	3037.41667
1503.176	3094.75
1506.271	3102.41667
1509.363	3162.41667
1512.452	3159.08333
1515.54	3208.41667
1518.625	3242.41667
1521.708	3334.08333
1524.789	3426.08333
1527.867	3571.41667
1530.944	3754.75
1534.018	3887.75
1537.089	3989.08333
1540.159	4047.75
1543.226	4004.41667
1546.291	3925.75
1549.354	3875.08333
1552.415	3788.75
1555.473	3693.41667
1558.529	3623.08333
1561.583	3607.41667
1564.634	3581.75
1567.684	3594.75
1570.731	3625.75
1573.776	3686.75
1576.819	3751.41667
1579.859	3795.41667
1582.898	3839.75
1585.934	3897.08333
1588.968	3908.08333
1591.999	3864.41667
1595.029	3871.08333
1598.056	3868.08333
1601.081	3908.41667
1604.104	3863.75
1607.125	3842.08333
1610.144	3768.08333
1613.16	3670.08333
1616.174	3611.41667
1619.186	3530.08333
1622.196	3459.75
1625.203	3376.08333
1628.209	3317.08333
1631.212	3274.75
1634.213	3266.75
1637.212	3254.75
1640.209	3219.75
1643.203	3149.41667
1646.196	3012.41667
1649.186	2859.75
1652.174	2772.41667
1655.16	2642.08333
1658.144	2563.08333
1661.125	2424.08333
1664.105	2292.08333
1667.082	2195.41667
1670.057	2094.75
1673.03	1958.08333
1676.001	1850.41667
1678.97	1751.41667
1681.937	1646.08333
1684.901	1538.08333
1687.863	1495.08333
1690.824	1416.08333
1693.782	1402.75
1696.738	1343.08333
1699.692	1302.75
1702.643	1252.08333
1705.593	1262.75
1708.54	1238.41667
1711.486	1229.75
1714.429	1191.75
1717.37	1201.75
1720.309	1176.75
1723.246	1176.41667
1726.181	1167.08333
1729.113	1148.41667
1732.044	1134.41667
1734.972	1133.75
1737.899	1125.41667
1740.823	1117.08333
1743.745	1128.41667
1746.665	1073.75
1749.583	1052.41667
1752.499	1030.75
1755.413	1026.75
1758.325	996.41667
1761.235	1004.41667
1764.142	985.41667
1767.048	971.75
1769.951	980.41667
1772.852	972.75
1775.752	973.41667
1778.649	969.41667
1781.544	970.08333
1784.437	929.08333
1787.328	952.08333
1790.217	927.75
1793.104	903.41667
1795.989	907.41667
1798.872	915.75
1801.753	927.41667
1804.631	913.08333
1807.508	919.41667
1810.383	902.41667
1813.255	899.08333
1816.126	899.41667
1818.994	900.08333
1821.861	889.08333
1824.725	892.08333
1827.587	891.08333
1830.448	882.75
1833.306	856.41667
1836.162	866.08333
1839.017	858.75
1841.869	849.41667
1844.719	852.41667
1847.567	842.08333
1850.414	833.41667
1853.258	831.75
1856.1	856.08333
1858.94	851.08333
1861.778	837.41667
1864.614	841.08333
1867.448	839.08333
1870.28	818.08333
1873.111	859.08333
1875.939	821.41667
1878.765	838.41667
1881.589	826.75
1884.411	821.75
1887.231	822.41667
1890.049	813.75
1892.865	826.41667
1895.68	799.75
1898.492	814.75
1901.302	805.08333
1904.11	801.41667
1906.916	803.41667
1909.721	786.75
1912.523	792.75
1915.323	786.41667
1918.122	777.41667
1920.918	790.75
1923.712	774.41667
1926.505	768.08333
1929.295	761.08333
1932.084	783.41667
1934.87	772.08333
1937.655	767.41667
1940.438	754.75
1943.218	770.08333
1945.997	771.08333
1948.774	784.75
1951.549	783.08333
1954.322	760.41667
1957.093	756.08333
1959.862	756.75
1962.629	743.08333
1965.394	745.41667
1968.157	735.75
1970.918	730.41667
1973.678	732.75
1976.435	748.41667
1979.19	730.75
1981.944	723.41667
1984.696	734.08333
1987.445	724.08333
1990.193	728.75
1992.939	736.75
1995.683	727.75
1998.425	706.41667
2001.165	738.75
2003.903	707.41667
2006.639	710.75
2009.374	722.08333
2012.106	710.41667
2014.837	700.08333
2017.566	718.08333
2020.292	718.41667
2023.017	717.75
2025.74	703.75
2028.461	697.08333
2031.18	698.75
2033.898	699.08333
2036.613	694.08333
2039.327	691.75
2042.038	687.08333
2044.748	691.41667
2047.456	696.75
2050.162	682.41667
2052.866	687.08333
2055.568	699.08333
2058.268	669.08333
2060.967	686.08333
2063.663	676.75
2066.358	677.41667
2069.051	665.41667
2071.742	682.41667
2074.431	671.41667
2077.118	677.41667
2079.804	671.08333
2082.487	675.08333
2085.169	675.41667
2087.849	696.08333
2090.527	665.75
2093.203	682.41667
2095.877	690.75
2098.55	688.08333
2101.22	683.41667
2103.889	680.41667
2106.556	686.08333
2109.221	712.08333
2111.884	688.08333
2114.546	732.08333
2117.205	739.75
2119.863	799.41667
2122.519	827.41667
2125.173	882.75
2127.825	936.08333
2130.475	942.08333
2133.124	920.41667
2135.771	906.41667
2138.416	887.41667
2141.059	823.75
2143.7	807.08333
2146.339	764.75
2148.977	722.41667
2151.613	724.08333
2154.247	706.75
2156.879	696.41667
2159.51	670.41667
2162.138	663.08333
2164.765	663.75
2167.39	654.08333
2170.013	674.41667
2172.634	661.41667
2175.254	654.41667
2177.872	678.75
2180.488	643.75
2183.102	653.41667
2185.714	636.75
2188.325	624.08333
2190.934	626.08333
2193.541	616.75
2196.146	631.41667
2198.75	612.75
2201.351	607.41667
2203.951	594.41667
2206.549	612.08333
2209.146	601.08333
2211.74	605.41667
2214.333	607.41667
2216.924	595.08333
2219.514	590.41667
2222.101	590.75
2224.687	600.41667
2227.271	581.08333
2229.853	578.41667
2232.433	570.41667
2235.012	601.75
2237.589	594.08333
2240.164	610.08333
2242.738	583.75
2245.309	575.75
2247.879	582.41667
2250.448	590.08333
2253.014	553.41667
2255.579	554.08333
2258.142	552.41667
2260.703	545.41667
2263.262	559.08333
2265.82	545.75
2268.376	552.08333
2270.93	527.08333
2273.483	543.08333
2276.033	540.41667
2278.583	531.08333
2281.13	544.41667
2283.675	526.75
2286.219	531.08333
2288.761	533.75
2291.302	542.41667
2293.841	554.08333
2296.377	525.08333
2298.913	519.08333
2301.446	537.75
2303.978	532.41667
2306.508	524.75
2309.037	520.08333
2311.563	534.75
2314.088	528.75
2316.612	510.08333
2319.133	524.08333
2321.653	518.41667
2324.171	507.75
2326.688	537.08333
2329.202	511.08333
2331.715	512.41667
2334.227	512.08333
2336.736	512.75
2339.244	506.75
2341.751	501.75
2344.255	515.08333
2346.758	512.75
2349.259	498.08333
2351.759	504.75
2354.257	503.08333
2356.753	495.41667
2359.247	514.08333
2361.74	510.41667
2364.231	512.75
2366.721	511.75
2369.209	493.08333
2371.695	503.41667
2374.179	498.41667
2376.662	501.08333
2379.143	516.41667
2381.622	491.08333
2384.1	510.08333
2386.576	499.75
2389.051	520.41667
2391.524	522.08333
2393.995	508.75
2396.464	496.08333
2398.932	500.08333
2401.398	499.75
2403.863	498.75
2406.325	492.08333
2408.787	502.08333
2411.246	494.75
2413.704	498.08333
2416.16	498.41667
2418.615	500.41667
2421.068	514.41667
2423.519	490.08333
2425.969	493.08333
2428.417	490.75
2430.863	518.75
2433.308	500.41667
2435.751	495.41667
2438.193	493.08333
2440.633	501.41667
2443.071	503.08333
2445.508	488.08333
2447.943	493.75
2450.376	482.41667
2452.808	484.75
2455.238	488.08333
2457.667	529.08333
2460.093	484.75
2462.519	484.75
2464.942	490.41667
2467.365	490.75
2469.785	502.75
2472.204	491.41667
2474.621	485.08333
2477.037	502.41667
2479.451	476.08333
2481.863	465.75
2484.274	491.75
2486.683	484.41667
2489.091	498.41667
2491.497	492.41667
2493.901	496.08333
2496.304	483.41667
2498.705	495.41667
2501.105	487.41667
2503.503	509.08333
2505.899	477.41667
2508.294	506.41667
2510.687	496.41667
2513.079	484.41667
2515.469	484.41667
2517.858	495.41667
2520.245	492.41667
2522.63	487.75
2525.014	480.75
2527.396	474.08333
2529.776	474.08333
2532.156	483.75
2534.533	487.41667
2536.909	475.75
2539.283	461.75
2541.656	477.75
2544.027	506.75
2546.397	484.08333
2548.765	486.08333
2551.131	484.75
2553.496	480.75
2555.86	492.75
2558.221	492.75
2560.582	485.41667
2562.94	482.41667
2565.298	493.75
2567.653	495.41667
2570.007	468.75
2572.36	492.08333
2574.711	470.75
2577.06	495.08333
2579.408	494.75
2581.754	488.41667
2584.099	494.08333
2586.442	482.75
2588.784	493.41667
2591.124	494.75
2593.463	494.41667
2595.8	495.41667
2598.135	473.75
2600.469	484.75
2602.802	495.75
2605.133	492.75
2607.462	490.75
2609.79	479.41667
2612.116	493.41667
2614.441	493.41667
2616.764	494.75
2619.086	487.75
2621.406	474.75
2623.725	497.08333
2626.042	498.41667
2628.358	485.08333
2630.672	492.41667
2632.985	505.75
2635.296	494.41667
2637.606	504.41667
2639.914	488.08333
2642.22	503.75
2644.525	504.41667
2646.829	503.41667
2649.131	514.41667
2651.432	514.08333
2653.731	514.08333
2656.028	522.41667
2658.324	520.41667
2660.619	519.41667
2662.912	527.41667
2665.204	497.75
2667.494	520.08333
2669.782	515.08333
2672.07	525.75
2674.355	518.75
2676.639	516.75
2678.922	512.75
2681.203	516.08333
2683.483	517.08333
2685.761	510.75
2688.038	515.75
2690.313	548.41667
2692.587	526.08333
2694.859	523.08333
2697.13	529.75
2699.399	534.08333
2701.667	537.75
2703.933	532.41667
2706.198	539.08333
2708.461	542.08333
2710.723	543.08333
2712.984	540.08333
2715.243	554.41667
2717.5	530.08333
2719.757	561.41667
2722.011	549.08333
2724.264	557.75
2726.516	572.41667
2728.766	552.75
2731.015	572.41667
2733.262	558.41667
2735.508	572.41667
2737.753	561.41667
2739.996	549.75
2742.237	545.08333
2744.477	566.75
2746.716	561.75
2748.953	557.41667
2751.189	563.41667
2753.423	549.41667
2755.656	545.75
2757.887	538.08333
2760.117	536.75
2762.346	537.41667
2764.573	535.08333
2766.798	534.08333
2769.022	531.41667
2771.245	543.08333
2773.467	545.75
2775.686	556.75
2777.905	556.75
2780.122	558.75
2782.337	561.41667
2784.552	551.08333
2786.764	549.41667
2788.976	566.75
2791.186	569.41667
2793.394	563.08333
2795.601	580.08333
2797.807	590.75
2800.011	589.08333
2802.214	589.08333
2804.415	591.75
2806.615	586.08333
2808.814	585.41667
2811.011	590.75
2813.206	593.75
2815.401	611.41667
2817.594	612.41667
2819.785	620.41667
2821.975	612.08333
2824.164	619.75
2826.351	629.75
2828.537	635.41667
2830.722	653.75
2832.905	650.08333
2835.086	686.75
2837.267	712.75
2839.445	721.08333
2841.623	716.08333
2843.799	750.08333
2845.974	791.08333
2848.147	808.41667
2850.319	823.75
2852.489	856.75
2854.659	864.08333
2856.826	882.75
2858.993	905.41667
2861.158	905.41667
2863.321	898.08333
2865.483	910.75
2867.644	908.75
2869.804	899.75
2871.962	902.08333
2874.118	912.08333
2876.274	909.41667
2878.428	920.41667
2880.58	905.75
2882.731	894.75
2884.881	898.75
2887.03	907.41667
2889.177	886.08333
2891.322	912.75
2893.467	912.08333
2895.61	913.08333
2897.751	931.75
2899.892	922.08333
2902.03	924.41667
2904.168	930.75
2906.304	933.08333
2908.439	967.41667
2910.572	952.75
2912.704	966.41667
2914.835	970.08333
2916.965	961.75
2919.093	982.41667
2921.219	956.08333
2923.345	972.08333
2925.469	951.41667
2927.591	952.41667
2929.712	924.08333
2931.832	920.41667
2933.951	910.08333
2936.068	889.08333
2938.184	880.75
2940.299	866.75
2942.412	846.41667
2944.524	804.75
2946.634	817.41667
2948.744	769.75
2950.851	786.75
2952.958	762.75
2955.063	759.75
2957.167	750.08333
2959.269	740.08333
2961.371	758.08333
2963.471	726.75
2965.569	711.75
2967.666	686.08333
2969.762	687.41667
2971.857	673.08333
2973.95	652.41667
2976.042	664.75
2978.133	643.08333
2980.222	641.75
2982.31	620.75
2984.396	600.41667
2986.482	607.75
2988.566	597.08333
2990.648	599.41667
2992.73	596.08333
2994.81	592.41667
2996.889	596.75
2998.966	596.75
3001.042	599.08333
3003.117	588.08333
3005.191	598.08333
3007.263	590.08333
3009.334	574.08333
3011.403	575.41667
3013.472	558.08333
3015.539	561.08333
3017.604	570.75
3019.669	537.08333
3021.732	544.75
3023.794	546.75
3025.854	545.08333
3027.914	536.41667
3029.971	550.41667
3032.028	544.08333
3034.083	541.08333
3036.137	534.75
3038.19	514.41667
3040.242	503.41667
3042.292	494.08333
3044.341	481.41667
3046.388	506.08333
3048.435	480.41667
3050.48	496.08333
3052.524	490.41667
3054.566	475.41667
3056.607	482.75
3058.647	468.41667
3060.686	452.41667
3062.723	439.41667
3064.759	424.41667
3066.794	-1.25
3068.828	2.41667
3070.86	2.41667
