-0.839	473.95833
3.438	557.625
7.711	174.95833
11.981	63.95833
16.247	43.29167
20.509	49.29167
24.768	45.625
29.024	53.95833
33.276	45.29167
37.524	51.625
41.769	47.29167
46.01	32.29167
50.247	50.29167
54.481	62.625
58.712	66.95833
62.939	48.95833
67.162	62.625
71.382	59.625
75.599	44.625
79.812	64.95833
84.021	81.95833
88.227	61.625
92.429	57.625
96.628	52.625
100.823	72.625
105.015	79.625
109.204	76.29167
113.388	79.625
117.57	75.625
121.748	87.95833
125.922	80.95833
130.093	97.95833
134.261	106.95833
138.425	104.625
142.585	146.29167
146.742	133.29167
150.896	170.95833
155.046	222.29167
159.193	332.625
163.336	586.29167
167.476	1066.29167
171.613	1941.95833
175.746	3218.625
179.875	4678.625
184.002	6042.625
188.124	6916.625
192.244	7255.625
196.36	7152.95833
200.472	6962.29167
204.581	6830.29167
208.687	6624.29167
212.79	6581.625
216.889	6596.625
220.984	6561.95833
225.077	6651.95833
229.165	6650.625
233.251	6720.625
237.333	6675.625
241.412	6581.625
245.487	6577.95833
249.559	6429.29167
253.628	6413.625
257.694	6300.95833
261.756	6301.29167
265.814	6108.625
269.87	5924.95833
273.922	5691.29167
277.97	5548.29167
282.016	5350.95833
286.058	5258.625
290.097	5233.29167
294.132	5244.95833
298.164	5182.625
302.193	4975.625
306.219	4702.95833
310.241	4367.95833
314.26	4031.625
318.276	3827.625
322.288	3632.95833
326.297	3538.29167
330.303	3428.95833
334.305	3368.625
338.305	3339.625
342.301	3264.29167
346.294	3279.29167
350.283	3223.95833
354.269	3219.29167
358.252	3200.29167
362.232	3179.95833
366.209	3187.625
370.182	3168.625
374.152	3143.95833
378.119	3153.29167
382.083	3145.29167
386.043	3168.29167
390	3126.29167
393.954	3146.95833
397.905	3137.29167
401.852	3120.625
405.797	3090.29167
409.738	3128.95833
413.676	3142.95833
417.61	3145.29167
421.542	3062.95833
425.47	3041.625
429.396	3005.625
433.318	2990.95833
437.236	2993.29167
441.152	2996.29167
445.065	2957.29167
448.974	2923.625
452.88	2923.95833
456.783	2912.29167
460.683	2887.625
464.58	2896.95833
468.473	2891.29167
472.364	2920.29167
476.251	2921.29167
480.135	2935.95833
484.016	2980.95833
487.894	2979.625
491.769	2988.29167
495.641	2988.29167
499.509	2972.625
503.375	2975.625
507.237	2991.29167
511.096	2971.95833
514.952	2995.625
518.805	3003.625
522.655	3012.95833
526.502	2964.95833
530.346	2961.29167
534.187	2985.29167
538.024	2963.29167
541.859	3000.29167
545.69	3013.29167
549.519	2992.29167
553.344	2965.95833
557.166	2954.95833
560.985	2903.625
564.802	2865.29167
568.615	2843.95833
572.425	2784.95833
576.232	2793.95833
580.036	2777.625
583.836	2782.625
587.634	2793.625
591.429	2789.29167
595.221	2836.95833
599.01	2872.29167
602.796	2891.95833
606.578	2913.29167
610.358	2924.625
614.135	2916.625
617.909	2905.29167
621.679	2879.29167
625.447	2854.95833
629.212	2841.625
632.973	2847.29167
636.732	2861.29167
640.488	2837.29167
644.241	2828.95833
647.991	2795.95833
651.737	2844.95833
655.481	2836.29167
659.222	2856.29167
662.96	2854.625
666.695	2858.29167
670.427	2864.625
674.156	2901.95833
677.882	2841.95833
681.605	2824.29167
685.325	2794.29167
689.043	2825.29167
692.757	2783.625
696.468	2791.625
700.177	2801.29167
703.882	2751.29167
707.585	2729.95833
711.284	2738.95833
714.981	2729.625
718.675	2747.625
722.366	2779.29167
726.054	2720.29167
729.739	2740.625
733.421	2736.29167
737.1	2758.625
740.777	2759.29167
744.45	2782.95833
748.121	2779.95833
751.789	2843.95833
755.453	2792.29167
759.115	2839.95833
762.774	2855.29167
766.431	2846.95833
770.084	2903.95833
773.734	2909.29167
777.382	2936.95833
781.027	2954.625
784.669	2984.95833
788.308	2977.625
791.944	3007.29167
795.577	3020.95833
799.208	3042.29167
802.835	3073.95833
806.46	3099.625
810.082	3134.95833
813.701	3137.95833
817.317	3171.95833
820.931	3163.625
824.542	3158.625
828.149	3115.95833
831.754	3061.95833
835.357	3036.29167
838.956	3044.625
842.553	3046.29167
846.146	3029.29167
849.737	2987.95833
853.326	2984.29167
856.911	2992.29167
860.493	2996.29167
864.073	3040.95833
867.65	3096.95833
871.225	3134.625
874.796	3106.95833
878.365	3097.95833
881.931	3097.29167
885.494	3139.29167
889.054	3125.625
892.612	3140.95833
896.166	3111.95833
899.719	3057.95833
903.268	3044.625
906.814	3045.29167
910.358	2980.95833
913.899	3003.29167
917.438	3023.95833
920.973	3011.625
924.506	3061.625
928.036	3094.29167
931.564	3137.95833
935.088	3147.625
938.61	3151.625
942.129	3172.29167
945.646	3220.625
949.16	3276.95833
952.671	3305.95833
956.179	3367.625
959.685	3362.625
963.188	3398.95833
966.688	3372.95833
970.185	3264.95833
973.68	3182.29167
977.173	3097.29167
980.662	3071.625
984.149	3104.29167
987.633	3071.625
991.114	3129.625
994.593	3166.29167
998.069	3255.95833
1001.542	3365.29167
1005.013	3318.95833
1008.481	3136.625
1011.947	3083.625
1015.409	3040.625
1018.869	3052.29167
1022.327	3031.29167
1025.782	3002.625
1029.234	3012.95833
1032.683	2939.29167
1036.13	2858.29167
1039.574	2770.625
1043.016	2703.625
1046.455	2659.95833
1049.891	2622.29167
1053.325	2635.95833
1056.756	2640.29167
1060.184	2645.95833
1063.61	2645.29167
1067.033	2664.95833
1070.454	2670.625
1073.872	2698.95833
1077.287	2673.95833
1080.7	2702.95833
1084.11	2700.29167
1087.517	2654.95833
1090.922	2620.95833
1094.325	2590.625
1097.724	2578.625
1101.122	2563.95833
1104.516	2563.29167
1107.908	2562.29167
1111.298	2605.625
1114.684	2643.29167
1118.069	2669.95833
1121.45	2696.625
1124.83	2685.29167
1128.206	2697.29167
1131.58	2734.95833
1134.951	2788.95833
1138.32	2854.29167
1141.687	2970.95833
1145.05	3049.625
1148.412	3073.95833
1151.77	3079.29167
1155.126	3047.625
1158.48	3024.625
1161.831	3071.95833
1165.18	3075.625
1168.525	3118.29167
1171.869	3155.95833
1175.21	3188.29167
1178.548	3161.95833
1181.884	3232.29167
1185.217	3256.625
1188.548	3327.95833
1191.877	3344.29167
1195.202	3456.29167
1198.526	3489.625
1201.846	3501.625
1205.165	3514.95833
1208.48	3504.625
1211.794	3475.29167
1215.104	3479.95833
1218.413	3467.625
1221.719	3469.29167
1225.022	3416.29167
1228.323	3379.29167
1231.621	3330.29167
1234.917	3317.95833
1238.21	3316.95833
1241.501	3316.29167
1244.79	3338.95833
1248.076	3337.625
1251.359	3376.95833
1254.64	3432.625
1257.919	3441.625
1261.195	3482.95833
1264.468	3550.625
1267.74	3584.29167
1271.008	3593.29167
1274.275	3591.625
1277.538	3552.29167
1280.8	3567.625
1284.059	3567.625
1287.315	3600.95833
1290.569	3605.95833
1293.821	3606.625
1297.07	3624.625
1300.317	3641.95833
1303.562	3635.625
1306.803	3588.29167
1310.043	3602.95833
1313.28	3555.95833
1316.515	3568.29167
1319.747	3534.95833
1322.977	3536.95833
1326.204	3491.29167
1329.429	3459.29167
1332.652	3456.29167
1335.872	3437.29167
1339.09	3421.95833
1342.306	3378.29167
1345.519	3394.95833
1348.729	3373.29167
1351.938	3380.625
1355.144	3347.29167
1358.347	3287.29167
1361.548	3228.95833
1364.747	3222.29167
1367.944	3229.625
1371.138	3213.95833
1374.329	3221.29167
1377.518	3223.29167
1380.705	3229.29167
1383.89	3201.29167
1387.072	3131.95833
1390.252	3034.29167
1393.429	2895.29167
1396.605	2831.95833
1399.777	2753.29167
1402.948	2710.625
1406.116	2669.625
1409.282	2665.625
1412.445	2670.95833
1415.606	2674.625
1418.765	2698.95833
1421.921	2741.95833
1425.075	2805.95833
1428.227	2877.29167
1431.376	2991.29167
1434.524	3120.95833
1437.668	3188.29167
1440.811	3257.95833
1443.951	3277.625
1447.089	3283.625
1450.224	3279.625
1453.357	3260.29167
1456.488	3249.95833
1459.617	3175.29167
1462.743	3151.625
1465.867	3082.95833
1468.989	3073.29167
1472.108	2988.625
1475.225	2982.625
1478.34	2930.95833
1481.453	2940.625
1484.563	2959.29167
1487.671	2974.625
1490.776	3017.95833
1493.88	3063.625
1496.981	3110.95833
1500.08	3154.625
1503.176	3203.29167
1506.271	3257.29167
1509.363	3281.625
1512.452	3324.29167
1515.54	3348.625
1518.625	3415.625
1521.708	3480.625
1524.789	3608.29167
1527.867	3741.625
1530.944	3921.29167
1534.018	4079.625
1537.089	4190.29167
1540.159	4203.625
1543.226	4187.29167
1546.291	4059.625
1549.354	4001.625
1552.415	3913.95833
1555.473	3800.29167
1558.529	3761.95833
1561.583	3753.29167
1564.634	3722.625
1567.684	3750.95833
1570.731	3791.29167
1573.776	3834.95833
1576.819	3915.29167
1579.859	3970.95833
1582.898	4007.625
1585.934	4066.95833
1588.968	4050.29167
1591.999	4018.625
1595.029	4017.95833
1598.056	4022.29167
1601.081	4048.625
1604.104	4002.29167
1607.125	3997.625
1610.144	3918.29167
1613.16	3827.625
1616.174	3776.625
1619.186	3723.95833
1622.196	3639.625
1625.203	3584.95833
1628.209	3526.29167
1631.212	3494.95833
1634.213	3499.95833
1637.212	3566.625
1640.209	3566.625
1643.203	3477.29167
1646.196	3371.625
1649.186	3174.625
1652.174	3069.29167
1655.16	2958.95833
1658.144	2836.625
1661.125	2695.625
1664.105	2564.95833
1667.082	2437.625
1670.057	2306.95833
1673.03	2167.29167
1676.001	2034.625
1678.97	1903.95833
1681.937	1792.625
1684.901	1689.95833
1687.863	1637.625
1690.824	1570.625
1693.782	1548.625
1696.738	1483.625
1699.692	1454.95833
1702.643	1412.29167
1705.593	1406.29167
1708.54	1390.95833
1711.486	1379.29167
1714.429	1342.95833
1717.37	1351.29167
1720.309	1317.625
1723.246	1321.95833
1726.181	1294.95833
1729.113	1285.95833
1732.044	1284.625
1734.972	1273.95833
1737.899	1263.625
1740.823	1259.29167
1743.745	1270.95833
1746.665	1212.95833
1749.583	1203.625
1752.499	1169.29167
1755.413	1168.95833
1758.325	1146.95833
1761.235	1149.95833
1764.142	1121.29167
1767.048	1112.95833
1769.951	1121.95833
1772.852	1114.625
1775.752	1121.625
1778.649	1128.95833
1781.544	1114.29167
1784.437	1079.625
1787.328	1078.29167
1790.217	1066.29167
1793.104	1056.29167
1795.989	1052.29167
1798.872	1042.29167
1801.753	1060.625
1804.631	1037.625
1807.508	1044.625
1810.383	1043.95833
1813.255	1038.95833
1816.126	1030.95833
1818.994	1029.29167
1821.861	1010.625
1824.725	1018.625
1827.587	1015.29167
1830.448	1010.625
1833.306	981.95833
1836.162	990.29167
1839.017	986.95833
1841.869	981.625
1844.719	971.625
1847.567	963.95833
1850.414	954.95833
1853.258	963.29167
1856.1	975.625
1858.94	975.625
1861.778	947.625
1864.614	967.95833
1867.448	959.95833
1870.28	943.625
1873.111	966.625
1875.939	948.29167
1878.765	959.625
1881.589	935.625
1884.411	941.29167
1887.231	947.95833
1890.049	932.29167
1892.865	939.625
1895.68	920.95833
1898.492	937.29167
1901.302	910.625
1904.11	915.95833
1906.916	915.625
1909.721	895.95833
1912.523	906.625
1915.323	885.95833
1918.122	892.95833
1920.918	896.29167
1923.712	885.29167
1926.505	872.95833
1929.295	883.29167
1932.084	896.625
1934.87	876.29167
1937.655	874.625
1940.438	877.95833
1943.218	872.625
1945.997	884.625
1948.774	873.29167
1951.549	887.625
1954.322	864.29167
1957.093	870.95833
1959.862	851.95833
1962.629	858.29167
1965.394	845.625
1968.157	841.29167
1970.918	848.29167
1973.678	838.29167
1976.435	845.29167
1979.19	840.29167
1981.944	824.29167
1984.696	828.625
1987.445	817.625
1990.193	825.625
1992.939	836.95833
1995.683	817.29167
1998.425	803.95833
2001.165	827.29167
2003.903	815.625
2006.639	817.29167
2009.374	816.95833
2012.106	811.29167
2014.837	792.625
2017.566	801.625
2020.292	805.625
2023.017	808.95833
2025.74	807.625
2028.461	792.29167
2031.18	800.625
2033.898	785.29167
2036.613	776.95833
2039.327	784.95833
2042.038	775.95833
2044.748	785.95833
2047.456	777.625
2050.162	755.95833
2052.866	760.95833
2055.568	787.29167
2058.268	757.95833
2060.967	762.95833
2063.663	761.29167
2066.358	751.95833
2069.051	747.625
2071.742	757.95833
2074.431	759.95833
2077.118	742.95833
2079.804	738.625
2082.487	747.625
2085.169	764.95833
2087.849	770.625
2090.527	746.625
2093.203	764.625
2095.877	759.625
2098.55	766.29167
2101.22	769.29167
2103.889	773.29167
2106.556	773.625
2109.221	782.625
2111.884	777.625
2114.546	828.625
2117.205	863.95833
2119.863	920.95833
2122.519	959.29167
2125.173	1004.95833
2127.825	1075.95833
2130.475	1079.95833
2133.124	1071.95833
2135.771	1036.95833
2138.416	1013.625
2141.059	955.625
2143.7	927.625
2146.339	866.95833
2148.977	831.29167
2151.613	812.625
2154.247	788.625
2156.879	788.625
2159.51	772.625
2162.138	763.29167
2164.765	752.29167
2167.39	737.95833
2170.013	749.29167
2172.634	737.625
2175.254	738.95833
2177.872	759.29167
2180.488	705.95833
2183.102	702.29167
2185.714	699.29167
2188.325	677.625
2190.934	698.29167
2193.541	693.625
2196.146	686.625
2198.75	661.625
2201.351	660.625
2203.951	644.95833
2206.549	663.29167
2209.146	654.625
2211.74	646.95833
2214.333	665.29167
2216.924	634.29167
2219.514	641.95833
2222.101	628.29167
2224.687	655.29167
2227.271	632.95833
2229.853	631.95833
2232.433	622.95833
2235.012	643.29167
2237.589	632.625
2240.164	644.625
2242.738	621.95833
2245.309	614.95833
2247.879	610.95833
2250.448	619.625
2253.014	596.95833
2255.579	586.95833
2258.142	591.625
2260.703	581.95833
2263.262	585.625
2265.82	563.29167
2268.376	587.625
2270.93	557.29167
2273.483	554.29167
2276.033	563.625
2278.583	561.95833
2281.13	558.95833
2283.675	545.95833
2286.219	564.625
2288.761	552.29167
2291.302	551.625
2293.841	557.95833
2296.377	537.625
2298.913	547.29167
2301.446	558.95833
2303.978	542.625
2306.508	539.95833
2309.037	539.95833
2311.563	541.95833
2314.088	553.29167
2316.612	516.29167
2319.133	534.625
2321.653	535.29167
2324.171	526.625
2326.688	542.29167
2329.202	517.95833
2331.715	527.95833
2334.227	521.95833
2336.736	522.29167
2339.244	513.625
2341.751	510.625
2344.255	520.95833
2346.758	515.625
2349.259	500.29167
2351.759	501.95833
2354.257	498.95833
2356.753	497.95833
2359.247	507.625
2361.74	513.29167
2364.231	504.29167
2366.721	498.95833
2369.209	500.625
2371.695	501.625
2374.179	493.29167
2376.662	488.625
2379.143	501.29167
2381.622	493.95833
2384.1	484.95833
2386.576	493.95833
2389.051	499.95833
2391.524	516.95833
2393.995	489.625
2396.464	482.29167
2398.932	491.29167
2401.398	479.625
2403.863	476.95833
2406.325	481.625
2408.787	485.625
2411.246	483.95833
2413.704	474.95833
2416.16	467.95833
2418.615	469.625
2421.068	488.95833
2423.519	489.95833
2425.969	465.95833
2428.417	466.95833
2430.863	495.95833
2433.308	478.95833
2435.751	471.95833
2438.193	472.29167
2440.633	474.625
2443.071	474.29167
2445.508	461.95833
2447.943	465.95833
2450.376	451.95833
2452.808	466.29167
2455.238	450.29167
2457.667	486.625
2460.093	448.95833
2462.519	444.625
2464.942	455.625
2467.365	456.29167
2469.785	461.29167
2472.204	454.625
2474.621	443.29167
2477.037	458.29167
2479.451	430.625
2481.863	434.29167
2484.274	431.95833
2486.683	449.625
2489.091	447.625
2491.497	439.29167
2493.901	449.625
2496.304	442.625
2498.705	442.95833
2501.105	437.625
2503.503	465.29167
2505.899	424.625
2508.294	446.29167
2510.687	434.29167
2513.079	429.625
2515.469	425.95833
2517.858	433.29167
2520.245	439.29167
2522.63	425.95833
2525.014	422.29167
2527.396	413.29167
2529.776	415.95833
2532.156	438.29167
2534.533	422.95833
2536.909	421.29167
2539.283	402.95833
2541.656	407.95833
2544.027	437.95833
2546.397	416.625
2548.765	412.29167
2551.131	416.29167
2553.496	417.29167
2555.86	419.625
2558.221	418.625
2560.582	410.29167
2562.94	394.29167
2565.298	407.625
2567.653	429.625
2570.007	399.29167
2572.36	415.625
2574.711	411.29167
2577.06	430.29167
2579.408	417.625
2581.754	403.625
2584.099	417.95833
2586.442	404.29167
2588.784	410.625
2591.124	406.625
2593.463	401.625
2595.8	404.625
2598.135	392.95833
2600.469	393.625
2602.802	402.29167
2605.133	415.625
2607.462	394.625
2609.79	391.95833
2612.116	397.625
2614.441	409.29167
2616.764	393.95833
2619.086	404.625
2621.406	388.625
2623.725	408.625
2626.042	408.95833
2628.358	390.625
2630.672	389.29167
2632.985	407.625
2635.296	399.95833
2637.606	404.95833
2639.914	383.29167
2642.22	398.29167
2644.525	398.95833
2646.829	406.29167
2649.131	407.29167
2651.432	406.95833
2653.731	399.625
2656.028	404.95833
2658.324	414.29167
2660.619	393.625
2662.912	414.95833
2665.204	381.625
2667.494	405.95833
2669.782	393.95833
2672.07	407.29167
2674.355	407.625
2676.639	406.95833
2678.922	393.95833
2681.203	400.29167
2683.483	393.29167
2685.761	397.95833
2688.038	396.29167
2690.313	419.29167
2692.587	411.29167
2694.859	399.95833
2697.13	399.625
2699.399	411.625
2701.667	417.29167
2703.933	415.29167
2706.198	411.29167
2708.461	418.95833
2710.723	421.95833
2712.984	419.95833
2715.243	422.625
2717.5	415.95833
2719.757	430.625
2722.011	416.29167
2724.264	428.625
2726.516	442.625
2728.766	418.29167
2731.015	426.95833
2733.262	422.95833
2735.508	425.625
2737.753	423.95833
2739.996	408.625
2742.237	409.29167
2744.477	426.95833
2746.716	421.95833
2748.953	413.625
2751.189	416.29167
2753.423	407.95833
2755.656	393.95833
2757.887	392.95833
2760.117	403.625
2762.346	393.29167
2764.573	380.95833
2766.798	391.95833
2769.022	393.29167
2771.245	402.625
2773.467	399.625
2775.686	406.29167
2777.905	408.29167
2780.122	413.95833
2782.337	405.29167
2784.552	416.95833
2786.764	406.95833
2788.976	417.625
2791.186	405.625
2793.394	418.625
2795.601	419.29167
2797.807	440.29167
2800.011	427.95833
2802.214	438.95833
2804.415	439.625
2806.615	439.625
2808.814	438.625
2811.011	457.625
2813.206	437.29167
2815.401	464.625
2817.594	453.95833
2819.785	474.625
2821.975	464.95833
2824.164	468.95833
2826.351	482.625
2828.537	495.625
2830.722	497.95833
2832.905	511.625
2835.086	536.29167
2837.267	564.625
2839.445	573.95833
2841.623	598.29167
2843.799	614.95833
2845.974	633.625
2848.147	681.625
2850.319	701.625
2852.489	730.95833
2854.659	726.625
2856.826	752.95833
2858.993	781.29167
2861.158	765.95833
2863.321	767.95833
2865.483	782.29167
2867.644	780.625
2869.804	777.95833
2871.962	780.29167
2874.118	788.95833
2876.274	786.625
2878.428	783.29167
2880.58	790.625
2882.731	769.625
2884.881	781.625
2887.03	779.625
2889.177	765.625
2891.322	794.29167
2893.467	781.95833
2895.61	781.29167
2897.751	811.625
2899.892	794.29167
2902.03	803.95833
2904.168	811.29167
2906.304	813.95833
2908.439	829.29167
2910.572	824.95833
2912.704	835.95833
2914.835	833.625
2916.965	831.95833
2919.093	836.29167
2921.219	825.95833
2923.345	835.29167
2925.469	801.29167
2927.591	817.625
2929.712	777.29167
2931.832	775.95833
2933.951	762.29167
2936.068	759.95833
2938.184	728.95833
2940.299	717.625
2942.412	689.95833
2944.524	667.625
2946.634	658.625
2948.744	607.625
2950.851	631.625
2952.958	589.29167
2955.063	589.29167
2957.167	584.95833
2959.269	553.29167
2961.371	568.29167
2963.471	530.29167
2965.569	546.29167
2967.666	504.29167
2969.762	505.95833
2971.857	486.95833
2973.95	481.29167
2976.042	471.625
2978.133	459.625
2980.222	445.95833
2982.31	430.625
2984.396	421.95833
2986.482	415.625
2988.566	405.625
2990.648	403.95833
2992.73	406.625
2994.81	385.95833
2996.889	398.29167
2998.966	402.29167
3001.042	397.625
3003.117	391.625
3005.191	396.625
3007.263	385.29167
3009.334	362.625
3011.403	382.625
3013.472	364.95833
3015.539	363.29167
3017.604	373.95833
3019.669	332.95833
3021.732	344.29167
3023.794	341.625
3025.854	345.625
3027.914	335.625
3029.971	342.95833
3032.028	337.95833
3034.083	333.29167
3036.137	334.95833
3038.19	324.29167
3040.242	315.95833
3042.292	305.29167
3044.341	304.95833
3046.388	317.95833
3048.435	297.625
3050.48	318.625
3052.524	309.29167
3054.566	289.625
3056.607	302.625
3058.647	290.95833
3060.686	274.95833
3062.723	270.625
3064.759	257.95833
3066.794	-1.04167
3068.828	3.625
3070.86	1.29167
