-0.839	474.75
3.438	559.41667
7.711	175.08333
11.981	60.41667
16.247	47.41667
20.509	52.75
24.768	48.08333
29.024	58.41667
33.276	45.41667
37.524	52.08333
41.769	48.08333
46.01	35.75
50.247	52.08333
54.481	58.75
58.712	63.75
62.939	47.75
67.162	67.41667
71.382	59.08333
75.599	46.75
79.812	70.08333
84.021	82.08333
88.227	58.75
92.429	60.41667
96.628	56.75
100.823	73.41667
105.015	79.41667
109.204	72.75
113.388	78.41667
117.57	81.41667
121.748	90.08333
125.922	85.08333
130.093	105.08333
134.261	97.41667
138.425	107.41667
142.585	146.08333
146.742	139.75
150.896	172.41667
155.046	212.08333
159.193	341.41667
163.336	596.08333
167.476	1084.08333
171.613	1951.75
175.746	3225.08333
179.875	4704.75
184.002	6084.75
188.124	7029.41667
192.244	7341.41667
196.36	7275.75
200.472	7104.75
204.581	6909.75
208.687	6743.41667
212.79	6673.75
216.889	6678.08333
220.984	6719.41667
225.077	6767.41667
229.165	6800.08333
233.251	6817.75
237.333	6781.08333
241.412	6742.08333
245.487	6655.41667
249.559	6569.75
253.628	6520.08333
257.694	6441.75
261.756	6393.08333
265.814	6250.75
269.87	6083.08333
273.922	5820.75
277.97	5603.41667
282.016	5507.08333
286.058	5375.75
290.097	5339.08333
294.132	5362.75
298.164	5308.08333
302.193	5118.41667
306.219	4811.75
310.241	4483.08333
314.26	4153.75
318.276	3937.75
322.288	3778.08333
326.297	3628.08333
330.303	3545.41667
334.305	3463.41667
338.305	3438.41667
342.301	3411.41667
346.294	3385.75
350.283	3377.08333
354.269	3358.41667
358.252	3333.08333
362.232	3321.08333
366.209	3306.75
370.182	3279.08333
374.152	3280.41667
378.119	3266.08333
382.083	3266.08333
386.043	3300.75
390	3273.08333
393.954	3273.75
397.905	3237.75
401.852	3248.75
405.797	3210.08333
409.738	3258.41667
413.676	3250.41667
417.61	3276.41667
421.542	3210.75
425.47	3157.08333
429.396	3135.41667
433.318	3109.41667
437.236	3118.75
441.152	3142.08333
445.065	3061.08333
448.974	3077.08333
452.88	3057.41667
456.783	3032.41667
460.683	3015.75
464.58	3027.75
468.473	3032.08333
472.364	3048.75
476.251	3055.08333
480.135	3090.08333
484.016	3098.75
487.894	3123.08333
491.769	3133.08333
495.641	3118.75
499.509	3131.08333
503.375	3092.41667
507.237	3121.41667
511.096	3104.08333
514.952	3089.41667
518.805	3108.75
522.655	3118.75
526.502	3102.75
530.346	3089.08333
534.187	3064.08333
538.024	3095.08333
541.859	3106.75
545.69	3128.75
549.519	3119.08333
553.344	3095.75
557.166	3052.75
560.985	3022.75
564.802	2986.75
568.615	2970.75
572.425	2923.75
576.232	2914.08333
580.036	2900.08333
583.836	2906.75
587.634	2918.75
591.429	2919.41667
595.221	2978.41667
599.01	2975.75
602.796	3022.08333
606.578	3030.08333
610.358	3047.75
614.135	3036.41667
617.909	3022.75
621.679	2995.08333
625.447	2983.41667
629.212	2984.08333
632.973	2974.08333
636.732	2982.75
640.488	2984.41667
644.241	2948.75
647.991	2941.41667
651.737	2979.41667
655.481	2971.08333
659.222	2985.08333
662.96	2991.75
666.695	3003.41667
670.427	2998.41667
674.156	3001.75
677.882	2960.41667
681.605	2956.75
685.325	2929.08333
689.043	2944.41667
692.757	2901.08333
696.468	2885.41667
700.177	2911.75
703.882	2868.75
707.585	2872.08333
711.284	2857.08333
714.981	2853.08333
718.675	2854.75
722.366	2874.75
726.054	2849.75
729.739	2864.75
733.421	2877.08333
737.1	2853.75
740.777	2872.75
744.45	2897.75
748.121	2898.75
751.789	2933.41667
755.453	2956.41667
759.115	2949.41667
762.774	2978.08333
766.431	2995.75
770.084	3016.41667
773.734	3006.75
777.382	3063.41667
781.027	3062.41667
784.669	3070.75
788.308	3112.75
791.944	3099.08333
795.577	3157.75
799.208	3138.08333
802.835	3192.75
806.46	3202.75
810.082	3235.08333
813.701	3272.08333
817.317	3319.08333
820.931	3314.08333
824.542	3280.41667
828.149	3247.41667
831.754	3184.75
835.357	3155.08333
838.956	3175.75
842.553	3173.75
846.146	3129.75
849.737	3095.08333
853.326	3104.75
856.911	3084.75
860.493	3121.08333
864.073	3142.08333
867.65	3187.41667
871.225	3211.41667
874.796	3187.75
878.365	3185.41667
881.931	3220.08333
885.494	3212.08333
889.054	3221.08333
892.612	3213.41667
896.166	3175.41667
899.719	3188.08333
903.268	3140.75
906.814	3119.75
910.358	3112.08333
913.899	3091.08333
917.438	3108.75
920.973	3090.41667
924.506	3165.75
928.036	3203.08333
931.564	3243.75
935.088	3280.08333
938.61	3234.41667
942.129	3276.75
945.646	3312.75
949.16	3378.08333
952.671	3423.08333
956.179	3415.75
959.685	3445.08333
963.188	3503.41667
966.688	3492.75
970.185	3390.75
973.68	3315.75
977.173	3215.41667
980.662	3169.75
984.149	3185.41667
987.633	3184.75
991.114	3216.08333
994.593	3259.75
998.069	3349.08333
1001.542	3471.75
1005.013	3418.08333
1008.481	3203.41667
1011.947	3155.41667
1015.409	3123.08333
1018.869	3137.08333
1022.327	3126.41667
1025.782	3101.41667
1029.234	3104.75
1032.683	3063.41667
1036.13	2975.08333
1039.574	2858.08333
1043.016	2791.75
1046.455	2742.41667
1049.891	2730.08333
1053.325	2730.08333
1056.756	2747.08333
1060.184	2739.75
1063.61	2741.75
1067.033	2750.75
1070.454	2766.41667
1073.872	2785.75
1077.287	2798.08333
1080.7	2809.41667
1084.11	2793.08333
1087.517	2755.41667
1090.922	2693.08333
1094.325	2679.08333
1097.724	2672.75
1101.122	2659.41667
1104.516	2651.08333
1107.908	2631.08333
1111.298	2694.08333
1114.684	2731.41667
1118.069	2739.41667
1121.45	2778.75
1124.83	2742.08333
1128.206	2785.75
1131.58	2817.41667
1134.951	2866.08333
1138.32	2934.08333
1141.687	3035.08333
1145.05	3112.75
1148.412	3129.41667
1151.77	3123.08333
1155.126	3126.41667
1158.48	3109.41667
1161.831	3122.41667
1165.18	3140.08333
1168.525	3195.75
1171.869	3224.75
1175.21	3215.08333
1178.548	3258.75
1181.884	3290.75
1185.217	3301.75
1188.548	3334.41667
1191.877	3418.08333
1195.202	3534.08333
1198.526	3586.75
1201.846	3572.41667
1205.165	3564.41667
1208.48	3579.41667
1211.794	3558.08333
1215.104	3555.08333
1218.413	3572.75
1221.719	3539.75
1225.022	3486.75
1228.323	3447.08333
1231.621	3409.41667
1234.917	3385.41667
1238.21	3416.41667
1241.501	3389.41667
1244.79	3386.08333
1248.076	3394.41667
1251.359	3434.75
1254.64	3500.75
1257.919	3515.75
1261.195	3568.08333
1264.468	3626.41667
1267.74	3668.08333
1271.008	3674.75
1274.275	3678.41667
1277.538	3634.75
1280.8	3642.75
1284.059	3606.75
1287.315	3654.41667
1290.569	3674.41667
1293.821	3659.08333
1297.07	3705.41667
1300.317	3715.75
1303.562	3705.08333
1306.803	3665.41667
1310.043	3681.75
1313.28	3621.41667
1316.515	3642.08333
1319.747	3636.75
1322.977	3574.41667
1326.204	3597.75
1329.429	3544.41667
1332.652	3544.08333
1335.872	3505.41667
1339.09	3485.75
1342.306	3481.08333
1345.519	3462.75
1348.729	3482.08333
1351.938	3502.75
1355.144	3412.41667
1358.347	3384.75
1361.548	3335.08333
1364.747	3292.75
1367.944	3304.08333
1371.138	3320.08333
1374.329	3313.08333
1377.518	3329.41667
1380.705	3314.41667
1383.89	3293.41667
1387.072	3199.41667
1390.252	3088.75
1393.429	2968.41667
1396.605	2920.41667
1399.777	2819.41667
1402.948	2777.41667
1406.116	2766.75
1409.282	2733.75
1412.445	2722.41667
1415.606	2755.08333
1418.765	2784.41667
1421.921	2821.75
1425.075	2866.41667
1428.227	2946.41667
1431.376	3100.41667
1434.524	3173.08333
1437.668	3270.08333
1440.811	3308.41667
1443.951	3349.41667
1447.089	3344.08333
1450.224	3335.08333
1453.357	3332.08333
1456.488	3281.75
1459.617	3265.08333
1462.743	3220.08333
1465.867	3130.41667
1468.989	3121.08333
1472.108	3071.08333
1475.225	3033.75
1478.34	3016.41667
1481.453	3009.75
1484.563	3010.75
1487.671	3055.41667
1490.776	3097.41667
1493.88	3135.08333
1496.981	3180.41667
1500.08	3224.41667
1503.176	3263.08333
1506.271	3305.08333
1509.363	3362.08333
1512.452	3372.75
1515.54	3413.75
1518.625	3444.08333
1521.708	3529.75
1524.789	3669.41667
1527.867	3802.41667
1530.944	3972.08333
1534.018	4124.75
1537.089	4253.08333
1540.159	4263.75
1543.226	4231.41667
1546.291	4129.75
1549.354	4036.75
1552.415	3951.08333
1555.473	3860.75
1558.529	3825.08333
1561.583	3789.75
1564.634	3751.41667
1567.684	3782.08333
1570.731	3829.41667
1573.776	3886.75
1576.819	3952.41667
1579.859	3999.08333
1582.898	4069.41667
1585.934	4106.75
1588.968	4120.41667
1591.999	4084.08333
1595.029	4072.75
1598.056	4104.75
1601.081	4116.75
1604.104	4092.41667
1607.125	4051.41667
1610.144	3962.08333
1613.16	3913.41667
1616.174	3825.75
1619.186	3802.75
1622.196	3673.08333
1625.203	3622.08333
1628.209	3576.08333
1631.212	3567.75
1634.213	3615.75
1637.212	3677.08333
1640.209	3649.08333
1643.203	3604.41667
1646.196	3456.75
1649.186	3260.08333
1652.174	3151.08333
1655.16	3021.41667
1658.144	2935.75
1661.125	2797.75
1664.105	2608.75
1667.082	2505.41667
1670.057	2356.75
1673.03	2229.75
1676.001	2089.41667
1678.97	1968.08333
1681.937	1844.08333
1684.901	1765.08333
1687.863	1694.75
1690.824	1607.41667
1693.782	1581.41667
1696.738	1540.75
1699.692	1506.41667
1702.643	1444.08333
1705.593	1449.75
1708.54	1439.75
1711.486	1428.41667
1714.429	1385.08333
1717.37	1385.41667
1720.309	1354.75
1723.246	1386.75
1726.181	1326.08333
1729.113	1343.08333
1732.044	1301.75
1734.972	1305.75
1737.899	1312.75
1740.823	1317.75
1743.745	1317.08333
1746.665	1250.41667
1749.583	1236.08333
1752.499	1232.08333
1755.413	1228.41667
1758.325	1191.41667
1761.235	1186.08333
1764.142	1165.08333
1767.048	1155.41667
1769.951	1155.08333
1772.852	1163.08333
1775.752	1163.41667
1778.649	1170.75
1781.544	1162.08333
1784.437	1118.75
1787.328	1136.75
1790.217	1119.41667
1793.104	1084.41667
1795.989	1096.41667
1798.872	1080.08333
1801.753	1094.41667
1804.631	1083.41667
1807.508	1088.75
1810.383	1088.08333
1813.255	1087.75
1816.126	1072.08333
1818.994	1068.08333
1821.861	1056.75
1824.725	1070.08333
1827.587	1046.75
1830.448	1038.08333
1833.306	1027.75
1836.162	1036.08333
1839.017	1026.08333
1841.869	1020.41667
1844.719	1015.41667
1847.567	1007.75
1850.414	985.41667
1853.258	997.08333
1856.1	1022.41667
1858.94	1007.41667
1861.778	1015.41667
1864.614	995.41667
1867.448	987.75
1870.28	988.75
1873.111	994.41667
1875.939	1004.08333
1878.765	1005.75
1881.589	979.08333
1884.411	982.08333
1887.231	983.41667
1890.049	967.75
1892.865	973.08333
1895.68	959.75
1898.492	975.75
1901.302	955.08333
1904.11	947.08333
1906.916	941.08333
1909.721	938.08333
1912.523	949.41667
1915.323	923.75
1918.122	919.41667
1920.918	930.08333
1923.712	919.41667
1926.505	922.41667
1929.295	904.75
1932.084	918.75
1934.87	906.41667
1937.655	917.75
1940.438	920.41667
1943.218	921.08333
1945.997	917.41667
1948.774	912.75
1951.549	912.41667
1954.322	919.08333
1957.093	902.41667
1959.862	896.41667
1962.629	883.08333
1965.394	882.41667
1968.157	861.75
1970.918	876.08333
1973.678	873.41667
1976.435	881.75
1979.19	864.75
1981.944	857.08333
1984.696	858.41667
1987.445	846.75
1990.193	858.08333
1992.939	861.41667
1995.683	854.75
1998.425	826.08333
2001.165	874.41667
2003.903	839.41667
2006.639	848.08333
2009.374	841.41667
2012.106	838.08333
2014.837	819.08333
2017.566	831.75
2020.292	842.75
2023.017	831.08333
2025.74	823.41667
2028.461	821.75
2031.18	820.75
2033.898	800.75
2036.613	816.08333
2039.327	818.08333
2042.038	803.41667
2044.748	809.41667
2047.456	800.08333
2050.162	803.41667
2052.866	799.08333
2055.568	812.41667
2058.268	790.08333
2060.967	802.08333
2063.663	781.08333
2066.358	780.08333
2069.051	771.75
2071.742	785.08333
2074.431	798.41667
2077.118	782.41667
2079.804	775.75
2082.487	777.41667
2085.169	795.75
2087.849	797.75
2090.527	775.41667
2093.203	789.75
2095.877	792.41667
2098.55	792.75
2101.22	795.41667
2103.889	788.75
2106.556	791.75
2109.221	808.75
2111.884	811.75
2114.546	848.08333
2117.205	870.41667
2119.863	930.41667
2122.519	974.08333
2125.173	1042.08333
2127.825	1093.41667
2130.475	1112.75
2133.124	1097.75
2135.771	1066.08333
2138.416	1033.08333
2141.059	980.75
2143.7	940.08333
2146.339	903.08333
2148.977	859.75
2151.613	846.08333
2154.247	823.08333
2156.879	810.08333
2159.51	795.08333
2162.138	771.75
2164.765	777.08333
2167.39	764.41667
2170.013	781.41667
2172.634	767.08333
2175.254	750.75
2177.872	785.41667
2180.488	724.75
2183.102	739.75
2185.714	721.41667
2188.325	702.08333
2190.934	711.08333
2193.541	709.08333
2196.146	704.08333
2198.75	684.08333
2201.351	681.41667
2203.951	676.08333
2206.549	689.75
2209.146	674.08333
2211.74	682.41667
2214.333	679.08333
2216.924	652.75
2219.514	675.08333
2222.101	647.08333
2224.687	665.41667
2227.271	657.41667
2229.853	636.75
2232.433	634.41667
2235.012	661.08333
2237.589	660.41667
2240.164	659.41667
2242.738	643.75
2245.309	632.75
2247.879	645.08333
2250.448	642.75
2253.014	619.75
2255.579	606.08333
2258.142	614.75
2260.703	601.41667
2263.262	604.41667
2265.82	588.41667
2268.376	610.75
2270.93	581.41667
2273.483	583.41667
2276.033	583.41667
2278.583	581.41667
2281.13	579.41667
2283.675	558.75
2286.219	574.75
2288.761	574.75
2291.302	577.41667
2293.841	581.41667
2296.377	559.08333
2298.913	567.41667
2301.446	571.08333
2303.978	567.08333
2306.508	551.41667
2309.037	564.41667
2311.563	560.41667
2314.088	559.08333
2316.612	546.75
2319.133	564.75
2321.653	553.41667
2324.171	536.75
2326.688	549.41667
2329.202	539.75
2331.715	540.41667
2334.227	535.41667
2336.736	532.41667
2339.244	533.41667
2341.751	525.08333
2344.255	537.08333
2346.758	532.08333
2349.259	521.75
2351.759	527.41667
2354.257	518.41667
2356.753	508.75
2359.247	517.41667
2361.74	530.75
2364.231	517.75
2366.721	521.08333
2369.209	504.75
2371.695	516.08333
2374.179	511.08333
2376.662	505.75
2379.143	514.41667
2381.622	502.75
2384.1	514.41667
2386.576	503.41667
2389.051	527.75
2391.524	523.75
2393.995	512.41667
2396.464	501.41667
2398.932	502.41667
2401.398	497.41667
2403.863	502.41667
2406.325	498.75
2408.787	493.08333
2411.246	487.41667
2413.704	484.75
2416.16	483.75
2418.615	491.08333
2421.068	503.41667
2423.519	491.41667
2425.969	482.41667
2428.417	484.08333
2430.863	513.75
2433.308	489.75
2435.751	484.08333
2438.193	479.75
2440.633	484.75
2443.071	485.75
2445.508	479.41667
2447.943	478.75
2450.376	466.08333
2452.808	467.08333
2455.238	468.41667
2457.667	495.75
2460.093	467.41667
2462.519	465.41667
2464.942	471.75
2467.365	471.75
2469.785	481.75
2472.204	471.08333
2474.621	453.75
2477.037	481.08333
2479.451	448.75
2481.863	445.41667
2484.274	452.75
2486.683	454.75
2489.091	463.41667
2491.497	449.08333
2493.901	460.41667
2496.304	447.41667
2498.705	456.41667
2501.105	450.75
2503.503	474.75
2505.899	437.08333
2508.294	463.75
2510.687	444.08333
2513.079	447.41667
2515.469	438.75
2517.858	438.75
2520.245	452.75
2522.63	439.75
2525.014	435.75
2527.396	430.41667
2529.776	426.75
2532.156	441.08333
2534.533	433.75
2536.909	423.08333
2539.283	416.08333
2541.656	423.41667
2544.027	445.08333
2546.397	423.08333
2548.765	423.08333
2551.131	428.08333
2553.496	420.41667
2555.86	429.08333
2558.221	424.75
2560.582	418.08333
2562.94	413.08333
2565.298	411.75
2567.653	435.75
2570.007	407.08333
2572.36	429.08333
2574.711	418.08333
2577.06	434.41667
2579.408	421.08333
2581.754	415.08333
2584.099	424.08333
2586.442	411.08333
2588.784	420.75
2591.124	410.41667
2593.463	419.75
2595.8	415.08333
2598.135	408.08333
2600.469	402.41667
2602.802	422.08333
2605.133	422.41667
2607.462	404.08333
2609.79	399.75
2612.116	413.41667
2614.441	412.75
2616.764	411.75
2619.086	407.08333
2621.406	398.08333
2623.725	421.75
2626.042	413.08333
2628.358	403.75
2630.672	404.41667
2632.985	421.08333
2635.296	409.08333
2637.606	403.08333
2639.914	398.75
2642.22	412.08333
2644.525	409.08333
2646.829	407.75
2649.131	425.08333
2651.432	412.41667
2653.731	411.08333
2656.028	424.41667
2658.324	416.08333
2660.619	408.08333
2662.912	421.41667
2665.204	407.75
2667.494	412.41667
2669.782	401.08333
2672.07	417.75
2674.355	413.75
2676.639	409.41667
2678.922	400.08333
2681.203	403.41667
2683.483	396.75
2685.761	395.41667
2688.038	406.41667
2690.313	438.08333
2692.587	408.41667
2694.859	403.41667
2697.13	403.75
2699.399	419.75
2701.667	420.08333
2703.933	427.75
2706.198	418.08333
2708.461	428.08333
2710.723	428.75
2712.984	420.08333
2715.243	433.08333
2717.5	422.08333
2719.757	433.75
2722.011	426.75
2724.264	437.75
2726.516	440.75
2728.766	426.75
2731.015	432.75
2733.262	431.75
2735.508	431.08333
2737.753	434.41667
2739.996	414.75
2742.237	425.08333
2744.477	438.08333
2746.716	430.41667
2748.953	424.41667
2751.189	423.08333
2753.423	411.08333
2755.656	405.41667
2757.887	401.75
2760.117	403.41667
2762.346	399.08333
2764.573	394.41667
2766.798	407.41667
2769.022	401.75
2771.245	406.41667
2773.467	401.08333
2775.686	408.08333
2777.905	406.75
2780.122	416.08333
2782.337	416.41667
2784.552	417.75
2786.764	418.75
2788.976	414.08333
2791.186	416.08333
2793.394	426.75
2795.601	426.08333
2797.807	439.75
2800.011	440.08333
2802.214	448.41667
2804.415	436.08333
2806.615	442.75
2808.814	446.75
2811.011	453.08333
2813.206	456.08333
2815.401	464.08333
2817.594	471.08333
2819.785	468.41667
2821.975	472.75
2824.164	475.08333
2826.351	487.08333
2828.537	510.08333
2830.722	508.75
2832.905	504.75
2835.086	544.75
2837.267	568.08333
2839.445	582.08333
2841.623	596.41667
2843.799	617.41667
2845.974	661.41667
2848.147	684.08333
2850.319	706.08333
2852.489	722.41667
2854.659	757.41667
2856.826	759.75
2858.993	796.08333
2861.158	764.41667
2863.321	769.41667
2865.483	774.75
2867.644	788.41667
2869.804	777.41667
2871.962	778.08333
2874.118	779.08333
2876.274	804.75
2878.428	804.08333
2880.58	795.41667
2882.731	774.08333
2884.881	772.08333
2887.03	789.75
2889.177	782.41667
2891.322	792.41667
2893.467	791.08333
2895.61	787.75
2897.751	827.75
2899.892	808.75
2902.03	802.75
2904.168	813.75
2906.304	817.41667
2908.439	847.41667
2910.572	818.41667
2912.704	822.08333
2914.835	839.41667
2916.965	827.41667
2919.093	848.75
2921.219	828.75
2923.345	844.08333
2925.469	815.41667
2927.591	808.75
2929.712	791.08333
2931.832	789.41667
2933.951	762.41667
2936.068	766.08333
2938.184	725.41667
2940.299	717.41667
2942.412	698.75
2944.524	666.41667
2946.634	658.08333
2948.744	620.41667
2950.851	641.08333
2952.958	598.08333
2955.063	597.08333
2957.167	585.08333
2959.269	557.75
2961.371	582.75
2963.471	537.08333
2965.569	536.08333
2967.666	510.08333
2969.762	515.41667
2971.857	493.41667
2973.95	481.75
2976.042	472.41667
2978.133	467.08333
2980.222	455.75
2982.31	429.41667
2984.396	418.75
2986.482	423.08333
2988.566	409.08333
2990.648	412.08333
2992.73	408.08333
2994.81	403.08333
2996.889	404.75
2998.966	398.41667
3001.042	405.08333
3003.117	401.08333
3005.191	399.41667
3007.263	391.41667
3009.334	371.41667
3011.403	387.41667
3013.472	368.08333
3015.539	375.41667
3017.604	385.08333
3019.669	349.08333
3021.732	343.08333
3023.794	354.75
3025.854	337.41667
3027.914	336.75
3029.971	356.41667
3032.028	337.08333
3034.083	344.75
3036.137	334.08333
3038.19	322.08333
3040.242	321.41667
3042.292	316.75
3044.341	311.75
3046.388	323.75
3048.435	294.75
3050.48	320.08333
3052.524	308.08333
3054.566	291.75
3056.607	308.75
3058.647	297.41667
3060.686	282.08333
3062.723	274.08333
3064.759	261.08333
3066.794	0.08333
3068.828	2.41667
3070.86	3.75
