-0.839	476.45833
3.438	571.79167
7.711	180.125
11.981	62.45833
16.247	42.45833
20.509	52.125
24.768	45.45833
29.024	54.45833
33.276	42.125
37.524	53.45833
41.769	46.125
46.01	34.125
50.247	46.125
54.481	59.45833
58.712	62.125
62.939	49.125
67.162	66.125
71.382	57.45833
75.599	50.125
79.812	68.125
84.021	85.79167
88.227	62.125
92.429	57.79167
96.628	53.125
100.823	70.79167
105.015	83.45833
109.204	67.125
113.388	80.45833
117.57	74.125
121.748	85.125
125.922	82.79167
130.093	99.45833
134.261	99.125
138.425	97.45833
142.585	138.45833
146.742	131.45833
150.896	166.79167
155.046	205.125
159.193	326.79167
163.336	571.125
167.476	1023.79167
171.613	1854.79167
175.746	3073.79167
179.875	4474.125
184.002	5831.79167
188.124	6625.45833
192.244	6935.79167
196.36	6851.79167
200.472	6675.45833
204.581	6531.125
208.687	6332.45833
212.79	6287.79167
216.889	6291.45833
220.984	6327.125
225.077	6330.79167
229.165	6346.79167
233.251	6376.79167
237.333	6358.125
241.412	6291.125
245.487	6248.125
249.559	6173.45833
253.628	6113.125
257.694	6051.125
261.756	5959.79167
265.814	5810.79167
269.87	5606.79167
273.922	5389.45833
277.97	5224.79167
282.016	5086.125
286.058	5003.45833
290.097	5008.45833
294.132	4969.125
298.164	4941.125
302.193	4726.45833
306.219	4407.79167
310.241	4092.45833
314.26	3798.79167
318.276	3575.79167
322.288	3429.45833
326.297	3288.79167
330.303	3180.125
334.305	3106.45833
338.305	3080.45833
342.301	3039.79167
346.294	3025.125
350.283	3002.79167
354.269	2974.79167
358.252	2957.79167
362.232	2951.125
366.209	2921.79167
370.182	2883.79167
374.152	2890.125
378.119	2872.45833
382.083	2897.125
386.043	2926.45833
390	2867.45833
393.954	2881.45833
397.905	2890.79167
401.852	2873.45833
405.797	2857.45833
409.738	2862.45833
413.676	2897.45833
417.61	2877.125
421.542	2817.79167
425.47	2761.79167
429.396	2754.45833
433.318	2736.45833
437.236	2727.45833
441.152	2778.79167
445.065	2696.45833
448.974	2696.125
452.88	2669.79167
456.783	2636.125
460.683	2644.79167
464.58	2642.79167
468.473	2656.45833
472.364	2671.79167
476.251	2664.45833
480.135	2649.125
484.016	2712.79167
487.894	2705.79167
491.769	2727.79167
495.641	2736.79167
499.509	2741.125
503.375	2724.125
507.237	2725.125
511.096	2729.79167
514.952	2724.125
518.805	2728.125
522.655	2768.45833
526.502	2704.125
530.346	2709.79167
534.187	2727.125
538.024	2723.125
541.859	2729.79167
545.69	2743.45833
549.519	2720.45833
553.344	2693.45833
557.166	2693.45833
560.985	2664.79167
564.802	2650.45833
568.615	2602.79167
572.425	2530.79167
576.232	2528.45833
580.036	2549.79167
583.836	2536.79167
587.634	2554.125
591.429	2547.45833
595.221	2614.125
599.01	2628.45833
602.796	2646.125
606.578	2655.79167
610.358	2688.79167
614.135	2647.79167
617.909	2655.125
621.679	2618.45833
625.447	2614.79167
629.212	2606.79167
632.973	2620.45833
636.732	2601.45833
640.488	2583.45833
644.241	2588.79167
647.991	2571.79167
651.737	2611.45833
655.481	2582.45833
659.222	2605.125
662.96	2593.45833
666.695	2617.45833
670.427	2623.79167
674.156	2608.125
677.882	2608.79167
681.605	2580.79167
685.325	2541.79167
689.043	2561.125
692.757	2542.45833
696.468	2528.125
700.177	2546.79167
703.882	2506.45833
707.585	2495.79167
711.284	2505.79167
714.981	2496.125
718.675	2503.125
722.366	2527.45833
726.054	2494.125
729.739	2522.125
733.421	2524.79167
737.1	2526.125
740.777	2537.79167
744.45	2543.45833
748.121	2558.79167
751.789	2611.45833
755.453	2583.45833
759.115	2612.79167
762.774	2637.125
766.431	2640.125
770.084	2670.45833
773.734	2672.45833
777.382	2746.45833
781.027	2744.79167
784.669	2762.45833
788.308	2772.79167
791.944	2796.125
795.577	2800.79167
799.208	2822.125
802.835	2845.79167
806.46	2882.125
810.082	2911.45833
813.701	2916.45833
817.317	2929.45833
820.931	2916.45833
824.542	2941.79167
828.149	2893.125
831.754	2831.125
835.357	2832.125
838.956	2844.79167
842.553	2837.79167
846.146	2837.45833
849.737	2778.45833
853.326	2789.125
856.911	2783.45833
860.493	2819.125
864.073	2848.125
867.65	2915.79167
871.225	2930.125
874.796	2905.125
878.365	2904.125
881.931	2930.125
885.494	2951.45833
889.054	2960.45833
892.612	2952.45833
896.166	2915.79167
899.719	2866.125
903.268	2856.45833
906.814	2834.45833
910.358	2808.125
913.899	2805.45833
917.438	2833.125
920.973	2818.79167
924.506	2862.45833
928.036	2874.45833
931.564	2934.125
935.088	2957.45833
938.61	2960.45833
942.129	2978.79167
945.646	3025.125
949.16	3096.79167
952.671	3139.125
956.179	3163.45833
959.685	3157.125
963.188	3186.125
966.688	3145.45833
970.185	3034.79167
973.68	2981.45833
977.173	2920.45833
980.662	2895.79167
984.149	2875.125
987.633	2865.45833
991.114	2931.45833
994.593	2974.79167
998.069	3052.45833
1001.542	3158.79167
1005.013	3126.45833
1008.481	2957.79167
1011.947	2902.79167
1015.409	2858.125
1018.869	2860.125
1022.327	2855.45833
1025.782	2830.79167
1029.234	2825.125
1032.683	2785.79167
1036.13	2695.125
1039.574	2616.125
1043.016	2541.125
1046.455	2495.45833
1049.891	2453.125
1053.325	2476.45833
1056.756	2479.79167
1060.184	2496.125
1063.61	2506.79167
1067.033	2511.79167
1070.454	2503.79167
1073.872	2535.125
1077.287	2526.79167
1080.7	2533.45833
1084.11	2534.79167
1087.517	2500.45833
1090.922	2475.125
1094.325	2434.125
1097.724	2424.79167
1101.122	2412.125
1104.516	2421.79167
1107.908	2423.79167
1111.298	2469.125
1114.684	2497.79167
1118.069	2523.45833
1121.45	2552.79167
1124.83	2537.125
1128.206	2559.125
1131.58	2607.45833
1134.951	2650.79167
1138.32	2733.45833
1141.687	2859.125
1145.05	2903.79167
1148.412	2910.125
1151.77	2945.125
1155.126	2912.79167
1158.48	2915.45833
1161.831	2928.125
1165.18	2946.125
1168.525	2992.125
1171.869	3027.45833
1175.21	3069.125
1178.548	3080.125
1181.884	3099.45833
1185.217	3105.79167
1188.548	3169.45833
1191.877	3235.125
1195.202	3307.79167
1198.526	3392.79167
1201.846	3409.125
1205.165	3358.125
1208.48	3347.79167
1211.794	3318.125
1215.104	3341.79167
1218.413	3330.79167
1221.719	3330.125
1225.022	3277.45833
1228.323	3214.45833
1231.621	3200.79167
1234.917	3183.125
1238.21	3203.125
1241.501	3211.125
1244.79	3183.79167
1248.076	3191.125
1251.359	3223.79167
1254.64	3301.125
1257.919	3293.45833
1261.195	3346.79167
1264.468	3397.79167
1267.74	3446.45833
1271.008	3448.125
1274.275	3456.45833
1277.538	3417.125
1280.8	3401.125
1284.059	3407.125
1287.315	3450.79167
1290.569	3448.125
1293.821	3473.125
1297.07	3495.125
1300.317	3517.79167
1303.562	3486.45833
1306.803	3468.79167
1310.043	3473.125
1313.28	3439.79167
1316.515	3412.45833
1319.747	3402.45833
1322.977	3388.45833
1326.204	3352.125
1329.429	3284.45833
1332.652	3304.125
1335.872	3303.125
1339.09	3245.45833
1342.306	3224.125
1345.519	3202.79167
1348.729	3179.45833
1351.938	3199.125
1355.144	3137.125
1358.347	3093.45833
1361.548	3078.79167
1364.747	3060.45833
1367.944	3043.45833
1371.138	3049.45833
1374.329	3049.45833
1377.518	3066.45833
1380.705	3087.125
1383.89	3075.125
1387.072	2971.125
1390.252	2873.125
1393.429	2760.45833
1396.605	2675.79167
1399.777	2617.79167
1402.948	2550.125
1406.116	2554.125
1409.282	2540.125
1412.445	2519.45833
1415.606	2550.125
1418.765	2572.125
1421.921	2646.79167
1425.075	2697.79167
1428.227	2757.79167
1431.376	2875.45833
1434.524	2999.79167
1437.668	3071.79167
1440.811	3095.125
1443.951	3125.45833
1447.089	3115.125
1450.224	3122.45833
1453.357	3103.79167
1456.488	3131.125
1459.617	3079.79167
1462.743	3035.45833
1465.867	2948.45833
1468.989	2921.125
1472.108	2866.45833
1475.225	2839.79167
1478.34	2816.79167
1481.453	2820.125
1484.563	2832.45833
1487.671	2863.79167
1490.776	2884.125
1493.88	2964.125
1496.981	2985.45833
1500.08	3032.45833
1503.176	3070.79167
1506.271	3120.79167
1509.363	3141.45833
1512.452	3202.79167
1515.54	3231.79167
1518.625	3279.125
1521.708	3366.79167
1524.789	3459.45833
1527.867	3609.45833
1530.944	3820.125
1534.018	3963.79167
1537.089	4102.45833
1540.159	4102.45833
1543.226	4073.125
1546.291	3957.79167
1549.354	3894.45833
1552.415	3823.125
1555.473	3721.45833
1558.529	3685.125
1561.583	3620.79167
1564.634	3608.125
1567.684	3639.79167
1570.731	3654.79167
1573.776	3732.125
1576.819	3778.79167
1579.859	3829.45833
1582.898	3883.45833
1585.934	3957.45833
1588.968	3950.45833
1591.999	3906.45833
1595.029	3921.79167
1598.056	3927.125
1601.081	3955.45833
1604.104	3902.125
1607.125	3874.79167
1610.144	3795.45833
1613.16	3736.79167
1616.174	3649.79167
1619.186	3556.45833
1622.196	3496.125
1625.203	3418.125
1628.209	3348.125
1631.212	3346.45833
1634.213	3327.79167
1637.212	3357.125
1640.209	3334.125
1643.203	3248.79167
1646.196	3145.45833
1649.186	3014.125
1652.174	2879.79167
1655.16	2757.79167
1658.144	2675.45833
1661.125	2534.45833
1664.105	2405.125
1667.082	2296.79167
1670.057	2159.45833
1673.03	2056.45833
1676.001	1929.79167
1678.97	1823.125
1681.937	1698.125
1684.901	1615.125
1687.863	1549.79167
1690.824	1478.45833
1693.782	1450.45833
1696.738	1392.45833
1699.692	1379.45833
1702.643	1334.125
1705.593	1325.45833
1708.54	1324.125
1711.486	1301.125
1714.429	1257.45833
1717.37	1271.125
1720.309	1242.125
1723.246	1235.79167
1726.181	1209.125
1729.113	1210.125
1732.044	1177.79167
1734.972	1181.79167
1737.899	1193.79167
1740.823	1171.125
1743.745	1181.79167
1746.665	1123.79167
1749.583	1121.45833
1752.499	1097.79167
1755.413	1088.79167
1758.325	1067.125
1761.235	1066.125
1764.142	1046.125
1767.048	1020.79167
1769.951	1031.79167
1772.852	1038.45833
1775.752	1036.45833
1778.649	1045.79167
1781.544	1031.45833
1784.437	989.45833
1787.328	1018.79167
1790.217	989.45833
1793.104	993.79167
1795.989	964.79167
1798.872	956.79167
1801.753	980.45833
1804.631	955.45833
1807.508	989.125
1810.383	950.125
1813.255	966.79167
1816.126	953.79167
1818.994	964.125
1821.861	940.79167
1824.725	937.79167
1827.587	937.45833
1830.448	923.45833
1833.306	905.45833
1836.162	926.125
1839.017	908.79167
1841.869	905.125
1844.719	899.125
1847.567	881.79167
1850.414	887.45833
1853.258	876.79167
1856.1	899.79167
1858.94	896.125
1861.778	897.79167
1864.614	889.125
1867.448	878.125
1870.28	878.45833
1873.111	894.45833
1875.939	875.45833
1878.765	904.45833
1881.589	868.79167
1884.411	874.79167
1887.231	871.79167
1890.049	873.125
1892.865	871.125
1895.68	860.125
1898.492	861.125
1901.302	852.79167
1904.11	854.79167
1906.916	850.125
1909.721	822.79167
1912.523	842.45833
1915.323	824.125
1918.122	821.45833
1920.918	828.79167
1923.712	811.79167
1926.505	810.125
1929.295	810.125
1932.084	821.79167
1934.87	817.79167
1937.655	818.45833
1940.438	813.79167
1943.218	804.79167
1945.997	819.45833
1948.774	811.79167
1951.549	819.79167
1954.322	806.79167
1957.093	821.79167
1959.862	790.125
1962.629	791.125
1965.394	799.45833
1968.157	778.79167
1970.918	784.79167
1973.678	764.79167
1976.435	779.79167
1979.19	778.45833
1981.944	757.125
1984.696	760.79167
1987.445	739.79167
1990.193	764.125
1992.939	763.79167
1995.683	759.79167
1998.425	740.45833
2001.165	770.125
2003.903	755.79167
2006.639	751.79167
2009.374	762.125
2012.106	754.125
2014.837	742.45833
2017.566	757.125
2020.292	753.79167
2023.017	747.79167
2025.74	742.125
2028.461	733.125
2031.18	735.45833
2033.898	733.125
2036.613	722.125
2039.327	731.45833
2042.038	724.125
2044.748	725.45833
2047.456	723.45833
2050.162	718.79167
2052.866	718.45833
2055.568	727.45833
2058.268	704.45833
2060.967	714.45833
2063.663	704.45833
2066.358	699.125
2069.051	693.45833
2071.742	698.45833
2074.431	704.79167
2077.118	696.45833
2079.804	692.45833
2082.487	695.45833
2085.169	704.79167
2087.849	725.45833
2090.527	682.125
2093.203	695.45833
2095.877	710.45833
2098.55	712.125
2101.22	714.79167
2103.889	727.45833
2106.556	715.125
2109.221	743.45833
2111.884	739.45833
2114.546	789.125
2117.205	817.45833
2119.863	877.45833
2122.519	923.79167
2125.173	971.79167
2127.825	1048.79167
2130.475	1049.79167
2133.124	1023.79167
2135.771	993.45833
2138.416	973.125
2141.059	919.79167
2143.7	889.79167
2146.339	828.125
2148.977	788.79167
2151.613	775.125
2154.247	751.125
2156.879	742.79167
2159.51	718.45833
2162.138	718.79167
2164.765	712.125
2167.39	689.79167
2170.013	715.125
2172.634	700.79167
2175.254	677.125
2177.872	703.45833
2180.488	659.79167
2183.102	678.79167
2185.714	653.125
2188.325	650.125
2190.934	652.79167
2193.541	648.79167
2196.146	648.125
2198.75	618.45833
2201.351	624.125
2203.951	610.79167
2206.549	634.125
2209.146	613.45833
2211.74	618.79167
2214.333	625.125
2216.924	595.45833
2219.514	609.45833
2222.101	599.45833
2224.687	613.45833
2227.271	598.79167
2229.853	579.79167
2232.433	581.79167
2235.012	602.125
2237.589	596.79167
2240.164	604.45833
2242.738	588.125
2245.309	564.45833
2247.879	580.79167
2250.448	589.125
2253.014	562.45833
2255.579	559.79167
2258.142	565.45833
2260.703	547.79167
2263.262	552.79167
2265.82	545.79167
2268.376	556.125
2270.93	533.125
2273.483	529.45833
2276.033	544.45833
2278.583	533.45833
2281.13	539.45833
2283.675	521.45833
2286.219	516.79167
2288.761	522.125
2291.302	517.79167
2293.841	533.125
2296.377	502.125
2298.913	511.45833
2301.446	525.45833
2303.978	509.79167
2306.508	503.125
2309.037	521.79167
2311.563	507.79167
2314.088	525.45833
2316.612	485.45833
2319.133	501.125
2321.653	497.125
2324.171	484.125
2326.688	509.125
2329.202	502.79167
2331.715	489.79167
2334.227	484.79167
2336.736	500.79167
2339.244	489.79167
2341.751	475.45833
2344.255	484.125
2346.758	487.79167
2349.259	465.79167
2351.759	482.79167
2354.257	478.125
2356.753	472.79167
2359.247	480.79167
2361.74	482.79167
2364.231	469.79167
2366.721	474.79167
2369.209	467.45833
2371.695	472.45833
2374.179	471.125
2376.662	451.125
2379.143	478.45833
2381.622	466.79167
2384.1	469.45833
2386.576	465.125
2389.051	476.125
2391.524	480.125
2393.995	478.79167
2396.464	463.125
2398.932	452.125
2401.398	453.125
2403.863	451.79167
2406.325	455.125
2408.787	456.79167
2411.246	456.45833
2413.704	445.125
2416.16	456.125
2418.615	452.79167
2421.068	459.45833
2423.519	455.79167
2425.969	443.79167
2428.417	443.45833
2430.863	464.125
2433.308	465.125
2435.751	447.79167
2438.193	437.79167
2440.633	442.79167
2443.071	452.79167
2445.508	436.125
2447.943	433.125
2450.376	427.125
2452.808	430.79167
2455.238	431.45833
2457.667	465.125
2460.093	438.79167
2462.519	417.45833
2464.942	424.79167
2467.365	433.79167
2469.785	438.125
2472.204	426.79167
2474.621	421.45833
2477.037	444.125
2479.451	409.125
2481.863	421.125
2484.274	405.79167
2486.683	421.45833
2489.091	432.125
2491.497	417.79167
2493.901	425.45833
2496.304	419.79167
2498.705	424.79167
2501.105	410.45833
2503.503	446.125
2505.899	401.45833
2508.294	437.125
2510.687	412.79167
2513.079	407.125
2515.469	405.45833
2517.858	420.45833
2520.245	417.125
2522.63	403.125
2525.014	404.45833
2527.396	397.79167
2529.776	398.45833
2532.156	421.45833
2534.533	396.125
2536.909	400.125
2539.283	385.79167
2541.656	382.79167
2544.027	410.45833
2546.397	393.45833
2548.765	397.125
2551.131	402.79167
2553.496	398.125
2555.86	406.125
2558.221	395.79167
2560.582	393.125
2562.94	377.45833
2565.298	393.79167
2567.653	396.45833
2570.007	375.125
2572.36	400.79167
2574.711	380.125
2577.06	402.125
2579.408	392.79167
2581.754	389.45833
2584.099	392.125
2586.442	385.79167
2588.784	389.79167
2591.124	392.125
2593.463	386.45833
2595.8	391.45833
2598.135	376.45833
2600.469	384.45833
2602.802	402.45833
2605.133	393.45833
2607.462	373.125
2609.79	380.79167
2612.116	388.45833
2614.441	394.125
2616.764	386.125
2619.086	385.79167
2621.406	363.79167
2623.725	389.125
2626.042	388.79167
2628.358	373.45833
2630.672	379.125
2632.985	396.45833
2635.296	382.79167
2637.606	380.45833
2639.914	373.45833
2642.22	379.45833
2644.525	385.45833
2646.829	380.79167
2649.131	385.79167
2651.432	394.79167
2653.731	386.79167
2656.028	389.125
2658.324	401.125
2660.619	381.79167
2662.912	397.45833
2665.204	382.125
2667.494	397.79167
2669.782	379.79167
2672.07	394.45833
2674.355	400.125
2676.639	381.125
2678.922	379.79167
2681.203	382.45833
2683.483	384.79167
2685.761	381.125
2688.038	386.125
2690.313	401.125
2692.587	389.125
2694.859	376.125
2697.13	397.79167
2699.399	398.125
2701.667	407.45833
2703.933	392.125
2706.198	404.45833
2708.461	404.79167
2710.723	410.79167
2712.984	398.79167
2715.243	405.45833
2717.5	400.79167
2719.757	424.79167
2722.011	410.125
2724.264	424.79167
2726.516	422.45833
2728.766	409.79167
2731.015	416.45833
2733.262	414.79167
2735.508	408.79167
2737.753	410.125
2739.996	402.125
2742.237	399.79167
2744.477	409.79167
2746.716	410.125
2748.953	399.45833
2751.189	398.45833
2753.423	393.125
2755.656	386.45833
2757.887	385.125
2760.117	392.125
2762.346	386.125
2764.573	375.125
2766.798	380.79167
2769.022	377.45833
2771.245	393.79167
2773.467	388.125
2775.686	396.45833
2777.905	398.125
2780.122	402.79167
2782.337	400.45833
2784.552	401.45833
2786.764	399.125
2788.976	399.125
2791.186	409.45833
2793.394	404.45833
2795.601	407.45833
2797.807	426.125
2800.011	429.45833
2802.214	426.45833
2804.415	428.125
2806.615	423.125
2808.814	437.79167
2811.011	437.79167
2813.206	435.79167
2815.401	448.125
2817.594	456.45833
2819.785	470.45833
2821.975	460.125
2824.164	464.45833
2826.351	483.79167
2828.537	493.79167
2830.722	496.125
2832.905	508.79167
2835.086	535.45833
2837.267	555.45833
2839.445	574.45833
2841.623	588.45833
2843.799	608.125
2845.974	635.45833
2848.147	682.45833
2850.319	701.79167
2852.489	724.45833
2854.659	721.45833
2856.826	733.79167
2858.993	774.125
2861.158	750.125
2863.321	755.125
2865.483	779.45833
2867.644	770.125
2869.804	761.125
2871.962	756.45833
2874.118	767.79167
2876.274	784.125
2878.428	775.45833
2880.58	783.125
2882.731	757.79167
2884.881	758.79167
2887.03	768.125
2889.177	768.79167
2891.322	783.45833
2893.467	781.45833
2895.61	758.125
2897.751	792.45833
2899.892	782.79167
2902.03	792.125
2904.168	796.45833
2906.304	800.79167
2908.439	811.79167
2910.572	804.45833
2912.704	823.125
2914.835	823.125
2916.965	814.79167
2919.093	834.125
2921.219	801.45833
2923.345	826.79167
2925.469	805.125
2927.591	804.79167
2929.712	769.45833
2931.832	772.79167
2933.951	769.125
2936.068	736.79167
2938.184	728.79167
2940.299	709.45833
2942.412	692.79167
2944.524	655.79167
2946.634	657.125
2948.744	596.45833
2950.851	621.45833
2952.958	586.45833
2955.063	583.45833
2957.167	568.79167
2959.269	538.125
2961.371	557.79167
2963.471	526.45833
2965.569	530.125
2967.666	501.125
2969.762	506.79167
2971.857	482.79167
2973.95	462.79167
2976.042	460.79167
2978.133	454.79167
2980.222	444.79167
2982.31	426.45833
2984.396	415.79167
2986.482	417.45833
2988.566	405.79167
2990.648	394.125
2992.73	388.45833
2994.81	384.125
2996.889	392.125
2998.966	386.125
3001.042	396.45833
3003.117	381.125
3005.191	381.125
3007.263	373.79167
3009.334	368.45833
3011.403	368.79167
3013.472	352.79167
3015.539	363.125
3017.604	362.125
3019.669	334.125
3021.732	342.45833
3023.794	344.125
3025.854	331.125
3027.914	332.79167
3029.971	336.45833
3032.028	334.45833
3034.083	335.45833
3036.137	329.79167
3038.19	311.45833
3040.242	309.79167
3042.292	297.125
3044.341	308.125
3046.388	312.125
3048.435	292.79167
3050.48	309.45833
3052.524	304.45833
3054.566	285.45833
3056.607	295.45833
3058.647	288.79167
3060.686	280.45833
3062.723	269.45833
3064.759	257.45833
3066.794	-1.875
3068.828	3.45833
3070.86	2.125
