-0.839	448.875
3.438	531.20833
7.711	163.54167
11.981	60.54167
16.247	46.20833
20.509	48.20833
24.768	46.875
29.024	53.875
33.276	48.875
37.524	47.54167
41.769	47.54167
46.01	36.875
50.247	46.54167
54.481	58.20833
58.712	58.875
62.939	48.20833
67.162	65.875
71.382	59.54167
75.599	46.20833
79.812	64.875
84.021	84.875
88.227	59.54167
92.429	62.875
96.628	51.875
100.823	72.20833
105.015	74.875
109.204	68.20833
113.388	75.54167
117.57	75.20833
121.748	88.20833
125.922	80.54167
130.093	99.20833
134.261	96.54167
138.425	96.54167
142.585	136.20833
146.742	124.875
150.896	156.875
155.046	193.875
159.193	296.875
163.336	500.54167
167.476	907.875
171.613	1659.875
175.746	2778.875
179.875	4096.54167
184.002	5369.54167
188.124	6214.20833
192.244	6572.875
196.36	6595.875
200.472	6471.875
204.581	6373.20833
208.687	6251.875
212.79	6225.875
216.889	6261.54167
220.984	6316.20833
225.077	6375.875
229.165	6419.54167
233.251	6448.20833
237.333	6481.54167
241.412	6454.54167
245.487	6396.875
249.559	6354.54167
253.628	6309.20833
257.694	6234.54167
261.756	6219.20833
265.814	6052.54167
269.87	5874.875
273.922	5622.20833
277.97	5452.20833
282.016	5316.54167
286.058	5255.875
290.097	5245.875
294.132	5260.20833
298.164	5252.54167
302.193	5046.20833
306.219	4692.875
310.241	4333.54167
314.26	3967.20833
318.276	3711.20833
322.288	3517.875
326.297	3379.875
330.303	3250.875
334.305	3164.20833
338.305	3093.20833
342.301	3066.54167
346.294	3045.20833
350.283	3028.54167
354.269	3008.20833
358.252	2966.20833
362.232	2971.20833
366.209	2930.20833
370.182	2878.54167
374.152	2881.20833
378.119	2900.875
382.083	2910.20833
386.043	2897.875
390	2866.875
393.954	2896.54167
397.905	2864.54167
401.852	2866.875
405.797	2811.54167
409.738	2843.54167
413.676	2852.54167
417.61	2858.20833
421.542	2821.20833
425.47	2756.20833
429.396	2745.54167
433.318	2731.54167
437.236	2734.875
441.152	2744.20833
445.065	2702.20833
448.974	2700.20833
452.88	2641.20833
456.783	2645.54167
460.683	2631.20833
464.58	2619.54167
468.473	2627.875
472.364	2642.54167
476.251	2641.54167
480.135	2660.875
484.016	2712.875
487.894	2721.20833
491.769	2718.54167
495.641	2714.875
499.509	2705.20833
503.375	2722.20833
507.237	2723.875
511.096	2735.54167
514.952	2805.875
518.805	2858.20833
522.655	2880.875
526.502	2791.20833
530.346	2730.54167
534.187	2731.20833
538.024	2716.54167
541.859	2732.875
545.69	2756.20833
549.519	2738.875
553.344	2726.20833
557.166	2674.54167
560.985	2666.54167
564.802	2610.875
568.615	2542.54167
572.425	2519.54167
576.232	2497.20833
580.036	2499.54167
583.836	2494.875
587.634	2515.875
591.429	2523.54167
595.221	2604.20833
599.01	2606.54167
602.796	2646.54167
606.578	2638.875
610.358	2649.54167
614.135	2616.54167
617.909	2608.20833
621.679	2575.875
625.447	2569.875
629.212	2584.875
632.973	2573.54167
636.732	2573.20833
640.488	2569.20833
644.241	2535.875
647.991	2542.20833
651.737	2548.54167
655.481	2547.54167
659.222	2542.54167
662.96	2540.875
666.695	2551.875
670.427	2566.875
674.156	2580.54167
677.882	2570.875
681.605	2532.875
685.325	2525.20833
689.043	2545.20833
692.757	2490.54167
696.468	2500.875
700.177	2503.875
703.882	2483.875
707.585	2462.20833
711.284	2451.875
714.981	2467.875
718.675	2484.875
722.366	2481.54167
726.054	2459.875
729.739	2458.20833
733.421	2454.875
737.1	2469.875
740.777	2499.875
744.45	2504.20833
748.121	2506.20833
751.789	2557.20833
755.453	2522.875
759.115	2568.875
762.774	2602.20833
766.431	2600.875
770.084	2639.20833
773.734	2666.875
777.382	2711.875
781.027	2731.20833
784.669	2752.54167
788.308	2768.875
791.944	2768.875
795.577	2772.875
799.208	2781.54167
802.835	2804.875
806.46	2821.20833
810.082	2843.875
813.701	2845.875
817.317	2882.20833
820.931	2864.54167
824.542	2857.20833
828.149	2842.20833
831.754	2812.20833
835.357	2803.875
838.956	2807.20833
842.553	2795.54167
846.146	2791.875
849.737	2777.875
853.326	2794.20833
856.911	2794.54167
860.493	2814.54167
864.073	2832.20833
867.65	2896.875
871.225	2930.54167
874.796	2897.54167
878.365	2920.54167
881.931	2946.20833
885.494	2940.54167
889.054	2934.54167
892.612	2961.54167
896.166	2910.20833
899.719	2887.875
903.268	2838.54167
906.814	2821.54167
910.358	2816.20833
913.899	2795.54167
917.438	2794.54167
920.973	2792.20833
924.506	2828.875
928.036	2869.875
931.564	2897.20833
935.088	2954.20833
938.61	2943.54167
942.129	2990.54167
945.646	3038.875
949.16	3102.875
952.671	3180.875
956.179	3170.54167
959.685	3179.20833
963.188	3144.875
966.688	3102.20833
970.185	2998.20833
973.68	2931.20833
977.173	2879.20833
980.662	2839.54167
984.149	2821.20833
987.633	2812.54167
991.114	2873.875
994.593	2897.20833
998.069	2994.54167
1001.542	3069.20833
1005.013	3065.54167
1008.481	2883.54167
1011.947	2817.875
1015.409	2817.54167
1018.869	2814.20833
1022.327	2818.875
1025.782	2805.54167
1029.234	2777.20833
1032.683	2751.54167
1036.13	2653.20833
1039.574	2546.20833
1043.016	2467.875
1046.455	2423.875
1049.891	2412.20833
1053.325	2429.20833
1056.756	2439.20833
1060.184	2428.875
1063.61	2459.20833
1067.033	2455.20833
1070.454	2460.54167
1073.872	2500.54167
1077.287	2477.54167
1080.7	2484.20833
1084.11	2467.54167
1087.517	2423.20833
1090.922	2399.20833
1094.325	2405.54167
1097.724	2392.875
1101.122	2393.875
1104.516	2400.20833
1107.908	2374.54167
1111.298	2444.54167
1114.684	2434.875
1118.069	2503.54167
1121.45	2530.20833
1124.83	2519.54167
1128.206	2550.20833
1131.58	2598.875
1134.951	2636.875
1138.32	2720.875
1141.687	2847.875
1145.05	2897.54167
1148.412	2931.20833
1151.77	2951.875
1155.126	2949.875
1158.48	2933.875
1161.831	2937.54167
1165.18	2945.20833
1168.525	2991.875
1171.869	3018.54167
1175.21	3045.20833
1178.548	3071.20833
1181.884	3093.875
1185.217	3144.20833
1188.548	3192.875
1191.877	3260.54167
1195.202	3353.20833
1198.526	3402.20833
1201.846	3410.20833
1205.165	3395.875
1208.48	3357.54167
1211.794	3339.54167
1215.104	3336.875
1218.413	3302.20833
1221.719	3305.875
1225.022	3256.875
1228.323	3202.20833
1231.621	3161.20833
1234.917	3165.875
1238.21	3171.54167
1241.501	3155.54167
1244.79	3114.20833
1248.076	3131.54167
1251.359	3168.875
1254.64	3243.875
1257.919	3263.875
1261.195	3294.875
1264.468	3351.54167
1267.74	3418.875
1271.008	3419.20833
1274.275	3416.875
1277.538	3364.54167
1280.8	3397.20833
1284.059	3392.20833
1287.315	3397.54167
1290.569	3404.54167
1293.821	3427.54167
1297.07	3468.54167
1300.317	3470.875
1303.562	3473.20833
1306.803	3436.20833
1310.043	3439.54167
1313.28	3387.20833
1316.515	3364.20833
1319.747	3345.20833
1322.977	3306.20833
1326.204	3276.54167
1329.429	3229.20833
1332.652	3207.20833
1335.872	3159.875
1339.09	3140.20833
1342.306	3118.54167
1345.519	3083.875
1348.729	3068.54167
1351.938	3059.54167
1355.144	3004.54167
1358.347	2948.875
1361.548	2950.20833
1364.747	2914.20833
1367.944	2894.875
1371.138	2902.20833
1374.329	2905.875
1377.518	2913.54167
1380.705	2932.54167
1383.89	2921.54167
1387.072	2841.20833
1390.252	2739.875
1393.429	2652.54167
1396.605	2534.20833
1399.777	2493.20833
1402.948	2465.875
1406.116	2445.875
1409.282	2429.54167
1412.445	2416.875
1415.606	2456.20833
1418.765	2475.54167
1421.921	2525.875
1425.075	2579.875
1428.227	2647.54167
1431.376	2787.875
1434.524	2884.20833
1437.668	2968.54167
1440.811	3025.875
1443.951	3027.54167
1447.089	3042.20833
1450.224	3053.875
1453.357	3037.54167
1456.488	3021.54167
1459.617	2970.875
1462.743	2935.20833
1465.867	2861.875
1468.989	2833.54167
1472.108	2803.20833
1475.225	2749.20833
1478.34	2748.875
1481.453	2746.20833
1484.563	2729.54167
1487.671	2807.54167
1490.776	2828.20833
1493.88	2883.20833
1496.981	2938.20833
1500.08	2944.875
1503.176	3014.20833
1506.271	3054.875
1509.363	3095.875
1512.452	3129.875
1515.54	3169.875
1518.625	3223.875
1521.708	3288.20833
1524.789	3375.875
1527.867	3496.20833
1530.944	3673.20833
1534.018	3809.875
1537.089	3930.54167
1540.159	3960.875
1543.226	3961.54167
1546.291	3854.875
1549.354	3794.20833
1552.415	3746.875
1555.473	3623.54167
1558.529	3573.54167
1561.583	3536.54167
1564.634	3509.875
1567.684	3547.875
1570.731	3570.54167
1573.776	3603.875
1576.819	3677.54167
1579.859	3732.875
1582.898	3739.20833
1585.934	3809.20833
1588.968	3812.20833
1591.999	3799.54167
1595.029	3811.875
1598.056	3801.54167
1601.081	3838.875
1604.104	3787.20833
1607.125	3778.20833
1610.144	3723.20833
1613.16	3611.54167
1616.174	3551.20833
1619.186	3446.54167
1622.196	3356.20833
1625.203	3297.875
1628.209	3208.54167
1631.212	3188.875
1634.213	3140.875
1637.212	3128.54167
1640.209	3080.875
1643.203	3012.875
1646.196	2913.20833
1649.186	2760.20833
1652.174	2657.20833
1655.16	2546.54167
1658.144	2478.875
1661.125	2347.20833
1664.105	2235.54167
1667.082	2122.54167
1670.057	2025.54167
1673.03	1911.875
1676.001	1796.54167
1678.97	1679.20833
1681.937	1576.875
1684.901	1520.54167
1687.863	1449.54167
1690.824	1375.20833
1693.782	1360.54167
1696.738	1301.20833
1699.692	1280.875
1702.643	1213.875
1705.593	1220.20833
1708.54	1210.20833
1711.486	1209.20833
1714.429	1174.20833
1717.37	1166.54167
1720.309	1135.875
1723.246	1159.54167
1726.181	1106.20833
1729.113	1115.875
1732.044	1106.20833
1734.972	1092.20833
1737.899	1101.875
1740.823	1087.875
1743.745	1098.875
1746.665	1055.54167
1749.583	1031.875
1752.499	1019.54167
1755.413	1002.20833
1758.325	976.20833
1761.235	970.54167
1764.142	967.20833
1767.048	940.875
1769.951	946.875
1772.852	940.54167
1775.752	936.54167
1778.649	947.54167
1781.544	931.54167
1784.437	902.20833
1787.328	903.875
1790.217	909.875
1793.104	869.54167
1795.989	884.54167
1798.872	869.20833
1801.753	894.875
1804.631	871.54167
1807.508	888.54167
1810.383	880.875
1813.255	866.875
1816.126	863.20833
1818.994	860.875
1821.861	862.20833
1824.725	850.20833
1827.587	860.54167
1830.448	851.54167
1833.306	822.875
1836.162	843.875
1839.017	829.20833
1841.869	820.54167
1844.719	814.20833
1847.567	803.20833
1850.414	783.54167
1853.258	789.875
1856.1	813.54167
1858.94	807.20833
1861.778	813.54167
1864.614	790.20833
1867.448	805.875
1870.28	791.54167
1873.111	821.20833
1875.939	797.54167
1878.765	812.20833
1881.589	794.875
1884.411	789.875
1887.231	783.54167
1890.049	788.54167
1892.865	800.875
1895.68	770.54167
1898.492	791.54167
1901.302	778.54167
1904.11	764.20833
1906.916	761.54167
1909.721	764.20833
1912.523	770.875
1915.323	739.875
1918.122	741.54167
1920.918	761.54167
1923.712	741.20833
1926.505	739.54167
1929.295	743.20833
1932.084	750.54167
1934.87	744.54167
1937.655	741.20833
1940.438	742.54167
1943.218	739.54167
1945.997	743.54167
1948.774	757.54167
1951.549	748.875
1954.322	733.875
1957.093	731.20833
1959.862	735.20833
1962.629	716.875
1965.394	709.875
1968.157	716.54167
1970.918	719.20833
1973.678	702.875
1976.435	721.875
1979.19	710.20833
1981.944	700.20833
1984.696	713.875
1987.445	691.20833
1990.193	710.20833
1992.939	706.54167
1995.683	688.20833
1998.425	677.875
2001.165	709.875
2003.903	699.20833
2006.639	687.54167
2009.374	690.875
2012.106	698.54167
2014.837	675.54167
2017.566	679.20833
2020.292	691.20833
2023.017	692.20833
2025.74	683.54167
2028.461	676.875
2031.18	677.875
2033.898	662.875
2036.613	675.875
2039.327	674.54167
2042.038	678.54167
2044.748	667.54167
2047.456	675.20833
2050.162	660.20833
2052.866	661.875
2055.568	676.875
2058.268	657.875
2060.967	660.54167
2063.663	648.54167
2066.358	654.20833
2069.051	647.20833
2071.742	663.54167
2074.431	651.875
2077.118	651.20833
2079.804	646.875
2082.487	655.875
2085.169	665.54167
2087.849	676.20833
2090.527	650.20833
2093.203	656.20833
2095.877	669.875
2098.55	664.20833
2101.22	673.875
2103.889	675.875
2106.556	666.20833
2109.221	678.875
2111.884	671.875
2114.546	725.875
2117.205	739.20833
2119.863	791.20833
2122.519	822.875
2125.173	868.20833
2127.825	922.20833
2130.475	922.875
2133.124	910.54167
2135.771	896.875
2138.416	857.875
2141.059	825.54167
2143.7	782.875
2146.339	749.20833
2148.977	697.875
2151.613	722.20833
2154.247	681.54167
2156.879	679.20833
2159.51	663.54167
2162.138	657.20833
2164.765	654.54167
2167.39	630.20833
2170.013	656.54167
2172.634	652.20833
2175.254	640.20833
2177.872	671.20833
2180.488	628.54167
2183.102	633.54167
2185.714	620.54167
2188.325	607.54167
2190.934	615.54167
2193.541	631.20833
2196.146	615.54167
2198.75	596.20833
2201.351	591.54167
2203.951	587.20833
2206.549	597.20833
2209.146	587.20833
2211.74	585.20833
2214.333	605.875
2216.924	575.875
2219.514	592.54167
2222.101	570.20833
2224.687	597.20833
2227.271	573.875
2229.853	565.20833
2232.433	554.20833
2235.012	580.875
2237.589	585.54167
2240.164	587.20833
2242.738	565.875
2245.309	559.20833
2247.879	570.875
2250.448	574.54167
2253.014	552.875
2255.579	539.54167
2258.142	543.54167
2260.703	538.54167
2263.262	543.20833
2265.82	535.54167
2268.376	544.54167
2270.93	522.875
2273.483	527.875
2276.033	530.875
2278.583	517.20833
2281.13	528.875
2283.675	518.54167
2286.219	528.54167
2288.761	520.875
2291.302	522.20833
2293.841	525.20833
2296.377	512.875
2298.913	514.875
2301.446	518.20833
2303.978	517.875
2306.508	507.54167
2309.037	517.875
2311.563	521.54167
2314.088	530.20833
2316.612	493.875
2319.133	507.54167
2321.653	511.20833
2324.171	507.875
2326.688	512.54167
2329.202	508.20833
2331.715	505.20833
2334.227	510.20833
2336.736	508.20833
2339.244	501.875
2341.751	492.20833
2344.255	508.875
2346.758	500.20833
2349.259	487.20833
2351.759	492.875
2354.257	486.875
2356.753	492.875
2359.247	496.20833
2361.74	503.875
2364.231	500.875
2366.721	497.54167
2369.209	479.875
2371.695	495.54167
2374.179	488.54167
2376.662	483.20833
2379.143	503.20833
2381.622	492.54167
2384.1	498.54167
2386.576	492.20833
2389.051	506.875
2391.524	500.54167
2393.995	500.54167
2396.464	487.54167
2398.932	491.54167
2401.398	486.20833
2403.863	500.875
2406.325	486.54167
2408.787	484.20833
2411.246	489.54167
2413.704	492.20833
2416.16	489.20833
2418.615	480.54167
2421.068	497.54167
2423.519	494.875
2425.969	483.54167
2428.417	494.20833
2430.863	507.20833
2433.308	498.875
2435.751	491.54167
2438.193	481.875
2440.633	496.20833
2443.071	490.20833
2445.508	483.875
2447.943	484.875
2450.376	476.875
2452.808	484.875
2455.238	481.875
2457.667	511.875
2460.093	469.20833
2462.519	471.20833
2464.942	482.20833
2467.365	491.20833
2469.785	488.54167
2472.204	484.875
2474.621	480.20833
2477.037	509.875
2479.451	466.875
2481.863	479.20833
2484.274	484.20833
2486.683	476.20833
2489.091	496.875
2491.497	484.875
2493.901	485.20833
2496.304	476.875
2498.705	494.875
2501.105	482.54167
2503.503	507.54167
2505.899	471.54167
2508.294	494.54167
2510.687	488.54167
2513.079	492.875
2515.469	487.54167
2517.858	483.875
2520.245	491.875
2522.63	484.54167
2525.014	479.875
2527.396	474.20833
2529.776	470.875
2532.156	503.20833
2534.533	486.875
2536.909	475.20833
2539.283	472.20833
2541.656	465.875
2544.027	499.54167
2546.397	483.20833
2548.765	478.875
2551.131	477.875
2553.496	480.20833
2555.86	497.875
2558.221	488.875
2560.582	482.875
2562.94	470.54167
2565.298	486.20833
2567.653	494.20833
2570.007	471.54167
2572.36	492.875
2574.711	471.54167
2577.06	505.54167
2579.408	489.20833
2581.754	485.20833
2584.099	493.875
2586.442	481.875
2588.784	490.54167
2591.124	491.875
2593.463	483.875
2595.8	494.54167
2598.135	483.54167
2600.469	486.20833
2602.802	492.20833
2605.133	503.54167
2607.462	487.54167
2609.79	475.54167
2612.116	490.54167
2614.441	491.54167
2616.764	493.875
2619.086	495.54167
2621.406	482.20833
2623.725	509.875
2626.042	495.875
2628.358	489.875
2630.672	492.20833
2632.985	522.875
2635.296	506.20833
2637.606	502.54167
2639.914	490.54167
2642.22	502.875
2644.525	497.20833
2646.829	510.875
2649.131	506.875
2651.432	525.20833
2653.731	509.54167
2656.028	514.875
2658.324	532.875
2660.619	508.875
2662.912	525.875
2665.204	505.20833
2667.494	523.54167
2669.782	517.20833
2672.07	523.875
2674.355	522.20833
2676.639	519.54167
2678.922	510.20833
2681.203	517.54167
2683.483	520.20833
2685.761	512.875
2688.038	520.20833
2690.313	534.54167
2692.587	523.20833
2694.859	523.54167
2697.13	526.875
2699.399	541.20833
2701.667	546.54167
2703.933	530.875
2706.198	533.54167
2708.461	555.20833
2710.723	549.20833
2712.984	549.20833
2715.243	551.54167
2717.5	545.875
2719.757	550.20833
2722.011	549.875
2724.264	559.54167
2726.516	575.20833
2728.766	559.20833
2731.015	564.875
2733.262	571.54167
2735.508	565.20833
2737.753	563.875
2739.996	564.20833
2742.237	563.54167
2744.477	554.875
2746.716	569.875
2748.953	555.875
2751.189	562.875
2753.423	548.54167
2755.656	543.20833
2757.887	545.54167
2760.117	550.20833
2762.346	540.20833
2764.573	534.875
2766.798	549.54167
2769.022	552.54167
2771.245	552.20833
2773.467	555.875
2775.686	560.54167
2777.905	557.20833
2780.122	554.20833
2782.337	563.20833
2784.552	566.875
2786.764	559.54167
2788.976	574.20833
2791.186	570.54167
2793.394	573.875
2795.601	583.875
2797.807	596.20833
2800.011	593.54167
2802.214	589.875
2804.415	608.54167
2806.615	584.875
2808.814	587.54167
2811.011	613.875
2813.206	597.875
2815.401	612.20833
2817.594	620.20833
2819.785	628.54167
2821.975	620.20833
2824.164	627.54167
2826.351	631.875
2828.537	657.54167
2830.722	662.54167
2832.905	669.20833
2835.086	687.54167
2837.267	714.20833
2839.445	728.20833
2841.623	740.54167
2843.799	761.875
2845.974	792.54167
2848.147	815.54167
2850.319	834.20833
2852.489	871.54167
2854.659	870.54167
2856.826	884.20833
2858.993	931.20833
2861.158	895.875
2863.321	905.875
2865.483	917.20833
2867.644	910.54167
2869.804	909.875
2871.962	896.875
2874.118	912.875
2876.274	908.54167
2878.428	921.875
2880.58	904.875
2882.731	890.875
2884.881	891.20833
2887.03	898.875
2889.177	904.875
2891.322	920.875
2893.467	920.875
2895.61	921.20833
2897.751	942.54167
2899.892	926.20833
2902.03	936.875
2904.168	941.54167
2906.304	940.20833
2908.439	978.54167
2910.572	952.20833
2912.704	961.875
2914.835	972.20833
2916.965	961.54167
2919.093	983.20833
2921.219	951.20833
2923.345	975.54167
2925.469	948.875
2927.591	953.20833
2929.712	923.20833
2931.832	936.54167
2933.951	911.20833
2936.068	883.875
2938.184	894.54167
2940.299	862.875
2942.412	861.875
2944.524	837.20833
2946.634	829.20833
2948.744	765.20833
2950.851	803.875
2952.958	769.875
2955.063	768.54167
2957.167	758.20833
2959.269	732.875
2961.371	762.20833
2963.471	717.54167
2965.569	735.54167
2967.666	697.54167
2969.762	701.875
2971.857	692.20833
2973.95	670.54167
2976.042	665.54167
2978.133	662.20833
2980.222	646.875
2982.31	629.20833
2984.396	611.54167
2986.482	627.54167
2988.566	609.54167
2990.648	618.54167
2992.73	596.20833
2994.81	605.54167
2996.889	603.20833
2998.966	608.54167
3001.042	609.875
3003.117	609.20833
3005.191	603.875
3007.263	593.54167
3009.334	582.20833
3011.403	593.54167
3013.472	574.54167
3015.539	573.20833
3017.604	584.20833
3019.669	544.20833
3021.732	545.875
3023.794	552.54167
3025.854	548.875
3027.914	546.875
3029.971	558.54167
3032.028	545.875
3034.083	549.20833
3036.137	532.875
3038.19	521.20833
3040.242	515.54167
3042.292	499.875
3044.341	494.54167
3046.388	516.54167
3048.435	489.875
3050.48	500.875
3052.524	494.20833
3054.566	476.20833
3056.607	490.54167
3058.647	474.875
3060.686	453.20833
3062.723	446.875
3064.759	427.54167
3066.794	-0.79167
3068.828	2.875
3070.86	1.20833
