-0.839	436.45833
3.438	525.79167
7.711	165.125
11.981	61.79167
16.247	46.125
20.509	51.79167
24.768	44.45833
29.024	55.45833
33.276	44.125
37.524	48.125
41.769	47.125
46.01	31.45833
50.247	46.45833
54.481	58.125
58.712	62.45833
62.939	48.79167
67.162	63.125
71.382	59.125
75.599	48.79167
79.812	61.125
84.021	83.125
88.227	64.125
92.429	59.45833
96.628	51.125
100.823	69.45833
105.015	72.79167
109.204	67.79167
113.388	75.79167
117.57	74.79167
121.748	86.45833
125.922	81.45833
130.093	94.79167
134.261	97.125
138.425	94.79167
142.585	135.79167
146.742	128.79167
150.896	157.45833
155.046	198.45833
159.193	293.79167
163.336	501.79167
167.476	912.125
171.613	1669.125
175.746	2807.125
179.875	4114.79167
184.002	5424.45833
188.124	6327.79167
192.244	6710.79167
196.36	6764.45833
200.472	6651.79167
204.581	6584.125
208.687	6479.45833
212.79	6511.125
216.889	6545.125
220.984	6597.45833
225.077	6632.79167
229.165	6729.79167
233.251	6783.79167
237.333	6804.79167
241.412	6747.79167
245.487	6703.79167
249.559	6647.79167
253.628	6595.79167
257.694	6556.79167
261.756	6497.125
265.814	6384.45833
269.87	6161.45833
273.922	5925.125
277.97	5738.45833
282.016	5558.45833
286.058	5441.79167
290.097	5460.45833
294.132	5512.45833
298.164	5464.79167
302.193	5232.79167
306.219	4957.125
310.241	4547.45833
314.26	4242.125
318.276	3912.79167
322.288	3724.79167
326.297	3577.45833
330.303	3442.79167
334.305	3364.125
338.305	3313.45833
342.301	3275.45833
346.294	3236.45833
350.283	3256.125
354.269	3201.45833
358.252	3179.125
362.232	3178.79167
366.209	3161.45833
370.182	3116.79167
374.152	3110.79167
378.119	3126.45833
382.083	3113.79167
386.043	3101.125
390	3096.45833
393.954	3104.125
397.905	3090.79167
401.852	3071.125
405.797	3053.125
409.738	3046.79167
413.676	3069.79167
417.61	3090.125
421.542	3042.125
425.47	2990.79167
429.396	2945.45833
433.318	2926.45833
437.236	2943.125
441.152	2980.125
445.065	2921.45833
448.974	2905.79167
452.88	2894.45833
456.783	2859.45833
460.683	2837.45833
464.58	2842.125
468.473	2846.45833
472.364	2854.79167
476.251	2859.79167
480.135	2875.125
484.016	2916.45833
487.894	2935.79167
491.769	2954.125
495.641	2952.79167
499.509	2953.45833
503.375	2929.125
507.237	2916.79167
511.096	2957.125
514.952	3013.125
518.805	3077.79167
522.655	3078.45833
526.502	2996.79167
530.346	2936.79167
534.187	2949.125
538.024	2957.45833
541.859	2964.79167
545.69	2967.79167
549.519	2938.45833
553.344	2933.125
557.166	2893.45833
560.985	2876.79167
564.802	2804.125
568.615	2762.79167
572.425	2722.79167
576.232	2723.125
580.036	2683.45833
583.836	2718.79167
587.634	2724.45833
591.429	2721.45833
595.221	2799.45833
599.01	2821.79167
602.796	2845.79167
606.578	2864.125
610.358	2867.125
614.135	2846.125
617.909	2852.125
621.679	2786.79167
625.447	2783.125
629.212	2758.125
632.973	2785.79167
636.732	2754.45833
640.488	2784.125
644.241	2772.125
647.991	2751.79167
651.737	2785.45833
655.481	2783.45833
659.222	2803.45833
662.96	2776.79167
666.695	2783.125
670.427	2805.45833
674.156	2798.45833
677.882	2783.79167
681.605	2771.45833
685.325	2725.45833
689.043	2733.79167
692.757	2703.125
696.468	2708.79167
700.177	2703.45833
703.882	2677.45833
707.585	2663.79167
711.284	2657.125
714.981	2655.79167
718.675	2681.45833
722.366	2678.45833
726.054	2658.125
729.739	2667.125
733.421	2667.45833
737.1	2662.79167
740.777	2692.125
744.45	2684.45833
748.121	2705.45833
751.789	2770.79167
755.453	2743.125
759.115	2740.125
762.774	2790.79167
766.431	2797.45833
770.084	2849.125
773.734	2849.45833
777.382	2922.45833
781.027	2920.79167
784.669	2958.125
788.308	2933.45833
791.944	2975.125
795.577	2981.125
799.208	2983.45833
802.835	3004.79167
806.46	3026.79167
810.082	3069.125
813.701	3077.45833
817.317	3109.79167
820.931	3089.79167
824.542	3101.125
828.149	3034.45833
831.754	3029.125
835.357	3002.79167
838.956	3013.45833
842.553	3006.45833
846.146	2971.125
849.737	2959.79167
853.326	2952.79167
856.911	2932.125
860.493	2964.45833
864.073	3001.45833
867.65	3057.45833
871.225	3089.79167
874.796	3082.45833
878.365	3071.79167
881.931	3086.125
885.494	3089.79167
889.054	3114.79167
892.612	3126.125
896.166	3096.45833
899.719	3045.45833
903.268	3022.79167
906.814	3009.125
910.358	2982.125
913.899	2968.125
917.438	2965.79167
920.973	2954.79167
924.506	2981.45833
928.036	3048.45833
931.564	3092.125
935.088	3131.125
938.61	3141.45833
942.129	3161.79167
945.646	3199.79167
949.16	3290.45833
952.671	3313.45833
956.179	3343.45833
959.685	3352.125
963.188	3371.45833
966.688	3330.79167
970.185	3211.79167
973.68	3116.45833
977.173	3089.45833
980.662	3035.125
984.149	3025.125
987.633	2997.79167
991.114	3046.125
994.593	3097.125
998.069	3187.45833
1001.542	3274.79167
1005.013	3238.79167
1008.481	3059.125
1011.947	2992.79167
1015.409	2977.45833
1018.869	2972.45833
1022.327	2981.79167
1025.782	2962.125
1029.234	2962.79167
1032.683	2922.45833
1036.13	2833.45833
1039.574	2714.45833
1043.016	2629.79167
1046.455	2603.125
1049.891	2568.125
1053.325	2580.79167
1056.756	2584.125
1060.184	2583.125
1063.61	2592.45833
1067.033	2598.125
1070.454	2613.125
1073.872	2635.125
1077.287	2623.45833
1080.7	2650.45833
1084.11	2620.45833
1087.517	2607.125
1090.922	2556.125
1094.325	2532.79167
1097.724	2527.45833
1101.122	2513.45833
1104.516	2533.125
1107.908	2509.45833
1111.298	2546.125
1114.684	2586.79167
1118.069	2615.45833
1121.45	2657.45833
1124.83	2647.79167
1128.206	2678.45833
1131.58	2727.45833
1134.951	2747.125
1138.32	2840.45833
1141.687	2955.125
1145.05	3037.125
1148.412	3072.125
1151.77	3075.125
1155.126	3072.45833
1158.48	3046.125
1161.831	3065.125
1165.18	3079.45833
1168.525	3136.45833
1171.869	3151.79167
1175.21	3148.125
1178.548	3176.79167
1181.884	3209.125
1185.217	3235.79167
1188.548	3307.125
1191.877	3357.79167
1195.202	3498.125
1198.526	3520.79167
1201.846	3541.79167
1205.165	3512.79167
1208.48	3473.79167
1211.794	3490.45833
1215.104	3462.125
1218.413	3437.125
1221.719	3429.79167
1225.022	3399.79167
1228.323	3317.125
1231.621	3327.125
1234.917	3289.125
1238.21	3318.125
1241.501	3294.45833
1244.79	3283.125
1248.076	3283.125
1251.359	3299.45833
1254.64	3379.79167
1257.919	3394.79167
1261.195	3422.79167
1264.468	3511.45833
1267.74	3555.45833
1271.008	3572.45833
1274.275	3570.45833
1277.538	3502.45833
1280.8	3497.45833
1284.059	3511.45833
1287.315	3548.125
1290.569	3566.125
1293.821	3579.125
1297.07	3592.125
1300.317	3612.125
1303.562	3585.125
1306.803	3564.125
1310.043	3585.79167
1313.28	3535.45833
1316.515	3509.125
1319.747	3473.79167
1322.977	3461.125
1326.204	3422.79167
1329.429	3395.79167
1332.652	3373.125
1335.872	3343.45833
1339.09	3298.79167
1342.306	3311.45833
1345.519	3271.45833
1348.729	3232.79167
1351.938	3220.79167
1355.144	3166.125
1358.347	3104.45833
1361.548	3086.45833
1364.747	3077.45833
1367.944	3066.45833
1371.138	3051.79167
1374.329	3032.45833
1377.518	3079.45833
1380.705	3103.125
1383.89	3064.45833
1387.072	2976.45833
1390.252	2889.125
1393.429	2771.45833
1396.605	2715.79167
1399.777	2617.125
1402.948	2550.125
1406.116	2551.125
1409.282	2549.45833
1412.445	2556.79167
1415.606	2561.79167
1418.765	2601.79167
1421.921	2629.79167
1425.075	2661.125
1428.227	2768.45833
1431.376	2882.125
1434.524	2993.45833
1437.668	3086.79167
1440.811	3138.79167
1443.951	3170.79167
1447.089	3184.79167
1450.224	3186.45833
1453.357	3189.45833
1456.488	3144.125
1459.617	3094.125
1462.743	3069.45833
1465.867	2991.45833
1468.989	2936.45833
1472.108	2937.45833
1475.225	2894.125
1478.34	2875.125
1481.453	2865.79167
1484.563	2891.79167
1487.671	2910.125
1490.776	2953.45833
1493.88	2988.45833
1496.981	3061.125
1500.08	3081.125
1503.176	3118.45833
1506.271	3174.125
1509.363	3203.125
1512.452	3219.45833
1515.54	3240.125
1518.625	3320.79167
1521.708	3399.79167
1524.789	3473.125
1527.867	3654.125
1530.944	3811.45833
1534.018	3958.45833
1537.089	4041.79167
1540.159	4057.125
1543.226	4060.79167
1546.291	3960.125
1549.354	3884.45833
1552.415	3815.45833
1555.473	3730.125
1558.529	3686.45833
1561.583	3642.45833
1564.634	3625.79167
1567.684	3639.125
1570.731	3659.79167
1573.776	3699.125
1576.819	3792.45833
1579.859	3822.125
1582.898	3903.125
1585.934	3924.45833
1588.968	3937.79167
1591.999	3926.79167
1595.029	3934.125
1598.056	3926.125
1601.081	3949.45833
1604.104	3910.125
1607.125	3893.125
1610.144	3801.125
1613.16	3728.79167
1616.174	3671.125
1619.186	3581.125
1622.196	3506.45833
1625.203	3412.125
1628.209	3372.45833
1631.212	3353.79167
1634.213	3343.79167
1637.212	3378.79167
1640.209	3317.125
1643.203	3246.79167
1646.196	3127.125
1649.186	2956.79167
1652.174	2845.79167
1655.16	2717.79167
1658.144	2638.45833
1661.125	2481.125
1664.105	2346.125
1667.082	2252.79167
1670.057	2148.45833
1673.03	2006.125
1676.001	1893.79167
1678.97	1774.125
1681.937	1654.125
1684.901	1568.125
1687.863	1521.79167
1690.824	1458.79167
1693.782	1435.45833
1696.738	1357.79167
1699.692	1348.79167
1702.643	1310.79167
1705.593	1295.125
1708.54	1268.125
1711.486	1278.125
1714.429	1223.45833
1717.37	1236.125
1720.309	1210.45833
1723.246	1222.45833
1726.181	1199.45833
1729.113	1184.45833
1732.044	1169.79167
1734.972	1179.45833
1737.899	1166.45833
1740.823	1157.45833
1743.745	1158.79167
1746.665	1114.45833
1749.583	1079.125
1752.499	1068.125
1755.413	1069.125
1758.325	1046.45833
1761.235	1027.45833
1764.142	1015.125
1767.048	1011.45833
1769.951	1011.45833
1772.852	1010.125
1775.752	998.125
1778.649	1001.79167
1781.544	1010.45833
1784.437	975.125
1787.328	970.45833
1790.217	971.45833
1793.104	952.125
1795.989	940.45833
1798.872	940.125
1801.753	951.125
1804.631	932.45833
1807.508	943.45833
1810.383	949.79167
1813.255	935.79167
1816.126	934.45833
1818.994	934.45833
1821.861	919.45833
1824.725	929.45833
1827.587	906.79167
1830.448	899.45833
1833.306	880.79167
1836.162	897.79167
1839.017	887.45833
1841.869	870.125
1844.719	889.79167
1847.567	860.125
1850.414	858.125
1853.258	867.125
1856.1	877.125
1858.94	860.79167
1861.778	861.125
1864.614	851.125
1867.448	869.125
1870.28	841.79167
1873.111	875.45833
1875.939	855.45833
1878.765	879.125
1881.589	841.45833
1884.411	853.45833
1887.231	854.45833
1890.049	839.79167
1892.865	848.45833
1895.68	833.45833
1898.492	849.79167
1901.302	839.125
1904.11	826.79167
1906.916	818.45833
1909.721	814.79167
1912.523	820.79167
1915.323	809.79167
1918.122	801.125
1920.918	811.45833
1923.712	791.79167
1926.505	786.79167
1929.295	781.79167
1932.084	801.79167
1934.87	796.45833
1937.655	788.125
1940.438	790.125
1943.218	799.45833
1945.997	796.79167
1948.774	811.45833
1951.549	803.45833
1954.322	785.45833
1957.093	779.45833
1959.862	784.79167
1962.629	772.45833
1965.394	777.125
1968.157	766.45833
1970.918	762.125
1973.678	756.125
1976.435	776.79167
1979.19	759.79167
1981.944	756.45833
1984.696	756.45833
1987.445	738.125
1990.193	747.45833
1992.939	759.125
1995.683	742.45833
1998.425	730.45833
2001.165	761.45833
2003.903	731.125
2006.639	727.45833
2009.374	744.125
2012.106	745.125
2014.837	718.79167
2017.566	732.79167
2020.292	740.45833
2023.017	736.45833
2025.74	725.125
2028.461	715.79167
2031.18	726.45833
2033.898	711.45833
2036.613	722.45833
2039.327	717.125
2042.038	699.45833
2044.748	697.45833
2047.456	718.45833
2050.162	689.125
2052.866	702.125
2055.568	719.125
2058.268	704.45833
2060.967	703.125
2063.663	689.125
2066.358	701.125
2069.051	688.125
2071.742	692.125
2074.431	701.79167
2077.118	693.45833
2079.804	681.79167
2082.487	691.79167
2085.169	698.45833
2087.849	714.125
2090.527	695.125
2093.203	685.79167
2095.877	710.79167
2098.55	702.45833
2101.22	701.125
2103.889	701.125
2106.556	704.45833
2109.221	719.45833
2111.884	714.79167
2114.546	741.79167
2117.205	775.45833
2119.863	807.125
2122.519	827.45833
2125.173	882.45833
2127.825	945.79167
2130.475	960.125
2133.124	938.79167
2135.771	908.45833
2138.416	894.125
2141.059	848.45833
2143.7	810.79167
2146.339	777.45833
2148.977	727.45833
2151.613	737.125
2154.247	719.79167
2156.879	720.125
2159.51	683.79167
2162.138	686.45833
2164.765	687.125
2167.39	669.125
2170.013	695.45833
2172.634	673.79167
2175.254	673.125
2177.872	693.125
2180.488	652.125
2183.102	657.125
2185.714	649.125
2188.325	637.125
2190.934	640.79167
2193.541	644.45833
2196.146	638.125
2198.75	624.45833
2201.351	630.79167
2203.951	611.45833
2206.549	623.79167
2209.146	620.79167
2211.74	623.125
2214.333	619.125
2216.924	597.79167
2219.514	613.45833
2222.101	608.79167
2224.687	623.125
2227.271	603.125
2229.853	591.45833
2232.433	590.45833
2235.012	612.125
2237.589	604.79167
2240.164	605.79167
2242.738	593.125
2245.309	590.45833
2247.879	589.125
2250.448	596.79167
2253.014	568.45833
2255.579	564.45833
2258.142	574.79167
2260.703	548.79167
2263.262	566.45833
2265.82	559.45833
2268.376	574.125
2270.93	550.125
2273.483	542.125
2276.033	555.79167
2278.583	552.79167
2281.13	546.45833
2283.675	540.45833
2286.219	545.125
2288.761	535.45833
2291.302	543.79167
2293.841	555.79167
2296.377	539.125
2298.913	523.125
2301.446	552.45833
2303.978	540.45833
2306.508	527.79167
2309.037	540.79167
2311.563	532.125
2314.088	545.125
2316.612	516.125
2319.133	541.79167
2321.653	540.125
2324.171	524.45833
2326.688	537.125
2329.202	518.79167
2331.715	524.79167
2334.227	528.125
2336.736	526.45833
2339.244	520.125
2341.751	509.79167
2344.255	526.45833
2346.758	531.45833
2349.259	515.45833
2351.759	509.79167
2354.257	516.45833
2356.753	500.79167
2359.247	514.45833
2361.74	519.125
2364.231	510.79167
2366.721	518.79167
2369.209	510.45833
2371.695	516.125
2374.179	510.45833
2376.662	498.45833
2379.143	521.79167
2381.622	499.45833
2384.1	520.45833
2386.576	503.79167
2389.051	524.79167
2391.524	533.45833
2393.995	518.125
2396.464	514.79167
2398.932	505.125
2401.398	506.45833
2403.863	503.45833
2406.325	494.79167
2408.787	510.125
2411.246	507.45833
2413.704	491.79167
2416.16	496.45833
2418.615	494.79167
2421.068	510.79167
2423.519	507.79167
2425.969	491.125
2428.417	501.45833
2430.863	514.79167
2433.308	509.45833
2435.751	501.79167
2438.193	501.79167
2440.633	510.125
2443.071	513.125
2445.508	496.45833
2447.943	499.79167
2450.376	490.125
2452.808	498.45833
2455.238	492.45833
2457.667	524.125
2460.093	504.125
2462.519	490.79167
2464.942	486.79167
2467.365	492.125
2469.785	503.125
2472.204	503.45833
2474.621	497.45833
2477.037	505.79167
2479.451	484.45833
2481.863	473.79167
2484.274	489.125
2486.683	494.79167
2489.091	498.45833
2491.497	491.125
2493.901	498.45833
2496.304	485.79167
2498.705	508.125
2501.105	488.125
2503.503	521.45833
2505.899	485.79167
2508.294	506.45833
2510.687	487.45833
2513.079	507.125
2515.469	492.79167
2517.858	495.45833
2520.245	506.45833
2522.63	489.45833
2525.014	485.125
2527.396	484.125
2529.776	482.79167
2532.156	494.125
2534.533	478.125
2536.909	480.45833
2539.283	467.125
2541.656	480.45833
2544.027	500.45833
2546.397	482.79167
2548.765	478.45833
2551.131	488.79167
2553.496	487.125
2555.86	498.45833
2558.221	484.125
2560.582	488.125
2562.94	486.125
2565.298	493.125
2567.653	506.79167
2570.007	480.79167
2572.36	494.45833
2574.711	485.125
2577.06	511.45833
2579.408	502.79167
2581.754	488.79167
2584.099	484.125
2586.442	488.125
2588.784	506.45833
2591.124	486.79167
2593.463	494.45833
2595.8	496.125
2598.135	489.125
2600.469	491.45833
2602.802	500.125
2605.133	501.79167
2607.462	494.45833
2609.79	483.79167
2612.116	500.79167
2614.441	499.125
2616.764	498.79167
2619.086	492.45833
2621.406	476.125
2623.725	504.45833
2626.042	502.125
2628.358	488.45833
2630.672	494.45833
2632.985	517.125
2635.296	503.45833
2637.606	503.125
2639.914	488.79167
2642.22	498.125
2644.525	504.79167
2646.829	505.45833
2649.131	511.79167
2651.432	524.125
2653.731	508.79167
2656.028	522.79167
2658.324	522.125
2660.619	497.125
2662.912	524.45833
2665.204	505.125
2667.494	524.125
2669.782	511.45833
2672.07	521.125
2674.355	521.45833
2676.639	518.79167
2678.922	512.79167
2681.203	514.125
2683.483	520.79167
2685.761	521.45833
2688.038	525.79167
2690.313	536.79167
2692.587	534.45833
2694.859	515.45833
2697.13	536.125
2699.399	538.45833
2701.667	538.79167
2703.933	534.125
2706.198	537.125
2708.461	539.79167
2710.723	548.45833
2712.984	542.45833
2715.243	547.125
2717.5	542.45833
2719.757	563.125
2722.011	548.125
2724.264	558.79167
2726.516	571.79167
2728.766	555.79167
2731.015	566.45833
2733.262	569.45833
2735.508	563.79167
2737.753	563.79167
2739.996	552.45833
2742.237	540.125
2744.477	566.45833
2746.716	569.45833
2748.953	555.45833
2751.189	554.45833
2753.423	542.45833
2755.656	538.125
2757.887	542.125
2760.117	542.79167
2762.346	532.45833
2764.573	530.45833
2766.798	537.125
2769.022	533.125
2771.245	543.45833
2773.467	538.45833
2775.686	544.45833
2777.905	551.79167
2780.122	556.125
2782.337	563.125
2784.552	555.79167
2786.764	551.125
2788.976	562.45833
2791.186	565.125
2793.394	568.45833
2795.601	564.79167
2797.807	578.79167
2800.011	584.45833
2802.214	583.125
2804.415	588.125
2806.615	596.45833
2808.814	593.45833
2811.011	597.125
2813.206	585.125
2815.401	600.45833
2817.594	599.79167
2819.785	619.79167
2821.975	611.45833
2824.164	617.79167
2826.351	634.125
2828.537	643.125
2830.722	649.79167
2832.905	650.125
2835.086	690.45833
2837.267	708.79167
2839.445	713.125
2841.623	725.45833
2843.799	746.125
2845.974	779.45833
2848.147	811.45833
2850.319	830.45833
2852.489	856.79167
2854.659	875.79167
2856.826	884.125
2858.993	905.45833
2861.158	888.79167
2863.321	887.79167
2865.483	896.79167
2867.644	908.125
2869.804	897.79167
2871.962	901.125
2874.118	898.125
2876.274	904.125
2878.428	907.45833
2880.58	899.45833
2882.731	891.79167
2884.881	892.125
2887.03	906.79167
2889.177	901.45833
2891.322	903.79167
2893.467	908.79167
2895.61	919.79167
2897.751	932.45833
2899.892	918.45833
2902.03	924.45833
2904.168	947.45833
2906.304	951.45833
2908.439	961.79167
2910.572	946.125
2912.704	957.45833
2914.835	972.45833
2916.965	960.79167
2919.093	978.45833
2921.219	948.79167
2923.345	977.79167
2925.469	945.79167
2927.591	941.45833
2929.712	924.125
2931.832	914.45833
2933.951	908.45833
2936.068	888.79167
2938.184	877.45833
2940.299	853.45833
2942.412	845.79167
2944.524	832.125
2946.634	810.125
2948.744	764.45833
2950.851	793.79167
2952.958	755.125
2955.063	758.79167
2957.167	744.79167
2959.269	721.79167
2961.371	750.125
2963.471	718.45833
2965.569	713.125
2967.666	694.79167
2969.762	689.45833
2971.857	679.45833
2973.95	661.125
2976.042	653.125
2978.133	639.125
2980.222	633.125
2982.31	618.79167
2984.396	612.125
2986.482	608.125
2988.566	604.45833
2990.648	587.79167
2992.73	592.45833
2994.81	580.45833
2996.889	595.79167
2998.966	588.45833
3001.042	594.79167
3003.117	588.125
3005.191	582.79167
3007.263	590.125
3009.334	578.79167
3011.403	580.79167
3013.472	560.79167
3015.539	563.45833
3017.604	576.45833
3019.669	532.79167
3021.732	536.79167
3023.794	538.45833
3025.854	533.79167
3027.914	531.125
3029.971	542.45833
3032.028	537.45833
3034.083	538.125
3036.137	525.125
3038.19	506.79167
3040.242	493.79167
3042.292	491.125
3044.341	488.45833
3046.388	505.79167
3048.435	475.45833
3050.48	493.45833
3052.524	483.125
3054.566	472.79167
3056.607	474.125
3058.647	468.125
3060.686	444.125
3062.723	435.79167
3064.759	416.125
3066.794	0.45833
3068.828	1.125
3070.86	3.45833
