-0.839	644.625
3.438	735.95833
7.711	212.29167
11.981	63.29167
16.247	45.95833
20.509	50.625
24.768	47.95833
29.024	58.95833
33.276	46.95833
37.524	51.95833
41.769	46.625
46.01	36.625
50.247	49.29167
54.481	57.95833
58.712	58.29167
62.939	49.625
67.162	64.625
71.382	57.625
75.599	44.625
79.812	59.625
84.021	81.625
88.227	53.29167
92.429	55.29167
96.628	52.29167
100.823	74.95833
105.015	73.29167
109.204	67.95833
113.388	73.95833
117.57	70.29167
121.748	85.29167
125.922	77.29167
130.093	95.95833
134.261	94.95833
138.425	97.29167
142.585	133.95833
146.742	123.95833
150.896	163.29167
155.046	192.95833
159.193	303.95833
163.336	503.95833
167.476	914.625
171.613	1682.29167
175.746	2790.625
179.875	4105.625
184.002	5286.29167
188.124	6215.95833
192.244	6523.29167
196.36	6491.95833
200.472	6339.625
204.581	6225.625
208.687	6071.29167
212.79	5979.625
216.889	5974.625
220.984	5991.29167
225.077	6022.625
229.165	6012.625
233.251	6060.625
237.333	5977.95833
241.412	5963.625
245.487	5910.625
249.559	5859.95833
253.628	5833.625
257.694	5757.29167
261.756	5717.625
265.814	5613.29167
269.87	5405.29167
273.922	5262.29167
277.97	5103.29167
282.016	5012.95833
286.058	4950.95833
290.097	4929.95833
294.132	4940.95833
298.164	4892.95833
302.193	4717.29167
306.219	4454.625
310.241	4189.625
314.26	3913.625
318.276	3711.95833
322.288	3570.95833
326.297	3451.625
330.303	3333.95833
334.305	3291.625
338.305	3254.95833
342.301	3209.95833
346.294	3192.95833
350.283	3203.625
354.269	3170.29167
358.252	3113.625
362.232	3147.95833
366.209	3110.95833
370.182	3092.95833
374.152	3100.29167
378.119	3060.95833
382.083	3095.625
386.043	3093.95833
390	3064.625
393.954	3060.625
397.905	3053.29167
401.852	3083.95833
405.797	3042.95833
409.738	3057.625
413.676	3056.95833
417.61	3068.95833
421.542	3081.29167
425.47	3026.95833
429.396	3051.29167
433.318	2999.29167
437.236	3007.95833
441.152	3039.625
445.065	2966.29167
448.974	2990.29167
452.88	2951.95833
456.783	2946.29167
460.683	2932.29167
464.58	2935.29167
468.473	2946.95833
472.364	2962.29167
476.251	2952.625
480.135	2981.625
484.016	3030.95833
487.894	3027.95833
491.769	3050.29167
495.641	3038.29167
499.509	3039.29167
503.375	3056.95833
507.237	3042.29167
511.096	3037.95833
514.952	3058.29167
518.805	3065.95833
522.655	3038.625
526.502	2992.29167
530.346	2991.95833
534.187	3019.29167
538.024	2994.95833
541.859	2985.95833
545.69	3031.29167
549.519	3015.625
553.344	2981.625
557.166	2952.29167
560.985	2931.95833
564.802	2890.29167
568.615	2837.95833
572.425	2808.95833
576.232	2794.625
580.036	2797.625
583.836	2793.625
587.634	2822.95833
591.429	2820.95833
595.221	2868.29167
599.01	2887.95833
602.796	2938.29167
606.578	2929.625
610.358	2947.625
614.135	2934.29167
617.909	2930.29167
621.679	2891.29167
625.447	2882.625
629.212	2876.29167
632.973	2872.625
636.732	2825.95833
640.488	2865.95833
644.241	2831.29167
647.991	2825.625
651.737	2872.29167
655.481	2810.29167
659.222	2835.95833
662.96	2836.29167
666.695	2847.95833
670.427	2856.29167
674.156	2829.625
677.882	2852.625
681.605	2847.95833
685.325	2832.29167
689.043	2842.625
692.757	2808.625
696.468	2807.625
700.177	2784.625
703.882	2794.625
707.585	2786.29167
711.284	2791.95833
714.981	2773.625
718.675	2754.625
722.366	2786.29167
726.054	2751.29167
729.739	2744.29167
733.421	2744.29167
737.1	2747.29167
740.777	2727.29167
744.45	2767.625
748.121	2766.95833
751.789	2801.95833
755.453	2816.625
759.115	2805.95833
762.774	2805.95833
766.431	2853.29167
770.084	2873.625
773.734	2882.625
777.382	2927.95833
781.027	2934.625
784.669	2944.625
788.308	2953.95833
791.944	2955.625
795.577	2948.29167
799.208	2953.95833
802.835	2971.29167
806.46	2987.95833
810.082	3000.29167
813.701	3016.95833
817.317	3043.95833
820.931	3026.625
824.542	3021.29167
828.149	2991.625
831.754	2955.29167
835.357	2943.95833
838.956	2943.29167
842.553	2933.95833
846.146	2896.29167
849.737	2898.625
853.326	2900.625
856.911	2883.95833
860.493	2915.625
864.073	2931.95833
867.65	2957.625
871.225	2964.29167
874.796	2936.29167
878.365	2953.29167
881.931	2973.29167
885.494	2993.95833
889.054	2987.29167
892.612	3016.625
896.166	2959.625
899.719	2923.95833
903.268	2895.29167
906.814	2873.625
910.358	2859.29167
913.899	2823.95833
917.438	2826.625
920.973	2822.95833
924.506	2836.29167
928.036	2888.95833
931.564	2916.625
935.088	2970.625
938.61	2969.29167
942.129	2960.625
945.646	3028.29167
949.16	3057.95833
952.671	3096.29167
956.179	3119.95833
959.685	3100.95833
963.188	3117.95833
966.688	3056.625
970.185	2990.95833
973.68	2938.625
977.173	2870.95833
980.662	2841.95833
984.149	2832.625
987.633	2803.95833
991.114	2856.625
994.593	2895.95833
998.069	2955.625
1001.542	3025.95833
1005.013	2967.95833
1008.481	2870.29167
1011.947	2820.29167
1015.409	2825.625
1018.869	2787.95833
1022.327	2818.29167
1025.782	2792.29167
1029.234	2792.29167
1032.683	2770.625
1036.13	2672.29167
1039.574	2581.29167
1043.016	2522.95833
1046.455	2499.625
1049.891	2470.95833
1053.325	2490.625
1056.756	2488.29167
1060.184	2472.625
1063.61	2493.625
1067.033	2520.95833
1070.454	2501.29167
1073.872	2549.29167
1077.287	2540.95833
1080.7	2533.29167
1084.11	2544.95833
1087.517	2485.29167
1090.922	2489.95833
1094.325	2440.625
1097.724	2434.625
1101.122	2431.29167
1104.516	2405.625
1107.908	2417.625
1111.298	2453.95833
1114.684	2479.29167
1118.069	2511.95833
1121.45	2551.625
1124.83	2521.29167
1128.206	2528.29167
1131.58	2589.95833
1134.951	2612.625
1138.32	2698.95833
1141.687	2771.95833
1145.05	2806.625
1148.412	2831.625
1151.77	2831.95833
1155.126	2831.95833
1158.48	2801.95833
1161.831	2795.95833
1165.18	2798.29167
1168.525	2865.95833
1171.869	2874.29167
1175.21	2903.625
1178.548	2925.625
1181.884	2949.95833
1185.217	2959.95833
1188.548	3043.625
1191.877	3042.95833
1195.202	3137.29167
1198.526	3164.29167
1201.846	3194.29167
1205.165	3180.95833
1208.48	3167.29167
1211.794	3148.95833
1215.104	3170.625
1218.413	3128.625
1221.719	3142.29167
1225.022	3081.29167
1228.323	3028.29167
1231.621	3021.95833
1234.917	2975.625
1238.21	3019.29167
1241.501	2990.29167
1244.79	3011.95833
1248.076	3010.29167
1251.359	3006.95833
1254.64	3098.29167
1257.919	3094.95833
1261.195	3146.29167
1264.468	3179.95833
1267.74	3243.95833
1271.008	3253.95833
1274.275	3221.29167
1277.538	3225.95833
1280.8	3205.625
1284.059	3168.95833
1287.315	3187.625
1290.569	3199.95833
1293.821	3233.29167
1297.07	3229.95833
1300.317	3245.95833
1303.562	3224.95833
1306.803	3198.95833
1310.043	3193.625
1313.28	3158.625
1316.515	3146.29167
1319.747	3119.95833
1322.977	3124.29167
1326.204	3095.29167
1329.429	3045.625
1332.652	3041.95833
1335.872	3039.29167
1339.09	3028.95833
1342.306	3006.95833
1345.519	2967.625
1348.729	2901.625
1351.938	2883.625
1355.144	2843.95833
1358.347	2782.29167
1361.548	2817.29167
1364.747	2788.625
1367.944	2762.95833
1371.138	2761.29167
1374.329	2733.625
1377.518	2739.95833
1380.705	2748.29167
1383.89	2750.625
1387.072	2693.625
1390.252	2614.95833
1393.429	2548.625
1396.605	2486.29167
1399.777	2410.29167
1402.948	2400.29167
1406.116	2388.29167
1409.282	2366.95833
1412.445	2379.625
1415.606	2409.95833
1418.765	2420.625
1421.921	2448.625
1425.075	2490.95833
1428.227	2569.29167
1431.376	2664.625
1434.524	2726.29167
1437.668	2822.29167
1440.811	2837.625
1443.951	2870.625
1447.089	2881.625
1450.224	2870.29167
1453.357	2851.625
1456.488	2859.95833
1459.617	2813.625
1462.743	2835.625
1465.867	2736.95833
1468.989	2698.95833
1472.108	2642.29167
1475.225	2625.95833
1478.34	2608.625
1481.453	2602.625
1484.563	2569.625
1487.671	2606.625
1490.776	2634.625
1493.88	2663.625
1496.981	2703.29167
1500.08	2738.29167
1503.176	2779.625
1506.271	2800.29167
1509.363	2824.29167
1512.452	2856.29167
1515.54	2898.29167
1518.625	2933.625
1521.708	2989.95833
1524.789	3081.625
1527.867	3190.625
1530.944	3348.29167
1534.018	3492.29167
1537.089	3577.95833
1540.159	3591.29167
1543.226	3566.95833
1546.291	3491.95833
1549.354	3428.29167
1552.415	3347.625
1555.473	3254.95833
1558.529	3180.29167
1561.583	3138.95833
1564.634	3094.29167
1567.684	3095.29167
1570.731	3084.625
1573.776	3131.29167
1576.819	3174.625
1579.859	3214.95833
1582.898	3257.625
1585.934	3285.29167
1588.968	3284.29167
1591.999	3258.95833
1595.029	3275.95833
1598.056	3270.95833
1601.081	3326.29167
1604.104	3280.29167
1607.125	3248.29167
1610.144	3188.95833
1613.16	3132.625
1616.174	3102.95833
1619.186	3043.29167
1622.196	2973.29167
1625.203	2931.29167
1628.209	2936.625
1631.212	2911.625
1634.213	2943.29167
1637.212	2950.625
1640.209	2882.625
1643.203	2787.625
1646.196	2693.625
1649.186	2560.95833
1652.174	2460.95833
1655.16	2367.29167
1658.144	2313.625
1661.125	2207.95833
1664.105	2140.29167
1667.082	2025.29167
1670.057	1953.95833
1673.03	1860.29167
1676.001	1746.29167
1678.97	1660.625
1681.937	1599.29167
1684.901	1520.625
1687.863	1464.29167
1690.824	1401.95833
1693.782	1399.29167
1696.738	1350.625
1699.692	1309.29167
1702.643	1272.29167
1705.593	1259.29167
1708.54	1248.95833
1711.486	1258.625
1714.429	1217.29167
1717.37	1224.95833
1720.309	1198.95833
1723.246	1206.29167
1726.181	1175.95833
1729.113	1180.625
1732.044	1165.29167
1734.972	1152.29167
1737.899	1151.625
1740.823	1159.29167
1743.745	1161.95833
1746.665	1108.95833
1749.583	1089.29167
1752.499	1077.625
1755.413	1082.625
1758.325	1034.95833
1761.235	1056.95833
1764.142	1036.625
1767.048	1023.95833
1769.951	1025.29167
1772.852	1024.95833
1775.752	1010.29167
1778.649	996.625
1781.544	1017.29167
1784.437	976.625
1787.328	1005.95833
1790.217	975.95833
1793.104	968.95833
1795.989	963.29167
1798.872	973.625
1801.753	973.625
1804.631	957.625
1807.508	968.625
1810.383	965.29167
1813.255	949.95833
1816.126	959.29167
1818.994	950.625
1821.861	944.95833
1824.725	944.29167
1827.587	943.29167
1830.448	930.95833
1833.306	905.625
1836.162	908.95833
1839.017	912.95833
1841.869	904.29167
1844.719	903.95833
1847.567	899.95833
1850.414	883.625
1853.258	877.95833
1856.1	898.29167
1858.94	899.625
1861.778	883.29167
1864.614	886.95833
1867.448	878.95833
1870.28	860.95833
1873.111	908.29167
1875.939	879.625
1878.765	900.29167
1881.589	867.95833
1884.411	870.625
1887.231	877.95833
1890.049	874.95833
1892.865	867.625
1895.68	854.95833
1898.492	859.625
1901.302	852.29167
1904.11	848.625
1906.916	839.29167
1909.721	824.95833
1912.523	835.625
1915.323	813.625
1918.122	821.625
1920.918	835.95833
1923.712	815.95833
1926.505	802.625
1929.295	799.29167
1932.084	823.29167
1934.87	814.29167
1937.655	804.625
1940.438	794.29167
1943.218	806.29167
1945.997	811.95833
1948.774	818.625
1951.549	821.95833
1954.322	808.29167
1957.093	793.95833
1959.862	792.29167
1962.629	774.29167
1965.394	787.29167
1968.157	761.625
1970.918	766.625
1973.678	762.29167
1976.435	785.625
1979.19	765.95833
1981.944	754.95833
1984.696	763.29167
1987.445	754.625
1990.193	759.95833
1992.939	771.95833
1995.683	746.29167
1998.425	735.29167
2001.165	768.29167
2003.903	736.29167
2006.639	740.95833
2009.374	742.625
2012.106	739.625
2014.837	731.29167
2017.566	732.625
2020.292	737.29167
2023.017	742.29167
2025.74	741.625
2028.461	727.29167
2031.18	722.95833
2033.898	716.625
2036.613	727.625
2039.327	722.29167
2042.038	717.29167
2044.748	707.95833
2047.456	725.95833
2050.162	695.95833
2052.866	699.95833
2055.568	711.29167
2058.268	693.625
2060.967	707.625
2063.663	680.29167
2066.358	699.625
2069.051	691.95833
2071.742	703.29167
2074.431	704.95833
2077.118	697.29167
2079.804	673.29167
2082.487	686.95833
2085.169	693.625
2087.849	706.95833
2090.527	679.29167
2093.203	683.625
2095.877	703.625
2098.55	705.95833
2101.22	692.29167
2103.889	706.95833
2106.556	704.29167
2109.221	723.29167
2111.884	708.625
2114.546	737.625
2117.205	755.29167
2119.863	807.95833
2122.519	821.29167
2125.173	855.625
2127.825	898.29167
2130.475	914.625
2133.124	883.29167
2135.771	877.625
2138.416	860.29167
2141.059	805.29167
2143.7	788.625
2146.339	763.95833
2148.977	718.95833
2151.613	721.95833
2154.247	694.625
2156.879	701.29167
2159.51	668.95833
2162.138	662.29167
2164.765	654.29167
2167.39	636.29167
2170.013	662.29167
2172.634	649.29167
2175.254	635.29167
2177.872	662.29167
2180.488	619.95833
2183.102	621.29167
2185.714	622.625
2188.325	607.625
2190.934	604.625
2193.541	620.29167
2196.146	600.95833
2198.75	587.29167
2201.351	590.95833
2203.951	586.625
2206.549	595.95833
2209.146	582.625
2211.74	582.29167
2214.333	574.95833
2216.924	566.625
2219.514	580.625
2222.101	562.95833
2224.687	586.29167
2227.271	571.29167
2229.853	562.625
2232.433	547.95833
2235.012	576.29167
2237.589	548.95833
2240.164	574.29167
2242.738	562.625
2245.309	540.625
2247.879	543.95833
2250.448	555.29167
2253.014	536.625
2255.579	528.95833
2258.142	534.625
2260.703	519.625
2263.262	533.29167
2265.82	517.95833
2268.376	518.29167
2270.93	511.29167
2273.483	509.29167
2276.033	525.29167
2278.583	501.95833
2281.13	504.29167
2283.675	500.29167
2286.219	493.625
2288.761	497.95833
2291.302	516.625
2293.841	504.625
2296.377	479.29167
2298.913	489.95833
2301.446	504.29167
2303.978	486.29167
2306.508	485.95833
2309.037	491.95833
2311.563	483.29167
2314.088	496.95833
2316.612	465.95833
2319.133	474.95833
2321.653	472.29167
2324.171	466.625
2326.688	487.625
2329.202	470.95833
2331.715	472.625
2334.227	462.625
2336.736	465.95833
2339.244	461.29167
2341.751	450.625
2344.255	472.29167
2346.758	461.29167
2349.259	445.625
2351.759	452.29167
2354.257	447.625
2356.753	430.29167
2359.247	442.29167
2361.74	456.29167
2364.231	450.29167
2366.721	451.95833
2369.209	441.95833
2371.695	442.625
2374.179	450.29167
2376.662	424.29167
2379.143	451.29167
2381.622	432.625
2384.1	437.95833
2386.576	433.29167
2389.051	459.95833
2391.524	452.95833
2393.995	442.625
2396.464	432.29167
2398.932	433.625
2401.398	433.29167
2403.863	436.29167
2406.325	421.625
2408.787	428.625
2411.246	429.29167
2413.704	419.625
2416.16	418.29167
2418.615	425.625
2421.068	428.625
2423.519	421.29167
2425.969	415.95833
2428.417	417.29167
2430.863	436.95833
2433.308	429.29167
2435.751	420.95833
2438.193	411.95833
2440.633	419.625
2443.071	426.625
2445.508	405.95833
2447.943	410.29167
2450.376	406.95833
2452.808	410.625
2455.238	408.95833
2457.667	436.29167
2460.093	396.29167
2462.519	396.29167
2464.942	396.29167
2467.365	406.625
2469.785	418.625
2472.204	398.95833
2474.621	389.29167
2477.037	410.29167
2479.451	382.95833
2481.863	376.95833
2484.274	390.625
2486.683	393.95833
2489.091	404.95833
2491.497	404.625
2493.901	402.29167
2496.304	379.95833
2498.705	397.95833
2501.105	387.95833
2503.503	411.625
2505.899	376.29167
2508.294	405.625
2510.687	385.625
2513.079	384.95833
2515.469	371.625
2517.858	378.29167
2520.245	394.29167
2522.63	385.625
2525.014	364.95833
2527.396	369.29167
2529.776	367.29167
2532.156	383.29167
2534.533	372.625
2536.909	365.625
2539.283	356.95833
2541.656	360.625
2544.027	399.95833
2546.397	366.625
2548.765	365.29167
2551.131	365.625
2553.496	365.95833
2555.86	375.95833
2558.221	370.95833
2560.582	353.95833
2562.94	352.29167
2565.298	364.29167
2567.653	368.29167
2570.007	349.625
2572.36	369.29167
2574.711	348.625
2577.06	370.625
2579.408	353.625
2581.754	359.625
2584.099	355.29167
2586.442	355.625
2588.784	356.29167
2591.124	353.29167
2593.463	353.95833
2595.8	361.29167
2598.135	348.29167
2600.469	348.29167
2602.802	359.29167
2605.133	367.625
2607.462	342.29167
2609.79	334.625
2612.116	347.95833
2614.441	346.625
2616.764	348.95833
2619.086	348.95833
2621.406	330.95833
2623.725	357.95833
2626.042	348.625
2628.358	344.625
2630.672	333.95833
2632.985	364.29167
2635.296	353.29167
2637.606	351.625
2639.914	333.625
2642.22	342.625
2644.525	348.29167
2646.829	343.29167
2649.131	359.95833
2651.432	359.95833
2653.731	351.625
2656.028	354.29167
2658.324	362.29167
2660.619	339.95833
2662.912	349.625
2665.204	338.29167
2667.494	347.29167
2669.782	339.95833
2672.07	349.625
2674.355	349.625
2676.639	349.95833
2678.922	338.29167
2681.203	344.29167
2683.483	333.95833
2685.761	336.625
2688.038	342.625
2690.313	353.95833
2692.587	347.95833
2694.859	339.29167
2697.13	349.625
2699.399	350.625
2701.667	358.625
2703.933	355.29167
2706.198	351.29167
2708.461	356.625
2710.723	352.95833
2712.984	357.29167
2715.243	359.625
2717.5	344.29167
2719.757	360.95833
2722.011	356.625
2724.264	360.95833
2726.516	368.95833
2728.766	349.625
2731.015	365.29167
2733.262	365.625
2735.508	366.95833
2737.753	366.95833
2739.996	350.29167
2742.237	351.95833
2744.477	364.29167
2746.716	359.95833
2748.953	344.625
2751.189	355.95833
2753.423	348.95833
2755.656	330.29167
2757.887	333.625
2760.117	341.625
2762.346	331.95833
2764.573	327.625
2766.798	334.29167
2769.022	340.625
2771.245	339.625
2773.467	344.29167
2775.686	332.29167
2777.905	342.625
2780.122	348.29167
2782.337	345.625
2784.552	348.29167
2786.764	338.95833
2788.976	346.95833
2791.186	348.95833
2793.394	346.95833
2795.601	354.29167
2797.807	356.95833
2800.011	362.29167
2802.214	366.29167
2804.415	360.625
2806.615	359.625
2808.814	359.625
2811.011	370.29167
2813.206	362.29167
2815.401	378.29167
2817.594	381.29167
2819.785	379.95833
2821.975	374.29167
2824.164	374.95833
2826.351	389.625
2828.537	408.29167
2830.722	406.95833
2832.905	409.95833
2835.086	432.625
2837.267	456.29167
2839.445	458.95833
2841.623	463.95833
2843.799	487.95833
2845.974	506.95833
2848.147	534.29167
2850.319	549.29167
2852.489	574.625
2854.659	576.95833
2856.826	579.625
2858.993	623.95833
2861.158	588.625
2863.321	599.95833
2865.483	607.29167
2867.644	601.29167
2869.804	603.95833
2871.962	599.29167
2874.118	605.95833
2876.274	601.625
2878.428	598.95833
2880.58	600.29167
2882.731	598.625
2884.881	580.625
2887.03	595.625
2889.177	594.29167
2891.322	619.29167
2893.467	601.625
2895.61	598.29167
2897.751	611.95833
2899.892	610.95833
2902.03	614.29167
2904.168	621.29167
2906.304	626.95833
2908.439	633.95833
2910.572	628.95833
2912.704	638.625
2914.835	641.625
2916.965	640.95833
2919.093	646.95833
2921.219	628.29167
2923.345	643.29167
2925.469	627.95833
2927.591	629.29167
2929.712	606.95833
2931.832	604.625
2933.951	587.625
2936.068	578.95833
2938.184	574.625
2940.299	558.29167
2942.412	544.95833
2944.524	519.625
2946.634	528.95833
2948.744	477.95833
2950.851	496.95833
2952.958	464.29167
2955.063	478.95833
2957.167	455.625
2959.269	426.95833
2961.371	467.29167
2963.471	486.95833
2965.569	503.625
2967.666	406.95833
2969.762	402.95833
2971.857	399.625
2973.95	384.95833
2976.042	385.95833
2978.133	376.95833
2980.222	367.29167
2982.31	351.95833
2984.396	336.625
2986.482	339.95833
2988.566	343.29167
2990.648	335.29167
2992.73	328.29167
2994.81	329.95833
2996.889	340.625
2998.966	327.95833
3001.042	329.95833
3003.117	323.29167
3005.191	325.95833
3007.263	331.625
3009.334	316.29167
3011.403	318.625
3013.472	305.95833
3015.539	316.29167
3017.604	323.625
3019.669	285.95833
3021.732	297.29167
3023.794	289.95833
3025.854	288.625
3027.914	289.625
3029.971	299.95833
3032.028	284.95833
3034.083	291.625
3036.137	288.625
3038.19	279.29167
3040.242	266.95833
3042.292	266.625
3044.341	273.29167
3046.388	279.29167
3048.435	258.625
3050.48	277.95833
3052.524	267.29167
3054.566	246.625
3056.607	262.625
3058.647	254.95833
3060.686	246.95833
3062.723	230.29167
3064.759	230.95833
3066.794	0.29167
3068.828	2.29167
3070.86	2.95833
