-0.839	464.75
3.438	542.41667
7.711	161.75
11.981	60.08333
16.247	43.08333
20.509	47.08333
24.768	39.41667
29.024	54.41667
33.276	40.08333
37.524	50.75
41.769	46.75
46.01	35.08333
50.247	47.41667
54.481	55.41667
58.712	57.41667
62.939	45.41667
67.162	59.75
71.382	53.75
75.599	44.08333
79.812	58.75
84.021	77.08333
88.227	60.41667
92.429	58.08333
96.628	53.41667
100.823	68.41667
105.015	72.08333
109.204	65.08333
113.388	70.08333
117.57	72.08333
121.748	80.41667
125.922	75.41667
130.093	94.75
134.261	92.75
138.425	90.41667
142.585	132.41667
146.742	120.08333
150.896	151.41667
155.046	185.08333
159.193	303.75
163.336	519.75
167.476	956.08333
171.613	1716.08333
175.746	2806.75
179.875	4074.75
184.002	5200.08333
188.124	5989.41667
192.244	6233.08333
196.36	6127.41667
200.472	5944.41667
204.581	5704.41667
208.687	5521.75
212.79	5449.75
216.889	5385.75
220.984	5381.41667
225.077	5383.41667
229.165	5337.75
233.251	5347.41667
237.333	5273.75
241.412	5214.75
245.487	5157.08333
249.559	5072.08333
253.628	5041.41667
257.694	4953.08333
261.756	4903.75
265.814	4816.75
269.87	4649.41667
273.922	4474.08333
277.97	4347.08333
282.016	4215.41667
286.058	4166.41667
290.097	4174.75
294.132	4152.08333
298.164	4147.08333
302.193	3959.75
306.219	3709.08333
310.241	3467.08333
314.26	3196.41667
318.276	3015.41667
322.288	2872.08333
326.297	2763.08333
330.303	2690.41667
334.305	2610.08333
338.305	2584.41667
342.301	2531.75
346.294	2525.75
350.283	2520.75
354.269	2508.75
358.252	2466.75
362.232	2469.75
366.209	2466.75
370.182	2414.08333
374.152	2400.75
378.119	2436.08333
382.083	2411.08333
386.043	2405.41667
390	2389.08333
393.954	2393.75
397.905	2396.75
401.852	2391.41667
405.797	2353.08333
409.738	2359.75
413.676	2350.41667
417.61	2349.08333
421.542	2354.08333
425.47	2335.41667
429.396	2300.41667
433.318	2281.75
437.236	2292.41667
441.152	2280.41667
445.065	2244.75
448.974	2253.75
452.88	2209.41667
456.783	2199.08333
460.683	2185.41667
464.58	2199.41667
468.473	2204.08333
472.364	2211.41667
476.251	2199.08333
480.135	2229.08333
484.016	2254.41667
487.894	2258.75
491.769	2254.75
495.641	2250.75
499.509	2252.75
503.375	2252.75
507.237	2254.08333
511.096	2254.75
514.952	2321.41667
518.805	2390.41667
522.655	2414.41667
526.502	2345.08333
530.346	2257.41667
534.187	2261.41667
538.024	2255.41667
541.859	2276.41667
545.69	2306.75
549.519	2278.75
553.344	2246.75
557.166	2211.75
560.985	2216.75
564.802	2190.08333
568.615	2141.41667
572.425	2100.41667
576.232	2108.41667
580.036	2091.75
583.836	2105.41667
587.634	2131.75
591.429	2118.08333
595.221	2169.08333
599.01	2172.75
602.796	2197.41667
606.578	2227.75
610.358	2219.41667
614.135	2203.41667
617.909	2202.08333
621.679	2161.75
625.447	2160.75
629.212	2163.75
632.973	2164.08333
636.732	2149.08333
640.488	2148.41667
644.241	2140.41667
647.991	2135.41667
651.737	2173.08333
655.481	2160.41667
659.222	2176.08333
662.96	2186.75
666.695	2187.08333
670.427	2192.75
674.156	2195.41667
677.882	2159.41667
681.605	2139.75
685.325	2114.41667
689.043	2124.08333
692.757	2107.41667
696.468	2099.41667
700.177	2102.41667
703.882	2101.75
707.585	2063.08333
711.284	2089.75
714.981	2088.41667
718.675	2099.41667
722.366	2081.75
726.054	2074.75
729.739	2088.08333
733.421	2083.75
737.1	2077.75
740.777	2106.41667
744.45	2113.41667
748.121	2128.08333
751.789	2157.75
755.453	2140.75
759.115	2167.41667
762.774	2177.75
766.431	2207.08333
770.084	2208.75
773.734	2231.41667
777.382	2249.41667
781.027	2277.08333
784.669	2288.08333
788.308	2294.75
791.944	2328.75
795.577	2324.41667
799.208	2360.41667
802.835	2381.75
806.46	2392.75
810.082	2399.08333
813.701	2422.75
817.317	2458.75
820.931	2434.75
824.542	2424.75
828.149	2392.41667
831.754	2356.08333
835.357	2330.75
838.956	2333.75
842.553	2327.75
846.146	2336.08333
849.737	2301.08333
853.326	2284.75
856.911	2283.75
860.493	2314.75
864.073	2320.08333
867.65	2363.41667
871.225	2378.41667
874.796	2362.75
878.365	2381.75
881.931	2381.41667
885.494	2410.08333
889.054	2392.75
892.612	2410.75
896.166	2377.75
899.719	2346.41667
903.268	2322.75
906.814	2325.75
910.358	2302.41667
913.899	2303.08333
917.438	2298.08333
920.973	2285.75
924.506	2335.41667
928.036	2370.75
931.564	2428.41667
935.088	2433.75
938.61	2418.08333
942.129	2448.08333
945.646	2498.08333
949.16	2549.75
952.671	2581.08333
956.179	2615.75
959.685	2617.75
963.188	2653.41667
966.688	2637.75
970.185	2554.41667
973.68	2463.08333
977.173	2397.75
980.662	2380.41667
984.149	2369.41667
987.633	2343.75
991.114	2374.41667
994.593	2430.75
998.069	2484.41667
1001.542	2562.41667
1005.013	2534.41667
1008.481	2389.75
1011.947	2355.08333
1015.409	2331.41667
1018.869	2342.08333
1022.327	2343.41667
1025.782	2311.41667
1029.234	2309.75
1032.683	2284.41667
1036.13	2227.08333
1039.574	2144.41667
1043.016	2077.41667
1046.455	2042.75
1049.891	2044.41667
1053.325	2060.08333
1056.756	2054.41667
1060.184	2055.08333
1063.61	2088.75
1067.033	2091.75
1070.454	2070.75
1073.872	2095.75
1077.287	2102.08333
1080.7	2110.08333
1084.11	2106.41667
1087.517	2083.41667
1090.922	2045.08333
1094.325	2026.08333
1097.724	1999.08333
1101.122	2025.41667
1104.516	2002.08333
1107.908	1988.41667
1111.298	2051.41667
1114.684	2063.41667
1118.069	2094.41667
1121.45	2115.75
1124.83	2101.41667
1128.206	2104.75
1131.58	2132.41667
1134.951	2177.41667
1138.32	2237.08333
1141.687	2324.08333
1145.05	2391.75
1148.412	2373.08333
1151.77	2370.41667
1155.126	2366.75
1158.48	2371.75
1161.831	2361.41667
1165.18	2379.08333
1168.525	2408.08333
1171.869	2431.75
1175.21	2450.75
1178.548	2470.08333
1181.884	2513.41667
1185.217	2517.08333
1188.548	2548.75
1191.877	2624.75
1195.202	2669.75
1198.526	2725.75
1201.846	2759.41667
1205.165	2750.08333
1208.48	2748.41667
1211.794	2759.41667
1215.104	2747.75
1218.413	2740.08333
1221.719	2735.08333
1225.022	2698.75
1228.323	2649.75
1231.621	2638.08333
1234.917	2615.75
1238.21	2631.41667
1241.501	2609.08333
1244.79	2619.75
1248.076	2598.41667
1251.359	2629.75
1254.64	2703.08333
1257.919	2711.41667
1261.195	2747.75
1264.468	2778.75
1267.74	2817.75
1271.008	2834.08333
1274.275	2831.08333
1277.538	2808.41667
1280.8	2823.75
1284.059	2808.08333
1287.315	2844.75
1290.569	2862.08333
1293.821	2869.41667
1297.07	2894.75
1300.317	2895.75
1303.562	2896.75
1306.803	2893.41667
1310.043	2890.08333
1313.28	2861.75
1316.515	2836.08333
1319.747	2829.41667
1322.977	2817.75
1326.204	2770.08333
1329.429	2757.08333
1332.652	2769.75
1335.872	2731.08333
1339.09	2713.41667
1342.306	2699.41667
1345.519	2685.75
1348.729	2656.75
1351.938	2678.41667
1355.144	2651.75
1358.347	2601.41667
1361.548	2553.08333
1364.747	2569.08333
1367.944	2527.08333
1371.138	2542.08333
1374.329	2552.08333
1377.518	2560.75
1380.705	2571.08333
1383.89	2546.75
1387.072	2479.75
1390.252	2390.75
1393.429	2297.08333
1396.605	2228.75
1399.777	2163.75
1402.948	2140.75
1406.116	2122.08333
1409.282	2104.75
1412.445	2102.41667
1415.606	2126.41667
1418.765	2152.08333
1421.921	2182.08333
1425.075	2233.08333
1428.227	2284.08333
1431.376	2400.75
1434.524	2511.41667
1437.668	2554.41667
1440.811	2607.75
1443.951	2634.75
1447.089	2636.41667
1450.224	2634.75
1453.357	2618.75
1456.488	2606.08333
1459.617	2545.75
1462.743	2503.75
1465.867	2447.08333
1468.989	2403.08333
1472.108	2387.41667
1475.225	2369.08333
1478.34	2349.08333
1481.453	2336.08333
1484.563	2331.08333
1487.671	2374.41667
1490.776	2381.41667
1493.88	2432.75
1496.981	2450.41667
1500.08	2492.41667
1503.176	2511.75
1506.271	2558.08333
1509.363	2601.75
1512.452	2592.08333
1515.54	2630.08333
1518.625	2644.08333
1521.708	2726.75
1524.789	2820.08333
1527.867	2895.08333
1530.944	3054.75
1534.018	3163.08333
1537.089	3275.75
1540.159	3278.41667
1543.226	3224.41667
1546.291	3157.75
1549.354	3111.41667
1552.415	3020.08333
1555.473	2945.41667
1558.529	2903.08333
1561.583	2874.41667
1564.634	2890.41667
1567.684	2907.41667
1570.731	2956.08333
1573.776	2980.41667
1576.819	3059.08333
1579.859	3097.41667
1582.898	3122.08333
1585.934	3192.08333
1588.968	3178.41667
1591.999	3181.41667
1595.029	3165.08333
1598.056	3190.75
1601.081	3194.08333
1604.104	3187.75
1607.125	3164.08333
1610.144	3126.08333
1613.16	3045.75
1616.174	3005.41667
1619.186	2959.41667
1622.196	2879.41667
1625.203	2801.41667
1628.209	2777.41667
1631.212	2768.08333
1634.213	2787.75
1637.212	2830.08333
1640.209	2838.41667
1643.203	2756.75
1646.196	2694.08333
1649.186	2571.08333
1652.174	2456.41667
1655.16	2374.08333
1658.144	2324.75
1661.125	2177.75
1664.105	2057.08333
1667.082	1965.41667
1670.057	1838.08333
1673.03	1735.41667
1676.001	1625.08333
1678.97	1510.08333
1681.937	1430.41667
1684.901	1352.41667
1687.863	1302.75
1690.824	1252.75
1693.782	1237.75
1696.738	1174.41667
1699.692	1147.08333
1702.643	1134.08333
1705.593	1109.41667
1708.54	1097.41667
1711.486	1099.08333
1714.429	1062.41667
1717.37	1068.08333
1720.309	1038.75
1723.246	1043.75
1726.181	1024.75
1729.113	1030.75
1732.044	1014.08333
1734.972	1000.41667
1737.899	1009.08333
1740.823	1001.75
1743.745	1016.08333
1746.665	964.41667
1749.583	942.41667
1752.499	929.41667
1755.413	933.08333
1758.325	910.41667
1761.235	904.75
1764.142	893.41667
1767.048	882.08333
1769.951	885.08333
1772.852	881.41667
1775.752	880.41667
1778.649	875.08333
1781.544	878.08333
1784.437	852.08333
1787.328	858.75
1790.217	855.08333
1793.104	821.75
1795.989	828.08333
1798.872	819.08333
1801.753	843.08333
1804.631	831.41667
1807.508	828.08333
1810.383	835.41667
1813.255	825.08333
1816.126	834.75
1818.994	821.41667
1821.861	808.41667
1824.725	817.75
1827.587	814.41667
1830.448	796.41667
1833.306	790.75
1836.162	788.08333
1839.017	786.08333
1841.869	784.41667
1844.719	785.08333
1847.567	768.75
1850.414	762.75
1853.258	760.75
1856.1	783.08333
1858.94	772.75
1861.778	781.41667
1864.614	754.41667
1867.448	763.08333
1870.28	756.41667
1873.111	766.08333
1875.939	753.75
1878.765	785.08333
1881.589	755.08333
1884.411	761.41667
1887.231	762.08333
1890.049	748.41667
1892.865	765.08333
1895.68	744.41667
1898.492	745.75
1901.302	729.75
1904.11	751.08333
1906.916	727.41667
1909.721	721.75
1912.523	729.08333
1915.323	716.41667
1918.122	722.08333
1920.918	729.75
1923.712	718.41667
1926.505	706.08333
1929.295	703.08333
1932.084	713.75
1934.87	709.75
1937.655	710.41667
1940.438	707.08333
1943.218	719.41667
1945.997	712.75
1948.774	720.08333
1951.549	717.75
1954.322	699.41667
1957.093	695.08333
1959.862	700.08333
1962.629	687.41667
1965.394	684.41667
1968.157	682.75
1970.918	688.08333
1973.678	671.41667
1976.435	693.08333
1979.19	676.41667
1981.944	663.75
1984.696	679.41667
1987.445	658.41667
1990.193	670.75
1992.939	680.08333
1995.683	673.75
1998.425	651.41667
2001.165	681.41667
2003.903	664.08333
2006.639	666.75
2009.374	673.08333
2012.106	669.75
2014.837	640.75
2017.566	659.08333
2020.292	658.08333
2023.017	649.75
2025.74	647.08333
2028.461	658.41667
2031.18	654.41667
2033.898	650.75
2036.613	647.75
2039.327	654.41667
2042.038	642.08333
2044.748	640.08333
2047.456	642.41667
2050.162	630.75
2052.866	625.08333
2055.568	646.75
2058.268	632.75
2060.967	632.08333
2063.663	618.41667
2066.358	626.75
2069.051	614.75
2071.742	625.08333
2074.431	621.41667
2077.118	623.41667
2079.804	627.41667
2082.487	624.08333
2085.169	635.41667
2087.849	641.75
2090.527	615.75
2093.203	622.75
2095.877	638.08333
2098.55	635.75
2101.22	635.41667
2103.889	649.08333
2106.556	636.75
2109.221	650.75
2111.884	646.41667
2114.546	678.75
2117.205	710.08333
2119.863	754.08333
2122.519	761.75
2125.173	804.75
2127.825	847.75
2130.475	870.75
2133.124	844.08333
2135.771	817.08333
2138.416	788.75
2141.059	762.08333
2143.7	746.41667
2146.339	700.08333
2148.977	663.41667
2151.613	668.75
2154.247	659.75
2156.879	641.08333
2159.51	635.75
2162.138	624.41667
2164.765	623.75
2167.39	600.41667
2170.013	622.08333
2172.634	625.41667
2175.254	610.41667
2177.872	632.75
2180.488	589.41667
2183.102	610.08333
2185.714	595.08333
2188.325	577.75
2190.934	574.41667
2193.541	590.08333
2196.146	570.75
2198.75	559.75
2201.351	562.75
2203.951	554.08333
2206.549	567.75
2209.146	569.41667
2211.74	562.08333
2214.333	557.41667
2216.924	541.41667
2219.514	559.41667
2222.101	549.75
2224.687	574.41667
2227.271	548.08333
2229.853	532.08333
2232.433	544.08333
2235.012	563.75
2237.589	548.75
2240.164	572.75
2242.738	545.08333
2245.309	533.08333
2247.879	548.08333
2250.448	552.41667
2253.014	524.08333
2255.579	520.75
2258.142	535.75
2260.703	520.75
2263.262	511.75
2265.82	517.41667
2268.376	522.41667
2270.93	503.41667
2273.483	510.75
2276.033	513.75
2278.583	505.75
2281.13	511.75
2283.675	505.08333
2286.219	504.41667
2288.761	503.41667
2291.302	518.75
2293.841	513.08333
2296.377	493.75
2298.913	504.08333
2301.446	508.08333
2303.978	508.75
2306.508	496.75
2309.037	503.41667
2311.563	508.75
2314.088	510.08333
2316.612	484.08333
2319.133	490.08333
2321.653	500.41667
2324.171	480.08333
2326.688	503.08333
2329.202	485.41667
2331.715	499.41667
2334.227	493.08333
2336.736	492.41667
2339.244	479.75
2341.751	479.08333
2344.255	485.75
2346.758	495.75
2349.259	473.75
2351.759	483.41667
2354.257	487.41667
2356.753	475.75
2359.247	481.75
2361.74	492.08333
2364.231	485.75
2366.721	483.75
2369.209	479.08333
2371.695	485.41667
2374.179	483.41667
2376.662	474.75
2379.143	491.08333
2381.622	477.41667
2384.1	486.41667
2386.576	474.75
2389.051	491.75
2391.524	504.41667
2393.995	490.41667
2396.464	477.41667
2398.932	488.41667
2401.398	471.41667
2403.863	473.08333
2406.325	480.41667
2408.787	487.08333
2411.246	476.08333
2413.704	474.41667
2416.16	476.08333
2418.615	473.75
2421.068	487.41667
2423.519	488.41667
2425.969	466.08333
2428.417	490.08333
2430.863	501.08333
2433.308	483.75
2435.751	484.75
2438.193	479.08333
2440.633	490.75
2443.071	481.41667
2445.508	478.08333
2447.943	477.75
2450.376	470.75
2452.808	484.75
2455.238	467.75
2457.667	511.75
2460.093	474.08333
2462.519	471.75
2464.942	473.08333
2467.365	473.75
2469.785	486.75
2472.204	476.41667
2474.621	473.08333
2477.037	490.41667
2479.451	457.41667
2481.863	451.41667
2484.274	472.41667
2486.683	469.41667
2489.091	489.08333
2491.497	475.41667
2493.901	486.08333
2496.304	469.41667
2498.705	489.08333
2501.105	466.75
2503.503	508.08333
2505.899	464.75
2508.294	503.75
2510.687	475.75
2513.079	482.75
2515.469	464.75
2517.858	480.75
2520.245	481.75
2522.63	474.41667
2525.014	475.75
2527.396	474.41667
2529.776	472.41667
2532.156	490.08333
2534.533	477.41667
2536.909	467.08333
2539.283	459.75
2541.656	459.08333
2544.027	487.08333
2546.397	472.75
2548.765	467.41667
2551.131	475.08333
2553.496	471.41667
2555.86	479.08333
2558.221	483.75
2560.582	471.75
2562.94	466.41667
2565.298	480.08333
2567.653	490.08333
2570.007	473.41667
2572.36	490.75
2574.711	468.08333
2577.06	493.41667
2579.408	489.41667
2581.754	480.41667
2584.099	489.75
2586.442	482.08333
2588.784	493.41667
2591.124	484.75
2593.463	486.41667
2595.8	492.41667
2598.135	469.41667
2600.469	482.41667
2602.802	494.75
2605.133	495.41667
2607.462	481.08333
2609.79	477.75
2612.116	488.08333
2614.441	485.08333
2616.764	492.75
2619.086	484.75
2621.406	475.08333
2623.725	505.08333
2626.042	496.75
2628.358	485.75
2630.672	499.75
2632.985	506.41667
2635.296	495.75
2637.606	499.75
2639.914	492.08333
2642.22	497.41667
2644.525	499.75
2646.829	505.08333
2649.131	503.41667
2651.432	509.41667
2653.731	509.41667
2656.028	519.08333
2658.324	525.08333
2660.619	508.08333
2662.912	525.75
2665.204	504.41667
2667.494	523.75
2669.782	506.08333
2672.07	520.75
2674.355	525.75
2676.639	515.41667
2678.922	505.41667
2681.203	518.41667
2683.483	504.41667
2685.761	504.75
2688.038	519.41667
2690.313	526.41667
2692.587	521.75
2694.859	515.75
2697.13	517.75
2699.399	541.41667
2701.667	539.08333
2703.933	545.75
2706.198	538.75
2708.461	544.41667
2710.723	550.75
2712.984	542.08333
2715.243	555.75
2717.5	544.08333
2719.757	557.75
2722.011	549.08333
2724.264	565.08333
2726.516	564.75
2728.766	561.08333
2731.015	562.08333
2733.262	563.41667
2735.508	565.08333
2737.753	574.75
2739.996	552.08333
2742.237	556.41667
2744.477	563.75
2746.716	564.75
2748.953	539.08333
2751.189	556.08333
2753.423	548.41667
2755.656	541.08333
2757.887	551.75
2760.117	549.41667
2762.346	540.08333
2764.573	545.08333
2766.798	547.08333
2769.022	543.41667
2771.245	562.41667
2773.467	554.41667
2775.686	558.08333
2777.905	560.41667
2780.122	562.75
2782.337	557.08333
2784.552	563.41667
2786.764	565.75
2788.976	563.08333
2791.186	583.75
2793.394	578.41667
2795.601	582.08333
2797.807	591.75
2800.011	591.75
2802.214	606.41667
2804.415	598.41667
2806.615	597.41667
2808.814	598.75
2811.011	600.41667
2813.206	607.75
2815.401	620.75
2817.594	627.41667
2819.785	627.41667
2821.975	621.41667
2824.164	625.41667
2826.351	643.75
2828.537	651.75
2830.722	661.41667
2832.905	650.41667
2835.086	687.08333
2837.267	707.75
2839.445	716.41667
2841.623	742.75
2843.799	770.75
2845.974	790.08333
2848.147	809.75
2850.319	835.08333
2852.489	866.75
2854.659	867.41667
2856.826	888.41667
2858.993	915.41667
2861.158	903.75
2863.321	893.08333
2865.483	921.08333
2867.644	908.75
2869.804	901.08333
2871.962	904.75
2874.118	897.08333
2876.274	906.41667
2878.428	922.08333
2880.58	908.75
2882.731	889.08333
2884.881	906.41667
2887.03	906.41667
2889.177	910.08333
2891.322	904.75
2893.467	920.41667
2895.61	918.75
2897.751	940.41667
2899.892	934.41667
2902.03	941.75
2904.168	943.75
2906.304	945.41667
2908.439	957.41667
2910.572	950.75
2912.704	974.75
2914.835	964.75
2916.965	966.41667
2919.093	980.08333
2921.219	956.75
2923.345	980.75
2925.469	947.41667
2927.591	959.75
2929.712	920.41667
2931.832	929.75
2933.951	909.41667
2936.068	910.75
2938.184	898.41667
2940.299	872.75
2942.412	860.75
2944.524	831.41667
2946.634	829.08333
2948.744	784.41667
2950.851	816.41667
2952.958	772.08333
2955.063	778.75
2957.167	771.08333
2959.269	738.41667
2961.371	761.41667
2963.471	716.41667
2965.569	737.08333
2967.666	710.41667
2969.762	704.41667
2971.857	708.75
2973.95	678.75
2976.042	685.41667
2978.133	666.08333
2980.222	652.41667
2982.31	643.41667
2984.396	627.41667
2986.482	629.41667
2988.566	620.75
2990.648	619.41667
2992.73	616.75
2994.81	604.08333
2996.889	626.41667
2998.966	612.41667
3001.042	628.41667
3003.117	607.41667
3005.191	622.08333
3007.263	613.41667
3009.334	594.41667
3011.403	600.75
3013.472	582.75
3015.539	593.08333
3017.604	591.41667
3019.669	556.75
3021.732	574.08333
3023.794	564.41667
3025.854	552.08333
3027.914	566.75
3029.971	575.41667
3032.028	553.75
3034.083	561.41667
3036.137	555.41667
3038.19	532.75
3040.242	519.41667
3042.292	509.75
3044.341	511.08333
3046.388	518.41667
3048.435	501.41667
3050.48	513.75
3052.524	505.08333
3054.566	491.75
3056.607	498.75
3058.647	484.75
3060.686	465.08333
3062.723	460.41667
3064.759	444.08333
3066.794	-0.58333
3068.828	1.08333
3070.86	5.08333
