-0.839	466.66667
3.438	549
7.711	166.66667
11.981	59
16.247	43.66667
20.509	49.66667
24.768	44.66667
29.024	51
33.276	43
37.524	50.66667
41.769	45
46.01	34
50.247	50
54.481	54
58.712	60.33333
62.939	49
67.162	61.33333
71.382	57.66667
75.599	46.66667
79.812	61
84.021	81
88.227	56
92.429	58.66667
96.628	53
100.823	68
105.015	74
109.204	68.33333
113.388	75.66667
117.57	74.66667
121.748	86.66667
125.922	76.66667
130.093	94.66667
134.261	91.66667
138.425	94.33333
142.585	133.66667
146.742	121.66667
150.896	149.66667
155.046	195.66667
159.193	308.33333
163.336	529.66667
167.476	948.66667
171.613	1721
175.746	2849.66667
179.875	4160.33333
184.002	5287
188.124	6113.33333
192.244	6315
196.36	6242.66667
200.472	6054
204.581	5840
208.687	5637.33333
212.79	5537.66667
216.889	5513
220.984	5488.66667
225.077	5505.33333
229.165	5476.33333
233.251	5452.33333
237.333	5396.33333
241.412	5359.33333
245.487	5288.66667
249.559	5230
253.628	5162.33333
257.694	5104.33333
261.756	5038
265.814	4941
269.87	4787.66667
273.922	4608.33333
277.97	4462
282.016	4327
286.058	4248
290.097	4239.33333
294.132	4267.66667
298.164	4250.33333
302.193	4096.66667
306.219	3843
310.241	3570.66667
314.26	3311.66667
318.276	3096.66667
322.288	2975.33333
326.297	2830
330.303	2779.66667
334.305	2711.66667
338.305	2670.33333
342.301	2634.66667
346.294	2661.33333
350.283	2603.66667
354.269	2585
358.252	2596
362.232	2565
366.209	2564.33333
370.182	2535.66667
374.152	2508.66667
378.119	2521.66667
382.083	2508.33333
386.043	2533.33333
390	2489.66667
393.954	2513
397.905	2505.66667
401.852	2499.33333
405.797	2454.33333
409.738	2460
413.676	2474.66667
417.61	2472.33333
421.542	2424.66667
425.47	2428
429.396	2376.33333
433.318	2387
437.236	2373.66667
441.152	2404
445.065	2358.66667
448.974	2340.66667
452.88	2304.33333
456.783	2320.33333
460.683	2288
464.58	2301.33333
468.473	2306.33333
472.364	2303.33333
476.251	2320.33333
480.135	2331
484.016	2345.66667
487.894	2360.66667
491.769	2373
495.641	2360.33333
499.509	2364.66667
503.375	2359.66667
507.237	2356
511.096	2367
514.952	2420.66667
518.805	2504
522.655	2504
526.502	2423.33333
530.346	2385.33333
534.187	2361.66667
538.024	2361
541.859	2366.66667
545.69	2412.66667
549.519	2367.33333
553.344	2357.33333
557.166	2325
560.985	2315.66667
564.802	2287.66667
568.615	2241
572.425	2200
576.232	2220
580.036	2215.33333
583.836	2218.33333
587.634	2215.33333
591.429	2211.66667
595.221	2269.33333
599.01	2274.33333
602.796	2297
606.578	2307.33333
610.358	2323.66667
614.135	2282.33333
617.909	2314.33333
621.679	2282.33333
625.447	2248.66667
629.212	2251
632.973	2256.33333
636.732	2250.33333
640.488	2244
644.241	2215.66667
647.991	2232
651.737	2275
655.481	2261.33333
659.222	2287.33333
662.96	2258
666.695	2288.33333
670.427	2282
674.156	2312
677.882	2268
681.605	2262.33333
685.325	2208
689.043	2225.66667
692.757	2233.66667
696.468	2203.33333
700.177	2209
703.882	2200
707.585	2192
711.284	2190.66667
714.981	2161.66667
718.675	2180.66667
722.366	2201.33333
726.054	2163.33333
729.739	2182
733.421	2180
737.1	2142.66667
740.777	2198.33333
744.45	2186.33333
748.121	2208
751.789	2265
755.453	2237
759.115	2277.66667
762.774	2266
766.431	2261.66667
770.084	2326
773.734	2312.66667
777.382	2337.33333
781.027	2363.66667
784.669	2381
788.308	2386
791.944	2399.33333
795.577	2419.33333
799.208	2431.33333
802.835	2449
806.46	2477.66667
810.082	2527.33333
813.701	2521
817.317	2561.66667
820.931	2540
824.542	2529.66667
828.149	2488
831.754	2441.33333
835.357	2418.66667
838.956	2418.66667
842.553	2421.66667
846.146	2382
849.737	2368.66667
853.326	2367
856.911	2351.33333
860.493	2372.33333
864.073	2386.66667
867.65	2438.33333
871.225	2438.66667
874.796	2453.66667
878.365	2443.33333
881.931	2465
885.494	2476.66667
889.054	2482.66667
892.612	2469.66667
896.166	2440.33333
899.719	2427.66667
903.268	2411
906.814	2404.66667
910.358	2390.66667
913.899	2376.66667
917.438	2369
920.973	2366
924.506	2424
928.036	2455.33333
931.564	2496
935.088	2505.66667
938.61	2512.66667
942.129	2525.33333
945.646	2561.66667
949.16	2604.66667
952.671	2663
956.179	2679.66667
959.685	2703
963.188	2740
966.688	2741.66667
970.185	2643.33333
973.68	2570.33333
977.173	2465.33333
980.662	2447.66667
984.149	2453
987.633	2423.33333
991.114	2483.33333
994.593	2514
998.069	2568.66667
1001.542	2660.66667
1005.013	2600.66667
1008.481	2483
1011.947	2434
1015.409	2415
1018.869	2398.33333
1022.327	2418
1025.782	2366.66667
1029.234	2378
1032.683	2373.33333
1036.13	2297.33333
1039.574	2199.66667
1043.016	2155.33333
1046.455	2122.66667
1049.891	2103.66667
1053.325	2118
1056.756	2123.33333
1060.184	2128.33333
1063.61	2127.66667
1067.033	2144.33333
1070.454	2133.33333
1073.872	2181.66667
1077.287	2172.66667
1080.7	2181.33333
1084.11	2179
1087.517	2148.33333
1090.922	2105.66667
1094.325	2092.33333
1097.724	2089.66667
1101.122	2049.66667
1104.516	2046.66667
1107.908	2047
1111.298	2094
1114.684	2131
1118.069	2161.33333
1121.45	2160.33333
1124.83	2148
1128.206	2186.66667
1131.58	2196.33333
1134.951	2255.33333
1138.32	2311.66667
1141.687	2401.33333
1145.05	2443
1148.412	2460.33333
1151.77	2429.33333
1155.126	2433.33333
1158.48	2424
1161.831	2416
1165.18	2436.33333
1168.525	2460.66667
1171.869	2470.33333
1175.21	2498.66667
1178.548	2518.33333
1181.884	2543.33333
1185.217	2538.33333
1188.548	2615.33333
1191.877	2660.33333
1195.202	2743.66667
1198.526	2767.66667
1201.846	2814.33333
1205.165	2804
1208.48	2813
1211.794	2797
1215.104	2814.33333
1218.413	2807
1221.719	2781.33333
1225.022	2755
1228.323	2706
1231.621	2684
1234.917	2652.66667
1238.21	2699
1241.501	2669.66667
1244.79	2660
1248.076	2657.33333
1251.359	2698.33333
1254.64	2759
1257.919	2773
1261.195	2786
1264.468	2841.66667
1267.74	2892.33333
1271.008	2887.66667
1274.275	2914.66667
1277.538	2856.33333
1280.8	2851.66667
1284.059	2853.66667
1287.315	2880
1290.569	2901
1293.821	2911.66667
1297.07	2954
1300.317	2929
1303.562	2948
1306.803	2948
1310.043	2913
1313.28	2910.66667
1316.515	2868.33333
1319.747	2869.33333
1322.977	2865
1326.204	2843.66667
1329.429	2836.33333
1332.652	2834
1335.872	2795.66667
1339.09	2781
1342.306	2784.66667
1345.519	2741
1348.729	2734
1351.938	2780.33333
1355.144	2727.33333
1358.347	2647.33333
1361.548	2637.33333
1364.747	2632
1367.944	2605
1371.138	2614.33333
1374.329	2587.66667
1377.518	2613.66667
1380.705	2624.33333
1383.89	2617
1387.072	2556.66667
1390.252	2446.33333
1393.429	2380.66667
1396.605	2294
1399.777	2220
1402.948	2212.33333
1406.116	2169.33333
1409.282	2174
1412.445	2165
1415.606	2176.33333
1418.765	2184.33333
1421.921	2225
1425.075	2285.33333
1428.227	2340.33333
1431.376	2449
1434.524	2541.33333
1437.668	2610
1440.811	2654
1443.951	2669
1447.089	2694
1450.224	2664.33333
1453.357	2672.33333
1456.488	2663
1459.617	2620
1462.743	2576.33333
1465.867	2530
1468.989	2470
1472.108	2447
1475.225	2422.66667
1478.34	2387
1481.453	2391.33333
1484.563	2392.66667
1487.671	2418.33333
1490.776	2443.33333
1493.88	2494.66667
1496.981	2499.66667
1500.08	2531.33333
1503.176	2569
1506.271	2596.66667
1509.363	2639
1512.452	2660.66667
1515.54	2700.66667
1518.625	2709.66667
1521.708	2771
1524.789	2859
1527.867	2967.33333
1530.944	3100.66667
1534.018	3220
1537.089	3299.33333
1540.159	3323.33333
1543.226	3273
1546.291	3213.66667
1549.354	3125.66667
1552.415	3089.66667
1555.473	2981.33333
1558.529	2937.66667
1561.583	2927.33333
1564.634	2924
1567.684	2933.33333
1570.731	2971
1573.776	3021.66667
1576.819	3087.66667
1579.859	3141.33333
1582.898	3187.66667
1585.934	3223.33333
1588.968	3223
1591.999	3218.66667
1595.029	3208.33333
1598.056	3216.33333
1601.081	3247.66667
1604.104	3226
1607.125	3206.66667
1610.144	3157
1613.16	3089.33333
1616.174	3059.66667
1619.186	2987
1622.196	2919
1625.203	2869.33333
1628.209	2846.33333
1631.212	2845
1634.213	2879.33333
1637.212	2930
1640.209	2916.33333
1643.203	2881.66667
1646.196	2797.66667
1649.186	2658.33333
1652.174	2548
1655.16	2474.33333
1658.144	2388.33333
1661.125	2248.66667
1664.105	2108.66667
1667.082	2001.66667
1670.057	1893
1673.03	1775.66667
1676.001	1651
1678.97	1568
1681.937	1465.66667
1684.901	1396
1687.863	1345
1690.824	1282
1693.782	1263.66667
1696.738	1203.66667
1699.692	1186
1702.643	1154.66667
1705.593	1150.66667
1708.54	1124.33333
1711.486	1128.66667
1714.429	1094.66667
1717.37	1106
1720.309	1068.33333
1723.246	1089.66667
1726.181	1062.33333
1729.113	1055
1732.044	1041.33333
1734.972	1038.33333
1737.899	1035.66667
1740.823	1037.33333
1743.745	1031.33333
1746.665	1002
1749.583	979.66667
1752.499	974.33333
1755.413	966.33333
1758.325	942.33333
1761.235	941.33333
1764.142	934.33333
1767.048	915.33333
1769.951	922
1772.852	908.33333
1775.752	921.33333
1778.649	911.66667
1781.544	915
1784.437	874.33333
1787.328	908.66667
1790.217	873.33333
1793.104	858.33333
1795.989	861.66667
1798.872	859
1801.753	867.33333
1804.631	862.33333
1807.508	867.33333
1810.383	861.66667
1813.255	845
1816.126	851
1818.994	850
1821.861	835.66667
1824.725	838.33333
1827.587	851
1830.448	829.66667
1833.306	805.66667
1836.162	828.66667
1839.017	813.66667
1841.869	806.33333
1844.719	810.33333
1847.567	794.66667
1850.414	799
1853.258	801.66667
1856.1	806
1858.94	816
1861.778	801.33333
1864.614	790.33333
1867.448	794.66667
1870.28	774
1873.111	808.66667
1875.939	794.33333
1878.765	803.66667
1881.589	789.33333
1884.411	797
1887.231	784.33333
1890.049	768.66667
1892.865	790
1895.68	766.66667
1898.492	773
1901.302	764
1904.11	775
1906.916	746.66667
1909.721	747
1912.523	754.33333
1915.323	742.66667
1918.122	753
1920.918	754.66667
1923.712	742.66667
1926.505	731.66667
1929.295	730.33333
1932.084	754.66667
1934.87	742.33333
1937.655	729.33333
1940.438	728.33333
1943.218	734
1945.997	738.33333
1948.774	755
1951.549	745.33333
1954.322	725
1957.093	733.33333
1959.862	717
1962.629	714.33333
1965.394	724.66667
1968.157	705.33333
1970.918	712.66667
1973.678	709.66667
1976.435	718.33333
1979.19	694.66667
1981.944	706
1984.696	693
1987.445	677.33333
1990.193	684.33333
1992.939	712.33333
1995.683	693.66667
1998.425	681.33333
2001.165	700.66667
2003.903	683.66667
2006.639	680.33333
2009.374	695.33333
2012.106	688.66667
2014.837	666.66667
2017.566	689.66667
2020.292	695
2023.017	681.66667
2025.74	666.33333
2028.461	674.66667
2031.18	675
2033.898	671.66667
2036.613	673.33333
2039.327	681
2042.038	662.66667
2044.748	672.33333
2047.456	665
2050.162	653
2052.866	652.33333
2055.568	669
2058.268	648
2060.967	654.66667
2063.663	641
2066.358	651
2069.051	640
2071.742	655
2074.431	651
2077.118	649.33333
2079.804	634
2082.487	644.33333
2085.169	657.66667
2087.849	680
2090.527	639
2093.203	635.66667
2095.877	654.33333
2098.55	657.66667
2101.22	647.66667
2103.889	667.66667
2106.556	657
2109.221	676
2111.884	674
2114.546	698.33333
2117.205	722.33333
2119.863	758.66667
2122.519	778.33333
2125.173	818.33333
2127.825	868
2130.475	876
2133.124	849.66667
2135.771	841.33333
2138.416	813.66667
2141.059	771.66667
2143.7	745.66667
2146.339	719
2148.977	677.66667
2151.613	695.33333
2154.247	675.33333
2156.879	658.66667
2159.51	645
2162.138	643
2164.765	646.66667
2167.39	628.66667
2170.013	637.33333
2172.634	643.33333
2175.254	633
2177.872	654.66667
2180.488	612.33333
2183.102	618.66667
2185.714	604.33333
2188.325	578.66667
2190.934	587.33333
2193.541	597.66667
2196.146	583
2198.75	576.33333
2201.351	576
2203.951	573
2206.549	587
2209.146	573.33333
2211.74	565
2214.333	578
2216.924	554.33333
2219.514	567
2222.101	555.33333
2224.687	578.66667
2227.271	573
2229.853	552.33333
2232.433	553.33333
2235.012	579.33333
2237.589	568
2240.164	579.33333
2242.738	563.66667
2245.309	547.66667
2247.879	561.33333
2250.448	559
2253.014	540.66667
2255.579	530.66667
2258.142	544
2260.703	535.33333
2263.262	537.33333
2265.82	534
2268.376	539.33333
2270.93	521
2273.483	521
2276.033	533.33333
2278.583	520.33333
2281.13	523.33333
2283.675	510.66667
2286.219	516.33333
2288.761	513
2291.302	529
2293.841	538.33333
2296.377	506.33333
2298.913	516.66667
2301.446	523
2303.978	524.66667
2306.508	510.66667
2309.037	503.66667
2311.563	510
2314.088	527.33333
2316.612	493
2319.133	507
2321.653	514
2324.171	499.33333
2326.688	521.33333
2329.202	502
2331.715	509.33333
2334.227	500
2336.736	502
2339.244	495.33333
2341.751	490
2344.255	510
2346.758	501.66667
2349.259	492.33333
2351.759	495.33333
2354.257	487.33333
2356.753	488
2359.247	497.66667
2361.74	506.66667
2364.231	493.66667
2366.721	497.33333
2369.209	489
2371.695	489.66667
2374.179	481.33333
2376.662	479
2379.143	499.33333
2381.622	486
2384.1	499
2386.576	506.33333
2389.051	498.66667
2391.524	505.33333
2393.995	498.66667
2396.464	491.33333
2398.932	486.33333
2401.398	486.33333
2403.863	489
2406.325	486.33333
2408.787	490
2411.246	483
2413.704	482.66667
2416.16	483
2418.615	480.66667
2421.068	492.33333
2423.519	494.33333
2425.969	483.33333
2428.417	489.33333
2430.863	509.66667
2433.308	499
2435.751	492
2438.193	480
2440.633	492.66667
2443.071	495.66667
2445.508	498
2447.943	484.66667
2450.376	477.66667
2452.808	483
2455.238	478.33333
2457.667	514.33333
2460.093	479.66667
2462.519	476.33333
2464.942	487.33333
2467.365	494
2469.785	494.66667
2472.204	494
2474.621	481.66667
2477.037	499.33333
2479.451	475
2481.863	466.33333
2484.274	480.33333
2486.683	487.33333
2489.091	491.33333
2491.497	481.66667
2493.901	487.66667
2496.304	485
2498.705	493
2501.105	481.66667
2503.503	504.66667
2505.899	476
2508.294	497.33333
2510.687	484.33333
2513.079	489
2515.469	470
2517.858	492.33333
2520.245	493.66667
2522.63	478.66667
2525.014	482.66667
2527.396	479.66667
2529.776	468
2532.156	484.66667
2534.533	471.66667
2536.909	479
2539.283	475.33333
2541.656	476.66667
2544.027	496.33333
2546.397	476
2548.765	476.66667
2551.131	488
2553.496	479.33333
2555.86	503.66667
2558.221	485.66667
2560.582	486
2562.94	475.66667
2565.298	492.33333
2567.653	498.66667
2570.007	469.33333
2572.36	495.33333
2574.711	473.66667
2577.06	501
2579.408	493.33333
2581.754	479.66667
2584.099	500
2586.442	488.66667
2588.784	497.33333
2591.124	494
2593.463	493
2595.8	496
2598.135	480.33333
2600.469	482.66667
2602.802	497.33333
2605.133	503.33333
2607.462	483
2609.79	482.33333
2612.116	502.66667
2614.441	496.33333
2616.764	498.33333
2619.086	487
2621.406	478.66667
2623.725	515.33333
2626.042	503.33333
2628.358	482.66667
2630.672	481.33333
2632.985	512.66667
2635.296	505.33333
2637.606	503.66667
2639.914	495.33333
2642.22	504.66667
2644.525	503.66667
2646.829	503.33333
2649.131	522.66667
2651.432	522.33333
2653.731	512.33333
2656.028	518
2658.324	523.66667
2660.619	511.66667
2662.912	531.33333
2665.204	503.33333
2667.494	530.66667
2669.782	508.33333
2672.07	527.33333
2674.355	528.33333
2676.639	519.33333
2678.922	517.66667
2681.203	523
2683.483	516.66667
2685.761	522
2688.038	523.33333
2690.313	548
2692.587	530
2694.859	522.66667
2697.13	533
2699.399	536.33333
2701.667	548.66667
2703.933	538
2706.198	541.66667
2708.461	558.66667
2710.723	551.33333
2712.984	544.66667
2715.243	548.33333
2717.5	549.66667
2719.757	559
2722.011	549.33333
2724.264	572.33333
2726.516	575.66667
2728.766	560
2731.015	564.33333
2733.262	577
2735.508	568
2737.753	575.33333
2739.996	566.66667
2742.237	561.66667
2744.477	571.66667
2746.716	567.66667
2748.953	568.33333
2751.189	559.66667
2753.423	569.33333
2755.656	549.66667
2757.887	550
2760.117	554.66667
2762.346	552.33333
2764.573	542
2766.798	540.33333
2769.022	548.33333
2771.245	559.33333
2773.467	551
2775.686	566
2777.905	556.66667
2780.122	568.66667
2782.337	579.33333
2784.552	566.33333
2786.764	565.66667
2788.976	572
2791.186	566
2793.394	577
2795.601	582.33333
2797.807	592.66667
2800.011	599.66667
2802.214	595
2804.415	595.66667
2806.615	604.66667
2808.814	599
2811.011	615.33333
2813.206	608.66667
2815.401	617.33333
2817.594	622
2819.785	632.33333
2821.975	617.66667
2824.164	623
2826.351	632.66667
2828.537	661
2830.722	651
2832.905	655.33333
2835.086	688
2837.267	723
2839.445	725.33333
2841.623	734.66667
2843.799	764.66667
2845.974	789.33333
2848.147	816.66667
2850.319	842.33333
2852.489	869.33333
2854.659	878
2856.826	884
2858.993	913
2861.158	904
2863.321	899
2865.483	920.33333
2867.644	914.66667
2869.804	906.66667
2871.962	903.66667
2874.118	905.66667
2876.274	908
2878.428	915
2880.58	910
2882.731	898.66667
2884.881	902.66667
2887.03	916.33333
2889.177	903
2891.322	937.33333
2893.467	921.66667
2895.61	902.33333
2897.751	942
2899.892	939
2902.03	933.66667
2904.168	941
2906.304	953.33333
2908.439	963.66667
2910.572	951.66667
2912.704	978
2914.835	965.66667
2916.965	958
2919.093	998.33333
2921.219	957.66667
2923.345	973.66667
2925.469	959.33333
2927.591	963
2929.712	917.33333
2931.832	931
2933.951	911
2936.068	905
2938.184	889
2940.299	864.66667
2942.412	854
2944.524	823.33333
2946.634	822
2948.744	783.66667
2950.851	820
2952.958	775
2955.063	779
2957.167	771
2959.269	753.66667
2961.371	765
2963.471	736.66667
2965.569	732
2967.666	710
2969.762	711.66667
2971.857	692
2973.95	685
2976.042	679.33333
2978.133	666.66667
2980.222	649
2982.31	642.66667
2984.396	618.33333
2986.482	632.66667
2988.566	620.66667
2990.648	627
2992.73	617
2994.81	614.33333
2996.889	624.66667
2998.966	611
3001.042	620.33333
3003.117	613
3005.191	617
3007.263	617
3009.334	603.66667
3011.403	619.66667
3013.472	590
3015.539	589.66667
3017.604	598.66667
3019.669	548.33333
3021.732	558.33333
3023.794	574.33333
3025.854	555
3027.914	551
3029.971	560.33333
3032.028	554.33333
3034.083	559.66667
3036.137	553.66667
3038.19	531
3040.242	523.66667
3042.292	514.33333
3044.341	512.33333
3046.388	533.33333
3048.435	508.33333
3050.48	517.66667
3052.524	505
3054.566	502.33333
3056.607	503.33333
3058.647	484.33333
3060.686	470.33333
3062.723	451.66667
3064.759	440.66667
3066.794	-1
3068.828	2.33333
3070.86	2.33333
