-0.839	666.91667
3.438	777.25
7.711	222.58333
11.981	68.25
16.247	46.58333
20.509	49.25
24.768	44.91667
29.024	52.25
33.276	44.58333
37.524	49.91667
41.769	44.58333
46.01	30.58333
50.247	46.25
54.481	56.91667
58.712	58.91667
62.939	47.58333
67.162	60.91667
71.382	55.58333
75.599	45.25
79.812	56.91667
84.021	79.58333
88.227	58.91667
92.429	53.58333
96.628	53.91667
100.823	67.58333
105.015	73.58333
109.204	64.25
113.388	71.91667
117.57	75.25
121.748	86.25
125.922	71.58333
130.093	93.58333
134.261	92.25
138.425	93.25
142.585	135.91667
146.742	119.25
150.896	155.58333
155.046	187.25
159.193	302.58333
163.336	507.25
167.476	924.58333
171.613	1692.58333
175.746	2788.25
179.875	4086.91667
184.002	5350.91667
188.124	6219.91667
192.244	6522.58333
196.36	6496.58333
200.472	6308.58333
204.581	6178.58333
208.687	6039.91667
212.79	5942.25
216.889	5951.91667
220.984	5923.91667
225.077	5910.25
229.165	5944.58333
233.251	5945.58333
237.333	5942.25
241.412	5900.58333
245.487	5821.91667
249.559	5766.91667
253.628	5732.58333
257.694	5686.91667
261.756	5577.91667
265.814	5502.25
269.87	5351.91667
273.922	5160.58333
277.97	5051.58333
282.016	4908.58333
286.058	4875.25
290.097	4912.58333
294.132	4895.25
298.164	4803.25
302.193	4679.58333
306.219	4404.91667
310.241	4118.91667
314.26	3859.91667
318.276	3669.91667
322.288	3522.58333
326.297	3386.25
330.303	3284.25
334.305	3230.91667
338.305	3185.91667
342.301	3157.25
346.294	3129.91667
350.283	3130.58333
354.269	3119.58333
358.252	3086.91667
362.232	3067.25
366.209	3080.58333
370.182	3029.25
374.152	3029.91667
378.119	3043.25
382.083	3007.91667
386.043	3000.91667
390	2976.91667
393.954	3016.58333
397.905	2992.91667
401.852	3005.91667
405.797	3000.91667
409.738	2966.58333
413.676	3007.25
417.61	3012.91667
421.542	2990.58333
425.47	2963.91667
429.396	2973.25
433.318	2931.91667
437.236	2919.58333
441.152	2971.58333
445.065	2897.58333
448.974	2907.91667
452.88	2881.91667
456.783	2879.91667
460.683	2859.58333
464.58	2868.58333
468.473	2873.25
472.364	2887.58333
476.251	2902.91667
480.135	2927.58333
484.016	2952.58333
487.894	2957.58333
491.769	2998.58333
495.641	2961.91667
499.509	2976.58333
503.375	2975.91667
507.237	2954.25
511.096	2937.58333
514.952	2964.91667
518.805	2967.25
522.655	2941.58333
526.502	2904.58333
530.346	2910.58333
534.187	2930.91667
538.024	2933.25
541.859	2913.91667
545.69	2957.25
549.519	2947.91667
553.344	2926.58333
557.166	2883.58333
560.985	2852.25
564.802	2837.58333
568.615	2765.58333
572.425	2741.25
576.232	2734.25
580.036	2716.58333
583.836	2711.58333
587.634	2737.25
591.429	2721.58333
595.221	2808.25
599.01	2813.91667
602.796	2846.58333
606.578	2855.58333
610.358	2885.25
614.135	2847.58333
617.909	2854.91667
621.679	2817.91667
625.447	2808.25
629.212	2807.91667
632.973	2780.25
636.732	2775.25
640.488	2797.91667
644.241	2762.58333
647.991	2743.58333
651.737	2775.91667
655.481	2762.58333
659.222	2746.25
662.96	2744.25
666.695	2760.91667
670.427	2757.91667
674.156	2767.58333
677.882	2780.58333
681.605	2764.25
685.325	2750.25
689.043	2761.91667
692.757	2719.25
696.468	2747.58333
700.177	2765.25
703.882	2703.91667
707.585	2709.91667
711.284	2707.58333
714.981	2698.25
718.675	2700.91667
722.366	2685.91667
726.054	2672.91667
729.739	2674.25
733.421	2680.91667
737.1	2678.91667
740.777	2686.58333
744.45	2681.91667
748.121	2716.58333
751.789	2747.91667
755.453	2726.58333
759.115	2741.25
762.774	2744.91667
766.431	2764.91667
770.084	2793.25
773.734	2795.25
777.382	2849.91667
781.027	2870.91667
784.669	2862.58333
788.308	2874.25
791.944	2903.91667
795.577	2895.91667
799.208	2879.58333
802.835	2908.91667
806.46	2922.25
810.082	2921.25
813.701	2960.25
817.317	2959.58333
820.931	2954.91667
824.542	2961.25
828.149	2937.91667
831.754	2881.91667
835.357	2879.25
838.956	2896.58333
842.553	2870.91667
846.146	2843.25
849.737	2818.25
853.326	2841.91667
856.911	2817.58333
860.493	2850.91667
864.073	2875.58333
867.65	2892.25
871.225	2907.91667
874.796	2907.91667
878.365	2880.91667
881.931	2905.58333
885.494	2924.58333
889.054	2923.58333
892.612	2913.58333
896.166	2890.25
899.719	2845.91667
903.268	2837.91667
906.814	2811.25
910.358	2799.25
913.899	2772.25
917.438	2774.91667
920.973	2765.25
924.506	2777.25
928.036	2827.25
931.564	2861.25
935.088	2892.58333
938.61	2875.58333
942.129	2916.91667
945.646	2961.91667
949.16	2998.25
952.671	3038.25
956.179	3042.25
959.685	3046.91667
963.188	3010.91667
966.688	2979.91667
970.185	2899.58333
973.68	2847.91667
977.173	2812.58333
980.662	2764.91667
984.149	2780.25
987.633	2735.58333
991.114	2766.58333
994.593	2818.91667
998.069	2887.25
1001.542	2946.91667
1005.013	2933.58333
1008.481	2799.58333
1011.947	2759.91667
1015.409	2731.25
1018.869	2748.58333
1022.327	2748.25
1025.782	2716.25
1029.234	2716.25
1032.683	2679.91667
1036.13	2615.91667
1039.574	2513.91667
1043.016	2458.58333
1046.455	2426.58333
1049.891	2408.58333
1053.325	2427.25
1056.756	2420.58333
1060.184	2434.91667
1063.61	2428.58333
1067.033	2454.25
1070.454	2445.25
1073.872	2488.58333
1077.287	2460.91667
1080.7	2459.91667
1084.11	2450.25
1087.517	2459.91667
1090.922	2425.25
1094.325	2391.25
1097.724	2395.58333
1101.122	2367.25
1104.516	2371.25
1107.908	2373.91667
1111.298	2407.58333
1114.684	2439.25
1118.069	2441.91667
1121.45	2470.58333
1124.83	2482.58333
1128.206	2483.25
1131.58	2502.91667
1134.951	2574.25
1138.32	2655.58333
1141.687	2687.25
1145.05	2768.58333
1148.412	2761.58333
1151.77	2768.91667
1155.126	2740.25
1158.48	2740.25
1161.831	2735.58333
1165.18	2736.91667
1168.525	2801.25
1171.869	2813.91667
1175.21	2821.25
1178.548	2872.58333
1181.884	2892.91667
1185.217	2905.58333
1188.548	2959.58333
1191.877	2990.91667
1195.202	3069.91667
1198.526	3088.91667
1201.846	3138.25
1205.165	3125.58333
1208.48	3121.91667
1211.794	3100.58333
1215.104	3088.25
1218.413	3082.58333
1221.719	3072.58333
1225.022	3025.91667
1228.323	2979.91667
1231.621	2949.25
1234.917	2927.91667
1238.21	2953.58333
1241.501	2969.91667
1244.79	2956.91667
1248.076	2929.91667
1251.359	2967.25
1254.64	3024.25
1257.919	3043.25
1261.195	3069.58333
1264.468	3136.58333
1267.74	3163.91667
1271.008	3166.25
1274.275	3183.58333
1277.538	3134.25
1280.8	3142.91667
1284.059	3115.91667
1287.315	3132.58333
1290.569	3146.58333
1293.821	3143.58333
1297.07	3188.58333
1300.317	3153.25
1303.562	3164.25
1306.803	3146.25
1310.043	3136.91667
1313.28	3101.25
1316.515	3075.25
1319.747	3061.58333
1322.977	3026.25
1326.204	3003.58333
1329.429	3003.58333
1332.652	3001.25
1335.872	2992.25
1339.09	2960.58333
1342.306	2941.58333
1345.519	2919.25
1348.729	2851.25
1351.938	2836.25
1355.144	2760.91667
1358.347	2722.25
1361.548	2748.91667
1364.747	2718.91667
1367.944	2686.25
1371.138	2676.58333
1374.329	2665.58333
1377.518	2697.25
1380.705	2681.91667
1383.89	2685.91667
1387.072	2618.58333
1390.252	2533.91667
1393.429	2478.91667
1396.605	2422.25
1399.777	2352.25
1402.948	2338.25
1406.116	2353.25
1409.282	2322.58333
1412.445	2330.25
1415.606	2361.25
1418.765	2375.58333
1421.921	2397.58333
1425.075	2425.91667
1428.227	2516.25
1431.376	2593.58333
1434.524	2681.58333
1437.668	2756.25
1440.811	2816.25
1443.951	2831.25
1447.089	2816.25
1450.224	2806.25
1453.357	2805.91667
1456.488	2794.91667
1459.617	2755.91667
1462.743	2727.25
1465.867	2667.91667
1468.989	2675.58333
1472.108	2613.91667
1475.225	2574.25
1478.34	2554.25
1481.453	2543.91667
1484.563	2543.91667
1487.671	2549.58333
1490.776	2581.25
1493.88	2615.91667
1496.981	2636.58333
1500.08	2693.91667
1503.176	2723.25
1506.271	2723.25
1509.363	2774.58333
1512.452	2765.25
1515.54	2825.91667
1518.625	2859.58333
1521.708	2922.25
1524.789	3019.91667
1527.867	3138.91667
1530.944	3285.91667
1534.018	3363.25
1537.089	3523.58333
1540.159	3538.25
1543.226	3507.91667
1546.291	3414.25
1549.354	3342.91667
1552.415	3284.58333
1555.473	3182.58333
1558.529	3114.25
1561.583	3067.91667
1564.634	3039.58333
1567.684	3024.58333
1570.731	3039.25
1573.776	3070.58333
1576.819	3111.58333
1579.859	3135.58333
1582.898	3178.58333
1585.934	3229.58333
1588.968	3219.58333
1591.999	3203.91667
1595.029	3227.91667
1598.056	3237.91667
1601.081	3236.25
1604.104	3225.91667
1607.125	3158.91667
1610.144	3124.91667
1613.16	3054.91667
1616.174	3039.91667
1619.186	2983.58333
1622.196	2923.25
1625.203	2886.25
1628.209	2861.25
1631.212	2860.58333
1634.213	2850.58333
1637.212	2838.91667
1640.209	2792.58333
1643.203	2682.58333
1646.196	2577.91667
1649.186	2466.58333
1652.174	2412.58333
1655.16	2302.58333
1658.144	2239.91667
1661.125	2156.58333
1664.105	2055.25
1667.082	1999.25
1670.057	1899.25
1673.03	1810.25
1676.001	1719.58333
1678.97	1612.58333
1681.937	1560.91667
1684.901	1484.91667
1687.863	1449.91667
1690.824	1370.25
1693.782	1351.91667
1696.738	1306.91667
1699.692	1269.25
1702.643	1242.91667
1705.593	1238.25
1708.54	1224.25
1711.486	1227.25
1714.429	1181.91667
1717.37	1202.25
1720.309	1183.25
1723.246	1177.91667
1726.181	1159.91667
1729.113	1154.91667
1732.044	1147.91667
1734.972	1126.91667
1737.899	1115.91667
1740.823	1121.25
1743.745	1144.58333
1746.665	1078.91667
1749.583	1073.58333
1752.499	1055.91667
1755.413	1063.58333
1758.325	1030.58333
1761.235	1023.25
1764.142	1013.91667
1767.048	996.25
1769.951	996.91667
1772.852	1004.25
1775.752	992.58333
1778.649	979.91667
1781.544	981.25
1784.437	961.25
1787.328	983.25
1790.217	960.91667
1793.104	942.91667
1795.989	949.91667
1798.872	927.58333
1801.753	946.25
1804.631	944.58333
1807.508	950.58333
1810.383	946.91667
1813.255	931.25
1816.126	933.91667
1818.994	940.91667
1821.861	925.91667
1824.725	913.91667
1827.587	918.91667
1830.448	898.25
1833.306	884.58333
1836.162	901.58333
1839.017	888.25
1841.869	881.25
1844.719	872.91667
1847.567	873.58333
1850.414	864.58333
1853.258	862.25
1856.1	885.91667
1858.94	888.58333
1861.778	870.25
1864.614	857.25
1867.448	866.58333
1870.28	837.91667
1873.111	865.91667
1875.939	860.58333
1878.765	860.58333
1881.589	858.25
1884.411	853.25
1887.231	847.58333
1890.049	840.91667
1892.865	851.58333
1895.68	826.58333
1898.492	846.25
1901.302	832.25
1904.11	821.25
1906.916	816.58333
1909.721	808.25
1912.523	813.91667
1915.323	805.58333
1918.122	796.58333
1920.918	811.91667
1923.712	794.91667
1926.505	798.91667
1929.295	786.91667
1932.084	807.58333
1934.87	796.25
1937.655	799.91667
1940.438	782.58333
1943.218	775.25
1945.997	804.58333
1948.774	791.25
1951.549	800.58333
1954.322	784.91667
1957.093	775.91667
1959.862	766.58333
1962.629	777.25
1965.394	760.91667
1968.157	764.58333
1970.918	749.25
1973.678	754.58333
1976.435	759.91667
1979.19	744.25
1981.944	734.91667
1984.696	751.25
1987.445	732.25
1990.193	742.91667
1992.939	746.25
1995.683	731.91667
1998.425	719.58333
2001.165	752.58333
2003.903	730.91667
2006.639	726.25
2009.374	733.25
2012.106	728.25
2014.837	714.91667
2017.566	726.91667
2020.292	724.91667
2023.017	708.91667
2025.74	720.58333
2028.461	707.91667
2031.18	716.58333
2033.898	713.58333
2036.613	711.91667
2039.327	712.25
2042.038	698.91667
2044.748	695.58333
2047.456	707.25
2050.162	687.91667
2052.866	691.25
2055.568	700.58333
2058.268	677.91667
2060.967	684.25
2063.663	668.91667
2066.358	675.58333
2069.051	680.58333
2071.742	674.58333
2074.431	676.91667
2077.118	667.91667
2079.804	670.25
2082.487	663.25
2085.169	684.91667
2087.849	697.58333
2090.527	674.58333
2093.203	667.91667
2095.877	691.91667
2098.55	683.91667
2101.22	690.91667
2103.889	690.91667
2106.556	687.58333
2109.221	704.58333
2111.884	693.58333
2114.546	732.58333
2117.205	761.58333
2119.863	787.91667
2122.519	810.91667
2125.173	834.91667
2127.825	883.91667
2130.475	891.25
2133.124	879.91667
2135.771	865.25
2138.416	832.58333
2141.059	800.25
2143.7	783.91667
2146.339	745.91667
2148.977	709.58333
2151.613	710.91667
2154.247	693.58333
2156.879	678.58333
2159.51	658.58333
2162.138	638.58333
2164.765	632.58333
2167.39	634.91667
2170.013	652.25
2172.634	641.25
2175.254	626.58333
2177.872	654.91667
2180.488	607.91667
2183.102	615.58333
2185.714	604.91667
2188.325	579.91667
2190.934	599.91667
2193.541	608.91667
2196.146	601.91667
2198.75	577.58333
2201.351	575.58333
2203.951	568.91667
2206.549	584.25
2209.146	571.91667
2211.74	577.58333
2214.333	580.91667
2216.924	555.91667
2219.514	562.91667
2222.101	549.58333
2224.687	570.91667
2227.271	560.91667
2229.853	544.58333
2232.433	535.58333
2235.012	557.58333
2237.589	550.91667
2240.164	560.91667
2242.738	545.58333
2245.309	535.25
2247.879	543.25
2250.448	538.58333
2253.014	527.91667
2255.579	510.58333
2258.142	518.25
2260.703	504.25
2263.262	516.58333
2265.82	510.58333
2268.376	515.91667
2270.93	505.25
2273.483	496.91667
2276.033	503.25
2278.583	493.58333
2281.13	488.91667
2283.675	496.25
2286.219	483.91667
2288.761	488.58333
2291.302	490.91667
2293.841	496.91667
2296.377	469.25
2298.913	479.25
2301.446	490.91667
2303.978	493.25
2306.508	478.58333
2309.037	484.91667
2311.563	480.25
2314.088	476.58333
2316.612	461.91667
2319.133	474.25
2321.653	472.58333
2324.171	456.58333
2326.688	476.58333
2329.202	459.25
2331.715	452.58333
2334.227	458.58333
2336.736	450.58333
2339.244	452.91667
2341.751	435.91667
2344.255	460.91667
2346.758	451.58333
2349.259	440.91667
2351.759	448.25
2354.257	444.91667
2356.753	442.91667
2359.247	441.58333
2361.74	446.58333
2364.231	439.91667
2366.721	448.25
2369.209	437.91667
2371.695	435.91667
2374.179	435.91667
2376.662	429.25
2379.143	445.58333
2381.622	423.91667
2384.1	431.58333
2386.576	426.58333
2389.051	433.25
2391.524	445.91667
2393.995	441.25
2396.464	424.58333
2398.932	432.58333
2401.398	423.91667
2403.863	423.58333
2406.325	417.91667
2408.787	419.91667
2411.246	412.58333
2413.704	414.25
2416.16	412.91667
2418.615	413.91667
2421.068	419.25
2423.519	428.58333
2425.969	406.58333
2428.417	414.25
2430.863	429.58333
2433.308	421.58333
2435.751	413.91667
2438.193	407.25
2440.633	407.58333
2443.071	412.25
2445.508	410.25
2447.943	400.58333
2450.376	401.58333
2452.808	406.25
2455.238	394.25
2457.667	428.58333
2460.093	407.58333
2462.519	387.91667
2464.942	392.58333
2467.365	403.58333
2469.785	394.58333
2472.204	396.91667
2474.621	391.91667
2477.037	404.58333
2479.451	379.91667
2481.863	383.25
2484.274	381.91667
2486.683	387.91667
2489.091	389.25
2491.497	381.58333
2493.901	388.91667
2496.304	387.91667
2498.705	393.91667
2501.105	377.91667
2503.503	408.25
2505.899	361.91667
2508.294	400.91667
2510.687	382.25
2513.079	382.91667
2515.469	366.25
2517.858	378.25
2520.245	387.25
2522.63	371.25
2525.014	369.58333
2527.396	366.58333
2529.776	364.25
2532.156	371.58333
2534.533	366.25
2536.909	355.91667
2539.283	347.91667
2541.656	359.25
2544.027	381.25
2546.397	362.91667
2548.765	363.25
2551.131	367.91667
2553.496	358.91667
2555.86	367.58333
2558.221	357.58333
2560.582	365.58333
2562.94	343.91667
2565.298	354.91667
2567.653	376.25
2570.007	343.58333
2572.36	361.58333
2574.711	344.25
2577.06	360.25
2579.408	361.91667
2581.754	354.58333
2584.099	356.91667
2586.442	343.91667
2588.784	344.91667
2591.124	341.25
2593.463	350.91667
2595.8	352.58333
2598.135	336.91667
2600.469	342.25
2602.802	362.58333
2605.133	354.58333
2607.462	343.91667
2609.79	331.91667
2612.116	348.91667
2614.441	348.91667
2616.764	345.91667
2619.086	339.58333
2621.406	334.58333
2623.725	350.91667
2626.042	345.58333
2628.358	334.25
2630.672	341.25
2632.985	354.25
2635.296	350.25
2637.606	343.25
2639.914	329.25
2642.22	343.25
2644.525	340.25
2646.829	348.58333
2649.131	359.91667
2651.432	349.58333
2653.731	340.58333
2656.028	356.25
2658.324	357.58333
2660.619	343.58333
2662.912	353.58333
2665.204	337.25
2667.494	352.25
2669.782	328.58333
2672.07	349.91667
2674.355	351.58333
2676.639	346.25
2678.922	333.91667
2681.203	339.91667
2683.483	333.91667
2685.761	331.58333
2688.038	351.25
2690.313	356.91667
2692.587	342.25
2694.859	336.58333
2697.13	343.91667
2699.399	351.25
2701.667	357.25
2703.933	347.58333
2706.198	358.25
2708.461	356.25
2710.723	360.91667
2712.984	356.91667
2715.243	358.58333
2717.5	346.91667
2719.757	362.58333
2722.011	351.58333
2724.264	361.25
2726.516	368.58333
2728.766	353.25
2731.015	360.58333
2733.262	363.58333
2735.508	363.25
2737.753	361.91667
2739.996	348.58333
2742.237	344.58333
2744.477	355.25
2746.716	354.58333
2748.953	347.91667
2751.189	350.91667
2753.423	341.91667
2755.656	337.58333
2757.887	329.58333
2760.117	333.91667
2762.346	330.58333
2764.573	324.58333
2766.798	335.58333
2769.022	329.25
2771.245	342.25
2773.467	339.25
2775.686	339.58333
2777.905	337.25
2780.122	349.25
2782.337	345.58333
2784.552	351.91667
2786.764	337.91667
2788.976	343.58333
2791.186	347.58333
2793.394	347.25
2795.601	352.25
2797.807	362.25
2800.011	355.25
2802.214	362.58333
2804.415	355.91667
2806.615	355.91667
2808.814	364.25
2811.011	371.25
2813.206	366.25
2815.401	375.58333
2817.594	378.25
2819.785	383.25
2821.975	379.25
2824.164	380.58333
2826.351	388.25
2828.537	399.91667
2830.722	410.91667
2832.905	409.58333
2835.086	429.25
2837.267	449.91667
2839.445	454.25
2841.623	461.58333
2843.799	482.58333
2845.974	503.91667
2848.147	533.91667
2850.319	542.91667
2852.489	575.58333
2854.659	581.25
2856.826	578.91667
2858.993	616.58333
2861.158	594.58333
2863.321	587.91667
2865.483	609.25
2867.644	610.58333
2869.804	593.91667
2871.962	599.58333
2874.118	590.25
2876.274	604.58333
2878.428	599.25
2880.58	595.91667
2882.731	586.91667
2884.881	588.25
2887.03	607.58333
2889.177	592.58333
2891.322	615.58333
2893.467	602.91667
2895.61	593.58333
2897.751	618.58333
2899.892	609.91667
2902.03	616.91667
2904.168	614.58333
2906.304	613.91667
2908.439	638.58333
2910.572	614.58333
2912.704	635.91667
2914.835	630.91667
2916.965	618.25
2919.093	632.58333
2921.219	620.58333
2923.345	638.91667
2925.469	620.25
2927.591	617.91667
2929.712	601.58333
2931.832	595.58333
2933.951	587.25
2936.068	585.58333
2938.184	570.25
2940.299	543.25
2942.412	546.25
2944.524	511.91667
2946.634	512.58333
2948.744	468.25
2950.851	500.58333
2952.958	459.58333
2955.063	466.25
2957.167	461.91667
2959.269	435.58333
2961.371	464.58333
2963.471	420.25
2965.569	437.58333
2967.666	402.25
2969.762	405.91667
2971.857	391.58333
2973.95	379.91667
2976.042	376.91667
2978.133	370.58333
2980.222	361.58333
2982.31	352.58333
2984.396	335.91667
2986.482	348.58333
2988.566	341.91667
2990.648	331.58333
2992.73	340.58333
2994.81	324.58333
2996.889	331.58333
2998.966	329.91667
3001.042	329.91667
3003.117	328.25
3005.191	325.58333
3007.263	328.25
3009.334	310.91667
3011.403	325.25
3013.472	298.25
3015.539	311.58333
3017.604	320.91667
3019.669	284.58333
3021.732	290.58333
3023.794	298.58333
3025.854	286.25
3027.914	290.25
3029.971	305.58333
3032.028	287.58333
3034.083	288.58333
3036.137	292.91667
3038.19	277.25
3040.242	275.25
3042.292	266.91667
3044.341	267.25
3046.388	282.91667
3048.435	259.91667
3050.48	274.91667
3052.524	266.25
3054.566	252.58333
3056.607	265.91667
3058.647	254.25
3060.686	246.91667
3062.723	238.58333
3064.759	221.58333
3066.794	1.25
3068.828	4.25
3070.86	3.25
