-0.839	124.41667
3.438	136.75
7.711	59.75
11.981	42.75
16.247	32.41667
20.509	38.75
24.768	35.41667
29.024	41.75
33.276	30.08333
37.524	41.41667
41.769	31.08333
46.01	25.75
50.247	43.75
54.481	49.08333
58.712	51.75
62.939	35.41667
67.162	53.41667
71.382	45.41667
75.599	37.41667
79.812	43.75
84.021	63.08333
88.227	43.41667
92.429	50.75
96.628	35.41667
100.823	49.08333
105.015	48.75
109.204	45.41667
113.388	54.41667
117.57	43.41667
121.748	58.75
125.922	44.75
130.093	57.75
134.261	61.08333
138.425	48.75
142.585	77.08333
146.742	59.75
150.896	72.08333
155.046	61.75
159.193	92.41667
163.336	121.08333
167.476	208.41667
171.613	377.41667
175.746	587.08333
179.875	835.41667
184.002	1080.75
188.124	1295.08333
192.244	1343.75
196.36	1353.08333
200.472	1347.41667
204.581	1323.41667
208.687	1264.41667
212.79	1264.41667
216.889	1265.41667
220.984	1281.41667
225.077	1277.41667
229.165	1294.75
233.251	1284.75
237.333	1294.08333
241.412	1274.75
245.487	1281.08333
249.559	1260.41667
253.628	1254.75
257.694	1240.75
261.756	1246.08333
265.814	1224.41667
269.87	1192.75
273.922	1160.41667
277.97	1140.41667
282.016	1139.41667
286.058	1113.75
290.097	1138.08333
294.132	1152.41667
298.164	1156.08333
302.193	1119.41667
306.219	1054.41667
310.241	998.08333
314.26	925.08333
318.276	872.41667
322.288	854.75
326.297	827.08333
330.303	809.75
334.305	803.08333
338.305	789.41667
342.301	782.41667
346.294	790.41667
350.283	776.75
354.269	768.41667
358.252	763.41667
362.232	764.41667
366.209	769.08333
370.182	763.08333
374.152	747.41667
378.119	756.75
382.083	744.75
386.043	757.75
390	749.41667
393.954	759.41667
397.905	760.41667
401.852	777.41667
405.797	755.75
409.738	761.41667
413.676	790.08333
417.61	805.41667
421.542	775.41667
425.47	746.08333
429.396	736.08333
433.318	732.41667
437.236	738.08333
441.152	778.75
445.065	726.75
448.974	725.41667
452.88	723.75
456.783	738.41667
460.683	711.41667
464.58	733.08333
468.473	726.75
472.364	729.41667
476.251	712.75
480.135	726.41667
484.016	747.08333
487.894	740.41667
491.769	746.41667
495.641	737.41667
499.509	745.41667
503.375	746.08333
507.237	739.08333
511.096	763.41667
514.952	797.75
518.805	811.08333
522.655	834.41667
526.502	783.41667
530.346	740.08333
534.187	753.08333
538.024	740.41667
541.859	727.75
545.69	743.08333
549.519	734.08333
553.344	737.41667
557.166	707.41667
560.985	714.08333
564.802	723.08333
568.615	707.08333
572.425	716.41667
576.232	703.75
580.036	707.08333
583.836	712.08333
587.634	706.41667
591.429	695.75
595.221	735.08333
599.01	718.41667
602.796	717.08333
606.578	719.75
610.358	725.41667
614.135	717.08333
617.909	720.41667
621.679	702.41667
625.447	705.08333
629.212	698.75
632.973	721.75
636.732	706.41667
640.488	706.75
644.241	700.41667
647.991	690.75
651.737	730.08333
655.481	688.75
659.222	699.08333
662.96	693.08333
666.695	710.08333
670.427	704.41667
674.156	717.75
677.882	708.41667
681.605	696.41667
685.325	686.41667
689.043	711.41667
692.757	699.75
696.468	703.41667
700.177	692.08333
703.882	681.41667
707.585	680.41667
711.284	683.75
714.981	673.75
718.675	672.41667
722.366	693.08333
726.054	670.41667
729.739	684.75
733.421	682.41667
737.1	671.41667
740.777	683.75
744.45	676.75
748.121	682.75
751.789	706.75
755.453	682.08333
759.115	694.41667
762.774	695.08333
766.431	681.08333
770.084	704.41667
773.734	706.08333
777.382	712.41667
781.027	715.41667
784.669	705.08333
788.308	699.75
791.944	719.08333
795.577	723.75
799.208	730.08333
802.835	724.75
806.46	727.08333
810.082	729.08333
813.701	709.75
817.317	737.75
820.931	750.75
824.542	740.75
828.149	719.08333
831.754	702.41667
835.357	714.08333
838.956	722.41667
842.553	717.08333
846.146	713.75
849.737	690.75
853.326	697.75
856.911	688.75
860.493	717.08333
864.073	715.08333
867.65	731.75
871.225	733.08333
874.796	716.41667
878.365	697.75
881.931	710.41667
885.494	722.41667
889.054	717.75
892.612	731.75
896.166	713.08333
899.719	710.08333
903.268	695.41667
906.814	698.08333
910.358	693.08333
913.899	674.75
917.438	666.41667
920.973	652.08333
924.506	664.75
928.036	677.75
931.564	687.08333
935.088	711.41667
938.61	694.41667
942.129	690.08333
945.646	698.08333
949.16	697.08333
952.671	701.75
956.179	724.08333
959.685	713.08333
963.188	731.08333
966.688	712.41667
970.185	687.41667
973.68	667.75
977.173	673.08333
980.662	660.41667
984.149	669.75
987.633	644.08333
991.114	657.75
994.593	673.41667
998.069	670.75
1001.542	708.41667
1005.013	694.08333
1008.481	653.75
1011.947	643.08333
1015.409	636.08333
1018.869	646.08333
1022.327	637.08333
1025.782	625.75
1029.234	624.41667
1032.683	625.75
1036.13	618.41667
1039.574	592.41667
1043.016	588.75
1046.455	584.08333
1049.891	566.75
1053.325	572.75
1056.756	567.41667
1060.184	572.08333
1063.61	567.08333
1067.033	577.08333
1070.454	558.75
1073.872	583.75
1077.287	565.08333
1080.7	567.08333
1084.11	562.75
1087.517	563.41667
1090.922	570.75
1094.325	543.41667
1097.724	546.41667
1101.122	562.41667
1104.516	551.08333
1107.908	542.41667
1111.298	554.41667
1114.684	553.08333
1118.069	557.75
1121.45	575.41667
1124.83	547.08333
1128.206	551.41667
1131.58	562.08333
1134.951	584.41667
1138.32	584.75
1141.687	608.08333
1145.05	613.75
1148.412	608.41667
1151.77	601.41667
1155.126	599.08333
1158.48	605.08333
1161.831	598.75
1165.18	592.41667
1168.525	612.41667
1171.869	618.41667
1175.21	601.08333
1178.548	622.75
1181.884	624.41667
1185.217	632.41667
1188.548	634.41667
1191.877	643.41667
1195.202	682.41667
1198.526	701.75
1201.846	672.75
1205.165	689.08333
1208.48	699.75
1211.794	697.41667
1215.104	689.75
1218.413	691.08333
1221.719	683.08333
1225.022	665.41667
1228.323	671.08333
1231.621	672.41667
1234.917	665.41667
1238.21	680.41667
1241.501	663.75
1244.79	647.41667
1248.076	647.41667
1251.359	658.75
1254.64	700.75
1257.919	664.75
1261.195	682.08333
1264.468	693.75
1267.74	696.75
1271.008	686.41667
1274.275	700.08333
1277.538	680.08333
1280.8	684.08333
1284.059	675.08333
1287.315	698.41667
1290.569	688.75
1293.821	692.41667
1297.07	698.41667
1300.317	689.08333
1303.562	702.41667
1306.803	711.08333
1310.043	699.41667
1313.28	688.75
1316.515	693.75
1319.747	701.41667
1322.977	688.41667
1326.204	689.75
1329.429	687.41667
1332.652	698.08333
1335.872	681.08333
1339.09	675.75
1342.306	670.08333
1345.519	663.41667
1348.729	661.08333
1351.938	675.08333
1355.144	654.75
1358.347	642.08333
1361.548	653.08333
1364.747	659.41667
1367.944	638.08333
1371.138	630.08333
1374.329	636.75
1377.518	635.08333
1380.705	645.75
1383.89	638.41667
1387.072	622.08333
1390.252	619.75
1393.429	597.08333
1396.605	583.08333
1399.777	563.41667
1402.948	568.41667
1406.116	556.08333
1409.282	579.08333
1412.445	561.41667
1415.606	568.75
1418.765	554.41667
1421.921	575.75
1425.075	568.08333
1428.227	586.75
1431.376	603.75
1434.524	622.41667
1437.668	640.75
1440.811	626.08333
1443.951	630.75
1447.089	647.08333
1450.224	653.08333
1453.357	632.41667
1456.488	618.41667
1459.617	629.75
1462.743	617.08333
1465.867	596.75
1468.989	603.08333
1472.108	594.41667
1475.225	584.41667
1478.34	568.41667
1481.453	567.08333
1484.563	566.41667
1487.671	575.41667
1490.776	589.75
1493.88	580.08333
1496.981	596.08333
1500.08	602.08333
1503.176	599.08333
1506.271	604.41667
1509.363	617.41667
1512.452	612.08333
1515.54	625.08333
1518.625	618.08333
1521.708	650.41667
1524.789	662.75
1527.867	666.41667
1530.944	698.41667
1534.018	713.08333
1537.089	744.08333
1540.159	749.41667
1543.226	749.41667
1546.291	744.75
1549.354	736.41667
1552.415	725.41667
1555.473	705.08333
1558.529	700.08333
1561.583	690.41667
1564.634	674.41667
1567.684	683.08333
1570.731	681.08333
1573.776	696.75
1576.819	691.75
1579.859	686.08333
1582.898	702.75
1585.934	721.75
1588.968	715.41667
1591.999	698.41667
1595.029	695.41667
1598.056	720.08333
1601.081	720.41667
1604.104	725.08333
1607.125	709.75
1610.144	686.75
1613.16	674.75
1616.174	658.08333
1619.186	655.41667
1622.196	647.75
1625.203	626.41667
1628.209	632.75
1631.212	618.41667
1634.213	641.41667
1637.212	644.08333
1640.209	637.41667
1643.203	614.41667
1646.196	591.08333
1649.186	571.41667
1652.174	569.08333
1655.16	548.41667
1658.144	543.08333
1661.125	516.75
1664.105	500.75
1667.082	484.08333
1670.057	455.08333
1673.03	433.75
1676.001	421.41667
1678.97	392.41667
1681.937	381.41667
1684.901	359.75
1687.863	373.75
1690.824	346.75
1693.782	358.41667
1696.738	316.41667
1699.692	330.08333
1702.643	311.08333
1705.593	312.08333
1708.54	315.75
1711.486	325.75
1714.429	306.41667
1717.37	318.75
1720.309	290.75
1723.246	310.41667
1726.181	287.41667
1729.113	299.41667
1732.044	299.41667
1734.972	288.41667
1737.899	306.41667
1740.823	314.75
1743.745	324.08333
1746.665	285.08333
1749.583	283.75
1752.499	281.41667
1755.413	284.75
1758.325	264.75
1761.235	275.75
1764.142	262.41667
1767.048	266.75
1769.951	266.41667
1772.852	261.08333
1775.752	281.75
1778.649	292.41667
1781.544	282.08333
1784.437	255.75
1787.328	275.08333
1790.217	267.41667
1793.104	242.75
1795.989	249.41667
1798.872	244.08333
1801.753	265.75
1804.631	257.41667
1807.508	260.41667
1810.383	253.08333
1813.255	254.75
1816.126	244.08333
1818.994	242.41667
1821.861	243.41667
1824.725	251.75
1827.587	249.75
1830.448	248.75
1833.306	239.41667
1836.162	255.41667
1839.017	254.75
1841.869	248.08333
1844.719	242.75
1847.567	226.75
1850.414	228.75
1853.258	227.75
1856.1	240.08333
1858.94	247.08333
1861.778	239.75
1864.614	229.75
1867.448	240.75
1870.28	222.75
1873.111	244.08333
1875.939	230.41667
1878.765	245.41667
1881.589	234.08333
1884.411	235.75
1887.231	243.75
1890.049	239.08333
1892.865	246.75
1895.68	229.75
1898.492	235.41667
1901.302	225.08333
1904.11	224.41667
1906.916	228.08333
1909.721	231.08333
1912.523	238.08333
1915.323	224.08333
1918.122	220.41667
1920.918	235.75
1923.712	217.08333
1926.505	225.08333
1929.295	205.75
1932.084	226.08333
1934.87	226.41667
1937.655	217.75
1940.438	214.08333
1943.218	218.75
1945.997	228.08333
1948.774	228.08333
1951.549	226.08333
1954.322	211.41667
1957.093	217.41667
1959.862	209.08333
1962.629	213.75
1965.394	205.75
1968.157	200.08333
1970.918	218.75
1973.678	207.75
1976.435	223.75
1979.19	210.41667
1981.944	202.41667
1984.696	211.41667
1987.445	204.75
1990.193	209.08333
1992.939	220.75
1995.683	214.41667
1998.425	197.41667
2001.165	228.08333
2003.903	201.08333
2006.639	209.75
2009.374	211.41667
2012.106	211.08333
2014.837	188.08333
2017.566	215.75
2020.292	204.08333
2023.017	202.75
2025.74	194.75
2028.461	193.75
2031.18	210.41667
2033.898	194.75
2036.613	200.41667
2039.327	204.75
2042.038	193.41667
2044.748	203.08333
2047.456	201.41667
2050.162	189.75
2052.866	203.08333
2055.568	210.75
2058.268	189.08333
2060.967	206.41667
2063.663	184.08333
2066.358	187.75
2069.051	186.41667
2071.742	192.41667
2074.431	208.75
2077.118	194.08333
2079.804	178.41667
2082.487	194.41667
2085.169	200.75
2087.849	210.41667
2090.527	188.75
2093.203	192.75
2095.877	194.75
2098.55	198.41667
2101.22	198.08333
2103.889	201.75
2106.556	190.08333
2109.221	204.41667
2111.884	193.08333
2114.546	212.41667
2117.205	208.08333
2119.863	235.41667
2122.519	219.08333
2125.173	224.41667
2127.825	252.41667
2130.475	261.08333
2133.124	236.75
2135.771	234.75
2138.416	247.75
2141.059	219.75
2143.7	230.75
2146.339	213.41667
2148.977	193.75
2151.613	209.08333
2154.247	208.08333
2156.879	204.75
2159.51	190.75
2162.138	192.41667
2164.765	187.75
2167.39	177.41667
2170.013	206.41667
2172.634	201.08333
2175.254	193.41667
2177.872	229.41667
2180.488	179.41667
2183.102	188.08333
2185.714	186.41667
2188.325	178.75
2190.934	189.41667
2193.541	193.75
2196.146	182.75
2198.75	170.08333
2201.351	178.75
2203.951	164.41667
2206.549	181.08333
2209.146	174.75
2211.74	168.75
2214.333	184.08333
2216.924	165.41667
2219.514	175.08333
2222.101	176.41667
2224.687	187.08333
2227.271	170.41667
2229.853	167.41667
2232.433	158.75
2235.012	177.08333
2237.589	174.75
2240.164	189.08333
2242.738	168.08333
2245.309	164.08333
2247.879	187.75
2250.448	184.08333
2253.014	162.75
2255.579	162.08333
2258.142	156.75
2260.703	164.75
2263.262	165.75
2265.82	158.08333
2268.376	168.41667
2270.93	164.41667
2273.483	156.41667
2276.033	171.41667
2278.583	156.75
2281.13	155.08333
2283.675	148.75
2286.219	162.08333
2288.761	167.75
2291.302	177.41667
2293.841	174.75
2296.377	156.08333
2298.913	164.08333
2301.446	178.41667
2303.978	165.08333
2306.508	159.75
2309.037	164.75
2311.563	157.08333
2314.088	165.41667
2316.612	152.75
2319.133	170.75
2321.653	168.08333
2324.171	156.75
2326.688	168.75
2329.202	163.41667
2331.715	165.08333
2334.227	166.75
2336.736	161.75
2339.244	155.75
2341.751	151.41667
2344.255	171.75
2346.758	161.08333
2349.259	151.41667
2351.759	161.75
2354.257	152.08333
2356.753	149.41667
2359.247	152.75
2361.74	158.75
2364.231	158.75
2366.721	163.75
2369.209	157.75
2371.695	161.41667
2374.179	150.41667
2376.662	146.75
2379.143	169.08333
2381.622	157.75
2384.1	168.75
2386.576	154.75
2389.051	173.08333
2391.524	169.41667
2393.995	167.75
2396.464	155.41667
2398.932	152.75
2401.398	161.41667
2403.863	151.75
2406.325	156.08333
2408.787	158.75
2411.246	158.08333
2413.704	160.08333
2416.16	158.41667
2418.615	156.41667
2421.068	159.41667
2423.519	156.75
2425.969	146.75
2428.417	165.08333
2430.863	175.08333
2433.308	165.75
2435.751	160.75
2438.193	158.75
2440.633	161.08333
2443.071	169.08333
2445.508	156.08333
2447.943	162.75
2450.376	151.08333
2452.808	162.08333
2455.238	147.41667
2457.667	176.41667
2460.093	151.08333
2462.519	145.41667
2464.942	154.41667
2467.365	157.75
2469.785	164.08333
2472.204	159.41667
2474.621	155.41667
2477.037	171.08333
2479.451	149.75
2481.863	147.75
2484.274	154.41667
2486.683	159.08333
2489.091	173.41667
2491.497	163.75
2493.901	161.75
2496.304	153.08333
2498.705	168.08333
2501.105	157.08333
2503.503	176.08333
2505.899	154.41667
2508.294	171.41667
2510.687	153.75
2513.079	158.41667
2515.469	153.75
2517.858	159.08333
2520.245	174.41667
2522.63	164.75
2525.014	154.41667
2527.396	154.41667
2529.776	153.75
2532.156	162.75
2534.533	151.08333
2536.909	149.75
2539.283	141.41667
2541.656	156.08333
2544.027	171.75
2546.397	164.08333
2548.765	161.41667
2551.131	162.08333
2553.496	170.75
2555.86	168.75
2558.221	170.08333
2560.582	153.75
2562.94	152.41667
2565.298	163.41667
2567.653	177.75
2570.007	149.41667
2572.36	171.75
2574.711	161.08333
2577.06	175.75
2579.408	162.41667
2581.754	163.75
2584.099	158.75
2586.442	162.08333
2588.784	172.75
2591.124	164.08333
2593.463	164.75
2595.8	165.41667
2598.135	152.41667
2600.469	156.08333
2602.802	171.08333
2605.133	173.75
2607.462	163.75
2609.79	154.41667
2612.116	172.08333
2614.441	162.41667
2616.764	172.08333
2619.086	165.08333
2621.406	162.75
2623.725	180.75
2626.042	166.08333
2628.358	158.08333
2630.672	169.08333
2632.985	176.75
2635.296	171.08333
2637.606	166.41667
2639.914	159.08333
2642.22	167.75
2644.525	168.41667
2646.829	170.08333
2649.131	181.41667
2651.432	184.41667
2653.731	164.75
2656.028	179.08333
2658.324	171.08333
2660.619	170.08333
2662.912	182.75
2665.204	166.41667
2667.494	174.41667
2669.782	170.75
2672.07	182.41667
2674.355	188.75
2676.639	180.41667
2678.922	169.41667
2681.203	182.08333
2683.483	170.41667
2685.761	161.41667
2688.038	187.08333
2690.313	192.08333
2692.587	181.41667
2694.859	174.41667
2697.13	178.08333
2699.399	179.75
2701.667	187.08333
2703.933	178.75
2706.198	192.41667
2708.461	190.75
2710.723	183.75
2712.984	187.08333
2715.243	191.75
2717.5	187.08333
2719.757	192.75
2722.011	187.08333
2724.264	188.08333
2726.516	198.41667
2728.766	181.08333
2731.015	185.75
2733.262	194.41667
2735.508	194.75
2737.753	195.41667
2739.996	178.41667
2742.237	181.41667
2744.477	202.75
2746.716	203.75
2748.953	201.75
2751.189	203.08333
2753.423	194.08333
2755.656	187.75
2757.887	185.08333
2760.117	183.75
2762.346	175.08333
2764.573	176.08333
2766.798	184.41667
2769.022	192.08333
2771.245	179.41667
2773.467	196.41667
2775.686	182.41667
2777.905	193.75
2780.122	190.75
2782.337	193.75
2784.552	189.75
2786.764	193.75
2788.976	183.41667
2791.186	195.41667
2793.394	190.41667
2795.601	206.75
2797.807	203.75
2800.011	199.08333
2802.214	206.08333
2804.415	199.41667
2806.615	196.41667
2808.814	198.41667
2811.011	215.41667
2813.206	206.75
2815.401	215.75
2817.594	212.08333
2819.785	207.08333
2821.975	198.75
2824.164	208.08333
2826.351	200.41667
2828.537	222.41667
2830.722	215.08333
2832.905	208.41667
2835.086	211.41667
2837.267	230.41667
2839.445	233.41667
2841.623	225.75
2843.799	226.08333
2845.974	230.41667
2848.147	228.41667
2850.319	251.75
2852.489	254.75
2854.659	246.41667
2856.826	252.75
2858.993	271.41667
2861.158	253.08333
2863.321	258.75
2865.483	274.75
2867.644	272.75
2869.804	267.75
2871.962	263.41667
2874.118	264.75
2876.274	270.41667
2878.428	270.75
2880.58	274.08333
2882.731	254.41667
2884.881	267.08333
2887.03	264.41667
2889.177	264.75
2891.322	269.08333
2893.467	253.08333
2895.61	264.75
2897.751	275.41667
2899.892	261.08333
2902.03	271.08333
2904.168	264.41667
2906.304	273.08333
2908.439	284.08333
2910.572	268.08333
2912.704	277.75
2914.835	281.41667
2916.965	277.08333
2919.093	303.75
2921.219	259.75
2923.345	300.41667
2925.469	282.41667
2927.591	279.75
2929.712	262.08333
2931.832	278.41667
2933.951	269.08333
2936.068	264.08333
2938.184	259.08333
2940.299	259.08333
2942.412	260.75
2944.524	242.08333
2946.634	257.08333
2948.744	237.08333
2950.851	271.41667
2952.958	238.75
2955.063	249.75
2957.167	244.08333
2959.269	234.41667
2961.371	266.08333
2963.471	240.75
2965.569	253.75
2967.666	235.08333
2969.762	238.08333
2971.857	230.75
2973.95	225.41667
2976.042	238.75
2978.133	229.08333
2980.222	230.41667
2982.31	221.08333
2984.396	209.41667
2986.482	214.75
2988.566	213.08333
2990.648	217.75
2992.73	218.08333
2994.81	202.08333
2996.889	220.75
2998.966	216.41667
3001.042	223.75
3003.117	215.08333
3005.191	220.08333
3007.263	227.08333
3009.334	217.75
3011.403	220.41667
3013.472	214.41667
3015.539	226.41667
3017.604	234.08333
3019.669	201.75
3021.732	215.75
3023.794	213.08333
3025.854	201.75
3027.914	200.75
3029.971	200.08333
3032.028	204.41667
3034.083	210.08333
3036.137	202.08333
3038.19	196.41667
3040.242	188.41667
3042.292	186.41667
3044.341	193.08333
3046.388	203.75
3048.435	185.75
3050.48	198.08333
3052.524	189.75
3054.566	175.08333
3056.607	196.41667
3058.647	182.41667
3060.686	164.41667
3062.723	160.75
3064.759	160.75
3066.794	1.75
3068.828	0.41667
3070.86	4.41667
