-0.839	123
3.438	137.33333
7.711	62.33333
11.981	39.33333
16.247	26.33333
20.509	35.33333
24.768	31.33333
29.024	43.66667
33.276	30
37.524	41
41.769	30
46.01	22
50.247	40.33333
54.481	49.33333
58.712	52
62.939	37
67.162	51
71.382	45
75.599	32.66667
79.812	39.66667
84.021	60.33333
88.227	41
92.429	46.33333
96.628	36
100.823	50
105.015	47.33333
109.204	44
113.388	57
117.57	40
121.748	55.33333
125.922	44.66667
130.093	59.66667
134.261	60.66667
138.425	48
142.585	74.66667
146.742	53.66667
150.896	68
155.046	57.66667
159.193	88
163.336	123
167.476	197.33333
171.613	356.33333
175.746	556
179.875	815.33333
184.002	1031.33333
188.124	1229.66667
192.244	1277
196.36	1272.66667
200.472	1260.66667
204.581	1246.66667
208.687	1202
212.79	1195.66667
216.889	1215.33333
220.984	1212
225.077	1221.66667
229.165	1220.33333
233.251	1212
237.333	1213.33333
241.412	1199
245.487	1193.66667
249.559	1188.66667
253.628	1187.66667
257.694	1170.66667
261.756	1178
265.814	1136.66667
269.87	1093
273.922	1091.66667
277.97	1068.33333
282.016	1068
286.058	1035.66667
290.097	1066.33333
294.132	1081.33333
298.164	1067.66667
302.193	1041.33333
306.219	981
310.241	919.66667
314.26	847.66667
318.276	808.66667
322.288	777.66667
326.297	741.66667
330.303	728
334.305	714.33333
338.305	709
342.301	704
346.294	707
350.283	703
354.269	685.66667
358.252	680
362.232	677
366.209	680.33333
370.182	670.33333
374.152	666
378.119	672.33333
382.083	643
386.043	672.33333
390	662
393.954	680.33333
397.905	682.66667
401.852	697.66667
405.797	671.66667
409.738	684.66667
413.676	714.66667
417.61	718.66667
421.542	687.33333
425.47	655
429.396	648.66667
433.318	648.66667
437.236	653.33333
441.152	671.66667
445.065	628.33333
448.974	644
452.88	627.66667
456.783	613
460.683	621.66667
464.58	642
468.473	638.33333
472.364	639.33333
476.251	636.33333
480.135	640
484.016	651.33333
487.894	653
491.769	645.33333
495.641	647.66667
499.509	659.33333
503.375	660.66667
507.237	657
511.096	666.66667
514.952	715
518.805	741.66667
522.655	750.33333
526.502	712
530.346	666.66667
534.187	661.66667
538.024	651
541.859	634.33333
545.69	669
549.519	653
553.344	646
557.166	633.33333
560.985	630
564.802	637
568.615	625.66667
572.425	617
576.232	616.66667
580.036	613
583.836	621.33333
587.634	628.33333
591.429	618
595.221	651.66667
599.01	637
602.796	629.33333
606.578	628.66667
610.358	641
614.135	626.66667
617.909	622
621.679	616.33333
625.447	610.66667
629.212	622.33333
632.973	627.66667
636.732	620
640.488	620.66667
644.241	614
647.991	605
651.737	636.33333
655.481	604
659.222	613
662.96	614.66667
666.695	626
670.427	626
674.156	628
677.882	623
681.605	627
685.325	619.33333
689.043	633
692.757	622.33333
696.468	620
700.177	614.66667
703.882	601
707.585	602.33333
711.284	610.33333
714.981	585.33333
718.675	589
722.366	615.66667
726.054	599
729.739	605
733.421	604.66667
737.1	601.33333
740.777	618.66667
744.45	603.66667
748.121	598.33333
751.789	634.33333
755.453	607.66667
759.115	619.33333
762.774	609.66667
766.431	623.66667
770.084	623
773.734	617.66667
777.382	635.33333
781.027	628.33333
784.669	629.66667
788.308	642
791.944	657
795.577	649
799.208	640
802.835	644.33333
806.46	652.66667
810.082	659.33333
813.701	653.33333
817.317	661
820.931	661
824.542	666.66667
828.149	653.66667
831.754	633
835.357	632.33333
838.956	658.66667
842.553	648.33333
846.146	639
849.737	620
853.326	639
856.911	630.33333
860.493	637.66667
864.073	642.66667
867.65	666.33333
871.225	667.33333
874.796	659.33333
878.365	637.66667
881.931	670
885.494	676
889.054	652.33333
892.612	676
896.166	657.66667
899.719	661
903.268	645.66667
906.814	646.33333
910.358	626.33333
913.899	617.66667
917.438	621
920.973	592
924.506	609.33333
928.036	625
931.564	633.33333
935.088	653.66667
938.61	630
942.129	616.33333
945.646	628
949.16	640.66667
952.671	648.33333
956.179	671
959.685	660.33333
963.188	661
966.688	652.66667
970.185	627.66667
973.68	611
977.173	621
980.662	597
984.149	614
987.633	587
991.114	596.33333
994.593	629
998.069	625
1001.542	652.66667
1005.013	646.66667
1008.481	596
1011.947	588.33333
1015.409	581
1018.869	587
1022.327	594
1025.782	587
1029.234	566.33333
1032.683	570
1036.13	558.66667
1039.574	542.66667
1043.016	533
1046.455	535.33333
1049.891	514
1053.325	529.33333
1056.756	518
1060.184	528.66667
1063.61	507
1067.033	514.66667
1070.454	509.33333
1073.872	535.33333
1077.287	516
1080.7	514.33333
1084.11	517.33333
1087.517	516
1090.922	518
1094.325	502
1097.724	495
1101.122	513
1104.516	505
1107.908	487
1111.298	495.66667
1114.684	505.66667
1118.069	506
1121.45	529.66667
1124.83	513.33333
1128.206	511.66667
1131.58	526.66667
1134.951	531.66667
1138.32	545.66667
1141.687	559.66667
1145.05	585.33333
1148.412	570.66667
1151.77	569.66667
1155.126	567.33333
1158.48	561.33333
1161.831	556.66667
1165.18	564.66667
1168.525	570.33333
1171.869	572.66667
1175.21	567
1178.548	592
1181.884	594.66667
1185.217	576.66667
1188.548	591.33333
1191.877	599
1195.202	635.33333
1198.526	645.33333
1201.846	635
1205.165	648
1208.48	649.66667
1211.794	662.66667
1215.104	664
1218.413	646.66667
1221.719	646.33333
1225.022	621.66667
1228.323	622.66667
1231.621	643.33333
1234.917	622
1238.21	647.33333
1241.501	612.66667
1244.79	614.33333
1248.076	606.66667
1251.359	619
1254.64	657
1257.919	627
1261.195	631.33333
1264.468	642.33333
1267.74	642
1271.008	639
1274.275	647
1277.538	645.33333
1280.8	648
1284.059	649.33333
1287.315	663.33333
1290.569	645.33333
1293.821	661
1297.07	648
1300.317	664.33333
1303.562	670.33333
1306.803	675.33333
1310.043	656
1313.28	665.33333
1316.515	639.33333
1319.747	662
1322.977	653
1326.204	642
1329.429	644.66667
1332.652	646.33333
1335.872	646.33333
1339.09	635.33333
1342.306	647
1345.519	628.33333
1348.729	623.33333
1351.938	628.33333
1355.144	616.33333
1358.347	603
1361.548	610.33333
1364.747	620.66667
1367.944	598.66667
1371.138	599
1374.329	599
1377.518	592
1380.705	596.66667
1383.89	614
1387.072	590
1390.252	579.66667
1393.429	564.66667
1396.605	554.66667
1399.777	526.33333
1402.948	530.33333
1406.116	525.33333
1409.282	533.66667
1412.445	528
1415.606	537.33333
1418.765	536
1421.921	537.66667
1425.075	538.33333
1428.227	544
1431.376	565.33333
1434.524	589.66667
1437.668	598
1440.811	607.33333
1443.951	601.33333
1447.089	610.33333
1450.224	606
1453.357	593.33333
1456.488	603.66667
1459.617	598.33333
1462.743	592
1465.867	571
1468.989	568
1472.108	548
1475.225	553.33333
1478.34	542.33333
1481.453	538.33333
1484.563	533.33333
1487.671	550.33333
1490.776	550
1493.88	557.66667
1496.981	566
1500.08	579.66667
1503.176	568.66667
1506.271	572
1509.363	580.33333
1512.452	575.33333
1515.54	580.33333
1518.625	582.33333
1521.708	616.66667
1524.789	626
1527.867	640.33333
1530.944	671
1534.018	675.66667
1537.089	713.33333
1540.159	728.33333
1543.226	724.33333
1546.291	705.33333
1549.354	710
1552.415	696
1555.473	683
1558.529	675
1561.583	664.66667
1564.634	652.33333
1567.684	646
1570.731	657
1573.776	650
1576.819	666
1579.859	676.66667
1582.898	686.33333
1585.934	683.66667
1588.968	690.66667
1591.999	678.33333
1595.029	678.33333
1598.056	686.33333
1601.081	720.33333
1604.104	702
1607.125	677.33333
1610.144	658.66667
1613.16	654.33333
1616.174	636.66667
1619.186	632.33333
1622.196	624.33333
1625.203	597
1628.209	609
1631.212	593.66667
1634.213	598
1637.212	618.66667
1640.209	607.33333
1643.203	596.33333
1646.196	571.66667
1649.186	548
1652.174	550
1655.16	523.33333
1658.144	516
1661.125	482.33333
1664.105	480
1667.082	466.33333
1670.057	414.66667
1673.03	403.33333
1676.001	393.66667
1678.97	375.33333
1681.937	356.66667
1684.901	341
1687.863	343.66667
1690.824	315
1693.782	335.66667
1696.738	301.66667
1699.692	308.33333
1702.643	296
1705.593	291
1708.54	293
1711.486	305.66667
1714.429	280.33333
1717.37	293
1720.309	276
1723.246	284.66667
1726.181	273
1729.113	273.66667
1732.044	278
1734.972	273
1737.899	292.66667
1740.823	293.66667
1743.745	302.66667
1746.665	266.33333
1749.583	263.66667
1752.499	258.33333
1755.413	259
1758.325	251
1761.235	263.33333
1764.142	246.33333
1767.048	243.33333
1769.951	246
1772.852	245.66667
1775.752	256.66667
1778.649	273
1781.544	265
1784.437	241
1787.328	255
1790.217	242.66667
1793.104	228
1795.989	232.66667
1798.872	230.33333
1801.753	244.33333
1804.631	238.33333
1807.508	239.66667
1810.383	234.66667
1813.255	233
1816.126	231.33333
1818.994	229
1821.861	233.33333
1824.725	236.66667
1827.587	240
1830.448	228.66667
1833.306	215.33333
1836.162	236
1839.017	229
1841.869	226.66667
1844.719	230.66667
1847.567	214.33333
1850.414	212.33333
1853.258	210.66667
1856.1	224.66667
1858.94	233.33333
1861.778	227.66667
1864.614	214.33333
1867.448	223
1870.28	209.66667
1873.111	229.66667
1875.939	219.66667
1878.765	234
1881.589	217.66667
1884.411	217
1887.231	228
1890.049	220.66667
1892.865	227.33333
1895.68	207.33333
1898.492	224.33333
1901.302	212.66667
1904.11	214.33333
1906.916	213
1909.721	208.33333
1912.523	219
1915.323	206
1918.122	203.33333
1920.918	222
1923.712	206.66667
1926.505	214
1929.295	192.33333
1932.084	213
1934.87	215.66667
1937.655	206.33333
1940.438	197.33333
1943.218	203.33333
1945.997	208
1948.774	212.33333
1951.549	214
1954.322	202
1957.093	206
1959.862	194.33333
1962.629	200
1965.394	194.66667
1968.157	190.66667
1970.918	205
1973.678	191
1976.435	202.66667
1979.19	196.66667
1981.944	189.33333
1984.696	198
1987.445	186.33333
1990.193	198.66667
1992.939	205.66667
1995.683	195.66667
1998.425	181
2001.165	217.66667
2003.903	180
2006.639	189.33333
2009.374	195.66667
2012.106	199.66667
2014.837	171
2017.566	194.66667
2020.292	196
2023.017	188.33333
2025.74	186.33333
2028.461	183.66667
2031.18	194
2033.898	183.33333
2036.613	190.66667
2039.327	193
2042.038	177.33333
2044.748	185.33333
2047.456	183.33333
2050.162	175.66667
2052.866	184.33333
2055.568	194.33333
2058.268	182.33333
2060.967	202
2063.663	177.33333
2066.358	187.66667
2069.051	166.66667
2071.742	183.66667
2074.431	188.66667
2077.118	181.66667
2079.804	175.33333
2082.487	174.66667
2085.169	190.33333
2087.849	200.66667
2090.527	182.33333
2093.203	183.66667
2095.877	175
2098.55	190
2101.22	193.33333
2103.889	187.66667
2106.556	182.33333
2109.221	191.66667
2111.884	179.66667
2114.546	199.66667
2117.205	201
2119.863	223
2122.519	207.66667
2125.173	219
2127.825	249.66667
2130.475	248
2133.124	223
2135.771	217.33333
2138.416	236
2141.059	211.33333
2143.7	227
2146.339	203.66667
2148.977	181.33333
2151.613	193.66667
2154.247	193.66667
2156.879	186.33333
2159.51	178
2162.138	183.33333
2164.765	178.66667
2167.39	169.66667
2170.013	197.33333
2172.634	198.33333
2175.254	179
2177.872	216
2180.488	176.66667
2183.102	177.33333
2185.714	178
2188.325	167.33333
2190.934	173
2193.541	184.33333
2196.146	176.33333
2198.75	167.33333
2201.351	164
2203.951	148.33333
2206.549	174.33333
2209.146	162.66667
2211.74	161
2214.333	176
2216.924	154.33333
2219.514	168.33333
2222.101	166
2224.687	176.33333
2227.271	153
2229.853	157.66667
2232.433	145.33333
2235.012	172.33333
2237.589	165.33333
2240.164	176.66667
2242.738	161.66667
2245.309	151.33333
2247.879	176
2250.448	166.66667
2253.014	148.33333
2255.579	154
2258.142	157.66667
2260.703	158.33333
2263.262	145.66667
2265.82	148.33333
2268.376	169.33333
2270.93	150.33333
2273.483	145
2276.033	161.33333
2278.583	148
2281.13	152
2283.675	142.33333
2286.219	154.66667
2288.761	162
2291.302	163.66667
2293.841	171
2296.377	147.33333
2298.913	162
2301.446	164.33333
2303.978	154
2306.508	154.33333
2309.037	158.33333
2311.563	156
2314.088	158
2316.612	147.33333
2319.133	156.33333
2321.653	153.66667
2324.171	152.33333
2326.688	164
2329.202	157.33333
2331.715	163.66667
2334.227	152.33333
2336.736	151.66667
2339.244	146.33333
2341.751	138.66667
2344.255	159
2346.758	153.33333
2349.259	144.66667
2351.759	157.66667
2354.257	144
2356.753	139.33333
2359.247	150
2361.74	152
2364.231	148.66667
2366.721	156
2369.209	151.66667
2371.695	149.66667
2374.179	144
2376.662	134.33333
2379.143	159
2381.622	150.33333
2384.1	158
2386.576	149.33333
2389.051	162.66667
2391.524	163.33333
2393.995	159.33333
2396.464	152.66667
2398.932	151.66667
2401.398	154.33333
2403.863	147
2406.325	144
2408.787	158.33333
2411.246	151.33333
2413.704	154.66667
2416.16	148.66667
2418.615	154.66667
2421.068	154.33333
2423.519	148
2425.969	141
2428.417	160
2430.863	174.33333
2433.308	161.66667
2435.751	155.66667
2438.193	155.33333
2440.633	155.66667
2443.071	160
2445.508	148
2447.943	152
2450.376	144.33333
2452.808	159
2455.238	139
2457.667	176
2460.093	148
2462.519	141.66667
2464.942	147
2467.365	154.66667
2469.785	156.33333
2472.204	150.66667
2474.621	146
2477.037	165
2479.451	142.66667
2481.863	138.33333
2484.274	146.33333
2486.683	154.33333
2489.091	161
2491.497	153.33333
2493.901	160.66667
2496.304	153.33333
2498.705	160
2501.105	155.66667
2503.503	168.33333
2505.899	148.66667
2508.294	168
2510.687	149.33333
2513.079	155
2515.469	142.66667
2517.858	150.66667
2520.245	169.33333
2522.63	157.33333
2525.014	151.66667
2527.396	147.66667
2529.776	150.33333
2532.156	159.66667
2534.533	143.33333
2536.909	145.33333
2539.283	138.66667
2541.656	147.66667
2544.027	172.33333
2546.397	157
2548.765	151.66667
2551.131	156.66667
2553.496	155
2555.86	163
2558.221	161.33333
2560.582	151
2562.94	144.66667
2565.298	156.33333
2567.653	168.66667
2570.007	144.33333
2572.36	166
2574.711	150.33333
2577.06	166.33333
2579.408	164.66667
2581.754	157
2584.099	153.33333
2586.442	150.33333
2588.784	162
2591.124	154.66667
2593.463	155.66667
2595.8	160
2598.135	148.66667
2600.469	148.33333
2602.802	168.66667
2605.133	166
2607.462	153
2609.79	148
2612.116	170.66667
2614.441	157.33333
2616.764	163
2619.086	161.66667
2621.406	154.33333
2623.725	171
2626.042	159.33333
2628.358	155.66667
2630.672	168.66667
2632.985	173.66667
2635.296	163
2637.606	161.33333
2639.914	159.66667
2642.22	162.33333
2644.525	165
2646.829	167.66667
2649.131	179
2651.432	180.66667
2653.731	162.66667
2656.028	175.33333
2658.324	169.33333
2660.619	159.33333
2662.912	178
2665.204	156.33333
2667.494	174.33333
2669.782	161.66667
2672.07	176.33333
2674.355	181.33333
2676.639	175.66667
2678.922	167
2681.203	174.66667
2683.483	165.66667
2685.761	158.66667
2688.038	181.66667
2690.313	183.33333
2692.587	167.66667
2694.859	168
2697.13	171
2699.399	178.33333
2701.667	179
2703.933	173.66667
2706.198	182
2708.461	181
2710.723	183
2712.984	180.66667
2715.243	186.66667
2717.5	179
2719.757	190
2722.011	179.66667
2724.264	187
2726.516	197.33333
2728.766	177.66667
2731.015	187.33333
2733.262	182.66667
2735.508	184.66667
2737.753	190.66667
2739.996	173
2742.237	176.66667
2744.477	189
2746.716	198.33333
2748.953	196.33333
2751.189	203
2753.423	191
2755.656	179
2757.887	178
2760.117	186
2762.346	181
2764.573	171.33333
2766.798	177
2769.022	180.33333
2771.245	174.33333
2773.467	181.66667
2775.686	185.66667
2777.905	189.33333
2780.122	181.33333
2782.337	192.66667
2784.552	183.33333
2786.764	187.66667
2788.976	182.66667
2791.186	185
2793.394	189.66667
2795.601	191.66667
2797.807	201.66667
2800.011	192.66667
2802.214	202
2804.415	196.33333
2806.615	199.66667
2808.814	198
2811.011	202.66667
2813.206	202
2815.401	211.33333
2817.594	208
2819.785	215.66667
2821.975	195.66667
2824.164	201.33333
2826.351	200.66667
2828.537	220
2830.722	209
2832.905	206.66667
2835.086	213
2837.267	235.33333
2839.445	221.33333
2841.623	224.66667
2843.799	226
2845.974	229.66667
2848.147	236.33333
2850.319	241
2852.489	247.66667
2854.659	249
2856.826	251.66667
2858.993	268
2861.158	245
2863.321	252.33333
2865.483	269.33333
2867.644	262
2869.804	256
2871.962	248.66667
2874.118	256
2876.274	265.66667
2878.428	265
2880.58	261.33333
2882.731	252.33333
2884.881	258
2887.03	270.66667
2889.177	258
2891.322	271.66667
2893.467	255
2895.61	257.33333
2897.751	268.33333
2899.892	266.33333
2902.03	267
2904.168	263.66667
2906.304	267.66667
2908.439	285.66667
2910.572	262
2912.704	272.66667
2914.835	278.33333
2916.965	269.66667
2919.093	289
2921.219	259
2923.345	296.33333
2925.469	275
2927.591	271.66667
2929.712	253.66667
2931.832	267
2933.951	271.66667
2936.068	260.66667
2938.184	257.33333
2940.299	254.33333
2942.412	251.33333
2944.524	244.66667
2946.634	254.66667
2948.744	234.33333
2950.851	275
2952.958	240.33333
2955.063	249.66667
2957.167	240
2959.269	235.33333
2961.371	253.33333
2963.471	235.33333
2965.569	246
2967.666	226
2969.762	231
2971.857	231
2973.95	222.33333
2976.042	231
2978.133	227
2980.222	220.33333
2982.31	213
2984.396	197
2986.482	210.33333
2988.566	208.66667
2990.648	205.66667
2992.73	215
2994.81	203.33333
2996.889	223.66667
2998.966	210.66667
3001.042	221
3003.117	206.33333
3005.191	221.33333
3007.263	220.66667
3009.334	215.66667
3011.403	215.66667
3013.472	208.33333
3015.539	223
3017.604	228.33333
3019.669	195.66667
3021.732	204.66667
3023.794	204.66667
3025.854	196
3027.914	196.66667
3029.971	198
3032.028	207
3034.083	203.33333
3036.137	202.66667
3038.19	188.33333
3040.242	185.66667
3042.292	176.33333
3044.341	192.66667
3046.388	199
3048.435	180.66667
3050.48	193.66667
3052.524	182.33333
3054.566	174
3056.607	186.33333
3058.647	177
3060.686	162.66667
3062.723	154.66667
3064.759	153.66667
3066.794	0
3068.828	1.66667
3070.86	3
