-0.839	123.41667
3.438	139.41667
7.711	64.75
11.981	39.75
16.247	31.41667
20.509	35.08333
24.768	36.08333
29.024	42.08333
33.276	28.75
37.524	38.08333
41.769	28.41667
46.01	25.75
50.247	44.08333
54.481	49.08333
58.712	54.75
62.939	38.75
67.162	51.41667
71.382	44.75
75.599	36.41667
79.812	42.41667
84.021	64.41667
88.227	40.75
92.429	48.08333
96.628	38.41667
100.823	51.08333
105.015	48.75
109.204	42.08333
113.388	57.08333
117.57	39.75
121.748	56.41667
125.922	43.75
130.093	62.08333
134.261	60.75
138.425	47.08333
142.585	78.41667
146.742	58.75
150.896	63.08333
155.046	63.08333
159.193	95.08333
163.336	125.08333
167.476	207.41667
171.613	371.41667
175.746	598.41667
179.875	858.41667
184.002	1087.08333
188.124	1298.08333
192.244	1344.75
196.36	1343.75
200.472	1333.75
204.581	1320.41667
208.687	1255.41667
212.79	1256.75
216.889	1264.75
220.984	1287.75
225.077	1276.08333
229.165	1269.41667
233.251	1279.08333
237.333	1281.75
241.412	1257.75
245.487	1258.75
249.559	1230.75
253.628	1223.08333
257.694	1214.08333
261.756	1213.75
265.814	1184.75
269.87	1144.75
273.922	1127.75
277.97	1115.41667
282.016	1108.75
286.058	1091.41667
290.097	1126.75
294.132	1143.08333
298.164	1139.08333
302.193	1083.41667
306.219	1019.75
310.241	951.41667
314.26	883.41667
318.276	831.08333
322.288	810.75
326.297	787.75
330.303	760.08333
334.305	754.08333
338.305	722.75
342.301	723.41667
346.294	724.08333
350.283	723.08333
354.269	706.08333
358.252	703.08333
362.232	699.08333
366.209	708.41667
370.182	698.41667
374.152	692.75
378.119	706.41667
382.083	694.08333
386.043	711.41667
390	690.41667
393.954	710.41667
397.905	690.41667
401.852	713.75
405.797	677.41667
409.738	676.75
413.676	684.08333
417.61	696.08333
421.542	679.08333
425.47	673.08333
429.396	666.75
433.318	658.75
437.236	657.75
441.152	692.08333
445.065	648.75
448.974	659.41667
452.88	647.41667
456.783	644.41667
460.683	632.08333
464.58	645.75
468.473	655.75
472.364	646.75
476.251	639.08333
480.135	638.75
484.016	658.41667
487.894	664.08333
491.769	667.75
495.641	663.08333
499.509	667.75
503.375	670.75
507.237	654.08333
511.096	669.08333
514.952	675.75
518.805	690.08333
522.655	696.75
526.502	676.41667
530.346	671.08333
534.187	668.41667
538.024	658.08333
541.859	653.75
545.69	665.08333
549.519	671.08333
553.344	663.41667
557.166	632.41667
560.985	643.75
564.802	652.41667
568.615	639.41667
572.425	617.41667
576.232	629.08333
580.036	622.41667
583.836	630.08333
587.634	631.08333
591.429	620.75
595.221	654.75
599.01	642.41667
602.796	631.08333
606.578	646.41667
610.358	656.41667
614.135	638.08333
617.909	646.41667
621.679	631.08333
625.447	619.08333
629.212	622.08333
632.973	642.41667
636.732	640.08333
640.488	640.75
644.241	615.08333
647.991	618.75
651.737	645.75
655.481	607.75
659.222	614.41667
662.96	613.41667
666.695	633.41667
670.427	632.08333
674.156	635.41667
677.882	636.75
681.605	627.75
685.325	628.08333
689.043	650.75
692.757	618.75
696.468	631.41667
700.177	636.08333
703.882	603.08333
707.585	608.75
711.284	615.08333
714.981	598.08333
718.675	614.08333
722.366	637.41667
726.054	605.08333
729.739	611.41667
733.421	623.41667
737.1	604.75
740.777	621.08333
744.45	619.08333
748.121	609.41667
751.789	648.08333
755.453	623.08333
759.115	635.75
762.774	626.08333
766.431	623.08333
770.084	646.08333
773.734	629.08333
777.382	662.75
781.027	662.41667
784.669	647.75
788.308	651.41667
791.944	672.08333
795.577	669.75
799.208	665.41667
802.835	667.08333
806.46	673.08333
810.082	666.41667
813.701	671.41667
817.317	679.41667
820.931	682.41667
824.542	689.41667
828.149	674.41667
831.754	663.75
835.357	659.08333
838.956	678.75
842.553	667.75
846.146	653.41667
849.737	648.75
853.326	659.75
856.911	644.75
860.493	677.75
864.073	670.08333
867.65	672.08333
871.225	691.41667
874.796	687.41667
878.365	675.08333
881.931	685.75
885.494	700.75
889.054	694.08333
892.612	702.08333
896.166	696.75
899.719	692.75
903.268	669.41667
906.814	668.08333
910.358	659.75
913.899	655.75
917.438	645.75
920.973	622.75
924.506	638.41667
928.036	657.75
931.564	657.08333
935.088	677.41667
938.61	655.41667
942.129	656.75
945.646	666.75
949.16	673.41667
952.671	693.08333
956.179	707.75
959.685	682.41667
963.188	692.08333
966.688	683.08333
970.185	659.08333
973.68	639.75
977.173	646.41667
980.662	639.41667
984.149	634.41667
987.633	610.75
991.114	638.08333
994.593	639.75
998.069	655.08333
1001.542	664.41667
1005.013	671.41667
1008.481	616.41667
1011.947	618.75
1015.409	606.41667
1018.869	616.08333
1022.327	624.41667
1025.782	609.41667
1029.234	604.75
1032.683	592.75
1036.13	580.08333
1039.574	559.75
1043.016	557.41667
1046.455	548.75
1049.891	527.75
1053.325	559.08333
1056.756	532.08333
1060.184	544.08333
1063.61	529.41667
1067.033	549.08333
1070.454	527.08333
1073.872	550.41667
1077.287	534.08333
1080.7	533.41667
1084.11	528.75
1087.517	543.08333
1090.922	556.75
1094.325	532.08333
1097.724	533.75
1101.122	532.08333
1104.516	529.75
1107.908	520.41667
1111.298	530.41667
1114.684	537.41667
1118.069	537.41667
1121.45	556.08333
1124.83	534.08333
1128.206	541.75
1131.58	546.08333
1134.951	566.75
1138.32	578.75
1141.687	595.41667
1145.05	614.41667
1148.412	602.41667
1151.77	601.08333
1155.126	605.41667
1158.48	592.41667
1161.831	593.41667
1165.18	595.08333
1168.525	610.75
1171.869	628.75
1175.21	616.41667
1178.548	635.41667
1181.884	628.75
1185.217	629.08333
1188.548	662.75
1191.877	659.08333
1195.202	700.41667
1198.526	699.75
1201.846	708.41667
1205.165	703.75
1208.48	716.41667
1211.794	702.41667
1215.104	708.75
1218.413	705.41667
1221.719	697.08333
1225.022	687.41667
1228.323	678.41667
1231.621	689.08333
1234.917	677.75
1238.21	702.08333
1241.501	676.41667
1244.79	665.41667
1248.076	656.08333
1251.359	667.75
1254.64	707.08333
1257.919	679.75
1261.195	678.75
1264.468	696.75
1267.74	701.75
1271.008	705.08333
1274.275	708.08333
1277.538	702.75
1280.8	694.75
1284.059	698.08333
1287.315	716.08333
1290.569	703.08333
1293.821	712.75
1297.07	726.08333
1300.317	738.41667
1303.562	739.08333
1306.803	729.08333
1310.043	726.41667
1313.28	729.41667
1316.515	729.75
1319.747	736.41667
1322.977	710.41667
1326.204	717.08333
1329.429	710.08333
1332.652	699.08333
1335.872	716.41667
1339.09	685.08333
1342.306	687.41667
1345.519	671.75
1348.729	660.08333
1351.938	667.08333
1355.144	657.75
1358.347	655.75
1361.548	668.75
1364.747	664.75
1367.944	647.41667
1371.138	649.41667
1374.329	650.41667
1377.518	653.08333
1380.705	652.08333
1383.89	656.08333
1387.072	642.08333
1390.252	627.75
1393.429	604.41667
1396.605	592.08333
1399.777	561.08333
1402.948	570.75
1406.116	554.41667
1409.282	563.41667
1412.445	577.41667
1415.606	587.41667
1418.765	571.08333
1421.921	590.41667
1425.075	584.41667
1428.227	601.08333
1431.376	626.41667
1434.524	642.75
1437.668	660.75
1440.811	662.75
1443.951	657.41667
1447.089	665.75
1450.224	669.08333
1453.357	658.75
1456.488	667.75
1459.617	661.75
1462.743	639.75
1465.867	615.08333
1468.989	621.08333
1472.108	614.41667
1475.225	597.75
1478.34	587.41667
1481.453	589.41667
1484.563	586.41667
1487.671	592.08333
1490.776	611.75
1493.88	608.41667
1496.981	626.41667
1500.08	630.75
1503.176	631.41667
1506.271	622.75
1509.363	643.08333
1512.452	641.75
1515.54	648.08333
1518.625	645.75
1521.708	676.41667
1524.789	688.75
1527.867	711.08333
1530.944	730.08333
1534.018	755.41667
1537.089	794.75
1540.159	804.75
1543.226	801.41667
1546.291	794.08333
1549.354	776.08333
1552.415	768.08333
1555.473	755.75
1558.529	744.75
1561.583	737.41667
1564.634	723.41667
1567.684	714.08333
1570.731	727.75
1573.776	732.75
1576.819	743.08333
1579.859	747.75
1582.898	755.41667
1585.934	767.08333
1588.968	780.75
1591.999	750.41667
1595.029	757.75
1598.056	780.75
1601.081	786.08333
1604.104	786.75
1607.125	760.08333
1610.144	757.08333
1613.16	725.08333
1616.174	706.08333
1619.186	700.41667
1622.196	692.75
1625.203	658.41667
1628.209	662.75
1631.212	656.08333
1634.213	659.41667
1637.212	659.41667
1640.209	655.08333
1643.203	626.08333
1646.196	607.75
1649.186	589.08333
1652.174	583.08333
1655.16	556.41667
1658.144	558.08333
1661.125	532.08333
1664.105	506.41667
1667.082	491.41667
1670.057	464.08333
1673.03	439.75
1676.001	431.08333
1678.97	396.75
1681.937	393.75
1684.901	357.08333
1687.863	363.75
1690.824	335.75
1693.782	345.08333
1696.738	317.41667
1699.692	312.41667
1702.643	304.41667
1705.593	308.08333
1708.54	304.41667
1711.486	319.41667
1714.429	296.41667
1717.37	306.08333
1720.309	285.75
1723.246	296.41667
1726.181	287.41667
1729.113	289.41667
1732.044	284.41667
1734.972	280.41667
1737.899	297.41667
1740.823	289.75
1743.745	315.75
1746.665	271.41667
1749.583	268.08333
1752.499	259.08333
1755.413	263.08333
1758.325	253.08333
1761.235	262.75
1764.142	251.08333
1767.048	252.08333
1769.951	244.08333
1772.852	247.75
1775.752	255.08333
1778.649	242.08333
1781.544	265.08333
1784.437	238.08333
1787.328	255.75
1790.217	257.41667
1793.104	227.75
1795.989	233.08333
1798.872	228.41667
1801.753	240.41667
1804.631	237.75
1807.508	246.75
1810.383	230.41667
1813.255	236.75
1816.126	229.75
1818.994	232.41667
1821.861	226.41667
1824.725	239.08333
1827.587	229.41667
1830.448	234.41667
1833.306	220.08333
1836.162	241.08333
1839.017	233.41667
1841.869	230.75
1844.719	227.75
1847.567	214.08333
1850.414	210.08333
1853.258	210.41667
1856.1	229.75
1858.94	233.08333
1861.778	217.41667
1864.614	218.08333
1867.448	218.41667
1870.28	205.75
1873.111	224.41667
1875.939	218.08333
1878.765	235.41667
1881.589	214.08333
1884.411	217.75
1887.231	224.41667
1890.049	225.08333
1892.865	227.75
1895.68	200.41667
1898.492	215.08333
1901.302	213.75
1904.11	214.75
1906.916	208.75
1909.721	213.08333
1912.523	212.75
1915.323	203.08333
1918.122	203.75
1920.918	219.75
1923.712	198.41667
1926.505	213.75
1929.295	193.41667
1932.084	203.08333
1934.87	211.41667
1937.655	205.08333
1940.438	194.75
1943.218	205.41667
1945.997	204.08333
1948.774	207.41667
1951.549	218.08333
1954.322	203.75
1957.093	200.41667
1959.862	198.75
1962.629	202.41667
1965.394	198.75
1968.157	186.41667
1970.918	213.08333
1973.678	195.75
1976.435	205.41667
1979.19	202.08333
1981.944	182.75
1984.696	189.08333
1987.445	189.41667
1990.193	195.75
1992.939	206.41667
1995.683	201.41667
1998.425	183.75
2001.165	216.75
2003.903	178.08333
2006.639	188.08333
2009.374	197.41667
2012.106	193.75
2014.837	170.08333
2017.566	190.75
2020.292	187.41667
2023.017	186.08333
2025.74	186.41667
2028.461	180.41667
2031.18	192.75
2033.898	173.41667
2036.613	187.08333
2039.327	185.08333
2042.038	175.41667
2044.748	183.75
2047.456	188.75
2050.162	170.41667
2052.866	177.75
2055.568	200.75
2058.268	176.41667
2060.967	185.75
2063.663	170.08333
2066.358	175.41667
2069.051	176.75
2071.742	177.75
2074.431	190.08333
2077.118	183.41667
2079.804	168.75
2082.487	175.41667
2085.169	186.41667
2087.849	199.75
2090.527	176.08333
2093.203	176.41667
2095.877	176.41667
2098.55	182.08333
2101.22	187.41667
2103.889	190.75
2106.556	177.75
2109.221	192.08333
2111.884	189.75
2114.546	206.41667
2117.205	209.08333
2119.863	236.75
2122.519	225.41667
2125.173	237.75
2127.825	273.41667
2130.475	280.75
2133.124	249.41667
2135.771	238.75
2138.416	256.41667
2141.059	222.75
2143.7	227.41667
2146.339	205.75
2148.977	191.41667
2151.613	200.75
2154.247	193.75
2156.879	190.41667
2159.51	173.41667
2162.138	180.41667
2164.765	176.41667
2167.39	167.41667
2170.013	193.08333
2172.634	185.08333
2175.254	178.75
2177.872	207.41667
2180.488	165.75
2183.102	173.41667
2185.714	164.75
2188.325	164.41667
2190.934	169.41667
2193.541	171.08333
2196.146	166.41667
2198.75	154.75
2201.351	158.75
2203.951	149.75
2206.549	162.08333
2209.146	163.41667
2211.74	152.08333
2214.333	165.75
2216.924	151.08333
2219.514	157.08333
2222.101	148.08333
2224.687	168.08333
2227.271	142.41667
2229.853	151.41667
2232.433	137.75
2235.012	157.41667
2237.589	156.08333
2240.164	163.41667
2242.738	138.41667
2245.309	141.08333
2247.879	165.41667
2250.448	157.75
2253.014	141.41667
2255.579	143.75
2258.142	143.08333
2260.703	139.41667
2263.262	137.75
2265.82	140.08333
2268.376	153.41667
2270.93	142.08333
2273.483	134.41667
2276.033	147.75
2278.583	134.08333
2281.13	138.08333
2283.675	135.75
2286.219	139.41667
2288.761	144.75
2291.302	143.08333
2293.841	154.08333
2296.377	135.08333
2298.913	144.41667
2301.446	153.08333
2303.978	142.08333
2306.508	134.08333
2309.037	139.75
2311.563	138.41667
2314.088	136.75
2316.612	130.08333
2319.133	140.41667
2321.653	137.08333
2324.171	132.41667
2326.688	149.75
2329.202	136.08333
2331.715	143.08333
2334.227	139.08333
2336.736	138.08333
2339.244	131.75
2341.751	122.75
2344.255	142.75
2346.758	136.41667
2349.259	126.41667
2351.759	139.41667
2354.257	125.08333
2356.753	126.41667
2359.247	125.08333
2361.74	126.08333
2364.231	131.75
2366.721	136.75
2369.209	126.75
2371.695	129.08333
2374.179	123.75
2376.662	118.75
2379.143	139.41667
2381.622	129.08333
2384.1	130.75
2386.576	122.41667
2389.051	140.75
2391.524	140.41667
2393.995	137.08333
2396.464	123.08333
2398.932	125.08333
2401.398	130.41667
2403.863	118.75
2406.325	125.75
2408.787	132.75
2411.246	128.08333
2413.704	125.75
2416.16	120.41667
2418.615	122.75
2421.068	126.41667
2423.519	125.41667
2425.969	113.75
2428.417	131.75
2430.863	149.75
2433.308	138.08333
2435.751	129.75
2438.193	132.75
2440.633	128.41667
2443.071	133.08333
2445.508	121.08333
2447.943	127.08333
2450.376	123.75
2452.808	134.41667
2455.238	115.75
2457.667	146.75
2460.093	117.41667
2462.519	111.08333
2464.942	113.08333
2467.365	126.08333
2469.785	132.75
2472.204	119.08333
2474.621	119.75
2477.037	136.41667
2479.451	109.41667
2481.863	112.08333
2484.274	116.75
2486.683	119.41667
2489.091	129.75
2491.497	125.41667
2493.901	128.75
2496.304	115.41667
2498.705	133.75
2501.105	121.08333
2503.503	138.08333
2505.899	112.75
2508.294	136.08333
2510.687	115.41667
2513.079	118.41667
2515.469	114.75
2517.858	115.41667
2520.245	137.75
2522.63	118.75
2525.014	116.41667
2527.396	119.75
2529.776	115.75
2532.156	124.75
2534.533	107.41667
2536.909	106.08333
2539.283	100.08333
2541.656	112.75
2544.027	132.41667
2546.397	124.41667
2548.765	111.41667
2551.131	111.75
2553.496	119.08333
2555.86	121.41667
2558.221	127.41667
2560.582	108.75
2562.94	105.08333
2565.298	117.75
2567.653	130.08333
2570.007	105.41667
2572.36	119.08333
2574.711	105.41667
2577.06	129.41667
2579.408	117.41667
2581.754	110.41667
2584.099	112.75
2586.442	113.08333
2588.784	113.41667
2591.124	121.41667
2593.463	110.41667
2595.8	120.75
2598.135	103.41667
2600.469	107.08333
2602.802	127.08333
2605.133	123.41667
2607.462	110.08333
2609.79	102.75
2612.116	120.08333
2614.441	114.75
2616.764	114.75
2619.086	115.41667
2621.406	110.75
2623.725	120.75
2626.042	113.75
2628.358	106.75
2630.672	118.08333
2632.985	124.75
2635.296	114.41667
2637.606	115.75
2639.914	108.41667
2642.22	111.41667
2644.525	114.75
2646.829	119.08333
2649.131	126.75
2651.432	123.41667
2653.731	111.75
2656.028	128.08333
2658.324	120.41667
2660.619	107.08333
2662.912	123.08333
2665.204	101.08333
2667.494	124.41667
2669.782	106.08333
2672.07	121.08333
2674.355	126.08333
2676.639	119.41667
2678.922	115.41667
2681.203	116.41667
2683.483	113.41667
2685.761	105.75
2688.038	127.08333
2690.313	129.75
2692.587	115.75
2694.859	112.08333
2697.13	114.75
2699.399	119.75
2701.667	121.41667
2703.933	119.75
2706.198	128.75
2708.461	127.41667
2710.723	124.08333
2712.984	116.41667
2715.243	127.41667
2717.5	115.41667
2719.757	131.41667
2722.011	121.75
2724.264	127.08333
2726.516	132.41667
2728.766	118.08333
2731.015	125.75
2733.262	117.41667
2735.508	120.41667
2737.753	125.41667
2739.996	114.75
2742.237	112.41667
2744.477	125.41667
2746.716	133.75
2748.953	127.08333
2751.189	136.08333
2753.423	125.41667
2755.656	117.08333
2757.887	117.41667
2760.117	114.75
2762.346	114.41667
2764.573	107.08333
2766.798	113.08333
2769.022	115.08333
2771.245	108.41667
2773.467	115.75
2775.686	112.08333
2777.905	117.41667
2780.122	111.41667
2782.337	119.75
2784.552	113.75
2786.764	119.08333
2788.976	108.41667
2791.186	120.08333
2793.394	118.08333
2795.601	128.08333
2797.807	131.08333
2800.011	121.41667
2802.214	127.41667
2804.415	120.08333
2806.615	121.75
2808.814	129.75
2811.011	134.08333
2813.206	132.08333
2815.401	139.08333
2817.594	138.08333
2819.785	144.41667
2821.975	128.08333
2824.164	130.75
2826.351	123.08333
2828.537	141.08333
2830.722	141.41667
2832.905	132.75
2835.086	141.08333
2837.267	160.41667
2839.445	159.08333
2841.623	146.41667
2843.799	159.08333
2845.974	159.08333
2848.147	157.75
2850.319	167.75
2852.489	180.41667
2854.659	178.41667
2856.826	183.08333
2858.993	191.75
2861.158	177.75
2863.321	180.41667
2865.483	200.75
2867.644	187.75
2869.804	185.08333
2871.962	187.08333
2874.118	188.75
2876.274	191.75
2878.428	183.08333
2880.58	187.75
2882.731	175.41667
2884.881	186.08333
2887.03	192.08333
2889.177	193.75
2891.322	197.75
2893.467	181.75
2895.61	185.41667
2897.751	203.41667
2899.892	185.75
2902.03	195.75
2904.168	185.75
2906.304	186.41667
2908.439	209.41667
2910.572	189.08333
2912.704	188.75
2914.835	200.75
2916.965	196.75
2919.093	221.41667
2921.219	179.41667
2923.345	213.08333
2925.469	197.75
2927.591	198.41667
2929.712	182.41667
2931.832	199.08333
2933.951	191.41667
2936.068	184.75
2938.184	183.75
2940.299	179.08333
2942.412	177.41667
2944.524	155.75
2946.634	170.08333
2948.744	152.75
2950.851	185.41667
2952.958	152.41667
2955.063	161.75
2957.167	152.75
2959.269	141.08333
2961.371	173.75
2963.471	146.41667
2965.569	161.08333
2967.666	138.75
2969.762	135.41667
2971.857	134.75
2973.95	131.08333
2976.042	137.41667
2978.133	137.08333
2980.222	132.08333
2982.31	124.41667
2984.396	112.75
2986.482	118.75
2988.566	121.75
2990.648	117.75
2992.73	119.75
2994.81	106.08333
2996.889	127.08333
2998.966	120.41667
3001.042	129.75
3003.117	111.41667
3005.191	117.75
3007.263	125.08333
3009.334	116.08333
3011.403	119.75
3013.472	111.75
3015.539	128.41667
3017.604	142.75
3019.669	106.75
3021.732	111.41667
3023.794	113.08333
3025.854	106.75
3027.914	103.41667
3029.971	107.08333
3032.028	110.41667
3034.083	115.08333
3036.137	110.41667
3038.19	98.08333
3040.242	94.08333
3042.292	93.75
3044.341	104.41667
3046.388	116.08333
3048.435	89.41667
3050.48	113.08333
3052.524	100.08333
3054.566	87.08333
3056.607	97.75
3058.647	95.08333
3060.686	83.41667
3062.723	79.75
3064.759	82.08333
3066.794	-0.58333
3068.828	0.08333
3070.86	2.75
