-0.839	122.16667
3.438	135.83333
7.711	59.16667
11.981	43.83333
16.247	29.83333
20.509	35.5
24.768	31.83333
29.024	43.5
33.276	29.5
37.524	38.16667
41.769	28.83333
46.01	27.16667
50.247	41.83333
54.481	48.83333
58.712	54.16667
62.939	35.83333
67.162	46.5
71.382	44.5
75.599	35.16667
79.812	42.16667
84.021	57.5
88.227	39.16667
92.429	46.5
96.628	35.83333
100.823	49.16667
105.015	44.83333
109.204	44.5
113.388	54.5
117.57	34.83333
121.748	55.16667
125.922	45.83333
130.093	59.16667
134.261	61.83333
138.425	45.83333
142.585	77.83333
146.742	59.16667
150.896	66.5
155.046	57.83333
159.193	85.83333
163.336	121.83333
167.476	202.83333
171.613	353.83333
175.746	559.83333
179.875	823.83333
184.002	1037.16667
188.124	1226.83333
192.244	1281.16667
196.36	1263.83333
200.472	1257.83333
204.581	1240.83333
208.687	1175.16667
212.79	1175.5
216.889	1190.5
220.984	1199.83333
225.077	1208.5
229.165	1198.5
233.251	1210.16667
237.333	1212.16667
241.412	1181.16667
245.487	1191.5
249.559	1172.83333
253.628	1183.5
257.694	1158.16667
261.756	1176.5
265.814	1138.16667
269.87	1088.83333
273.922	1068.83333
277.97	1054.83333
282.016	1060.16667
286.058	1035.83333
290.097	1063.83333
294.132	1068.83333
298.164	1051.5
302.193	1025.83333
306.219	971.83333
310.241	908.83333
314.26	845.5
318.276	789.16667
322.288	774.16667
326.297	749.5
330.303	722.16667
334.305	714.5
338.305	696.16667
342.301	697.16667
346.294	694.16667
350.283	690.83333
354.269	679.5
358.252	676.16667
362.232	680.83333
366.209	670.83333
370.182	668.83333
374.152	657.83333
378.119	671.16667
382.083	658.83333
386.043	677.16667
390	661.5
393.954	679.5
397.905	671.83333
401.852	683.83333
405.797	659.5
409.738	678.16667
413.676	707.16667
417.61	715.5
421.542	677.83333
425.47	648.5
429.396	646.16667
433.318	627.5
437.236	642.83333
441.152	673.83333
445.065	631.83333
448.974	645.83333
452.88	634.16667
456.783	626.83333
460.683	627.16667
464.58	624.16667
468.473	638.5
472.364	628.83333
476.251	623.83333
480.135	632.5
484.016	640.16667
487.894	645.5
491.769	646.16667
495.641	651.83333
499.509	649.83333
503.375	658.16667
507.237	648.5
511.096	674.16667
514.952	690.16667
518.805	730.83333
522.655	740.5
526.502	693.83333
530.346	657.5
534.187	650.16667
538.024	649.83333
541.859	635.5
545.69	658.5
549.519	643.83333
553.344	635.83333
557.166	626.16667
560.985	633.83333
564.802	625.83333
568.615	631.16667
572.425	603.16667
576.232	619.16667
580.036	603.5
583.836	614.5
587.634	621.5
591.429	617.5
595.221	642.5
599.01	629.5
602.796	626.83333
606.578	631.83333
610.358	626.5
614.135	612.83333
617.909	625.83333
621.679	615.5
625.447	607.16667
629.212	614.5
632.973	605.5
636.732	612.5
640.488	624.5
644.241	603.16667
647.991	607.83333
651.737	640.5
655.481	596.16667
659.222	607.16667
662.96	608.16667
666.695	614.83333
670.427	621.83333
674.156	617.16667
677.882	621.83333
681.605	620.16667
685.325	603.5
689.043	625.5
692.757	603.83333
696.468	613.83333
700.177	613.83333
703.882	596.16667
707.585	601.83333
711.284	611.16667
714.981	583.83333
718.675	593.5
722.366	605.83333
726.054	591.83333
729.739	593.16667
733.421	598.16667
737.1	591.5
740.777	604.5
744.45	595.16667
748.121	594.16667
751.789	630.16667
755.453	607.83333
759.115	609.83333
762.774	604.5
766.431	610.5
770.084	614.83333
773.734	597.83333
777.382	645.16667
781.027	629.16667
784.669	610.5
788.308	628.16667
791.944	643.83333
795.577	645.83333
799.208	653.83333
802.835	639.83333
806.46	657.83333
810.082	642.5
813.701	646.83333
817.317	667.16667
820.931	656.5
824.542	665.16667
828.149	640.16667
831.754	634.16667
835.357	636.83333
838.956	649.5
842.553	638.16667
846.146	630.5
849.737	616.5
853.326	639.83333
856.911	613.16667
860.493	647.5
864.073	639.83333
867.65	661.16667
871.225	661.16667
874.796	639.83333
878.365	636.16667
881.931	661.83333
885.494	663.16667
889.054	652.83333
892.612	670.5
896.166	658.16667
899.719	644.16667
903.268	636.5
906.814	630.83333
910.358	619.5
913.899	607.16667
917.438	617.16667
920.973	590.5
924.506	603.16667
928.036	620.16667
931.564	620.83333
935.088	643.5
938.61	622.16667
942.129	624.16667
945.646	644.16667
949.16	642.83333
952.671	652.16667
956.179	659.83333
959.685	646.5
963.188	658.83333
966.688	649.16667
970.185	622.83333
973.68	608.83333
977.173	620.16667
980.662	598.16667
984.149	590.83333
987.633	586.83333
991.114	601.83333
994.593	612.16667
998.069	609.5
1001.542	647.5
1005.013	636.16667
1008.481	589.16667
1011.947	575.5
1015.409	576.83333
1018.869	587.16667
1022.327	598.16667
1025.782	581.16667
1029.234	572.5
1032.683	572.5
1036.13	563.5
1039.574	538.16667
1043.016	523.83333
1046.455	532.5
1049.891	518.16667
1053.325	527.16667
1056.756	515.5
1060.184	515.16667
1063.61	495.5
1067.033	508.16667
1070.454	508.83333
1073.872	533.16667
1077.287	518.5
1080.7	510.83333
1084.11	508.83333
1087.517	511.16667
1090.922	517.16667
1094.325	495.83333
1097.724	499.16667
1101.122	495.5
1104.516	506.16667
1107.908	486.83333
1111.298	505.83333
1114.684	498.83333
1118.069	500.5
1121.45	531.5
1124.83	498.16667
1128.206	512.16667
1131.58	506.83333
1134.951	531.83333
1138.32	532.83333
1141.687	556.83333
1145.05	569.83333
1148.412	563.83333
1151.77	548.5
1155.126	562.5
1158.48	554.5
1161.831	554.5
1165.18	552.16667
1168.525	561.83333
1171.869	568.5
1175.21	562.5
1178.548	575.83333
1181.884	581.16667
1185.217	574.16667
1188.548	602.16667
1191.877	597.5
1195.202	640.83333
1198.526	648.16667
1201.846	643.5
1205.165	646.16667
1208.48	636.5
1211.794	649.83333
1215.104	655.16667
1218.413	643.5
1221.719	643.5
1225.022	616.83333
1228.323	622.5
1231.621	626.83333
1234.917	623.83333
1238.21	635.16667
1241.501	622.83333
1244.79	600.5
1248.076	603.83333
1251.359	611.5
1254.64	649.83333
1257.919	627.5
1261.195	641.5
1264.468	650.5
1267.74	646.5
1271.008	643.16667
1274.275	646.83333
1277.538	639.16667
1280.8	633.16667
1284.059	636.16667
1287.315	645.5
1290.569	647.16667
1293.821	660.83333
1297.07	662.83333
1300.317	663.16667
1303.562	672.83333
1306.803	653.83333
1310.043	664.5
1313.28	654.5
1316.515	647.5
1319.747	653.5
1322.977	650.5
1326.204	640.83333
1329.429	633.83333
1332.652	643.5
1335.872	640.16667
1339.09	630.16667
1342.306	635.16667
1345.519	628.5
1348.729	606.83333
1351.938	624.83333
1355.144	605.16667
1358.347	603.5
1361.548	622.16667
1364.747	603.16667
1367.944	589.16667
1371.138	590.83333
1374.329	582.16667
1377.518	602.16667
1380.705	597.5
1383.89	601.16667
1387.072	584.16667
1390.252	560.5
1393.429	560.16667
1396.605	552.83333
1399.777	518.83333
1402.948	526.5
1406.116	514.83333
1409.282	519.5
1412.445	523.5
1415.606	526.5
1418.765	527.83333
1421.921	543.16667
1425.075	535.5
1428.227	544.5
1431.376	569.16667
1434.524	586.16667
1437.668	599.16667
1440.811	589.16667
1443.951	613.16667
1447.089	617.83333
1450.224	605.83333
1453.357	596.5
1456.488	604.5
1459.617	594.5
1462.743	579.83333
1465.867	562.83333
1468.989	574.83333
1472.108	554.5
1475.225	543.5
1478.34	542.16667
1481.453	543.83333
1484.563	528.83333
1487.671	550.16667
1490.776	563.83333
1493.88	549.5
1496.981	559.83333
1500.08	564.5
1503.176	554.5
1506.271	569.83333
1509.363	581.5
1512.452	571.16667
1515.54	580.16667
1518.625	586.83333
1521.708	614.83333
1524.789	623.16667
1527.867	626.16667
1530.944	666.83333
1534.018	670.16667
1537.089	713.83333
1540.159	727.5
1543.226	726.5
1546.291	697.83333
1549.354	701.83333
1552.415	690.83333
1555.473	681.5
1558.529	661.16667
1561.583	658.5
1564.634	658.16667
1567.684	646.5
1570.731	643.83333
1573.776	665.16667
1576.819	664.16667
1579.859	657.5
1582.898	669.5
1585.934	680.16667
1588.968	687.16667
1591.999	667.16667
1595.029	669.16667
1598.056	682.83333
1601.081	694.5
1604.104	688.16667
1607.125	675.5
1610.144	664.83333
1613.16	646.16667
1616.174	624.83333
1619.186	619.16667
1622.196	618.83333
1625.203	587.83333
1628.209	604.16667
1631.212	600.5
1634.213	597.83333
1637.212	616.16667
1640.209	605.5
1643.203	575.16667
1646.196	560.5
1649.186	537.5
1652.174	540.83333
1655.16	521.16667
1658.144	520.83333
1661.125	485.16667
1664.105	478.83333
1667.082	451.16667
1670.057	434.16667
1673.03	404.83333
1676.001	391.83333
1678.97	359.5
1681.937	355.16667
1684.901	334.83333
1687.863	341.5
1690.824	317.83333
1693.782	332.16667
1696.738	306.5
1699.692	303.16667
1702.643	284.83333
1705.593	298.16667
1708.54	286.5
1711.486	294.83333
1714.429	279.16667
1717.37	298.83333
1720.309	274.16667
1723.246	286.5
1726.181	265.5
1729.113	273.83333
1732.044	278.83333
1734.972	271.5
1737.899	285.5
1740.823	278.5
1743.745	304.83333
1746.665	268.83333
1749.583	264.5
1752.499	250.16667
1755.413	257.83333
1758.325	240.5
1761.235	259.16667
1764.142	242.83333
1767.048	239.5
1769.951	241.83333
1772.852	241.16667
1775.752	265.83333
1778.649	256.83333
1781.544	268.5
1784.437	236.16667
1787.328	245.83333
1790.217	241.5
1793.104	216.83333
1795.989	235.83333
1798.872	223.5
1801.753	243.16667
1804.631	233.5
1807.508	243.16667
1810.383	234.5
1813.255	233.16667
1816.126	227.16667
1818.994	223.16667
1821.861	228.5
1824.725	229.5
1827.587	230.5
1830.448	231.83333
1833.306	220.5
1836.162	233.5
1839.017	227.16667
1841.869	223.83333
1844.719	221.5
1847.567	208.5
1850.414	203.83333
1853.258	201.83333
1856.1	224.16667
1858.94	228.16667
1861.778	216.16667
1864.614	212.83333
1867.448	218.5
1870.28	203.83333
1873.111	229.83333
1875.939	215.83333
1878.765	228.83333
1881.589	211.16667
1884.411	213.5
1887.231	224.5
1890.049	219.16667
1892.865	224.5
1895.68	213.83333
1898.492	221.5
1901.302	211.16667
1904.11	213.16667
1906.916	215.16667
1909.721	203.16667
1912.523	220.16667
1915.323	203.5
1918.122	203.83333
1920.918	221.83333
1923.712	198.16667
1926.505	210.16667
1929.295	194.5
1932.084	216.16667
1934.87	208.5
1937.655	204.16667
1940.438	196.5
1943.218	198.83333
1945.997	209.5
1948.774	214.16667
1951.549	211.83333
1954.322	196.16667
1957.093	194.83333
1959.862	196.5
1962.629	198.16667
1965.394	203.5
1968.157	181.5
1970.918	209.5
1973.678	190.16667
1976.435	201.83333
1979.19	199.5
1981.944	189.83333
1984.696	188.5
1987.445	190.83333
1990.193	197.83333
1992.939	207.5
1995.683	196.83333
1998.425	179.16667
2001.165	212.5
2003.903	182.5
2006.639	196.16667
2009.374	191.83333
2012.106	190.83333
2014.837	173.5
2017.566	200.16667
2020.292	188.5
2023.017	189.16667
2025.74	180.16667
2028.461	172.5
2031.18	189.16667
2033.898	175.16667
2036.613	185.16667
2039.327	189.83333
2042.038	180.16667
2044.748	189.16667
2047.456	183.83333
2050.162	177.83333
2052.866	179.5
2055.568	197.83333
2058.268	176.83333
2060.967	194.16667
2063.663	181.16667
2066.358	181.5
2069.051	176.16667
2071.742	179.5
2074.431	194.16667
2077.118	182.5
2079.804	168.83333
2082.487	178.83333
2085.169	187.16667
2087.849	205.5
2090.527	174.5
2093.203	185.5
2095.877	182.83333
2098.55	180.16667
2101.22	188.5
2103.889	192.5
2106.556	181.5
2109.221	194.83333
2111.884	181.16667
2114.546	200.16667
2117.205	198.16667
2119.863	226.83333
2122.519	209.16667
2125.173	222.16667
2127.825	250.16667
2130.475	243.16667
2133.124	226.83333
2135.771	219.83333
2138.416	238.5
2141.059	213.5
2143.7	218.83333
2146.339	199.83333
2148.977	181.16667
2151.613	196.83333
2154.247	197.5
2156.879	190.5
2159.51	182.5
2162.138	180.5
2164.765	180.5
2167.39	168.83333
2170.013	193.83333
2172.634	185.16667
2175.254	176.5
2177.872	216.5
2180.488	173.5
2183.102	172.5
2185.714	177.16667
2188.325	165.83333
2190.934	176.5
2193.541	180.83333
2196.146	177.16667
2198.75	159.83333
2201.351	166.83333
2203.951	154.5
2206.549	175.5
2209.146	162.5
2211.74	162.5
2214.333	173.5
2216.924	158.16667
2219.514	159.83333
2222.101	159.16667
2224.687	180.5
2227.271	158.83333
2229.853	160.83333
2232.433	146.16667
2235.012	175.83333
2237.589	165.16667
2240.164	174.83333
2242.738	164.16667
2245.309	150.83333
2247.879	173.83333
2250.448	169.5
2253.014	157.5
2255.579	146.16667
2258.142	155.83333
2260.703	161.16667
2263.262	156.83333
2265.82	150.83333
2268.376	171.83333
2270.93	153.83333
2273.483	143.16667
2276.033	161.5
2278.583	148.5
2281.13	153.16667
2283.675	146.16667
2286.219	152.5
2288.761	155.5
2291.302	164.83333
2293.841	164.16667
2296.377	142.83333
2298.913	158.5
2301.446	168.16667
2303.978	155.16667
2306.508	150.83333
2309.037	157.5
2311.563	153.83333
2314.088	158.5
2316.612	145.16667
2319.133	156.83333
2321.653	155.16667
2324.171	150.5
2326.688	165.16667
2329.202	154.5
2331.715	154.5
2334.227	152.83333
2336.736	152.83333
2339.244	147.16667
2341.751	142.5
2344.255	163.83333
2346.758	157.83333
2349.259	141.5
2351.759	157.5
2354.257	148.83333
2356.753	142.83333
2359.247	140.5
2361.74	147.5
2364.231	144.83333
2366.721	157.16667
2369.209	144.83333
2371.695	148.5
2374.179	137.5
2376.662	137.16667
2379.143	162.5
2381.622	152.83333
2384.1	159.83333
2386.576	148.5
2389.051	166.5
2391.524	160.83333
2393.995	161.16667
2396.464	149.5
2398.932	140.83333
2401.398	148.83333
2403.863	145.5
2406.325	143.5
2408.787	154.16667
2411.246	153.16667
2413.704	147.83333
2416.16	139.83333
2418.615	148.5
2421.068	155.5
2423.519	152.5
2425.969	141.16667
2428.417	159.83333
2430.863	170.16667
2433.308	160.16667
2435.751	152.83333
2438.193	154.16667
2440.633	153.83333
2443.071	156.83333
2445.508	151.5
2447.943	148.5
2450.376	148.5
2452.808	153.83333
2455.238	141.83333
2457.667	178.83333
2460.093	146.16667
2462.519	138.16667
2464.942	152.5
2467.365	152.83333
2469.785	158.5
2472.204	149.16667
2474.621	149.16667
2477.037	168.5
2479.451	144.5
2481.863	138.16667
2484.274	147.5
2486.683	150.5
2489.091	160.16667
2491.497	151.5
2493.901	154.5
2496.304	149.5
2498.705	158.16667
2501.105	158.83333
2503.503	171.16667
2505.899	149.16667
2508.294	173.5
2510.687	149.5
2513.079	148.16667
2515.469	145.5
2517.858	152.16667
2520.245	164.5
2522.63	154.5
2525.014	150.83333
2527.396	149.83333
2529.776	148.83333
2532.156	158.16667
2534.533	143.83333
2536.909	142.83333
2539.283	134.16667
2541.656	148.5
2544.027	166.16667
2546.397	156.16667
2548.765	149.5
2551.131	158.16667
2553.496	157.5
2555.86	157.5
2558.221	163.16667
2560.582	153.5
2562.94	154.83333
2565.298	150.83333
2567.653	172.5
2570.007	145.5
2572.36	163.5
2574.711	146.5
2577.06	168.83333
2579.408	160.5
2581.754	154.83333
2584.099	152.5
2586.442	155.5
2588.784	163.5
2591.124	164.16667
2593.463	159.83333
2595.8	169.83333
2598.135	149.16667
2600.469	154.83333
2602.802	168.83333
2605.133	172.5
2607.462	160.5
2609.79	151.83333
2612.116	169.16667
2614.441	157.16667
2616.764	165.83333
2619.086	163.83333
2621.406	158.83333
2623.725	165.83333
2626.042	160.83333
2628.358	150.5
2630.672	167.16667
2632.985	174.5
2635.296	172.83333
2637.606	161.5
2639.914	156.5
2642.22	161.16667
2644.525	162.16667
2646.829	162.5
2649.131	179.83333
2651.432	174.5
2653.731	164.5
2656.028	180.83333
2658.324	175.5
2660.619	158.5
2662.912	170.5
2665.204	156.16667
2667.494	170.5
2669.782	159.83333
2672.07	177.16667
2674.355	185.5
2676.639	177.5
2678.922	172.83333
2681.203	176.16667
2683.483	167.5
2685.761	164.83333
2688.038	179.16667
2690.313	189.83333
2692.587	174.5
2694.859	171.16667
2697.13	171.5
2699.399	180.83333
2701.667	177.83333
2703.933	180.5
2706.198	188.5
2708.461	188.16667
2710.723	187.83333
2712.984	181.16667
2715.243	186.5
2717.5	175.83333
2719.757	183.5
2722.011	180.5
2724.264	189.5
2726.516	199.83333
2728.766	176.83333
2731.015	183.5
2733.262	184.83333
2735.508	180.5
2737.753	191.5
2739.996	180.16667
2742.237	170.16667
2744.477	197.16667
2746.716	192.16667
2748.953	197.5
2751.189	198.16667
2753.423	195.16667
2755.656	183.16667
2757.887	178.16667
2760.117	181.83333
2762.346	181.83333
2764.573	170.5
2766.798	179.5
2769.022	186.5
2771.245	180.5
2773.467	181.16667
2775.686	177.83333
2777.905	184.83333
2780.122	181.83333
2782.337	190.83333
2784.552	184.16667
2786.764	186.5
2788.976	178.5
2791.186	183.16667
2793.394	187.83333
2795.601	196.83333
2797.807	190.83333
2800.011	190.83333
2802.214	202.5
2804.415	193.83333
2806.615	196.5
2808.814	195.5
2811.011	203.83333
2813.206	199.5
2815.401	210.83333
2817.594	206.16667
2819.785	203.83333
2821.975	196.16667
2824.164	205.16667
2826.351	200.16667
2828.537	211.5
2830.722	210.16667
2832.905	205.83333
2835.086	213.16667
2837.267	230.5
2839.445	224.16667
2841.623	227.83333
2843.799	222.5
2845.974	231.83333
2848.147	237.16667
2850.319	240.5
2852.489	243.83333
2854.659	252.83333
2856.826	244.83333
2858.993	269.16667
2861.158	246.5
2863.321	245.16667
2865.483	267.83333
2867.644	265.5
2869.804	260.16667
2871.962	253.83333
2874.118	266.5
2876.274	262.83333
2878.428	266.16667
2880.58	265.16667
2882.731	248.83333
2884.881	259.83333
2887.03	263.83333
2889.177	258.5
2891.322	263.5
2893.467	254.16667
2895.61	263.16667
2897.751	271.83333
2899.892	259.16667
2902.03	265.83333
2904.168	260.5
2906.304	266.5
2908.439	283.16667
2910.572	263.83333
2912.704	270.5
2914.835	276.83333
2916.965	269.16667
2919.093	292.16667
2921.219	260.16667
2923.345	287.83333
2925.469	268.5
2927.591	269.16667
2929.712	257.83333
2931.832	273.5
2933.951	264.5
2936.068	262.83333
2938.184	264.16667
2940.299	260.83333
2942.412	259.5
2944.524	241.16667
2946.634	257.16667
2948.744	228.16667
2950.851	270.5
2952.958	233.83333
2955.063	248.83333
2957.167	243.5
2959.269	229.5
2961.371	264.16667
2963.471	240.83333
2965.569	255.5
2967.666	235.16667
2969.762	228.5
2971.857	232.83333
2973.95	223.5
2976.042	236.83333
2978.133	227.16667
2980.222	227.83333
2982.31	210.83333
2984.396	201.5
2986.482	207.83333
2988.566	207.83333
2990.648	209.16667
2992.73	215.83333
2994.81	200.83333
2996.889	214.16667
2998.966	206.83333
3001.042	224.16667
3003.117	207.5
3005.191	219.5
3007.263	226.16667
3009.334	214.5
3011.403	211.16667
3013.472	209.5
3015.539	218.16667
3017.604	230.83333
3019.669	198.16667
3021.732	201.5
3023.794	205.16667
3025.854	197.83333
3027.914	200.5
3029.971	198.5
3032.028	196.5
3034.083	204.5
3036.137	205.16667
3038.19	188.16667
3040.242	177.83333
3042.292	177.83333
3044.341	190.16667
3046.388	197.83333
3048.435	177.83333
3050.48	197.5
3052.524	183.83333
3054.566	174.5
3056.607	181.5
3058.647	180.16667
3060.686	163.83333
3062.723	157.16667
3064.759	156.5
3066.794	1.5
3068.828	-0.5
3070.86	2.5
