-0.839	127.33333
3.438	149.33333
7.711	59.66667
11.981	39.66667
16.247	32
20.509	33
24.768	37
29.024	41
33.276	32.33333
37.524	42
41.769	28.33333
46.01	28.33333
50.247	43.33333
54.481	51.33333
58.712	51.66667
62.939	31
67.162	48.33333
71.382	43.33333
75.599	35.66667
79.812	46.66667
84.021	59.66667
88.227	42.33333
92.429	52.33333
96.628	37
100.823	53.33333
105.015	50.33333
109.204	44
113.388	55.33333
117.57	41.66667
121.748	56.33333
125.922	44.33333
130.093	61
134.261	65
138.425	52.33333
142.585	84.66667
146.742	61.66667
150.896	72.66667
155.046	68
159.193	102.33333
163.336	138.66667
167.476	237.66667
171.613	422
175.746	682
179.875	983.33333
184.002	1269.66667
188.124	1505.66667
192.244	1573.33333
196.36	1567
200.472	1558.66667
204.581	1542.33333
208.687	1487.66667
212.79	1483
216.889	1511
220.984	1520
225.077	1523
229.165	1528.33333
233.251	1518
237.333	1521.66667
241.412	1491.33333
245.487	1501
249.559	1480.33333
253.628	1470
257.694	1459.66667
261.756	1449.66667
265.814	1416.66667
269.87	1379.33333
273.922	1343.66667
277.97	1322
282.016	1343
286.058	1307
290.097	1352.33333
294.132	1361.66667
298.164	1333.66667
302.193	1289.66667
306.219	1221.66667
310.241	1146.66667
314.26	1062
318.276	1017.66667
322.288	989
326.297	969
330.303	937.66667
334.305	941.33333
338.305	909
342.301	919.33333
346.294	911
350.283	913
354.269	906.66667
358.252	884.33333
362.232	902.66667
366.209	894.33333
370.182	878.66667
374.152	883.33333
378.119	882.33333
382.083	880
386.043	895
390	873.33333
393.954	899
397.905	896.33333
401.852	913
405.797	869.33333
409.738	906.66667
413.676	935
417.61	956
421.542	893
425.47	865
429.396	854.33333
433.318	843
437.236	842
441.152	872.66667
445.065	825.33333
448.974	852.66667
452.88	832.66667
456.783	823.66667
460.683	830
464.58	828.66667
468.473	829.33333
472.364	840.33333
476.251	821.66667
480.135	831
484.016	854
487.894	864.66667
491.769	848
495.641	863.66667
499.509	855
503.375	862.66667
507.237	861.33333
511.096	837.66667
514.952	840
518.805	857.33333
522.655	835
526.502	838
530.346	858
534.187	856.66667
538.024	845.66667
541.859	828.66667
545.69	873.66667
549.519	842
553.344	844.33333
557.166	830
560.985	828.33333
564.802	820.66667
568.615	824.33333
572.425	797.66667
576.232	797.33333
580.036	799
583.836	811.33333
587.634	799
591.429	805.66667
595.221	842.33333
599.01	819
602.796	813
606.578	825
610.358	824.33333
614.135	817
617.909	820.66667
621.679	814
625.447	805
629.212	807.66667
632.973	822.33333
636.732	807.66667
640.488	815
644.241	789.33333
647.991	792.66667
651.737	815.33333
655.481	788
659.222	803.33333
662.96	785
666.695	803
670.427	805
674.156	809.33333
677.882	818
681.605	797.33333
685.325	798.66667
689.043	816.33333
692.757	795.66667
696.468	797.66667
700.177	796
703.882	776
707.585	777.33333
711.284	787.33333
714.981	775.66667
718.675	787
722.366	783.66667
726.054	779.33333
729.739	777
733.421	784
737.1	776.66667
740.777	787.33333
744.45	786
748.121	785.66667
751.789	810.33333
755.453	804.33333
759.115	801.66667
762.774	796.33333
766.431	808.66667
770.084	824.33333
773.734	797.33333
777.382	825.66667
781.027	837.33333
784.669	819.66667
788.308	833.66667
791.944	830
795.577	834.33333
799.208	835.33333
802.835	832.33333
806.46	856.33333
810.082	849.66667
813.701	850.33333
817.317	855.33333
820.931	862.33333
824.542	858.33333
828.149	830
831.754	835.33333
835.357	837
838.956	848
842.553	840.66667
846.146	837.33333
849.737	812.33333
853.326	840.66667
856.911	804.66667
860.493	835.66667
864.073	844.66667
867.65	881
871.225	883.33333
874.796	845.66667
878.365	852
881.931	856
885.494	869.33333
889.054	860.33333
892.612	867.33333
896.166	871.33333
899.719	858.66667
903.268	830.33333
906.814	828.66667
910.358	823.66667
913.899	811
917.438	811.66667
920.973	787.33333
924.506	794.66667
928.036	822.66667
931.564	822
935.088	832.33333
938.61	816
942.129	816.33333
945.646	835
949.16	841.66667
952.671	850
956.179	855
959.685	835.33333
963.188	857.33333
966.688	841.33333
970.185	818.33333
973.68	802.66667
977.173	788
980.662	787
984.149	796.66667
987.633	767
991.114	784.66667
994.593	794.66667
998.069	813
1001.542	839.66667
1005.013	839.66667
1008.481	784.66667
1011.947	777
1015.409	754
1018.869	769
1022.327	773
1025.782	752.66667
1029.234	762.66667
1032.683	749.33333
1036.13	732
1039.574	697
1043.016	687.66667
1046.455	688.66667
1049.891	673.33333
1053.325	685.66667
1056.756	679.33333
1060.184	678
1063.61	664
1067.033	679.33333
1070.454	672.66667
1073.872	694.33333
1077.287	672.33333
1080.7	677
1084.11	668
1087.517	680
1090.922	672.66667
1094.325	661.66667
1097.724	654.33333
1101.122	650
1104.516	658.66667
1107.908	638.66667
1111.298	645.66667
1114.684	665.33333
1118.069	660.66667
1121.45	685.66667
1124.83	664
1128.206	675.33333
1131.58	685.66667
1134.951	709.33333
1138.32	705
1141.687	729.33333
1145.05	724.66667
1148.412	745
1151.77	739
1155.126	747
1158.48	729.66667
1161.831	753.33333
1165.18	730.33333
1168.525	748.66667
1171.869	746.66667
1175.21	745.66667
1178.548	759.33333
1181.884	771.33333
1185.217	771
1188.548	798.66667
1191.877	785.66667
1195.202	837.33333
1198.526	858.33333
1201.846	851
1205.165	854
1208.48	862.66667
1211.794	852
1215.104	848
1218.413	857.66667
1221.719	842.66667
1225.022	828.66667
1228.323	807.66667
1231.621	830.33333
1234.917	819
1238.21	839.33333
1241.501	808.66667
1244.79	806.33333
1248.076	798.66667
1251.359	821
1254.64	858.33333
1257.919	829.66667
1261.195	829.33333
1264.468	854
1267.74	853
1271.008	857
1274.275	872
1277.538	855.66667
1280.8	854.66667
1284.059	843.33333
1287.315	869
1290.569	862.66667
1293.821	866.33333
1297.07	867.66667
1300.317	874.66667
1303.562	888
1306.803	876.33333
1310.043	867.66667
1313.28	870.66667
1316.515	854
1319.747	870.66667
1322.977	852.66667
1326.204	851.66667
1329.429	849.66667
1332.652	857.66667
1335.872	846
1339.09	824.33333
1342.306	830
1345.519	809
1348.729	817.66667
1351.938	810.66667
1355.144	805
1358.347	796
1361.548	806
1364.747	804
1367.944	781
1371.138	790
1374.329	784
1377.518	788
1380.705	795.66667
1383.89	793
1387.072	768
1390.252	749.33333
1393.429	735.66667
1396.605	714.66667
1399.777	668
1402.948	690.33333
1406.116	677
1409.282	679.66667
1412.445	693.33333
1415.606	703.66667
1418.765	686.66667
1421.921	715.66667
1425.075	707
1428.227	720.66667
1431.376	764
1434.524	771
1437.668	782.33333
1440.811	788.33333
1443.951	799.33333
1447.089	801.66667
1450.224	808
1453.357	795.33333
1456.488	788
1459.617	785
1462.743	782
1465.867	728
1468.989	742.33333
1472.108	733
1475.225	706.33333
1478.34	703
1481.453	691.33333
1484.563	705
1487.671	711
1490.776	724
1493.88	725.66667
1496.981	736.66667
1500.08	743
1503.176	746.33333
1506.271	750.66667
1509.363	765.33333
1512.452	767
1515.54	782
1518.625	778.66667
1521.708	809.66667
1524.789	833.66667
1527.867	849
1530.944	888.33333
1534.018	911.66667
1537.089	959.66667
1540.159	974.33333
1543.226	966.33333
1546.291	944
1549.354	923.33333
1552.415	907.66667
1555.473	903
1558.529	887
1561.583	874.33333
1564.634	866.66667
1567.684	856.66667
1570.731	869.66667
1573.776	878.33333
1576.819	883.33333
1579.859	873.33333
1582.898	895
1585.934	900
1588.968	908
1591.999	897.66667
1595.029	891.66667
1598.056	912
1601.081	917
1604.104	914
1607.125	893.33333
1610.144	891.66667
1613.16	850.33333
1616.174	840.66667
1619.186	818.33333
1622.196	820
1625.203	785.33333
1628.209	791.33333
1631.212	771.66667
1634.213	777.33333
1637.212	778.33333
1640.209	775.33333
1643.203	741.66667
1646.196	725.66667
1649.186	691
1652.174	701
1655.16	674
1658.144	664
1661.125	632.33333
1664.105	611.33333
1667.082	593.66667
1670.057	563.66667
1673.03	527.33333
1676.001	502.33333
1678.97	475.33333
1681.937	458
1684.901	439
1687.863	428.66667
1690.824	400.33333
1693.782	410
1696.738	379.66667
1699.692	386.33333
1702.643	367
1705.593	377.33333
1708.54	372.33333
1711.486	375.33333
1714.429	357.33333
1717.37	365.66667
1720.309	352.66667
1723.246	361.66667
1726.181	343.33333
1729.113	341.33333
1732.044	349.33333
1734.972	346.66667
1737.899	348.66667
1740.823	359
1743.745	373.33333
1746.665	330
1749.583	321
1752.499	326
1755.413	315.33333
1758.325	303.33333
1761.235	317.33333
1764.142	309.66667
1767.048	306.33333
1769.951	306.66667
1772.852	301
1775.752	324
1778.649	327
1781.544	324.66667
1784.437	292.66667
1787.328	306
1790.217	297.33333
1793.104	281.33333
1795.989	291.33333
1798.872	272.66667
1801.753	301.33333
1804.631	284.66667
1807.508	294.66667
1810.383	282
1813.255	288.33333
1816.126	288.33333
1818.994	280
1821.861	275.33333
1824.725	290.66667
1827.587	284.66667
1830.448	280.33333
1833.306	270
1836.162	282.33333
1839.017	269.33333
1841.869	274
1844.719	270
1847.567	254.33333
1850.414	250
1853.258	255
1856.1	271.66667
1858.94	281.33333
1861.778	265.33333
1864.614	255.33333
1867.448	270.33333
1870.28	253.66667
1873.111	281.66667
1875.939	267.33333
1878.765	276
1881.589	256.33333
1884.411	258
1887.231	270.66667
1890.049	259
1892.865	271.66667
1895.68	247.66667
1898.492	259.33333
1901.302	257.33333
1904.11	257.66667
1906.916	257.66667
1909.721	249.33333
1912.523	262.33333
1915.323	250.33333
1918.122	242.66667
1920.918	259
1923.712	240.33333
1926.505	249
1929.295	237
1932.084	251.66667
1934.87	250.33333
1937.655	243.33333
1940.438	237.66667
1943.218	241.66667
1945.997	245
1948.774	246.66667
1951.549	254.66667
1954.322	243.33333
1957.093	243.33333
1959.862	239.33333
1962.629	239.33333
1965.394	233.33333
1968.157	230
1970.918	240
1973.678	222.33333
1976.435	244
1979.19	228.33333
1981.944	226
1984.696	231
1987.445	227.66667
1990.193	227.66667
1992.939	239.66667
1995.683	228.33333
1998.425	213.33333
2001.165	251.66667
2003.903	215
2006.639	222.66667
2009.374	228.66667
2012.106	228.66667
2014.837	205
2017.566	228.66667
2020.292	226
2023.017	215.33333
2025.74	216.33333
2028.461	211.66667
2031.18	218.66667
2033.898	213.66667
2036.613	214.33333
2039.327	217.33333
2042.038	210.33333
2044.748	221
2047.456	223.66667
2050.162	212.33333
2052.866	216.66667
2055.568	228.66667
2058.268	205.66667
2060.967	224.66667
2063.663	201
2066.358	207.66667
2069.051	199.66667
2071.742	213.66667
2074.431	215.66667
2077.118	210
2079.804	196.33333
2082.487	215.66667
2085.169	217.33333
2087.849	232
2090.527	200.33333
2093.203	210
2095.877	213.33333
2098.55	213
2101.22	222
2103.889	225.66667
2106.556	210.33333
2109.221	229.66667
2111.884	219.66667
2114.546	247
2117.205	250
2119.863	286.66667
2122.519	274
2125.173	293.33333
2127.825	331.33333
2130.475	329.66667
2133.124	305.66667
2135.771	289.66667
2138.416	295.66667
2141.059	270.33333
2143.7	271
2146.339	243.66667
2148.977	227.33333
2151.613	240
2154.247	231.33333
2156.879	222
2159.51	211
2162.138	216.33333
2164.765	207.66667
2167.39	201.33333
2170.013	218.66667
2172.634	215.66667
2175.254	200.66667
2177.872	234.33333
2180.488	196.66667
2183.102	195.33333
2185.714	200
2188.325	186
2190.934	191.66667
2193.541	199.33333
2196.146	189
2198.75	180.66667
2201.351	187.33333
2203.951	174.66667
2206.549	191.33333
2209.146	182.33333
2211.74	175.66667
2214.333	188.66667
2216.924	175.33333
2219.514	181
2222.101	174.33333
2224.687	194.33333
2227.271	168
2229.853	166.33333
2232.433	157
2235.012	180.33333
2237.589	179.66667
2240.164	184.33333
2242.738	168.66667
2245.309	167
2247.879	185
2250.448	179
2253.014	156.66667
2255.579	152.66667
2258.142	167.66667
2260.703	160.33333
2263.262	159.66667
2265.82	147.33333
2268.376	172.33333
2270.93	159
2273.483	152
2276.033	168
2278.583	155.66667
2281.13	156.66667
2283.675	148
2286.219	154
2288.761	157.33333
2291.302	167
2293.841	171.33333
2296.377	148
2298.913	162
2301.446	161.33333
2303.978	157
2306.508	153.66667
2309.037	157
2311.563	156
2314.088	156.33333
2316.612	141.33333
2319.133	159
2321.653	156
2324.171	148.66667
2326.688	159.33333
2329.202	155
2331.715	158.66667
2334.227	151
2336.736	146.66667
2339.244	148.66667
2341.751	136
2344.255	151.33333
2346.758	153
2349.259	134.33333
2351.759	153.66667
2354.257	142.66667
2356.753	138
2359.247	143.33333
2361.74	141.33333
2364.231	141
2366.721	154.66667
2369.209	137.33333
2371.695	137
2374.179	135.33333
2376.662	130
2379.143	155.33333
2381.622	142.33333
2384.1	147
2386.576	141.33333
2389.051	150.33333
2391.524	149
2393.995	146.66667
2396.464	135
2398.932	131
2401.398	141
2403.863	134.66667
2406.325	130.33333
2408.787	140
2411.246	138
2413.704	136
2416.16	135
2418.615	130.66667
2421.068	134.33333
2423.519	135.33333
2425.969	129.66667
2428.417	144
2430.863	159.33333
2433.308	141
2435.751	141.66667
2438.193	134.33333
2440.633	139.66667
2443.071	142.33333
2445.508	127.66667
2447.943	134
2450.376	124
2452.808	137.33333
2455.238	127
2457.667	159.33333
2460.093	124.66667
2462.519	121.33333
2464.942	118.66667
2467.365	129.66667
2469.785	137.66667
2472.204	122.33333
2474.621	125
2477.037	142
2479.451	121
2481.863	125
2484.274	119.33333
2486.683	126.33333
2489.091	136
2491.497	131.33333
2493.901	130.33333
2496.304	122.33333
2498.705	140
2501.105	123
2503.503	145.33333
2505.899	125
2508.294	141.66667
2510.687	121.66667
2513.079	121.66667
2515.469	121
2517.858	119.33333
2520.245	135.33333
2522.63	126.66667
2525.014	119
2527.396	113.33333
2529.776	121
2532.156	129
2534.533	111.33333
2536.909	117.66667
2539.283	103.33333
2541.656	114.33333
2544.027	133
2546.397	124.66667
2548.765	115
2551.131	119
2553.496	125.66667
2555.86	123.66667
2558.221	125
2560.582	115.33333
2562.94	110
2565.298	120.66667
2567.653	129
2570.007	108.33333
2572.36	124.66667
2574.711	108.66667
2577.06	129.66667
2579.408	115
2581.754	112.33333
2584.099	111.66667
2586.442	112
2588.784	121.33333
2591.124	111.66667
2593.463	112
2595.8	117.33333
2598.135	102.66667
2600.469	106.66667
2602.802	122
2605.133	127.66667
2607.462	105.66667
2609.79	104
2612.116	118
2614.441	114
2616.764	113.66667
2619.086	111
2621.406	110
2623.725	122.33333
2626.042	114.66667
2628.358	107.66667
2630.672	117
2632.985	118.33333
2635.296	117.66667
2637.606	112.66667
2639.914	102.66667
2642.22	108.66667
2644.525	107.33333
2646.829	116
2649.131	121.66667
2651.432	118.33333
2653.731	106
2656.028	122.33333
2658.324	115.66667
2660.619	97.66667
2662.912	119.66667
2665.204	100.66667
2667.494	113.66667
2669.782	106.66667
2672.07	121.66667
2674.355	119.66667
2676.639	120.33333
2678.922	110
2681.203	119.33333
2683.483	109
2685.761	103.33333
2688.038	120.33333
2690.313	128.66667
2692.587	118
2694.859	108
2697.13	111.33333
2699.399	113
2701.667	124.66667
2703.933	115
2706.198	120.33333
2708.461	121.66667
2710.723	122
2712.984	119.66667
2715.243	120.33333
2717.5	112.33333
2719.757	124.66667
2722.011	115.33333
2724.264	126
2726.516	132.66667
2728.766	111
2731.015	117.33333
2733.262	119.33333
2735.508	119.33333
2737.753	126
2739.996	106.33333
2742.237	106.66667
2744.477	119.33333
2746.716	127
2748.953	120
2751.189	125.66667
2753.423	120.33333
2755.656	109.66667
2757.887	103.33333
2760.117	108
2762.346	108.33333
2764.573	95
2766.798	100
2769.022	109.33333
2771.245	108.33333
2773.467	101.33333
2775.686	110.66667
2777.905	114.33333
2780.122	109.66667
2782.337	112.33333
2784.552	108
2786.764	108.66667
2788.976	107.66667
2791.186	108.33333
2793.394	113.66667
2795.601	118.66667
2797.807	120
2800.011	114
2802.214	129
2804.415	118
2806.615	115
2808.814	114.66667
2811.011	126.33333
2813.206	121.66667
2815.401	126
2817.594	133
2819.785	134.33333
2821.975	117.66667
2824.164	123
2826.351	122.66667
2828.537	136.66667
2830.722	133.66667
2832.905	135.66667
2835.086	137.66667
2837.267	154.66667
2839.445	147
2841.623	146.33333
2843.799	148.66667
2845.974	156.66667
2848.147	152.66667
2850.319	167.66667
2852.489	174.33333
2854.659	172.33333
2856.826	173
2858.993	192.33333
2861.158	172.66667
2863.321	178.33333
2865.483	200
2867.644	183.66667
2869.804	183.33333
2871.962	185
2874.118	190
2876.274	199
2878.428	192.66667
2880.58	193.33333
2882.731	182
2884.881	186.66667
2887.03	191
2889.177	185.33333
2891.322	194.33333
2893.467	183.33333
2895.61	177.33333
2897.751	203.33333
2899.892	181
2902.03	192.66667
2904.168	183
2906.304	186.33333
2908.439	203
2910.572	179
2912.704	192
2914.835	190.33333
2916.965	191.66667
2919.093	209.33333
2921.219	178.33333
2923.345	203.33333
2925.469	190
2927.591	185.33333
2929.712	175.66667
2931.832	186.33333
2933.951	184.33333
2936.068	176
2938.184	168
2940.299	167.66667
2942.412	164.33333
2944.524	153.33333
2946.634	154.66667
2948.744	139.66667
2950.851	169.66667
2952.958	141
2955.063	147
2957.167	145.33333
2959.269	131.33333
2961.371	160.66667
2963.471	132
2965.569	145
2967.666	120
2969.762	128
2971.857	120.66667
2973.95	115.66667
2976.042	127
2978.133	121
2980.222	120.33333
2982.31	106
2984.396	91
2986.482	99.66667
2988.566	107.66667
2990.648	104.33333
2992.73	104.66667
2994.81	88.66667
2996.889	104.33333
2998.966	99.33333
3001.042	113.33333
3003.117	96
3005.191	99.33333
3007.263	106
3009.334	102.33333
3011.403	103.66667
3013.472	91.66667
3015.539	113.33333
3017.604	116.33333
3019.669	87
3021.732	92.33333
3023.794	100.66667
3025.854	89.33333
3027.914	85
3029.971	83
3032.028	88.66667
3034.083	96.33333
3036.137	89.33333
3038.19	79
3040.242	76.33333
3042.292	74
3044.341	83.33333
3046.388	98
3048.435	79.33333
3050.48	95
3052.524	81
3054.566	69
3056.607	81.66667
3058.647	76.33333
3060.686	68.66667
3062.723	66
3064.759	67.66667
3066.794	0
3068.828	0
3070.86	3
