-0.839	104.375
3.438	121.375
7.711	53.375
11.981	42.04167
16.247	29.70833
20.509	33.70833
24.768	36.04167
29.024	43.04167
33.276	30.04167
37.524	39.375
41.769	30.70833
46.01	24.70833
50.247	42.375
54.481	51.04167
58.712	50.70833
62.939	36.375
67.162	51.70833
71.382	44.04167
75.599	34.70833
79.812	47.70833
84.021	62.70833
88.227	38.375
92.429	50.04167
96.628	34.375
100.823	46.04167
105.015	51.375
109.204	45.70833
113.388	55.375
117.57	40.70833
121.748	56.70833
125.922	43.70833
130.093	60.375
134.261	61.70833
138.425	49.70833
142.585	75.70833
146.742	59.04167
150.896	68.70833
155.046	60.375
159.193	87.375
163.336	118.375
167.476	195.70833
171.613	346.04167
175.746	559.375
179.875	811.04167
184.002	1041.70833
188.124	1261.375
192.244	1312.375
196.36	1324.04167
200.472	1331.375
204.581	1344.70833
208.687	1291.375
212.79	1299.04167
216.889	1327.70833
220.984	1360.375
225.077	1348.375
229.165	1377.70833
233.251	1363.70833
237.333	1371.375
241.412	1350.375
245.487	1348.375
249.559	1322.04167
253.628	1337.70833
257.694	1334.375
261.756	1333.375
265.814	1312.70833
269.87	1269.375
273.922	1239.04167
277.97	1245.04167
282.016	1245.375
286.058	1226.70833
290.097	1242.70833
294.132	1273.04167
298.164	1253.375
302.193	1214.70833
306.219	1143.04167
310.241	1082.375
314.26	1013.04167
318.276	962.375
322.288	936.70833
326.297	923.375
330.303	905.375
334.305	886.04167
338.305	876.04167
342.301	877.70833
346.294	874.375
350.283	851.375
354.269	852.04167
358.252	850.04167
362.232	851.375
366.209	857.70833
370.182	839.70833
374.152	841.375
378.119	852.375
382.083	837.375
386.043	857.375
390	836.375
393.954	846.70833
397.905	851.04167
401.852	862.375
405.797	837.70833
409.738	847.375
413.676	856.375
417.61	863.375
421.542	845.70833
425.47	831.70833
429.396	829.04167
433.318	816.04167
437.236	825.04167
441.152	853.04167
445.065	814.04167
448.974	821.70833
452.88	809.04167
456.783	790.70833
460.683	806.04167
464.58	804.375
468.473	817.04167
472.364	822.375
476.251	817.70833
480.135	810.04167
484.016	824.70833
487.894	826.375
491.769	846.04167
495.641	830.375
499.509	839.375
503.375	843.70833
507.237	828.70833
511.096	824.375
514.952	838.04167
518.805	828.375
522.655	822.04167
526.502	823.04167
530.346	836.70833
534.187	836.375
538.024	832.375
541.859	809.70833
545.69	834.375
549.519	822.70833
553.344	817.04167
557.166	803.04167
560.985	804.04167
564.802	817.70833
568.615	796.70833
572.425	783.375
576.232	789.04167
580.036	789.04167
583.836	797.04167
587.634	797.70833
591.429	785.375
595.221	826.04167
599.01	801.70833
602.796	808.04167
606.578	806.70833
610.358	808.04167
614.135	804.70833
617.909	808.04167
621.679	798.70833
625.447	790.375
629.212	796.375
632.973	807.70833
636.732	793.375
640.488	802.375
644.241	783.70833
647.991	779.375
651.737	801.375
655.481	765.04167
659.222	776.04167
662.96	772.70833
666.695	786.04167
670.427	787.375
674.156	796.04167
677.882	794.04167
681.605	788.04167
685.325	784.70833
689.043	801.375
692.757	778.70833
696.468	785.70833
700.177	784.04167
703.882	771.70833
707.585	769.70833
711.284	768.04167
714.981	764.04167
718.675	753.04167
722.366	788.375
726.054	754.375
729.739	759.70833
733.421	770.375
737.1	756.70833
740.777	788.04167
744.45	768.04167
748.121	775.375
751.789	803.375
755.453	770.04167
759.115	783.70833
762.774	794.70833
766.431	773.375
770.084	791.70833
773.734	774.04167
777.382	797.04167
781.027	798.04167
784.669	798.04167
788.308	788.70833
791.944	813.04167
795.577	814.375
799.208	804.04167
802.835	812.375
806.46	822.04167
810.082	826.375
813.701	808.375
817.317	832.375
820.931	818.375
824.542	828.04167
828.149	807.375
831.754	793.04167
835.357	793.04167
838.956	816.375
842.553	809.04167
846.146	793.70833
849.737	787.375
853.326	788.70833
856.911	767.04167
860.493	808.04167
864.073	793.70833
867.65	814.375
871.225	822.70833
874.796	818.70833
878.365	803.375
881.931	814.375
885.494	826.04167
889.054	818.04167
892.612	838.04167
896.166	814.04167
899.719	806.375
903.268	798.04167
906.814	790.04167
910.358	791.04167
913.899	765.04167
917.438	780.04167
920.973	745.375
924.506	747.375
928.036	771.70833
931.564	776.70833
935.088	806.375
938.61	788.04167
942.129	785.375
945.646	794.375
949.16	803.04167
952.671	809.70833
956.179	817.04167
959.685	805.04167
963.188	814.70833
966.688	797.04167
970.185	765.70833
973.68	764.375
977.173	765.375
980.662	752.70833
984.149	770.375
987.633	737.70833
991.114	753.70833
994.593	764.04167
998.069	780.375
1001.542	789.04167
1005.013	787.375
1008.481	739.375
1011.947	734.04167
1015.409	731.70833
1018.869	728.70833
1022.327	738.70833
1025.782	731.04167
1029.234	713.70833
1032.683	707.04167
1036.13	693.375
1039.574	669.70833
1043.016	666.375
1046.455	653.70833
1049.891	635.70833
1053.325	657.04167
1056.756	644.04167
1060.184	657.70833
1063.61	633.70833
1067.033	652.375
1070.454	640.70833
1073.872	673.04167
1077.287	642.375
1080.7	640.70833
1084.11	638.375
1087.517	645.70833
1090.922	634.70833
1094.325	626.70833
1097.724	638.70833
1101.122	633.04167
1104.516	633.70833
1107.908	621.70833
1111.298	621.375
1114.684	638.04167
1118.069	629.04167
1121.45	649.04167
1124.83	631.70833
1128.206	647.375
1131.58	650.375
1134.951	651.04167
1138.32	676.70833
1141.687	694.04167
1145.05	698.04167
1148.412	715.04167
1151.77	701.375
1155.126	699.70833
1158.48	682.04167
1161.831	689.375
1165.18	680.375
1168.525	702.70833
1171.869	701.375
1175.21	695.70833
1178.548	715.04167
1181.884	720.70833
1185.217	720.04167
1188.548	753.04167
1191.877	743.04167
1195.202	791.70833
1198.526	805.375
1201.846	791.04167
1205.165	799.375
1208.48	802.375
1211.794	787.70833
1215.104	813.70833
1218.413	779.04167
1221.719	786.70833
1225.022	778.04167
1228.323	766.375
1231.621	765.70833
1234.917	769.70833
1238.21	790.70833
1241.501	767.70833
1244.79	755.375
1248.076	740.70833
1251.359	772.375
1254.64	800.04167
1257.919	770.375
1261.195	786.70833
1264.468	783.04167
1267.74	803.375
1271.008	800.70833
1274.275	807.375
1277.538	794.375
1280.8	790.70833
1284.059	795.04167
1287.315	811.375
1290.569	800.375
1293.821	808.04167
1297.07	822.70833
1300.317	831.70833
1303.562	823.375
1306.803	820.375
1310.043	809.375
1313.28	808.70833
1316.515	804.375
1319.747	808.04167
1322.977	791.70833
1326.204	793.70833
1329.429	784.70833
1332.652	791.04167
1335.872	790.375
1339.09	776.70833
1342.306	777.375
1345.519	758.70833
1348.729	759.375
1351.938	753.375
1355.144	747.375
1358.347	744.375
1361.548	747.70833
1364.747	752.70833
1367.944	730.04167
1371.138	738.375
1374.329	741.04167
1377.518	735.375
1380.705	728.04167
1383.89	737.375
1387.072	710.70833
1390.252	700.375
1393.429	681.04167
1396.605	670.375
1399.777	638.04167
1402.948	650.04167
1406.116	645.375
1409.282	643.04167
1412.445	646.04167
1415.606	662.70833
1418.765	652.70833
1421.921	653.04167
1425.075	655.375
1428.227	676.375
1431.376	698.375
1434.524	718.04167
1437.668	730.375
1440.811	739.375
1443.951	744.375
1447.089	747.04167
1450.224	741.04167
1453.357	739.70833
1456.488	737.04167
1459.617	724.375
1462.743	713.70833
1465.867	683.70833
1468.989	700.04167
1472.108	672.375
1475.225	665.04167
1478.34	652.375
1481.453	658.375
1484.563	637.04167
1487.671	654.04167
1490.776	666.04167
1493.88	667.375
1496.981	686.375
1500.08	696.70833
1503.176	689.70833
1506.271	685.70833
1509.363	695.70833
1512.452	697.375
1515.54	708.375
1518.625	713.04167
1521.708	748.70833
1524.789	764.04167
1527.867	769.375
1530.944	810.04167
1534.018	827.70833
1537.089	869.04167
1540.159	884.375
1543.226	890.375
1546.291	867.70833
1549.354	856.375
1552.415	842.375
1555.473	821.04167
1558.529	817.375
1561.583	802.70833
1564.634	792.04167
1567.684	801.375
1570.731	784.375
1573.776	805.04167
1576.819	808.70833
1579.859	803.375
1582.898	818.04167
1585.934	831.04167
1588.968	834.375
1591.999	811.04167
1595.029	826.70833
1598.056	825.04167
1601.081	832.70833
1604.104	839.04167
1607.125	816.375
1610.144	802.70833
1613.16	771.04167
1616.174	773.70833
1619.186	758.70833
1622.196	737.04167
1625.203	712.70833
1628.209	715.375
1631.212	703.04167
1634.213	711.70833
1637.212	714.70833
1640.209	708.04167
1643.203	676.04167
1646.196	660.70833
1649.186	642.375
1652.174	634.70833
1655.16	622.375
1658.144	615.375
1661.125	596.04167
1664.105	571.04167
1667.082	559.70833
1670.057	529.70833
1673.03	502.04167
1676.001	474.375
1678.97	447.04167
1681.937	435.375
1684.901	410.70833
1687.863	406.70833
1690.824	387.70833
1693.782	392.70833
1696.738	366.70833
1699.692	375.04167
1702.643	351.04167
1705.593	356.04167
1708.54	355.375
1711.486	362.70833
1714.429	342.70833
1717.37	348.375
1720.309	327.70833
1723.246	340.375
1726.181	332.04167
1729.113	331.70833
1732.044	329.375
1734.972	317.04167
1737.899	342.04167
1740.823	339.375
1743.745	358.375
1746.665	316.04167
1749.583	314.04167
1752.499	307.04167
1755.413	307.70833
1758.325	297.375
1761.235	308.04167
1764.142	294.70833
1767.048	293.70833
1769.951	293.04167
1772.852	288.04167
1775.752	300.375
1778.649	295.375
1781.544	309.04167
1784.437	286.70833
1787.328	303.70833
1790.217	291.04167
1793.104	269.70833
1795.989	270.70833
1798.872	273.70833
1801.753	293.70833
1804.631	276.04167
1807.508	288.375
1810.383	278.04167
1813.255	279.04167
1816.126	270.04167
1818.994	265.375
1821.861	267.70833
1824.725	272.04167
1827.587	282.70833
1830.448	273.04167
1833.306	258.70833
1836.162	278.04167
1839.017	260.04167
1841.869	265.04167
1844.719	270.04167
1847.567	254.70833
1850.414	251.375
1853.258	249.70833
1856.1	268.04167
1858.94	277.04167
1861.778	260.70833
1864.614	258.04167
1867.448	255.375
1870.28	241.375
1873.111	267.04167
1875.939	261.04167
1878.765	269.04167
1881.589	251.04167
1884.411	259.375
1887.231	272.04167
1890.049	257.375
1892.865	260.04167
1895.68	248.375
1898.492	254.70833
1901.302	260.70833
1904.11	249.04167
1906.916	244.04167
1909.721	239.04167
1912.523	250.70833
1915.323	236.04167
1918.122	236.04167
1920.918	253.375
1923.712	242.375
1926.505	244.70833
1929.295	221.375
1932.084	248.04167
1934.87	248.70833
1937.655	234.70833
1940.438	232.375
1943.218	237.04167
1945.997	236.04167
1948.774	248.04167
1951.549	244.70833
1954.322	232.70833
1957.093	238.04167
1959.862	234.04167
1962.629	233.375
1965.394	229.375
1968.157	222.04167
1970.918	244.70833
1973.678	220.70833
1976.435	233.70833
1979.19	226.04167
1981.944	220.70833
1984.696	228.375
1987.445	222.04167
1990.193	225.04167
1992.939	231.375
1995.683	227.70833
1998.425	210.04167
2001.165	246.70833
2003.903	203.70833
2006.639	212.04167
2009.374	224.70833
2012.106	219.04167
2014.837	202.375
2017.566	225.04167
2020.292	217.04167
2023.017	214.70833
2025.74	213.70833
2028.461	211.04167
2031.18	208.375
2033.898	202.04167
2036.613	208.70833
2039.327	226.375
2042.038	205.375
2044.748	211.70833
2047.456	217.04167
2050.162	196.375
2052.866	200.375
2055.568	218.04167
2058.268	204.70833
2060.967	213.04167
2063.663	199.375
2066.358	198.70833
2069.051	201.375
2071.742	201.375
2074.431	213.70833
2077.118	200.70833
2079.804	188.70833
2082.487	202.375
2085.169	206.70833
2087.849	222.04167
2090.527	199.375
2093.203	198.04167
2095.877	202.375
2098.55	209.375
2101.22	211.375
2103.889	215.375
2106.556	202.04167
2109.221	220.70833
2111.884	210.04167
2114.546	236.04167
2117.205	237.375
2119.863	262.70833
2122.519	265.04167
2125.173	277.375
2127.825	302.04167
2130.475	307.04167
2133.124	293.04167
2135.771	278.375
2138.416	285.375
2141.059	258.70833
2143.7	254.04167
2146.339	232.70833
2148.977	211.04167
2151.613	232.375
2154.247	221.70833
2156.879	213.70833
2159.51	204.375
2162.138	208.04167
2164.765	201.375
2167.39	186.375
2170.013	213.04167
2172.634	208.70833
2175.254	194.70833
2177.872	229.375
2180.488	183.70833
2183.102	189.375
2185.714	190.04167
2188.325	182.375
2190.934	184.375
2193.541	196.375
2196.146	187.70833
2198.75	175.70833
2201.351	180.375
2203.951	163.04167
2206.549	187.04167
2209.146	174.04167
2211.74	169.70833
2214.333	182.375
2216.924	169.04167
2219.514	174.04167
2222.101	169.70833
2224.687	192.375
2227.271	161.70833
2229.853	166.04167
2232.433	154.04167
2235.012	174.04167
2237.589	168.04167
2240.164	183.375
2242.738	162.375
2245.309	163.375
2247.879	181.70833
2250.448	176.375
2253.014	156.70833
2255.579	153.70833
2258.142	159.70833
2260.703	155.375
2263.262	155.375
2265.82	149.04167
2268.376	162.70833
2270.93	154.70833
2273.483	150.70833
2276.033	156.70833
2278.583	150.70833
2281.13	148.04167
2283.675	140.375
2286.219	157.70833
2288.761	157.70833
2291.302	156.375
2293.841	166.375
2296.377	146.70833
2298.913	155.04167
2301.446	160.375
2303.978	151.375
2306.508	146.70833
2309.037	153.04167
2311.563	155.04167
2314.088	146.70833
2316.612	138.04167
2319.133	154.04167
2321.653	153.70833
2324.171	149.375
2326.688	152.70833
2329.202	156.04167
2331.715	149.04167
2334.227	151.04167
2336.736	145.375
2339.244	141.375
2341.751	130.70833
2344.255	151.04167
2346.758	142.04167
2349.259	137.04167
2351.759	155.375
2354.257	129.70833
2356.753	137.04167
2359.247	136.04167
2361.74	146.70833
2364.231	138.70833
2366.721	149.375
2369.209	133.375
2371.695	139.375
2374.179	134.04167
2376.662	126.375
2379.143	146.375
2381.622	136.04167
2384.1	143.04167
2386.576	133.04167
2389.051	148.70833
2391.524	143.70833
2393.995	138.375
2396.464	137.375
2398.932	133.70833
2401.398	146.04167
2403.863	127.375
2406.325	128.70833
2408.787	138.70833
2411.246	137.375
2413.704	130.375
2416.16	128.375
2418.615	129.70833
2421.068	141.70833
2423.519	124.04167
2425.969	125.04167
2428.417	136.04167
2430.863	154.70833
2433.308	136.375
2435.751	133.04167
2438.193	127.375
2440.633	136.04167
2443.071	138.375
2445.508	127.375
2447.943	131.04167
2450.376	123.375
2452.808	133.375
2455.238	122.04167
2457.667	151.70833
2460.093	129.04167
2462.519	116.04167
2464.942	121.70833
2467.365	130.375
2469.785	132.04167
2472.204	124.375
2474.621	119.375
2477.037	139.375
2479.451	114.04167
2481.863	113.375
2484.274	123.04167
2486.683	121.70833
2489.091	133.70833
2491.497	127.04167
2493.901	131.70833
2496.304	121.375
2498.705	132.70833
2501.105	123.375
2503.503	142.04167
2505.899	117.04167
2508.294	132.375
2510.687	117.70833
2513.079	120.04167
2515.469	112.375
2517.858	124.375
2520.245	133.04167
2522.63	118.70833
2525.014	118.375
2527.396	116.70833
2529.776	114.04167
2532.156	123.04167
2534.533	109.70833
2536.909	107.04167
2539.283	99.375
2541.656	108.375
2544.027	130.375
2546.397	119.375
2548.765	111.375
2551.131	119.04167
2553.496	123.04167
2555.86	120.375
2558.221	123.04167
2560.582	114.375
2562.94	109.375
2565.298	116.375
2567.653	127.04167
2570.007	105.70833
2572.36	121.04167
2574.711	111.375
2577.06	125.375
2579.408	116.04167
2581.754	110.04167
2584.099	109.70833
2586.442	115.04167
2588.784	118.70833
2591.124	112.375
2593.463	108.70833
2595.8	113.70833
2598.135	103.04167
2600.469	103.375
2602.802	119.375
2605.133	122.375
2607.462	104.70833
2609.79	105.70833
2612.116	115.375
2614.441	109.375
2616.764	114.70833
2619.086	114.04167
2621.406	110.04167
2623.725	117.04167
2626.042	109.375
2628.358	108.04167
2630.672	113.70833
2632.985	118.04167
2635.296	114.70833
2637.606	107.70833
2639.914	108.04167
2642.22	104.04167
2644.525	110.375
2646.829	112.04167
2649.131	118.70833
2651.432	115.04167
2653.731	107.375
2656.028	116.375
2658.324	111.70833
2660.619	99.375
2662.912	119.375
2665.204	99.04167
2667.494	120.375
2669.782	102.70833
2672.07	121.375
2674.355	124.375
2676.639	113.70833
2678.922	105.70833
2681.203	109.375
2683.483	104.70833
2685.761	101.70833
2688.038	119.70833
2690.313	120.375
2692.587	114.04167
2694.859	105.375
2697.13	113.375
2699.399	113.375
2701.667	115.04167
2703.933	109.04167
2706.198	120.70833
2708.461	122.375
2710.723	118.70833
2712.984	114.70833
2715.243	120.70833
2717.5	114.70833
2719.757	120.04167
2722.011	110.70833
2724.264	125.375
2726.516	127.70833
2728.766	108.70833
2731.015	114.70833
2733.262	112.70833
2735.508	107.375
2737.753	116.70833
2739.996	99.375
2742.237	104.04167
2744.477	121.375
2746.716	127.375
2748.953	115.70833
2751.189	121.70833
2753.423	118.375
2755.656	107.70833
2757.887	100.70833
2760.117	109.375
2762.346	99.04167
2764.573	94.04167
2766.798	103.04167
2769.022	114.04167
2771.245	103.70833
2773.467	109.375
2775.686	106.70833
2777.905	113.04167
2780.122	102.375
2782.337	114.375
2784.552	104.375
2786.764	108.04167
2788.976	99.70833
2791.186	106.375
2793.394	105.70833
2795.601	112.04167
2797.807	121.04167
2800.011	113.70833
2802.214	119.375
2804.415	118.375
2806.615	113.04167
2808.814	115.70833
2811.011	121.04167
2813.206	118.375
2815.401	127.70833
2817.594	128.375
2819.785	127.04167
2821.975	115.70833
2824.164	124.70833
2826.351	120.04167
2828.537	134.04167
2830.722	131.70833
2832.905	127.70833
2835.086	134.04167
2837.267	147.04167
2839.445	148.04167
2841.623	142.04167
2843.799	139.375
2845.974	150.70833
2848.147	146.375
2850.319	160.70833
2852.489	162.70833
2854.659	162.04167
2856.826	170.04167
2858.993	184.70833
2861.158	159.70833
2863.321	172.375
2865.483	185.04167
2867.644	184.70833
2869.804	176.70833
2871.962	171.70833
2874.118	173.375
2876.274	178.375
2878.428	179.70833
2880.58	183.04167
2882.731	167.04167
2884.881	175.70833
2887.03	184.04167
2889.177	178.04167
2891.322	183.04167
2893.467	168.70833
2895.61	168.04167
2897.751	182.70833
2899.892	170.04167
2902.03	177.70833
2904.168	170.04167
2906.304	178.375
2908.439	186.04167
2910.572	172.375
2912.704	179.70833
2914.835	181.70833
2916.965	182.70833
2919.093	195.375
2921.219	169.375
2923.345	204.04167
2925.469	182.375
2927.591	178.04167
2929.712	165.70833
2931.832	174.375
2933.951	170.04167
2936.068	167.04167
2938.184	163.375
2940.299	158.375
2942.412	156.70833
2944.524	139.70833
2946.634	149.375
2948.744	127.04167
2950.851	159.70833
2952.958	134.70833
2955.063	141.70833
2957.167	138.70833
2959.269	125.04167
2961.371	149.70833
2963.471	125.04167
2965.569	137.70833
2967.666	116.70833
2969.762	121.375
2971.857	116.70833
2973.95	109.70833
2976.042	124.70833
2978.133	111.70833
2980.222	116.70833
2982.31	103.375
2984.396	88.70833
2986.482	95.375
2988.566	101.375
2990.648	104.375
2992.73	95.70833
2994.81	85.04167
2996.889	101.04167
2998.966	97.375
3001.042	108.70833
3003.117	93.04167
3005.191	95.375
3007.263	100.04167
3009.334	96.375
3011.403	96.375
3013.472	93.375
3015.539	107.04167
3017.604	110.04167
3019.669	85.70833
3021.732	97.04167
3023.794	92.375
3025.854	81.70833
3027.914	82.375
3029.971	82.375
3032.028	82.04167
3034.083	88.04167
3036.137	88.375
3038.19	79.70833
3040.242	74.70833
3042.292	76.04167
3044.341	80.04167
3046.388	91.04167
3048.435	72.375
3050.48	97.04167
3052.524	77.04167
3054.566	64.70833
3056.607	83.375
3058.647	76.375
3060.686	65.04167
3062.723	58.04167
3064.759	64.375
3066.794	0.375
3068.828	0.04167
3070.86	3.04167
