-0.839	118.95833
3.438	135.95833
7.711	57.625
11.981	39.29167
16.247	29.95833
20.509	37.29167
24.768	35.625
29.024	41.29167
33.276	29.95833
37.524	39.625
41.769	29.625
46.01	25.625
50.247	41.29167
54.481	48.29167
58.712	53.29167
62.939	31.625
67.162	51.625
71.382	45.625
75.599	33.625
79.812	43.625
84.021	62.625
88.227	40.29167
92.429	51.95833
96.628	34.625
100.823	47.29167
105.015	51.95833
109.204	40.95833
113.388	55.29167
117.57	38.29167
121.748	52.95833
125.922	44.625
130.093	57.95833
134.261	59.29167
138.425	46.95833
142.585	77.29167
146.742	55.625
150.896	70.625
155.046	62.29167
159.193	90.95833
163.336	125.29167
167.476	213.29167
171.613	375.29167
175.746	593.95833
179.875	849.95833
184.002	1077.625
188.124	1290.95833
192.244	1332.29167
196.36	1327.625
200.472	1318.95833
204.581	1291.95833
208.687	1229.625
212.79	1246.95833
216.889	1250.95833
220.984	1272.29167
225.077	1253.29167
229.165	1259.625
233.251	1248.29167
237.333	1253.95833
241.412	1235.95833
245.487	1232.95833
249.559	1219.29167
253.628	1205.29167
257.694	1186.625
261.756	1194.29167
265.814	1167.95833
269.87	1125.29167
273.922	1110.625
277.97	1092.29167
282.016	1093.625
286.058	1080.29167
290.097	1116.29167
294.132	1119.29167
298.164	1120.95833
302.193	1068.95833
306.219	1004.29167
310.241	938.29167
314.26	879.95833
318.276	806.95833
322.288	797.95833
326.297	763.625
330.303	742.29167
334.305	734.95833
338.305	721.29167
342.301	711.95833
346.294	707.95833
350.283	705.625
354.269	697.29167
358.252	690.95833
362.232	692.625
366.209	691.95833
370.182	687.29167
374.152	672.95833
378.119	682.29167
382.083	659.29167
386.043	689.625
390	679.29167
393.954	680.625
397.905	662.95833
401.852	684.29167
405.797	667.95833
409.738	651.625
413.676	667.29167
417.61	660.625
421.542	655.29167
425.47	658.29167
429.396	653.29167
433.318	639.95833
437.236	641.625
441.152	679.95833
445.065	639.625
448.974	638.29167
452.88	626.625
456.783	626.625
460.683	614.95833
464.58	628.95833
468.473	622.625
472.364	631.95833
476.251	634.625
480.135	628.95833
484.016	643.95833
487.894	634.625
491.769	647.625
495.641	646.625
499.509	648.95833
503.375	656.95833
507.237	639.625
511.096	651.95833
514.952	683.625
518.805	674.625
522.655	683.29167
526.502	661.625
530.346	646.95833
534.187	652.95833
538.024	644.95833
541.859	631.29167
545.69	651.29167
549.519	644.625
553.344	646.95833
557.166	621.29167
560.985	632.29167
564.802	631.95833
568.615	613.95833
572.425	605.29167
576.232	607.29167
580.036	608.95833
583.836	610.95833
587.634	624.625
591.429	610.29167
595.221	632.95833
599.01	632.29167
602.796	628.625
606.578	627.625
610.358	627.95833
614.135	620.29167
617.909	633.625
621.679	614.95833
625.447	608.625
629.212	616.625
632.973	620.29167
636.732	604.625
640.488	612.29167
644.241	605.625
647.991	601.29167
651.737	631.29167
655.481	595.29167
659.222	601.625
662.96	598.95833
666.695	612.29167
670.427	616.625
674.156	623.95833
677.882	623.29167
681.605	617.29167
685.325	595.29167
689.043	626.625
692.757	604.95833
696.468	607.95833
700.177	620.29167
703.882	590.29167
707.585	600.625
711.284	592.625
714.981	587.625
718.675	586.625
722.366	610.95833
726.054	587.625
729.739	609.29167
733.421	595.95833
737.1	595.625
740.777	609.625
744.45	591.29167
748.121	586.95833
751.789	628.95833
755.453	601.95833
759.115	615.625
762.774	607.95833
766.431	619.625
770.084	611.95833
773.734	619.625
777.382	642.29167
781.027	635.29167
784.669	641.29167
788.308	631.29167
791.944	647.95833
795.577	662.625
799.208	650.29167
802.835	641.625
806.46	653.29167
810.082	668.625
813.701	649.29167
817.317	662.625
820.931	666.95833
824.542	678.95833
828.149	652.625
831.754	648.95833
835.357	640.29167
838.956	665.625
842.553	647.29167
846.146	634.95833
849.737	630.625
853.326	637.625
856.911	629.625
860.493	649.29167
864.073	657.625
867.65	657.29167
871.225	679.625
874.796	667.95833
878.365	658.625
881.931	684.95833
885.494	684.29167
889.054	680.29167
892.612	693.29167
896.166	685.625
899.719	676.29167
903.268	655.625
906.814	655.625
910.358	646.95833
913.899	631.95833
917.438	640.29167
920.973	609.29167
924.506	624.29167
928.036	640.29167
931.564	662.29167
935.088	672.625
938.61	633.625
942.129	646.625
945.646	664.95833
949.16	673.95833
952.671	675.625
956.179	685.625
959.685	673.625
963.188	682.625
966.688	669.625
970.185	640.95833
973.68	623.625
977.173	620.95833
980.662	603.95833
984.149	632.29167
987.633	602.95833
991.114	612.95833
994.593	624.95833
998.069	641.29167
1001.542	658.29167
1005.013	650.29167
1008.481	608.95833
1011.947	610.95833
1015.409	598.95833
1018.869	604.625
1022.327	605.29167
1025.782	600.95833
1029.234	587.625
1032.683	594.625
1036.13	578.95833
1039.574	556.625
1043.016	543.95833
1046.455	538.625
1049.891	521.625
1053.325	537.625
1056.756	525.95833
1060.184	535.625
1063.61	505.95833
1067.033	531.29167
1070.454	523.625
1073.872	552.625
1077.287	529.95833
1080.7	536.29167
1084.11	530.625
1087.517	535.95833
1090.922	528.95833
1094.325	517.29167
1097.724	514.625
1101.122	526.95833
1104.516	520.625
1107.908	498.95833
1111.298	515.95833
1114.684	520.29167
1118.069	513.95833
1121.45	539.95833
1124.83	525.625
1128.206	527.29167
1131.58	542.95833
1134.951	557.29167
1138.32	563.29167
1141.687	577.95833
1145.05	595.95833
1148.412	594.29167
1151.77	601.95833
1155.126	596.95833
1158.48	586.95833
1161.831	586.625
1165.18	590.29167
1168.525	605.29167
1171.869	600.29167
1175.21	602.625
1178.548	614.95833
1181.884	623.625
1185.217	621.95833
1188.548	642.29167
1191.877	649.29167
1195.202	687.29167
1198.526	704.95833
1201.846	687.625
1205.165	694.625
1208.48	701.29167
1211.794	693.29167
1215.104	698.625
1218.413	695.95833
1221.719	677.95833
1225.022	683.95833
1228.323	666.95833
1231.621	668.95833
1234.917	657.29167
1238.21	685.625
1241.501	658.29167
1244.79	647.625
1248.076	644.625
1251.359	668.29167
1254.64	692.95833
1257.919	655.625
1261.195	689.625
1264.468	703.95833
1267.74	692.95833
1271.008	691.625
1274.275	693.29167
1277.538	697.29167
1280.8	688.625
1284.059	693.625
1287.315	709.625
1290.569	698.29167
1293.821	718.95833
1297.07	712.29167
1300.317	734.95833
1303.562	730.625
1306.803	709.95833
1310.043	723.29167
1313.28	719.29167
1316.515	704.95833
1319.747	720.95833
1322.977	711.95833
1326.204	697.95833
1329.429	690.625
1332.652	691.95833
1335.872	693.95833
1339.09	673.29167
1342.306	673.625
1345.519	664.29167
1348.729	657.625
1351.938	666.625
1355.144	652.29167
1358.347	646.625
1361.548	659.95833
1364.747	652.625
1367.944	631.95833
1371.138	637.29167
1374.329	633.29167
1377.518	650.29167
1380.705	651.95833
1383.89	669.29167
1387.072	618.625
1390.252	603.625
1393.429	594.95833
1396.605	569.29167
1399.777	561.29167
1402.948	561.625
1406.116	552.95833
1409.282	557.625
1412.445	572.29167
1415.606	563.29167
1418.765	571.95833
1421.921	570.95833
1425.075	576.95833
1428.227	579.29167
1431.376	607.625
1434.524	642.29167
1437.668	651.625
1440.811	642.29167
1443.951	656.95833
1447.089	659.95833
1450.224	655.95833
1453.357	652.625
1456.488	662.29167
1459.617	650.625
1462.743	635.29167
1465.867	604.625
1468.989	614.29167
1472.108	595.625
1475.225	586.95833
1478.34	572.29167
1481.453	582.625
1484.563	583.29167
1487.671	591.29167
1490.776	604.29167
1493.88	592.625
1496.981	618.95833
1500.08	615.29167
1503.176	611.95833
1506.271	612.95833
1509.363	631.625
1512.452	630.625
1515.54	629.29167
1518.625	649.29167
1521.708	666.625
1524.789	671.29167
1527.867	702.29167
1530.944	731.95833
1534.018	751.29167
1537.089	785.29167
1540.159	787.29167
1543.226	790.625
1546.291	781.29167
1549.354	766.95833
1552.415	762.29167
1555.473	736.625
1558.529	731.29167
1561.583	720.29167
1564.634	714.29167
1567.684	727.95833
1570.731	714.625
1573.776	727.95833
1576.819	729.95833
1579.859	740.95833
1582.898	751.29167
1585.934	768.625
1588.968	753.95833
1591.999	740.29167
1595.029	749.95833
1598.056	759.29167
1601.081	783.625
1604.104	784.95833
1607.125	753.29167
1610.144	740.29167
1613.16	725.625
1616.174	699.95833
1619.186	702.625
1622.196	680.625
1625.203	662.625
1628.209	672.625
1631.212	644.29167
1634.213	651.625
1637.212	652.95833
1640.209	646.625
1643.203	602.95833
1646.196	593.95833
1649.186	574.29167
1652.174	571.625
1655.16	544.29167
1658.144	539.625
1661.125	506.29167
1664.105	500.625
1667.082	484.95833
1670.057	454.29167
1673.03	431.95833
1676.001	417.29167
1678.97	388.95833
1681.937	372.95833
1684.901	355.29167
1687.863	342.625
1690.824	319.625
1693.782	342.95833
1696.738	309.29167
1699.692	312.95833
1702.643	306.95833
1705.593	307.29167
1708.54	301.625
1711.486	306.625
1714.429	282.95833
1717.37	298.625
1720.309	273.29167
1723.246	286.95833
1726.181	269.625
1729.113	276.29167
1732.044	280.29167
1734.972	278.625
1737.899	288.95833
1740.823	286.625
1743.745	309.625
1746.665	264.29167
1749.583	263.29167
1752.499	264.95833
1755.413	253.95833
1758.325	247.625
1761.235	258.95833
1764.142	250.95833
1767.048	241.625
1769.951	247.95833
1772.852	243.95833
1775.752	248.625
1778.649	249.95833
1781.544	253.95833
1784.437	238.625
1787.328	243.625
1790.217	246.29167
1793.104	218.95833
1795.989	231.95833
1798.872	218.29167
1801.753	239.625
1804.631	231.625
1807.508	235.29167
1810.383	232.95833
1813.255	234.29167
1816.126	226.625
1818.994	226.29167
1821.861	224.95833
1824.725	232.625
1827.587	232.29167
1830.448	227.95833
1833.306	214.625
1836.162	233.29167
1839.017	222.29167
1841.869	224.29167
1844.719	226.29167
1847.567	209.625
1850.414	207.95833
1853.258	204.29167
1856.1	229.625
1858.94	227.95833
1861.778	220.625
1864.614	200.29167
1867.448	217.625
1870.28	197.95833
1873.111	224.95833
1875.939	211.29167
1878.765	235.625
1881.589	209.29167
1884.411	215.29167
1887.231	223.95833
1890.049	210.29167
1892.865	215.625
1895.68	205.625
1898.492	215.95833
1901.302	203.29167
1904.11	210.625
1906.916	210.625
1909.721	205.625
1912.523	213.95833
1915.323	200.625
1918.122	200.625
1920.918	216.95833
1923.712	196.95833
1926.505	206.625
1929.295	184.95833
1932.084	207.95833
1934.87	204.29167
1937.655	196.29167
1940.438	189.29167
1943.218	196.95833
1945.997	201.95833
1948.774	211.625
1951.549	205.29167
1954.322	199.29167
1957.093	202.625
1959.862	193.95833
1962.629	189.95833
1965.394	191.625
1968.157	186.625
1970.918	205.625
1973.678	185.95833
1976.435	197.95833
1979.19	189.625
1981.944	179.625
1984.696	186.29167
1987.445	183.95833
1990.193	194.29167
1992.939	201.29167
1995.683	196.29167
1998.425	165.29167
2001.165	209.625
2003.903	171.625
2006.639	181.29167
2009.374	196.29167
2012.106	188.95833
2014.837	166.95833
2017.566	191.95833
2020.292	186.625
2023.017	177.625
2025.74	177.95833
2028.461	166.625
2031.18	177.95833
2033.898	171.29167
2036.613	175.29167
2039.327	181.29167
2042.038	168.95833
2044.748	179.95833
2047.456	181.625
2050.162	167.29167
2052.866	176.95833
2055.568	182.625
2058.268	173.29167
2060.967	185.625
2063.663	166.29167
2066.358	172.29167
2069.051	159.625
2071.742	175.29167
2074.431	187.29167
2077.118	176.29167
2079.804	161.29167
2082.487	172.29167
2085.169	188.95833
2087.849	196.95833
2090.527	166.95833
2093.203	168.95833
2095.877	177.29167
2098.55	179.95833
2101.22	185.625
2103.889	184.95833
2106.556	177.29167
2109.221	186.95833
2111.884	180.625
2114.546	207.625
2117.205	207.625
2119.863	233.29167
2122.519	226.625
2125.173	239.625
2127.825	269.95833
2130.475	265.29167
2133.124	243.625
2135.771	227.29167
2138.416	250.95833
2141.059	219.29167
2143.7	218.625
2146.339	197.95833
2148.977	179.29167
2151.613	194.625
2154.247	185.95833
2156.879	184.95833
2159.51	175.29167
2162.138	180.95833
2164.765	174.95833
2167.39	155.95833
2170.013	188.625
2172.634	181.29167
2175.254	174.29167
2177.872	207.29167
2180.488	163.95833
2183.102	160.95833
2185.714	168.29167
2188.325	154.625
2190.934	168.625
2193.541	173.625
2196.146	166.95833
2198.75	150.625
2201.351	161.29167
2203.951	147.95833
2206.549	166.95833
2209.146	154.625
2211.74	147.625
2214.333	162.29167
2216.924	140.95833
2219.514	150.625
2222.101	148.625
2224.687	165.625
2227.271	140.95833
2229.853	151.29167
2232.433	134.95833
2235.012	157.625
2237.589	155.29167
2240.164	161.29167
2242.738	145.625
2245.309	136.625
2247.879	163.29167
2250.448	150.29167
2253.014	136.95833
2255.579	133.95833
2258.142	143.95833
2260.703	142.95833
2263.262	138.95833
2265.82	132.625
2268.376	152.95833
2270.93	140.29167
2273.483	134.625
2276.033	146.625
2278.583	134.95833
2281.13	134.95833
2283.675	124.95833
2286.219	135.625
2288.761	139.95833
2291.302	141.29167
2293.841	148.29167
2296.377	128.95833
2298.913	138.95833
2301.446	146.29167
2303.978	136.29167
2306.508	135.29167
2309.037	138.95833
2311.563	134.95833
2314.088	141.29167
2316.612	124.29167
2319.133	138.625
2321.653	139.95833
2324.171	124.625
2326.688	143.29167
2329.202	139.29167
2331.715	138.625
2334.227	137.29167
2336.736	137.29167
2339.244	126.625
2341.751	119.29167
2344.255	138.625
2346.758	133.625
2349.259	123.625
2351.759	138.95833
2354.257	121.29167
2356.753	122.29167
2359.247	124.29167
2361.74	129.625
2364.231	127.625
2366.721	139.29167
2369.209	126.29167
2371.695	128.95833
2374.179	118.29167
2376.662	112.95833
2379.143	139.625
2381.622	118.95833
2384.1	136.625
2386.576	123.625
2389.051	132.95833
2391.524	137.29167
2393.995	130.95833
2396.464	126.625
2398.932	124.95833
2401.398	127.95833
2403.863	120.625
2406.325	120.95833
2408.787	130.625
2411.246	127.29167
2413.704	123.625
2416.16	120.95833
2418.615	126.625
2421.068	126.625
2423.519	120.29167
2425.969	115.29167
2428.417	134.95833
2430.863	147.95833
2433.308	136.625
2435.751	119.95833
2438.193	123.625
2440.633	126.625
2443.071	127.95833
2445.508	118.29167
2447.943	121.29167
2450.376	122.625
2452.808	128.29167
2455.238	114.95833
2457.667	144.625
2460.093	110.625
2462.519	111.95833
2464.942	115.95833
2467.365	127.29167
2469.785	119.95833
2472.204	117.95833
2474.621	120.95833
2477.037	140.29167
2479.451	106.95833
2481.863	107.29167
2484.274	113.95833
2486.683	121.625
2489.091	136.625
2491.497	124.95833
2493.901	120.29167
2496.304	118.625
2498.705	128.29167
2501.105	121.95833
2503.503	138.95833
2505.899	114.95833
2508.294	136.29167
2510.687	111.95833
2513.079	114.95833
2515.469	115.625
2517.858	112.95833
2520.245	129.95833
2522.63	118.95833
2525.014	117.625
2527.396	109.625
2529.776	110.95833
2532.156	121.95833
2534.533	108.29167
2536.909	108.95833
2539.283	98.29167
2541.656	110.95833
2544.027	123.95833
2546.397	119.625
2548.765	112.95833
2551.131	111.95833
2553.496	119.29167
2555.86	117.29167
2558.221	121.29167
2560.582	112.95833
2562.94	106.29167
2565.298	119.95833
2567.653	128.95833
2570.007	103.625
2572.36	121.625
2574.711	105.95833
2577.06	125.95833
2579.408	110.625
2581.754	113.95833
2584.099	110.625
2586.442	109.29167
2588.784	122.95833
2591.124	111.95833
2593.463	112.95833
2595.8	118.95833
2598.135	102.29167
2600.469	108.625
2602.802	120.95833
2605.133	118.625
2607.462	114.625
2609.79	102.95833
2612.116	117.95833
2614.441	104.625
2616.764	114.95833
2619.086	113.95833
2621.406	107.95833
2623.725	120.625
2626.042	110.625
2628.358	101.29167
2630.672	112.95833
2632.985	125.95833
2635.296	113.625
2637.606	116.625
2639.914	104.625
2642.22	105.625
2644.525	107.95833
2646.829	108.625
2649.131	124.29167
2651.432	116.29167
2653.731	109.625
2656.028	123.625
2658.324	118.29167
2660.619	101.29167
2662.912	123.95833
2665.204	106.625
2667.494	114.625
2669.782	107.625
2672.07	122.95833
2674.355	125.625
2676.639	122.625
2678.922	109.95833
2681.203	123.29167
2683.483	107.625
2685.761	99.625
2688.038	125.95833
2690.313	129.95833
2692.587	112.95833
2694.859	111.625
2697.13	113.95833
2699.399	115.625
2701.667	127.625
2703.933	116.625
2706.198	124.95833
2708.461	124.95833
2710.723	119.29167
2712.984	119.95833
2715.243	128.625
2717.5	117.95833
2719.757	125.625
2722.011	117.625
2724.264	128.625
2726.516	136.95833
2728.766	116.625
2731.015	120.625
2733.262	122.29167
2735.508	122.29167
2737.753	126.29167
2739.996	107.29167
2742.237	111.29167
2744.477	125.95833
2746.716	126.95833
2748.953	130.29167
2751.189	129.29167
2753.423	126.625
2755.656	110.625
2757.887	109.625
2760.117	112.29167
2762.346	107.95833
2764.573	106.95833
2766.798	113.95833
2769.022	115.95833
2771.245	109.625
2773.467	113.625
2775.686	112.625
2777.905	119.95833
2780.122	116.625
2782.337	120.29167
2784.552	114.625
2786.764	112.29167
2788.976	108.625
2791.186	116.625
2793.394	115.95833
2795.601	124.625
2797.807	123.625
2800.011	121.95833
2802.214	130.95833
2804.415	125.95833
2806.615	125.29167
2808.814	126.625
2811.011	127.29167
2813.206	130.625
2815.401	141.625
2817.594	132.29167
2819.785	141.95833
2821.975	122.625
2824.164	129.29167
2826.351	129.95833
2828.537	147.29167
2830.722	141.95833
2832.905	133.29167
2835.086	140.95833
2837.267	156.95833
2839.445	150.625
2841.623	148.95833
2843.799	158.95833
2845.974	158.625
2848.147	164.95833
2850.319	163.625
2852.489	168.625
2854.659	177.95833
2856.826	177.625
2858.993	191.29167
2861.158	166.29167
2863.321	184.625
2865.483	189.625
2867.644	190.95833
2869.804	183.95833
2871.962	179.29167
2874.118	191.95833
2876.274	186.625
2878.428	186.95833
2880.58	191.625
2882.731	179.95833
2884.881	183.95833
2887.03	192.29167
2889.177	190.29167
2891.322	184.625
2893.467	182.29167
2895.61	184.95833
2897.751	196.29167
2899.892	190.625
2902.03	186.95833
2904.168	189.625
2906.304	189.625
2908.439	206.95833
2910.572	183.29167
2912.704	191.95833
2914.835	195.29167
2916.965	198.625
2919.093	212.625
2921.219	187.95833
2923.345	206.95833
2925.469	197.95833
2927.591	197.29167
2929.712	180.95833
2931.832	188.29167
2933.951	190.625
2936.068	181.29167
2938.184	183.29167
2940.299	175.29167
2942.412	173.625
2944.524	163.29167
2946.634	171.625
2948.744	147.95833
2950.851	184.95833
2952.958	150.625
2955.063	160.625
2957.167	156.95833
2959.269	145.95833
2961.371	169.95833
2963.471	145.625
2965.569	169.29167
2967.666	139.625
2969.762	140.625
2971.857	134.29167
2973.95	136.95833
2976.042	139.29167
2978.133	136.29167
2980.222	132.29167
2982.31	124.625
2984.396	110.625
2986.482	115.29167
2988.566	113.95833
2990.648	117.625
2992.73	118.95833
2994.81	107.95833
2996.889	119.625
2998.966	115.29167
3001.042	126.625
3003.117	116.625
3005.191	117.625
3007.263	124.29167
3009.334	119.95833
3011.403	120.95833
3013.472	111.625
3015.539	128.29167
3017.604	133.625
3019.669	105.95833
3021.732	111.625
3023.794	111.29167
3025.854	108.95833
3027.914	100.95833
3029.971	105.95833
3032.028	108.625
3034.083	114.95833
3036.137	110.29167
3038.19	96.95833
3040.242	92.95833
3042.292	92.29167
3044.341	98.625
3046.388	117.625
3048.435	93.625
3050.48	112.29167
3052.524	100.625
3054.566	84.625
3056.607	98.29167
3058.647	97.625
3060.686	82.625
3062.723	77.29167
3064.759	80.625
3066.794	0.95833
3068.828	-0.375
3070.86	4.29167
