-0.839	127.66667
3.438	148.66667
7.711	66
11.981	41.66667
16.247	26.66667
20.509	38.66667
24.768	33.66667
29.024	44.33333
33.276	28.33333
37.524	38
41.769	32.66667
46.01	26
50.247	45.66667
54.481	46
58.712	50.33333
62.939	32.66667
67.162	50
71.382	43.33333
75.599	39.33333
79.812	41.33333
84.021	60.66667
88.227	41.66667
92.429	48.66667
96.628	37.66667
100.823	56
105.015	50.33333
109.204	42
113.388	55.66667
117.57	43.33333
121.748	59.66667
125.922	42.66667
130.093	63.66667
134.261	61.66667
138.425	50.33333
142.585	78.66667
146.742	60.33333
150.896	71.66667
155.046	64
159.193	97.66667
163.336	135.66667
167.476	235
171.613	423
175.746	663
179.875	959.66667
184.002	1244
188.124	1481.66667
192.244	1533
196.36	1538.66667
200.472	1520
204.581	1518.33333
208.687	1454.33333
212.79	1456.66667
216.889	1452.66667
220.984	1482.33333
225.077	1497.66667
229.165	1482.33333
233.251	1476.33333
237.333	1500.66667
241.412	1459.33333
245.487	1452.33333
249.559	1455
253.628	1437.33333
257.694	1431.33333
261.756	1423.66667
265.814	1379
269.87	1330.33333
273.922	1306.33333
277.97	1297.33333
282.016	1282.33333
286.058	1284.66667
290.097	1301.33333
294.132	1317.66667
298.164	1299.33333
302.193	1255
306.219	1185.66667
310.241	1099
314.26	1046.66667
318.276	991.33333
322.288	968
326.297	926.66667
330.303	903
334.305	897.33333
338.305	873
342.301	881
346.294	866
350.283	860.33333
354.269	849.66667
358.252	846
362.232	856.33333
366.209	862.33333
370.182	845.66667
374.152	823.66667
378.119	846.33333
382.083	846.66667
386.043	860.33333
390	829.66667
393.954	856.33333
397.905	846.66667
401.852	863
405.797	847.33333
409.738	845.66667
413.676	889.33333
417.61	906.66667
421.542	857
425.47	821
429.396	809.66667
433.318	793
437.236	799.66667
441.152	829.66667
445.065	784.66667
448.974	798
452.88	777
456.783	781
460.683	785
464.58	807.66667
468.473	794.66667
472.364	786
476.251	790
480.135	793.33333
484.016	818
487.894	805.66667
491.769	820.66667
495.641	797.33333
499.509	816
503.375	815.33333
507.237	812
511.096	808
514.952	811.66667
518.805	811
522.655	789.66667
526.502	793.66667
530.346	802.33333
534.187	802.66667
538.024	804.33333
541.859	788.33333
545.69	812.33333
549.519	809
553.344	804.33333
557.166	788.33333
560.985	793
564.802	777.66667
568.615	776.33333
572.425	759.66667
576.232	756
580.036	755
583.836	768.33333
587.634	769.33333
591.429	766.66667
595.221	791
599.01	784.33333
602.796	778.66667
606.578	785.66667
610.358	784
614.135	770.66667
617.909	785.66667
621.679	772.66667
625.447	768.33333
629.212	765.66667
632.973	771.66667
636.732	766.66667
640.488	779.33333
644.241	752
647.991	760.33333
651.737	773.33333
655.481	747
659.222	758
662.96	751.66667
666.695	776.66667
670.427	760.33333
674.156	782.66667
677.882	773.33333
681.605	765.66667
685.325	772
689.043	774.66667
692.757	741.66667
696.468	765.33333
700.177	753.33333
703.882	753.66667
707.585	747.66667
711.284	748
714.981	732.33333
718.675	730.66667
722.366	765.66667
726.054	734.66667
729.739	743.33333
733.421	749.33333
737.1	734.66667
740.777	750.33333
744.45	741.33333
748.121	751
751.789	779.66667
755.453	758.66667
759.115	765.66667
762.774	766
766.431	768.66667
770.084	777.33333
773.734	756.33333
777.382	789.66667
781.027	786
784.669	784.33333
788.308	792
791.944	806.33333
795.577	810.33333
799.208	806
802.835	806.33333
806.46	808
810.082	821.66667
813.701	811.33333
817.317	817.66667
820.931	811.33333
824.542	826.33333
828.149	797.66667
831.754	791.66667
835.357	801.66667
838.956	795
842.553	809.66667
846.146	804
849.737	781.33333
853.326	793.33333
856.911	767.33333
860.493	815.33333
864.073	808
867.65	847
871.225	849
874.796	821.33333
878.365	808
881.931	831
885.494	834.66667
889.054	832
892.612	841.66667
896.166	826
899.719	813.33333
903.268	799.33333
906.814	795.33333
910.358	790.33333
913.899	768.66667
917.438	775.66667
920.973	756.66667
924.506	769.66667
928.036	779.66667
931.564	798.33333
935.088	813
938.61	795.33333
942.129	782.66667
945.646	804.33333
949.16	791.66667
952.671	806
956.179	825.66667
959.685	810.66667
963.188	833.66667
966.688	807
970.185	778.33333
973.68	771.66667
977.173	758
980.662	756.33333
984.149	760.33333
987.633	751
991.114	762.66667
994.593	770.33333
998.069	788.66667
1001.542	809.66667
1005.013	795.66667
1008.481	751.66667
1011.947	742.66667
1015.409	734.66667
1018.869	741.66667
1022.327	750.66667
1025.782	731.66667
1029.234	716.66667
1032.683	724.33333
1036.13	704.66667
1039.574	676.33333
1043.016	667.66667
1046.455	656
1049.891	661
1053.325	658.33333
1056.756	639.33333
1060.184	648.66667
1063.61	640
1067.033	654.33333
1070.454	651.33333
1073.872	658.66667
1077.287	640.33333
1080.7	645.66667
1084.11	651.66667
1087.517	650
1090.922	643
1094.325	622.66667
1097.724	631
1101.122	629
1104.516	623.33333
1107.908	612
1111.298	622.33333
1114.684	635.66667
1118.069	638.33333
1121.45	666.66667
1124.83	627.66667
1128.206	654.33333
1131.58	653
1134.951	679
1138.32	680.33333
1141.687	705.33333
1145.05	727.66667
1148.412	722.33333
1151.77	718
1155.126	716.66667
1158.48	717.66667
1161.831	709
1165.18	718
1168.525	725
1171.869	738
1175.21	727.33333
1178.548	735.33333
1181.884	755
1185.217	746
1188.548	773.33333
1191.877	764
1195.202	823.66667
1198.526	833.33333
1201.846	817.33333
1205.165	823
1208.48	828
1211.794	820.66667
1215.104	827.66667
1218.413	816.66667
1221.719	815.66667
1225.022	811
1228.323	785.33333
1231.621	810
1234.917	792.66667
1238.21	821
1241.501	786.33333
1244.79	781.66667
1248.076	781.33333
1251.359	790.33333
1254.64	830.66667
1257.919	805.33333
1261.195	806.66667
1264.468	828.33333
1267.74	834.33333
1271.008	826.33333
1274.275	833
1277.538	825
1280.8	831.33333
1284.059	807.66667
1287.315	848.33333
1290.569	825.33333
1293.821	850
1297.07	856
1300.317	853.33333
1303.562	866
1306.803	844.66667
1310.043	833.66667
1313.28	844
1316.515	828.33333
1319.747	840.33333
1322.977	836.66667
1326.204	828.66667
1329.429	828
1332.652	831.33333
1335.872	816.33333
1339.09	809
1342.306	812.66667
1345.519	799.33333
1348.729	781.33333
1351.938	783
1355.144	776.33333
1358.347	768
1361.548	784.33333
1364.747	784.33333
1367.944	756.33333
1371.138	771
1374.329	766
1377.518	771
1380.705	766
1383.89	772.33333
1387.072	740
1390.252	738.66667
1393.429	710
1396.605	704
1399.777	669
1402.948	673.33333
1406.116	661.33333
1409.282	672.33333
1412.445	670.33333
1415.606	677
1418.765	668.66667
1421.921	688
1425.075	693
1428.227	692.66667
1431.376	729
1434.524	750.66667
1437.668	760.66667
1440.811	771.66667
1443.951	779.33333
1447.089	783.66667
1450.224	778.33333
1453.357	772.66667
1456.488	765
1459.617	750.66667
1462.743	739.66667
1465.867	719.33333
1468.989	720.33333
1472.108	700.33333
1475.225	693.33333
1478.34	673
1481.453	689
1484.563	670.66667
1487.671	692.33333
1490.776	688.66667
1493.88	708.33333
1496.981	726.66667
1500.08	736.33333
1503.176	726.33333
1506.271	732.66667
1509.363	755
1512.452	746.66667
1515.54	751.66667
1518.625	757
1521.708	789.33333
1524.789	814.66667
1527.867	820.66667
1530.944	861.33333
1534.018	895.33333
1537.089	946
1540.159	941
1543.226	946.33333
1546.291	931
1549.354	918.66667
1552.415	892
1555.473	875
1558.529	879.33333
1561.583	874.66667
1564.634	858.33333
1567.684	857.66667
1570.731	850.66667
1573.776	860
1576.819	869.33333
1579.859	861.33333
1582.898	864
1585.934	888.33333
1588.968	896
1591.999	882
1595.029	879
1598.056	893.66667
1601.081	896
1604.104	909.66667
1607.125	882.66667
1610.144	862.33333
1613.16	836.33333
1616.174	812.33333
1619.186	810.33333
1622.196	799.33333
1625.203	766.33333
1628.209	772.33333
1631.212	762.33333
1634.213	760.66667
1637.212	757
1640.209	764.33333
1643.203	720.66667
1646.196	704.66667
1649.186	687.33333
1652.174	676.33333
1655.16	650.33333
1658.144	645.33333
1661.125	620.66667
1664.105	585.66667
1667.082	575.33333
1670.057	541.33333
1673.03	516.66667
1676.001	494
1678.97	454
1681.937	442.33333
1684.901	417.33333
1687.863	422.66667
1690.824	393.33333
1693.782	397.66667
1696.738	370
1699.692	372.33333
1702.643	353.66667
1705.593	355.66667
1708.54	358.33333
1711.486	370.33333
1714.429	345.33333
1717.37	347.66667
1720.309	333.33333
1723.246	349
1726.181	325.66667
1729.113	337.33333
1732.044	326.33333
1734.972	319.33333
1737.899	339.33333
1740.823	335
1743.745	363.66667
1746.665	318
1749.583	312.66667
1752.499	314.66667
1755.413	306.66667
1758.325	298.66667
1761.235	298
1764.142	289.33333
1767.048	289
1769.951	297.33333
1772.852	289.66667
1775.752	311.33333
1778.649	327
1781.544	316
1784.437	278.66667
1787.328	296.33333
1790.217	285.33333
1793.104	267
1795.989	277.33333
1798.872	263
1801.753	288
1804.631	275.66667
1807.508	280.33333
1810.383	278.33333
1813.255	276.66667
1816.126	273
1818.994	270.66667
1821.861	263.33333
1824.725	275.66667
1827.587	271.33333
1830.448	269.33333
1833.306	261
1836.162	275
1839.017	260.66667
1841.869	269
1844.719	265.66667
1847.567	244.33333
1850.414	244.66667
1853.258	247.33333
1856.1	263
1858.94	269.66667
1861.778	265.33333
1864.614	252.66667
1867.448	260.66667
1870.28	242.33333
1873.111	265
1875.939	252.66667
1878.765	276
1881.589	246
1884.411	251.33333
1887.231	267.66667
1890.049	248.33333
1892.865	255
1895.68	246
1898.492	263
1901.302	247.33333
1904.11	244.66667
1906.916	242
1909.721	243.66667
1912.523	251
1915.323	238
1918.122	234
1920.918	254.33333
1923.712	232.66667
1926.505	242.33333
1929.295	227.33333
1932.084	245.66667
1934.87	234.33333
1937.655	231.66667
1940.438	225
1943.218	233.66667
1945.997	234.33333
1948.774	245.66667
1951.549	243.66667
1954.322	228
1957.093	233.33333
1959.862	233
1962.629	231
1965.394	229
1968.157	217
1970.918	231
1973.678	218.66667
1976.435	236.66667
1979.19	223
1981.944	209.33333
1984.696	218
1987.445	219
1990.193	221.33333
1992.939	231.66667
1995.683	227.66667
1998.425	204.33333
2001.165	235.33333
2003.903	210
2006.639	214
2009.374	221.66667
2012.106	219.66667
2014.837	195.33333
2017.566	222.33333
2020.292	213.66667
2023.017	213.33333
2025.74	203.66667
2028.461	202.33333
2031.18	211
2033.898	206.66667
2036.613	207.66667
2039.327	214.66667
2042.038	203.66667
2044.748	207
2047.456	218.33333
2050.162	201.66667
2052.866	204.33333
2055.568	213.66667
2058.268	202.33333
2060.967	212.33333
2063.663	194.66667
2066.358	199.33333
2069.051	202.66667
2071.742	200.33333
2074.431	213.66667
2077.118	204.33333
2079.804	186.66667
2082.487	198.66667
2085.169	214.33333
2087.849	220.33333
2090.527	197.33333
2093.203	199.66667
2095.877	207
2098.55	201.66667
2101.22	212.33333
2103.889	216.33333
2106.556	205.33333
2109.221	222.66667
2111.884	218.33333
2114.546	235
2117.205	242.66667
2119.863	278.66667
2122.519	271.33333
2125.173	287
2127.825	317.66667
2130.475	319
2133.124	295
2135.771	277.66667
2138.416	294.66667
2141.059	260.66667
2143.7	265.33333
2146.339	238.33333
2148.977	220.33333
2151.613	228
2154.247	224.66667
2156.879	223.33333
2159.51	208
2162.138	202.66667
2164.765	203.66667
2167.39	184
2170.013	211
2172.634	206.66667
2175.254	198
2177.872	228
2180.488	186.66667
2183.102	189.33333
2185.714	187.66667
2188.325	181
2190.934	196.66667
2193.541	197.66667
2196.146	188
2198.75	173.66667
2201.351	171.66667
2203.951	170.33333
2206.549	184.66667
2209.146	176.33333
2211.74	174
2214.333	178.33333
2216.924	167.33333
2219.514	174.66667
2222.101	168.33333
2224.687	186.66667
2227.271	162.33333
2229.853	167
2232.433	153.66667
2235.012	173.66667
2237.589	171
2240.164	180.33333
2242.738	159.33333
2245.309	158
2247.879	177.33333
2250.448	173
2253.014	152.66667
2255.579	152.66667
2258.142	160.33333
2260.703	156.33333
2263.262	156.33333
2265.82	152.33333
2268.376	166.33333
2270.93	158.66667
2273.483	147
2276.033	157.33333
2278.583	149.33333
2281.13	149.66667
2283.675	144
2286.219	149.33333
2288.761	162
2291.302	159
2293.841	160.33333
2296.377	148
2298.913	154
2301.446	161.33333
2303.978	153.66667
2306.508	151.33333
2309.037	150.33333
2311.563	154
2314.088	154.66667
2316.612	138.33333
2319.133	155.33333
2321.653	158.33333
2324.171	138.66667
2326.688	153
2329.202	147.66667
2331.715	151.33333
2334.227	153.66667
2336.736	145
2339.244	140
2341.751	136
2344.255	154
2346.758	143
2349.259	138.33333
2351.759	148
2354.257	134.33333
2356.753	137
2359.247	132.33333
2361.74	138.66667
2364.231	139.33333
2366.721	145
2369.209	137.33333
2371.695	139.66667
2374.179	133.33333
2376.662	125.33333
2379.143	144
2381.622	132
2384.1	144.66667
2386.576	138.66667
2389.051	148
2391.524	144
2393.995	148.66667
2396.464	132.66667
2398.932	129.66667
2401.398	133
2403.863	129.66667
2406.325	132.66667
2408.787	139
2411.246	131.66667
2413.704	134.33333
2416.16	129.33333
2418.615	131.33333
2421.068	135.33333
2423.519	127.66667
2425.969	122.66667
2428.417	138.33333
2430.863	150.33333
2433.308	138
2435.751	134.66667
2438.193	131
2440.633	140.33333
2443.071	134.66667
2445.508	124
2447.943	133
2450.376	124
2452.808	135.66667
2455.238	114.33333
2457.667	152.66667
2460.093	123.66667
2462.519	112
2464.942	118.33333
2467.365	129.33333
2469.785	131.66667
2472.204	126
2474.621	122.66667
2477.037	138
2479.451	114.66667
2481.863	115
2484.274	129
2486.683	127
2489.091	136.66667
2491.497	131
2493.901	126.33333
2496.304	123.33333
2498.705	134.66667
2501.105	125.33333
2503.503	144
2505.899	116
2508.294	133.66667
2510.687	120.33333
2513.079	121.33333
2515.469	113.33333
2517.858	118.66667
2520.245	134
2522.63	118
2525.014	116.66667
2527.396	111.66667
2529.776	112
2532.156	127.33333
2534.533	110
2536.909	109
2539.283	100.66667
2541.656	112.33333
2544.027	127.33333
2546.397	120.33333
2548.765	113.66667
2551.131	117.33333
2553.496	120.66667
2555.86	123.33333
2558.221	117.66667
2560.582	113.66667
2562.94	106.33333
2565.298	121
2567.653	127
2570.007	112.66667
2572.36	123
2574.711	108.66667
2577.06	127
2579.408	114.33333
2581.754	114.66667
2584.099	111.33333
2586.442	113
2588.784	121
2591.124	116.33333
2593.463	109.33333
2595.8	115.66667
2598.135	101.33333
2600.469	107.66667
2602.802	114.66667
2605.133	116.66667
2607.462	107.66667
2609.79	97.66667
2612.116	116.66667
2614.441	110.66667
2616.764	114.33333
2619.086	115
2621.406	105.66667
2623.725	119.66667
2626.042	116
2628.358	104.66667
2630.672	113.66667
2632.985	120.66667
2635.296	116.66667
2637.606	112.33333
2639.914	107
2642.22	113.66667
2644.525	112
2646.829	113.66667
2649.131	125.66667
2651.432	122.66667
2653.731	108.66667
2656.028	118.66667
2658.324	110
2660.619	99.33333
2662.912	118.66667
2665.204	97.66667
2667.494	114
2669.782	104.33333
2672.07	119.33333
2674.355	126.33333
2676.639	116
2678.922	105
2681.203	113.66667
2683.483	105
2685.761	96
2688.038	114.33333
2690.313	123
2692.587	115.33333
2694.859	107.33333
2697.13	110.66667
2699.399	112
2701.667	114
2703.933	116.33333
2706.198	124.66667
2708.461	119
2710.723	121.66667
2712.984	113
2715.243	124.66667
2717.5	113
2719.757	119.33333
2722.011	107.33333
2724.264	122.66667
2726.516	127
2728.766	108
2731.015	116.66667
2733.262	110.66667
2735.508	111
2737.753	113
2739.996	102.33333
2742.237	112
2744.477	116.66667
2746.716	127.33333
2748.953	121.66667
2751.189	123.66667
2753.423	120.66667
2755.656	110
2757.887	105
2760.117	105.66667
2762.346	104.33333
2764.573	98.33333
2766.798	102
2769.022	109.66667
2771.245	104
2773.467	109.33333
2775.686	106
2777.905	111.33333
2780.122	104
2782.337	117
2784.552	104.66667
2786.764	103.66667
2788.976	101.33333
2791.186	106
2793.394	107.33333
2795.601	120
2797.807	118
2800.011	113
2802.214	120.33333
2804.415	112.33333
2806.615	116.33333
2808.814	117.33333
2811.011	122.66667
2813.206	122.66667
2815.401	132.66667
2817.594	128.33333
2819.785	135.33333
2821.975	119
2824.164	122
2826.351	124.33333
2828.537	134.33333
2830.722	132
2832.905	131.33333
2835.086	135.66667
2837.267	150.33333
2839.445	145.33333
2841.623	146.33333
2843.799	147.66667
2845.974	154.66667
2848.147	157.33333
2850.319	167
2852.489	172.66667
2854.659	174.66667
2856.826	176.33333
2858.993	191.33333
2861.158	171
2863.321	177.66667
2865.483	195
2867.644	188.66667
2869.804	185
2871.962	178
2874.118	187.33333
2876.274	199.66667
2878.428	194.66667
2880.58	192.66667
2882.731	176.33333
2884.881	185.33333
2887.03	189.33333
2889.177	188
2891.322	192
2893.467	179
2895.61	181
2897.751	196.33333
2899.892	183.66667
2902.03	186.33333
2904.168	174
2906.304	179.66667
2908.439	197
2910.572	178.66667
2912.704	186.33333
2914.835	193.33333
2916.965	185.66667
2919.093	206
2921.219	170.66667
2923.345	210.66667
2925.469	187.33333
2927.591	184.33333
2929.712	164.66667
2931.832	184
2933.951	176.66667
2936.068	176.33333
2938.184	167
2940.299	167
2942.412	164
2944.524	148.33333
2946.634	161.33333
2948.744	139.66667
2950.851	173.33333
2952.958	139
2955.063	149.33333
2957.167	138.33333
2959.269	126
2961.371	162
2963.471	133.66667
2965.569	147.33333
2967.666	120.66667
2969.762	123
2971.857	123.33333
2973.95	118.66667
2976.042	132.66667
2978.133	115.33333
2980.222	113.66667
2982.31	103
2984.396	97.33333
2986.482	98.33333
2988.566	102.66667
2990.648	100
2992.73	108.66667
2994.81	90
2996.889	106.66667
2998.966	97
3001.042	111.33333
3003.117	98.33333
3005.191	101.66667
3007.263	104
3009.334	96.33333
3011.403	101
3013.472	94.33333
3015.539	109.33333
3017.604	116.66667
3019.669	88.33333
3021.732	91.33333
3023.794	95.66667
3025.854	85.33333
3027.914	83
3029.971	81
3032.028	87.33333
3034.083	95
3036.137	87
3038.19	83
3040.242	76.66667
3042.292	79
3044.341	82
3046.388	95.66667
3048.435	74.66667
3050.48	97.33333
3052.524	81.33333
3054.566	66.33333
3056.607	81
3058.647	78.33333
3060.686	69
3062.723	64.66667
3064.759	64.33333
3066.794	2.66667
3068.828	-0.33333
3070.86	3.66667
