-0.839	119.375
3.438	132.04167
7.711	59.04167
11.981	42.70833
16.247	30.70833
20.509	38.375
24.768	35.04167
29.024	41.375
33.276	30.375
37.524	41.375
41.769	31.70833
46.01	23.70833
50.247	42.70833
54.481	49.375
58.712	53.04167
62.939	34.04167
67.162	48.375
71.382	43.375
75.599	33.375
79.812	42.375
84.021	61.70833
88.227	41.04167
92.429	49.04167
96.628	36.70833
100.823	50.70833
105.015	50.04167
109.204	41.70833
113.388	52.375
117.57	39.70833
121.748	56.04167
125.922	45.04167
130.093	61.04167
134.261	62.375
138.425	48.70833
142.585	75.70833
146.742	57.04167
150.896	68.375
155.046	64.04167
159.193	95.70833
163.336	127.375
167.476	210.70833
171.613	382.04167
175.746	603.70833
179.875	866.375
184.002	1119.70833
188.124	1333.04167
192.244	1380.70833
196.36	1367.375
200.472	1365.70833
204.581	1333.70833
208.687	1284.70833
212.79	1279.375
216.889	1294.70833
220.984	1307.70833
225.077	1308.04167
229.165	1312.70833
233.251	1295.70833
237.333	1308.70833
241.412	1282.375
245.487	1270.70833
249.559	1249.70833
253.628	1269.375
257.694	1226.04167
261.756	1227.04167
265.814	1229.375
269.87	1177.70833
273.922	1146.70833
277.97	1150.375
282.016	1146.70833
286.058	1129.04167
290.097	1159.375
294.132	1169.70833
298.164	1150.70833
302.193	1116.04167
306.219	1037.70833
310.241	992.70833
314.26	919.375
318.276	862.375
322.288	838.04167
326.297	805.375
330.303	790.04167
334.305	769.375
338.305	762.04167
342.301	762.04167
346.294	745.375
350.283	734.70833
354.269	745.375
358.252	726.375
362.232	730.375
366.209	730.375
370.182	721.04167
374.152	715.04167
378.119	728.375
382.083	716.375
386.043	729.70833
390	709.04167
393.954	726.04167
397.905	709.70833
401.852	727.70833
405.797	722.375
409.738	708.70833
413.676	705.375
417.61	713.375
421.542	707.04167
425.47	697.375
429.396	689.70833
433.318	681.375
437.236	690.70833
441.152	719.375
445.065	670.375
448.974	680.375
452.88	663.70833
456.783	654.375
460.683	664.70833
464.58	670.04167
468.473	680.04167
472.364	672.04167
476.251	669.375
480.135	675.375
484.016	691.04167
487.894	689.375
491.769	681.70833
495.641	688.70833
499.509	690.70833
503.375	697.70833
507.237	699.70833
511.096	692.70833
514.952	712.04167
518.805	734.70833
522.655	728.375
526.502	709.70833
530.346	700.70833
534.187	689.375
538.024	694.70833
541.859	674.375
545.69	707.375
549.519	695.04167
553.344	692.375
557.166	671.70833
560.985	661.375
564.802	673.04167
568.615	663.375
572.425	642.70833
576.232	655.375
580.036	649.70833
583.836	660.04167
587.634	660.04167
591.429	658.04167
595.221	684.375
599.01	680.375
602.796	660.375
606.578	675.70833
610.358	676.04167
614.135	668.70833
617.909	660.70833
621.679	654.04167
625.447	652.375
629.212	663.04167
632.973	663.70833
636.732	662.70833
640.488	661.70833
644.241	655.375
647.991	649.375
651.737	672.375
655.481	638.70833
659.222	642.04167
662.96	640.70833
666.695	651.70833
670.427	662.04167
674.156	655.04167
677.882	662.375
681.605	658.70833
685.325	646.70833
689.043	674.375
692.757	648.375
696.468	643.04167
700.177	653.70833
703.882	640.375
707.585	639.375
711.284	638.04167
714.981	634.375
718.675	631.70833
722.366	644.375
726.054	629.04167
729.739	640.70833
733.421	632.04167
737.1	627.70833
740.777	646.70833
744.45	652.375
748.121	633.70833
751.789	666.70833
755.453	658.04167
759.115	664.04167
762.774	655.04167
766.431	652.70833
770.084	661.375
773.734	659.70833
777.382	685.70833
781.027	675.70833
784.669	680.70833
788.308	666.04167
791.944	694.70833
795.577	690.70833
799.208	679.70833
802.835	688.04167
806.46	685.375
810.082	694.70833
813.701	688.04167
817.317	704.375
820.931	693.04167
824.542	707.04167
828.149	700.375
831.754	692.04167
835.357	683.70833
838.956	703.70833
842.553	685.04167
846.146	677.04167
849.737	673.375
853.326	684.375
856.911	668.04167
860.493	695.04167
864.073	688.04167
867.65	696.04167
871.225	702.04167
874.796	697.04167
878.365	691.375
881.931	700.375
885.494	725.375
889.054	709.04167
892.612	717.04167
896.166	713.70833
899.719	709.375
903.268	692.70833
906.814	691.375
910.358	670.70833
913.899	663.70833
917.438	672.70833
920.973	657.375
924.506	663.04167
928.036	680.70833
931.564	677.70833
935.088	697.375
938.61	677.04167
942.129	682.375
945.646	706.70833
949.16	689.70833
952.671	702.04167
956.179	728.04167
959.685	704.375
963.188	715.04167
966.688	707.70833
970.185	681.375
973.68	653.375
977.173	659.70833
980.662	644.375
984.149	664.375
987.633	627.375
991.114	652.375
994.593	669.04167
998.069	665.70833
1001.542	696.70833
1005.013	691.04167
1008.481	640.70833
1011.947	635.70833
1015.409	618.70833
1018.869	631.375
1022.327	638.375
1025.782	627.375
1029.234	613.04167
1032.683	617.375
1036.13	616.70833
1039.574	579.70833
1043.016	579.04167
1046.455	566.04167
1049.891	550.04167
1053.325	570.04167
1056.756	558.375
1060.184	568.375
1063.61	544.70833
1067.033	552.375
1070.454	556.375
1073.872	581.04167
1077.287	562.70833
1080.7	555.04167
1084.11	549.70833
1087.517	559.70833
1090.922	565.04167
1094.325	548.375
1097.724	545.04167
1101.122	547.375
1104.516	552.04167
1107.908	539.70833
1111.298	543.70833
1114.684	554.04167
1118.069	553.375
1121.45	576.70833
1124.83	559.70833
1128.206	553.04167
1131.58	574.375
1134.951	586.70833
1138.32	601.375
1141.687	614.70833
1145.05	623.04167
1148.412	627.70833
1151.77	635.70833
1155.126	627.70833
1158.48	608.04167
1161.831	619.375
1165.18	620.375
1168.525	628.70833
1171.869	643.375
1175.21	621.70833
1178.548	645.04167
1181.884	641.04167
1185.217	649.70833
1188.548	677.375
1191.877	683.70833
1195.202	714.375
1198.526	737.375
1201.846	720.04167
1205.165	715.70833
1208.48	736.04167
1211.794	732.04167
1215.104	723.70833
1218.413	717.04167
1221.719	712.04167
1225.022	697.70833
1228.323	688.70833
1231.621	695.375
1234.917	700.375
1238.21	715.70833
1241.501	700.70833
1244.79	683.04167
1248.076	667.375
1251.359	692.04167
1254.64	726.70833
1257.919	706.375
1261.195	709.375
1264.468	720.70833
1267.74	734.04167
1271.008	727.375
1274.275	726.70833
1277.538	715.70833
1280.8	722.70833
1284.059	712.04167
1287.315	727.70833
1290.569	727.375
1293.821	736.375
1297.07	745.70833
1300.317	769.375
1303.562	764.70833
1306.803	746.70833
1310.043	744.04167
1313.28	754.04167
1316.515	741.375
1319.747	755.375
1322.977	732.70833
1326.204	736.375
1329.429	727.04167
1332.652	720.375
1335.872	722.375
1339.09	704.70833
1342.306	707.375
1345.519	688.70833
1348.729	684.70833
1351.938	691.375
1355.144	680.375
1358.347	666.375
1361.548	675.375
1364.747	671.70833
1367.944	659.70833
1371.138	661.04167
1374.329	663.70833
1377.518	667.375
1380.705	654.70833
1383.89	678.375
1387.072	645.04167
1390.252	642.04167
1393.429	612.70833
1396.605	605.70833
1399.777	581.70833
1402.948	583.375
1406.116	572.70833
1409.282	586.70833
1412.445	581.04167
1415.606	593.70833
1418.765	594.04167
1421.921	599.70833
1425.075	603.375
1428.227	607.70833
1431.376	645.04167
1434.524	665.70833
1437.668	674.375
1440.811	675.70833
1443.951	677.70833
1447.089	691.70833
1450.224	675.04167
1453.357	674.04167
1456.488	673.04167
1459.617	655.04167
1462.743	654.70833
1465.867	633.375
1468.989	645.04167
1472.108	622.375
1475.225	613.04167
1478.34	605.04167
1481.453	594.375
1484.563	600.70833
1487.671	610.70833
1490.776	627.04167
1493.88	621.375
1496.981	639.70833
1500.08	641.375
1503.176	642.375
1506.271	642.70833
1509.363	663.375
1512.452	655.375
1515.54	654.04167
1518.625	670.04167
1521.708	695.375
1524.789	707.375
1527.867	724.375
1530.944	751.70833
1534.018	773.04167
1537.089	816.375
1540.159	821.04167
1543.226	820.70833
1546.291	805.70833
1549.354	780.375
1552.415	783.375
1555.473	764.04167
1558.529	751.375
1561.583	749.04167
1564.634	727.70833
1567.684	754.70833
1570.731	731.04167
1573.776	746.04167
1576.819	756.04167
1579.859	763.375
1582.898	770.04167
1585.934	788.375
1588.968	782.04167
1591.999	768.70833
1595.029	767.04167
1598.056	786.04167
1601.081	813.04167
1604.104	789.375
1607.125	789.375
1610.144	757.04167
1613.16	750.70833
1616.174	723.70833
1619.186	721.04167
1622.196	703.04167
1625.203	684.375
1628.209	678.375
1631.212	675.70833
1634.213	667.375
1637.212	665.70833
1640.209	671.375
1643.203	639.70833
1646.196	623.70833
1649.186	596.04167
1652.174	594.70833
1655.16	574.70833
1658.144	574.375
1661.125	541.04167
1664.105	523.04167
1667.082	506.70833
1670.057	466.70833
1673.03	461.70833
1676.001	428.70833
1678.97	402.04167
1681.937	389.70833
1684.901	373.375
1687.863	374.375
1690.824	344.375
1693.782	353.375
1696.738	322.04167
1699.692	333.70833
1702.643	313.375
1705.593	319.70833
1708.54	312.375
1711.486	321.04167
1714.429	300.375
1717.37	310.04167
1720.309	296.375
1723.246	309.70833
1726.181	293.70833
1729.113	292.04167
1732.044	297.70833
1734.972	283.04167
1737.899	297.375
1740.823	300.375
1743.745	314.375
1746.665	284.04167
1749.583	278.70833
1752.499	268.375
1755.413	281.04167
1758.325	260.70833
1761.235	270.70833
1764.142	259.70833
1767.048	259.04167
1769.951	257.04167
1772.852	263.375
1775.752	262.04167
1778.649	257.70833
1781.544	267.04167
1784.437	246.04167
1787.328	259.04167
1790.217	251.375
1793.104	231.70833
1795.989	243.375
1798.872	230.375
1801.753	250.70833
1804.631	240.70833
1807.508	253.04167
1810.383	241.70833
1813.255	247.70833
1816.126	242.04167
1818.994	238.70833
1821.861	233.375
1824.725	239.04167
1827.587	244.375
1830.448	240.375
1833.306	225.04167
1836.162	244.375
1839.017	238.375
1841.869	233.70833
1844.719	237.70833
1847.567	215.375
1850.414	219.04167
1853.258	218.04167
1856.1	231.04167
1858.94	233.70833
1861.778	231.70833
1864.614	216.70833
1867.448	231.70833
1870.28	207.375
1873.111	233.375
1875.939	226.70833
1878.765	235.375
1881.589	218.04167
1884.411	228.70833
1887.231	229.70833
1890.049	224.04167
1892.865	233.375
1895.68	216.70833
1898.492	224.04167
1901.302	227.70833
1904.11	215.04167
1906.916	220.70833
1909.721	214.375
1912.523	226.375
1915.323	205.70833
1918.122	204.375
1920.918	225.375
1923.712	211.04167
1926.505	211.375
1929.295	194.375
1932.084	214.375
1934.87	214.70833
1937.655	203.70833
1940.438	203.375
1943.218	211.70833
1945.997	207.70833
1948.774	219.375
1951.549	226.70833
1954.322	205.70833
1957.093	206.04167
1959.862	204.70833
1962.629	203.375
1965.394	206.375
1968.157	193.375
1970.918	211.70833
1973.678	201.70833
1976.435	207.375
1979.19	201.70833
1981.944	191.375
1984.696	195.04167
1987.445	196.04167
1990.193	202.70833
1992.939	205.375
1995.683	200.70833
1998.425	184.70833
2001.165	215.375
2003.903	189.375
2006.639	198.70833
2009.374	200.375
2012.106	194.375
2014.837	176.04167
2017.566	205.375
2020.292	191.04167
2023.017	190.70833
2025.74	181.375
2028.461	179.70833
2031.18	190.04167
2033.898	185.70833
2036.613	186.04167
2039.327	192.70833
2042.038	182.04167
2044.748	187.04167
2047.456	188.375
2050.162	172.70833
2052.866	181.375
2055.568	193.04167
2058.268	182.375
2060.967	196.04167
2063.663	174.375
2066.358	180.375
2069.051	171.70833
2071.742	184.375
2074.431	193.04167
2077.118	184.70833
2079.804	174.375
2082.487	176.375
2085.169	194.70833
2087.849	207.04167
2090.527	174.04167
2093.203	182.375
2095.877	180.375
2098.55	181.04167
2101.22	189.70833
2103.889	194.70833
2106.556	186.70833
2109.221	198.375
2111.884	189.375
2114.546	205.70833
2117.205	214.375
2119.863	244.70833
2122.519	233.375
2125.173	245.04167
2127.825	276.04167
2130.475	276.04167
2133.124	258.375
2135.771	241.375
2138.416	262.375
2141.059	228.375
2143.7	236.375
2146.339	208.375
2148.977	187.375
2151.613	199.375
2154.247	195.70833
2156.879	191.04167
2159.51	177.70833
2162.138	172.04167
2164.765	180.70833
2167.39	170.375
2170.013	199.375
2172.634	187.70833
2175.254	176.375
2177.872	214.04167
2180.488	166.04167
2183.102	183.70833
2185.714	175.375
2188.325	166.70833
2190.934	172.375
2193.541	179.375
2196.146	171.70833
2198.75	162.70833
2201.351	161.70833
2203.951	153.70833
2206.549	167.70833
2209.146	160.04167
2211.74	156.04167
2214.333	169.04167
2216.924	150.70833
2219.514	159.04167
2222.101	164.375
2224.687	172.375
2227.271	151.70833
2229.853	155.04167
2232.433	138.70833
2235.012	160.375
2237.589	153.70833
2240.164	170.375
2242.738	152.375
2245.309	139.70833
2247.879	164.70833
2250.448	159.04167
2253.014	146.04167
2255.579	142.375
2258.142	148.70833
2260.703	149.04167
2263.262	144.04167
2265.82	139.375
2268.376	153.375
2270.93	143.04167
2273.483	138.04167
2276.033	148.375
2278.583	138.04167
2281.13	140.375
2283.675	135.375
2286.219	140.04167
2288.761	151.04167
2291.302	150.70833
2293.841	160.04167
2296.377	132.04167
2298.913	143.375
2301.446	150.70833
2303.978	141.70833
2306.508	136.70833
2309.037	138.04167
2311.563	140.70833
2314.088	143.375
2316.612	129.04167
2319.133	137.70833
2321.653	146.375
2324.171	138.70833
2326.688	146.70833
2329.202	141.375
2331.715	142.70833
2334.227	141.70833
2336.736	138.375
2339.244	132.04167
2341.751	124.70833
2344.255	142.375
2346.758	134.04167
2349.259	131.70833
2351.759	137.375
2354.257	128.375
2356.753	127.375
2359.247	123.375
2361.74	133.375
2364.231	132.04167
2366.721	140.04167
2369.209	126.04167
2371.695	129.375
2374.179	127.70833
2376.662	117.375
2379.143	141.70833
2381.622	131.70833
2384.1	142.04167
2386.576	126.04167
2389.051	137.375
2391.524	140.70833
2393.995	138.04167
2396.464	130.375
2398.932	124.375
2401.398	132.04167
2403.863	122.70833
2406.325	123.04167
2408.787	129.375
2411.246	128.70833
2413.704	128.70833
2416.16	125.04167
2418.615	129.04167
2421.068	125.375
2423.519	122.375
2425.969	117.70833
2428.417	136.375
2430.863	144.375
2433.308	135.04167
2435.751	131.70833
2438.193	133.70833
2440.633	133.04167
2443.071	137.70833
2445.508	123.70833
2447.943	126.04167
2450.376	124.375
2452.808	132.70833
2455.238	117.70833
2457.667	150.04167
2460.093	115.375
2462.519	114.04167
2464.942	116.04167
2467.365	127.04167
2469.785	129.70833
2472.204	122.375
2474.621	123.70833
2477.037	140.70833
2479.451	113.70833
2481.863	112.375
2484.274	117.04167
2486.683	119.375
2489.091	137.375
2491.497	126.04167
2493.901	124.04167
2496.304	120.70833
2498.705	128.375
2501.105	125.375
2503.503	143.375
2505.899	120.375
2508.294	135.375
2510.687	122.70833
2513.079	117.375
2515.469	113.04167
2517.858	113.04167
2520.245	134.375
2522.63	120.70833
2525.014	114.375
2527.396	114.70833
2529.776	111.375
2532.156	122.04167
2534.533	110.70833
2536.909	107.70833
2539.283	104.04167
2541.656	117.70833
2544.027	130.375
2546.397	118.04167
2548.765	115.375
2551.131	117.70833
2553.496	123.04167
2555.86	117.04167
2558.221	126.375
2560.582	109.375
2562.94	106.375
2565.298	116.04167
2567.653	127.04167
2570.007	110.04167
2572.36	126.04167
2574.711	112.70833
2577.06	131.04167
2579.408	119.04167
2581.754	117.04167
2584.099	116.375
2586.442	114.04167
2588.784	119.04167
2591.124	113.375
2593.463	112.375
2595.8	115.70833
2598.135	110.04167
2600.469	107.375
2602.802	126.04167
2605.133	124.375
2607.462	112.375
2609.79	103.70833
2612.116	121.70833
2614.441	113.04167
2616.764	119.375
2619.086	116.70833
2621.406	108.70833
2623.725	123.375
2626.042	113.70833
2628.358	111.04167
2630.672	115.375
2632.985	120.70833
2635.296	119.375
2637.606	112.04167
2639.914	111.04167
2642.22	107.04167
2644.525	119.375
2646.829	121.04167
2649.131	124.04167
2651.432	126.375
2653.731	110.04167
2656.028	129.04167
2658.324	117.375
2660.619	107.04167
2662.912	122.70833
2665.204	103.375
2667.494	117.375
2669.782	109.375
2672.07	126.375
2674.355	125.04167
2676.639	118.04167
2678.922	115.70833
2681.203	122.375
2683.483	109.375
2685.761	102.375
2688.038	126.04167
2690.313	128.04167
2692.587	114.375
2694.859	114.375
2697.13	116.70833
2699.399	117.04167
2701.667	123.375
2703.933	123.04167
2706.198	129.04167
2708.461	125.04167
2710.723	127.70833
2712.984	119.04167
2715.243	131.70833
2717.5	122.70833
2719.757	128.375
2722.011	123.04167
2724.264	124.375
2726.516	140.04167
2728.766	109.70833
2731.015	122.04167
2733.262	125.04167
2735.508	116.375
2737.753	126.375
2739.996	116.375
2742.237	119.375
2744.477	126.04167
2746.716	131.375
2748.953	129.375
2751.189	134.375
2753.423	124.70833
2755.656	117.375
2757.887	110.70833
2760.117	118.70833
2762.346	109.375
2764.573	100.375
2766.798	118.70833
2769.022	111.70833
2771.245	111.70833
2773.467	118.375
2775.686	112.04167
2777.905	122.04167
2780.122	116.70833
2782.337	120.04167
2784.552	111.375
2786.764	117.04167
2788.976	113.375
2791.186	120.70833
2793.394	117.04167
2795.601	125.375
2797.807	130.04167
2800.011	120.70833
2802.214	129.70833
2804.415	119.70833
2806.615	122.04167
2808.814	124.04167
2811.011	130.70833
2813.206	130.375
2815.401	134.375
2817.594	138.04167
2819.785	139.375
2821.975	130.70833
2824.164	128.70833
2826.351	130.70833
2828.537	145.70833
2830.722	141.70833
2832.905	135.04167
2835.086	142.70833
2837.267	160.04167
2839.445	155.375
2841.623	150.375
2843.799	155.375
2845.974	161.375
2848.147	158.70833
2850.319	174.375
2852.489	182.04167
2854.659	177.04167
2856.826	181.04167
2858.993	199.70833
2861.158	179.375
2863.321	184.04167
2865.483	199.375
2867.644	194.04167
2869.804	186.04167
2871.962	181.04167
2874.118	187.375
2876.274	190.04167
2878.428	191.375
2880.58	193.375
2882.731	177.04167
2884.881	190.70833
2887.03	196.04167
2889.177	186.70833
2891.322	193.375
2893.467	182.375
2895.61	184.70833
2897.751	194.04167
2899.892	188.375
2902.03	192.70833
2904.168	193.375
2906.304	190.70833
2908.439	207.70833
2910.572	187.70833
2912.704	197.04167
2914.835	193.04167
2916.965	200.70833
2919.093	215.70833
2921.219	184.375
2923.345	216.70833
2925.469	204.04167
2927.591	195.375
2929.712	179.375
2931.832	197.04167
2933.951	189.375
2936.068	188.70833
2938.184	186.70833
2940.299	182.70833
2942.412	176.70833
2944.524	160.375
2946.634	173.04167
2948.744	154.375
2950.851	184.70833
2952.958	156.70833
2955.063	162.04167
2957.167	159.375
2959.269	139.04167
2961.371	174.70833
2963.471	145.04167
2965.569	159.375
2967.666	141.04167
2969.762	143.04167
2971.857	131.70833
2973.95	131.70833
2976.042	140.04167
2978.133	134.04167
2980.222	133.70833
2982.31	120.70833
2984.396	112.375
2986.482	118.04167
2988.566	127.375
2990.648	120.375
2992.73	121.70833
2994.81	112.70833
2996.889	124.375
2998.966	116.375
3001.042	130.70833
3003.117	113.70833
3005.191	124.04167
3007.263	123.70833
3009.334	118.70833
3011.403	116.70833
3013.472	112.375
3015.539	126.04167
3017.604	135.375
3019.669	106.70833
3021.732	108.04167
3023.794	113.70833
3025.854	105.04167
3027.914	105.70833
3029.971	106.375
3032.028	104.70833
3034.083	112.70833
3036.137	108.375
3038.19	101.04167
3040.242	91.04167
3042.292	97.70833
3044.341	99.70833
3046.388	114.04167
3048.435	93.375
3050.48	110.70833
3052.524	101.375
3054.566	84.70833
3056.607	99.04167
3058.647	94.04167
3060.686	82.04167
3062.723	78.04167
3064.759	81.375
3066.794	1.375
3068.828	2.70833
3070.86	1.375
