-0.839	120.54167
3.438	134.20833
7.711	62.54167
11.981	39.875
16.247	33.875
20.509	37.875
24.768	33.875
29.024	43.20833
33.276	29.875
37.524	41.54167
41.769	32.875
46.01	24.875
50.247	43.875
54.481	47.20833
58.712	52.54167
62.939	35.54167
67.162	50.54167
71.382	46.875
75.599	34.875
79.812	41.54167
84.021	58.20833
88.227	41.54167
92.429	50.20833
96.628	39.875
100.823	56.20833
105.015	48.54167
109.204	41.20833
113.388	52.875
117.57	40.54167
121.748	55.54167
125.922	47.54167
130.093	57.54167
134.261	59.54167
138.425	47.54167
142.585	79.875
146.742	53.20833
150.896	69.20833
155.046	64.875
159.193	90.54167
163.336	127.54167
167.476	213.54167
171.613	374.20833
175.746	592.20833
179.875	849.875
184.002	1079.20833
188.124	1293.54167
192.244	1345.20833
196.36	1331.875
200.472	1316.875
204.581	1299.20833
208.687	1246.20833
212.79	1243.875
216.889	1244.875
220.984	1258.54167
225.077	1267.875
229.165	1263.54167
233.251	1261.875
237.333	1256.54167
241.412	1236.54167
245.487	1226.54167
249.559	1217.54167
253.628	1203.20833
257.694	1196.875
261.756	1206.20833
265.814	1173.20833
269.87	1143.54167
273.922	1118.20833
277.97	1096.875
282.016	1099.875
286.058	1074.54167
290.097	1107.20833
294.132	1128.54167
298.164	1138.54167
302.193	1084.54167
306.219	1000.20833
310.241	947.20833
314.26	875.20833
318.276	827.20833
322.288	809.20833
326.297	767.20833
330.303	744.54167
334.305	728.20833
338.305	727.875
342.301	717.20833
346.294	705.20833
350.283	707.20833
354.269	708.54167
358.252	690.54167
362.232	680.875
366.209	693.875
370.182	686.54167
374.152	671.54167
378.119	688.20833
382.083	676.54167
386.043	702.20833
390	671.54167
393.954	686.20833
397.905	676.875
401.852	685.54167
405.797	670.875
409.738	660.875
413.676	678.875
417.61	683.54167
421.542	673.54167
425.47	655.20833
429.396	656.54167
433.318	641.54167
437.236	646.875
441.152	679.20833
445.065	634.54167
448.974	639.54167
452.88	632.20833
456.783	634.875
460.683	626.875
464.58	641.875
468.473	645.875
472.364	634.875
476.251	629.20833
480.135	639.875
484.016	647.54167
487.894	655.54167
491.769	645.54167
495.641	641.54167
499.509	662.20833
503.375	656.875
507.237	643.20833
511.096	661.54167
514.952	664.54167
518.805	681.54167
522.655	691.875
526.502	678.54167
530.346	652.875
534.187	663.54167
538.024	648.875
541.859	637.875
545.69	665.20833
549.519	654.54167
553.344	646.54167
557.166	627.875
560.985	625.54167
564.802	632.20833
568.615	623.20833
572.425	607.875
576.232	613.20833
580.036	605.20833
583.836	626.875
587.634	632.20833
591.429	614.875
595.221	639.875
599.01	632.20833
602.796	637.54167
606.578	632.20833
610.358	632.875
614.135	618.54167
617.909	614.20833
621.679	625.54167
625.447	612.54167
629.212	626.20833
632.973	629.20833
636.732	620.54167
640.488	623.875
644.241	608.54167
647.991	609.20833
651.737	636.875
655.481	590.54167
659.222	614.875
662.96	615.20833
666.695	620.875
670.427	623.20833
674.156	633.875
677.882	624.20833
681.605	628.20833
685.325	615.20833
689.043	640.54167
692.757	617.54167
696.468	612.875
700.177	615.20833
703.882	593.20833
707.585	596.875
711.284	607.54167
714.981	601.875
718.675	598.20833
722.366	614.54167
726.054	589.875
729.739	602.875
733.421	607.20833
737.1	601.54167
740.777	607.875
744.45	604.20833
748.121	604.20833
751.789	622.875
755.453	613.20833
759.115	622.875
762.774	612.20833
766.431	624.54167
770.084	631.54167
773.734	626.54167
777.382	644.20833
781.027	639.54167
784.669	639.875
788.308	640.54167
791.944	665.54167
795.577	659.54167
799.208	649.20833
802.835	666.20833
806.46	661.20833
810.082	654.875
813.701	654.20833
817.317	670.54167
820.931	681.875
824.542	676.20833
828.149	657.875
831.754	647.875
835.357	649.20833
838.956	665.875
842.553	645.20833
846.146	634.20833
849.737	642.20833
853.326	648.875
856.911	641.875
860.493	666.54167
864.073	649.875
867.65	669.875
871.225	677.20833
874.796	670.20833
878.365	661.875
881.931	679.20833
885.494	700.875
889.054	677.54167
892.612	695.54167
896.166	686.20833
899.719	686.54167
903.268	667.20833
906.814	667.54167
910.358	651.20833
913.899	629.54167
917.438	638.54167
920.973	616.875
924.506	628.875
928.036	646.875
931.564	658.54167
935.088	688.54167
938.61	652.875
942.129	652.875
945.646	675.20833
949.16	666.875
952.671	680.875
956.179	701.20833
959.685	672.20833
963.188	684.20833
966.688	667.54167
970.185	644.54167
973.68	626.54167
977.173	630.54167
980.662	618.54167
984.149	625.54167
987.633	607.54167
991.114	622.875
994.593	633.875
998.069	643.875
1001.542	655.875
1005.013	650.54167
1008.481	615.875
1011.947	601.54167
1015.409	598.20833
1018.869	613.20833
1022.327	609.20833
1025.782	596.875
1029.234	590.20833
1032.683	606.20833
1036.13	582.875
1039.574	559.875
1043.016	541.54167
1046.455	539.20833
1049.891	531.875
1053.325	541.20833
1056.756	524.875
1060.184	536.20833
1063.61	526.54167
1067.033	535.54167
1070.454	531.875
1073.872	554.54167
1077.287	531.54167
1080.7	527.875
1084.11	536.875
1087.517	533.875
1090.922	539.20833
1094.325	519.875
1097.724	510.875
1101.122	521.875
1104.516	525.875
1107.908	511.20833
1111.298	523.875
1114.684	521.54167
1118.069	525.20833
1121.45	550.54167
1124.83	527.875
1128.206	543.875
1131.58	540.875
1134.951	551.20833
1138.32	561.20833
1141.687	598.20833
1145.05	605.54167
1148.412	597.54167
1151.77	595.20833
1155.126	595.875
1158.48	589.54167
1161.831	598.54167
1165.18	588.54167
1168.525	607.54167
1171.869	616.20833
1175.21	605.54167
1178.548	632.54167
1181.884	625.875
1185.217	623.20833
1188.548	642.875
1191.877	644.875
1195.202	686.54167
1198.526	704.875
1201.846	686.20833
1205.165	691.54167
1208.48	699.54167
1211.794	704.20833
1215.104	711.54167
1218.413	688.20833
1221.719	692.54167
1225.022	686.54167
1228.323	669.875
1231.621	676.875
1234.917	674.875
1238.21	683.54167
1241.501	665.20833
1244.79	647.20833
1248.076	640.20833
1251.359	650.875
1254.64	699.54167
1257.919	673.54167
1261.195	677.20833
1264.468	684.20833
1267.74	701.54167
1271.008	693.20833
1274.275	707.54167
1277.538	695.54167
1280.8	690.54167
1284.059	683.54167
1287.315	712.54167
1290.569	711.875
1293.821	725.20833
1297.07	723.875
1300.317	720.20833
1303.562	731.875
1306.803	720.875
1310.043	716.54167
1313.28	726.20833
1316.515	714.20833
1319.747	728.20833
1322.977	715.54167
1326.204	713.54167
1329.429	695.20833
1332.652	719.54167
1335.872	708.54167
1339.09	676.20833
1342.306	672.20833
1345.519	675.875
1348.729	661.875
1351.938	665.875
1355.144	654.54167
1358.347	641.20833
1361.548	653.875
1364.747	654.875
1367.944	635.54167
1371.138	647.54167
1374.329	644.54167
1377.518	641.875
1380.705	652.20833
1383.89	662.20833
1387.072	634.20833
1390.252	608.875
1393.429	586.20833
1396.605	576.54167
1399.777	556.875
1402.948	562.875
1406.116	556.20833
1409.282	560.875
1412.445	562.54167
1415.606	571.20833
1418.765	568.875
1421.921	585.875
1425.075	583.875
1428.227	599.875
1431.376	621.20833
1434.524	642.875
1437.668	651.875
1440.811	648.875
1443.951	655.875
1447.089	654.20833
1450.224	655.54167
1453.357	651.875
1456.488	664.875
1459.617	649.20833
1462.743	630.875
1465.867	611.20833
1468.989	618.54167
1472.108	602.20833
1475.225	596.20833
1478.34	591.54167
1481.453	580.20833
1484.563	575.54167
1487.671	580.875
1490.776	611.875
1493.88	613.875
1496.981	603.875
1500.08	616.875
1503.176	604.20833
1506.271	633.20833
1509.363	624.20833
1512.452	635.20833
1515.54	631.54167
1518.625	639.54167
1521.708	677.54167
1524.789	676.20833
1527.867	700.54167
1530.944	729.875
1534.018	762.20833
1537.089	792.20833
1540.159	799.875
1543.226	802.20833
1546.291	784.20833
1549.354	775.875
1552.415	760.20833
1555.473	741.54167
1558.529	726.54167
1561.583	719.875
1564.634	719.875
1567.684	733.875
1570.731	718.875
1573.776	731.54167
1576.819	740.54167
1579.859	741.54167
1582.898	751.875
1585.934	759.875
1588.968	762.54167
1591.999	756.54167
1595.029	757.54167
1598.056	768.875
1601.081	782.20833
1604.104	780.20833
1607.125	770.54167
1610.144	748.875
1613.16	721.54167
1616.174	711.20833
1619.186	697.54167
1622.196	687.875
1625.203	657.54167
1628.209	669.54167
1631.212	641.20833
1634.213	649.20833
1637.212	648.875
1640.209	648.54167
1643.203	616.20833
1646.196	600.875
1649.186	579.20833
1652.174	574.54167
1655.16	550.20833
1658.144	548.54167
1661.125	532.54167
1664.105	503.54167
1667.082	482.54167
1670.057	460.54167
1673.03	433.54167
1676.001	411.54167
1678.97	395.875
1681.937	376.54167
1684.901	353.20833
1687.863	357.20833
1690.824	329.875
1693.782	336.875
1696.738	313.875
1699.692	320.875
1702.643	296.54167
1705.593	304.875
1708.54	304.20833
1711.486	305.54167
1714.429	285.20833
1717.37	300.875
1720.309	278.54167
1723.246	288.54167
1726.181	274.54167
1729.113	277.20833
1732.044	283.875
1734.972	273.875
1737.899	293.54167
1740.823	286.20833
1743.745	311.20833
1746.665	267.875
1749.583	260.54167
1752.499	262.54167
1755.413	261.20833
1758.325	250.54167
1761.235	258.54167
1764.142	250.20833
1767.048	248.875
1769.951	249.54167
1772.852	242.20833
1775.752	247.875
1778.649	253.20833
1781.544	261.54167
1784.437	233.20833
1787.328	247.54167
1790.217	246.20833
1793.104	222.54167
1795.989	230.875
1798.872	224.20833
1801.753	245.54167
1804.631	224.54167
1807.508	241.54167
1810.383	232.875
1813.255	233.54167
1816.126	225.875
1818.994	223.20833
1821.861	227.875
1824.725	235.54167
1827.587	236.875
1830.448	227.20833
1833.306	219.54167
1836.162	235.20833
1839.017	224.54167
1841.869	232.875
1844.719	224.20833
1847.567	208.875
1850.414	201.20833
1853.258	205.875
1856.1	224.875
1858.94	229.20833
1861.778	218.20833
1864.614	206.54167
1867.448	227.20833
1870.28	206.54167
1873.111	228.54167
1875.939	212.54167
1878.765	229.20833
1881.589	211.875
1884.411	222.20833
1887.231	217.20833
1890.049	215.875
1892.865	223.875
1895.68	209.54167
1898.492	222.54167
1901.302	211.20833
1904.11	205.54167
1906.916	211.875
1909.721	208.875
1912.523	212.20833
1915.323	208.875
1918.122	202.20833
1920.918	223.54167
1923.712	200.54167
1926.505	210.54167
1929.295	196.20833
1932.084	209.875
1934.87	206.54167
1937.655	201.54167
1940.438	191.875
1943.218	205.20833
1945.997	206.20833
1948.774	208.54167
1951.549	204.875
1954.322	196.20833
1957.093	198.875
1959.862	193.20833
1962.629	193.54167
1965.394	196.20833
1968.157	186.875
1970.918	204.54167
1973.678	194.20833
1976.435	207.20833
1979.19	190.20833
1981.944	178.54167
1984.696	187.20833
1987.445	181.875
1990.193	193.54167
1992.939	206.20833
1995.683	194.20833
1998.425	179.54167
2001.165	214.54167
2003.903	178.20833
2006.639	184.20833
2009.374	195.54167
2012.106	194.875
2014.837	170.875
2017.566	190.875
2020.292	189.54167
2023.017	176.54167
2025.74	177.875
2028.461	182.54167
2031.18	184.20833
2033.898	168.875
2036.613	183.875
2039.327	184.875
2042.038	177.20833
2044.748	175.875
2047.456	188.54167
2050.162	170.54167
2052.866	170.875
2055.568	188.20833
2058.268	179.20833
2060.967	185.875
2063.663	165.54167
2066.358	169.20833
2069.051	168.20833
2071.742	174.20833
2074.431	185.20833
2077.118	178.20833
2079.804	161.54167
2082.487	172.20833
2085.169	193.20833
2087.849	196.20833
2090.527	172.20833
2093.203	179.875
2095.877	177.20833
2098.55	176.54167
2101.22	187.54167
2103.889	190.875
2106.556	179.20833
2109.221	192.54167
2111.884	184.20833
2114.546	203.54167
2117.205	205.54167
2119.863	230.875
2122.519	227.875
2125.173	245.54167
2127.825	268.20833
2130.475	271.20833
2133.124	245.54167
2135.771	237.20833
2138.416	251.54167
2141.059	218.875
2143.7	222.875
2146.339	206.54167
2148.977	182.54167
2151.613	196.20833
2154.247	192.54167
2156.879	183.20833
2159.51	168.54167
2162.138	176.20833
2164.765	173.20833
2167.39	165.54167
2170.013	189.54167
2172.634	180.875
2175.254	168.54167
2177.872	202.875
2180.488	158.54167
2183.102	172.875
2185.714	166.54167
2188.325	156.875
2190.934	174.20833
2193.541	170.20833
2196.146	163.20833
2198.75	155.875
2201.351	152.54167
2203.951	141.54167
2206.549	167.54167
2209.146	158.20833
2211.74	150.20833
2214.333	166.875
2216.924	146.54167
2219.514	154.875
2222.101	151.54167
2224.687	168.54167
2227.271	137.54167
2229.853	148.875
2232.433	132.20833
2235.012	156.20833
2237.589	149.54167
2240.164	161.20833
2242.738	145.20833
2245.309	141.20833
2247.879	159.20833
2250.448	154.54167
2253.014	141.54167
2255.579	130.875
2258.142	138.20833
2260.703	138.20833
2263.262	140.20833
2265.82	130.54167
2268.376	152.54167
2270.93	144.875
2273.483	138.875
2276.033	148.20833
2278.583	131.54167
2281.13	134.20833
2283.675	126.20833
2286.219	134.54167
2288.761	142.54167
2291.302	144.875
2293.841	151.875
2296.377	131.54167
2298.913	139.54167
2301.446	149.875
2303.978	135.875
2306.508	139.875
2309.037	141.875
2311.563	136.20833
2314.088	139.54167
2316.612	122.20833
2319.133	138.875
2321.653	138.54167
2324.171	129.54167
2326.688	143.54167
2329.202	138.20833
2331.715	133.875
2334.227	138.20833
2336.736	137.54167
2339.244	134.875
2341.751	123.54167
2344.255	143.20833
2346.758	134.54167
2349.259	127.875
2351.759	130.20833
2354.257	122.54167
2356.753	124.54167
2359.247	121.54167
2361.74	131.54167
2364.231	129.54167
2366.721	134.20833
2369.209	124.54167
2371.695	127.875
2374.179	123.20833
2376.662	116.875
2379.143	139.875
2381.622	121.54167
2384.1	134.875
2386.576	125.20833
2389.051	138.875
2391.524	139.54167
2393.995	132.54167
2396.464	121.20833
2398.932	121.20833
2401.398	129.875
2403.863	120.875
2406.325	121.54167
2408.787	129.54167
2411.246	123.20833
2413.704	125.875
2416.16	121.54167
2418.615	121.875
2421.068	128.875
2423.519	122.54167
2425.969	110.875
2428.417	134.20833
2430.863	147.20833
2433.308	132.54167
2435.751	128.54167
2438.193	125.54167
2440.633	125.54167
2443.071	138.54167
2445.508	122.54167
2447.943	124.875
2450.376	120.20833
2452.808	126.54167
2455.238	114.20833
2457.667	148.20833
2460.093	118.54167
2462.519	113.54167
2464.942	113.20833
2467.365	127.54167
2469.785	125.20833
2472.204	115.54167
2474.621	116.54167
2477.037	137.20833
2479.451	111.875
2481.863	108.875
2484.274	114.54167
2486.683	123.875
2489.091	130.20833
2491.497	123.54167
2493.901	120.54167
2496.304	115.54167
2498.705	125.875
2501.105	123.20833
2503.503	142.20833
2505.899	110.54167
2508.294	133.20833
2510.687	116.875
2513.079	118.875
2515.469	116.875
2517.858	113.875
2520.245	127.875
2522.63	119.875
2525.014	112.875
2527.396	109.54167
2529.776	114.54167
2532.156	122.875
2534.533	109.875
2536.909	108.54167
2539.283	103.54167
2541.656	110.875
2544.027	124.20833
2546.397	118.20833
2548.765	112.20833
2551.131	121.875
2553.496	120.875
2555.86	115.54167
2558.221	122.875
2560.582	108.875
2562.94	105.875
2565.298	117.54167
2567.653	126.54167
2570.007	105.54167
2572.36	123.20833
2574.711	112.54167
2577.06	126.875
2579.408	118.20833
2581.754	109.875
2584.099	114.875
2586.442	110.20833
2588.784	124.20833
2591.124	111.54167
2593.463	111.54167
2595.8	118.20833
2598.135	102.875
2600.469	109.875
2602.802	121.20833
2605.133	124.20833
2607.462	109.54167
2609.79	107.875
2612.116	121.54167
2614.441	112.54167
2616.764	117.54167
2619.086	116.875
2621.406	109.54167
2623.725	126.54167
2626.042	108.875
2628.358	102.54167
2630.672	118.20833
2632.985	120.20833
2635.296	115.54167
2637.606	107.54167
2639.914	106.54167
2642.22	115.875
2644.525	113.54167
2646.829	113.54167
2649.131	129.875
2651.432	120.875
2653.731	106.20833
2656.028	131.875
2658.324	112.20833
2660.619	104.20833
2662.912	125.54167
2665.204	98.875
2667.494	117.875
2669.782	102.875
2672.07	122.875
2674.355	123.54167
2676.639	116.54167
2678.922	111.20833
2681.203	120.54167
2683.483	108.20833
2685.761	104.54167
2688.038	121.875
2690.313	128.20833
2692.587	119.54167
2694.859	111.54167
2697.13	112.20833
2699.399	115.875
2701.667	123.875
2703.933	114.875
2706.198	128.875
2708.461	122.875
2710.723	126.20833
2712.984	122.54167
2715.243	128.20833
2717.5	120.54167
2719.757	128.20833
2722.011	117.20833
2724.264	129.54167
2726.516	135.20833
2728.766	113.20833
2731.015	124.20833
2733.262	126.20833
2735.508	116.20833
2737.753	124.875
2739.996	110.875
2742.237	114.875
2744.477	124.20833
2746.716	137.20833
2748.953	130.875
2751.189	132.20833
2753.423	130.20833
2755.656	116.875
2757.887	111.54167
2760.117	109.54167
2762.346	107.54167
2764.573	106.54167
2766.798	111.20833
2769.022	117.54167
2771.245	107.20833
2773.467	114.54167
2775.686	117.54167
2777.905	119.54167
2780.122	110.54167
2782.337	123.54167
2784.552	111.875
2786.764	118.20833
2788.976	107.875
2791.186	115.54167
2793.394	117.875
2795.601	125.20833
2797.807	129.20833
2800.011	124.20833
2802.214	132.20833
2804.415	127.20833
2806.615	128.20833
2808.814	122.875
2811.011	132.875
2813.206	129.875
2815.401	137.54167
2817.594	138.20833
2819.785	139.54167
2821.975	123.54167
2824.164	130.875
2826.351	127.875
2828.537	143.54167
2830.722	142.54167
2832.905	135.875
2835.086	144.20833
2837.267	155.875
2839.445	154.20833
2841.623	151.54167
2843.799	151.54167
2845.974	162.54167
2848.147	162.54167
2850.319	168.20833
2852.489	171.875
2854.659	177.54167
2856.826	179.875
2858.993	195.54167
2861.158	172.54167
2863.321	182.54167
2865.483	200.54167
2867.644	186.20833
2869.804	187.54167
2871.962	181.54167
2874.118	186.875
2876.274	190.54167
2878.428	187.875
2880.58	189.20833
2882.731	175.54167
2884.881	188.54167
2887.03	194.54167
2889.177	184.54167
2891.322	197.20833
2893.467	183.875
2895.61	178.20833
2897.751	196.875
2899.892	182.20833
2902.03	192.54167
2904.168	185.54167
2906.304	191.20833
2908.439	203.875
2910.572	182.875
2912.704	193.20833
2914.835	203.54167
2916.965	198.54167
2919.093	211.54167
2921.219	187.20833
2923.345	216.54167
2925.469	196.875
2927.591	193.54167
2929.712	179.875
2931.832	193.20833
2933.951	187.875
2936.068	177.54167
2938.184	181.54167
2940.299	173.54167
2942.412	176.54167
2944.524	162.875
2946.634	168.20833
2948.744	151.875
2950.851	181.20833
2952.958	153.54167
2955.063	165.875
2957.167	152.54167
2959.269	141.54167
2961.371	172.875
2963.471	141.54167
2965.569	162.54167
2967.666	139.20833
2969.762	137.875
2971.857	133.20833
2973.95	134.875
2976.042	143.875
2978.133	136.875
2980.222	130.875
2982.31	120.54167
2984.396	113.54167
2986.482	115.875
2988.566	121.54167
2990.648	116.875
2992.73	122.54167
2994.81	108.54167
2996.889	123.54167
2998.966	120.875
3001.042	127.54167
3003.117	113.54167
3005.191	120.54167
3007.263	123.54167
3009.334	121.20833
3011.403	127.54167
3013.472	107.54167
3015.539	129.54167
3017.604	132.20833
3019.669	104.20833
3021.732	109.20833
3023.794	111.20833
3025.854	103.875
3027.914	100.20833
3029.971	102.20833
3032.028	107.54167
3034.083	116.54167
3036.137	110.20833
3038.19	98.875
3040.242	95.20833
3042.292	92.20833
3044.341	98.875
3046.388	116.875
3048.435	95.875
3050.48	114.20833
3052.524	102.54167
3054.566	84.875
3056.607	100.875
3058.647	90.875
3060.686	82.875
3062.723	79.20833
3064.759	83.54167
3066.794	-0.125
3068.828	1.20833
3070.86	0.875
