-0.839	121.04167
3.438	140.375
7.711	59.70833
11.981	40.70833
16.247	30.375
20.509	38.70833
24.768	36.04167
29.024	40.70833
33.276	26.375
37.524	39.70833
41.769	29.04167
46.01	24.70833
50.247	40.04167
54.481	50.375
58.712	52.70833
62.939	39.375
67.162	52.70833
71.382	45.375
75.599	35.375
79.812	45.70833
84.021	64.04167
88.227	38.375
92.429	46.375
96.628	35.70833
100.823	49.375
105.015	47.375
109.204	46.04167
113.388	54.70833
117.57	38.70833
121.748	51.70833
125.922	44.375
130.093	61.04167
134.261	59.70833
138.425	45.70833
142.585	76.70833
146.742	57.70833
150.896	70.04167
155.046	62.70833
159.193	91.04167
163.336	124.70833
167.476	207.04167
171.613	363.70833
175.746	568.04167
179.875	823.04167
184.002	1056.04167
188.124	1243.70833
192.244	1298.04167
196.36	1288.04167
200.472	1278.04167
204.581	1274.70833
208.687	1227.375
212.79	1224.04167
216.889	1241.375
220.984	1237.375
225.077	1244.04167
229.165	1245.375
233.251	1236.375
237.333	1234.70833
241.412	1233.70833
245.487	1240.04167
249.559	1196.375
253.628	1226.375
257.694	1197.04167
261.756	1198.375
265.814	1168.375
269.87	1135.04167
273.922	1097.375
277.97	1081.04167
282.016	1088.375
286.058	1058.375
290.097	1098.375
294.132	1099.70833
298.164	1107.375
302.193	1067.70833
306.219	993.04167
310.241	939.375
314.26	874.70833
318.276	819.70833
322.288	810.375
326.297	767.70833
330.303	762.04167
334.305	748.70833
338.305	734.04167
342.301	728.04167
346.294	728.70833
350.283	716.375
354.269	712.375
358.252	708.04167
362.232	713.375
366.209	714.70833
370.182	695.375
374.152	692.04167
378.119	706.375
382.083	682.04167
386.043	713.04167
390	693.375
393.954	706.04167
397.905	706.375
401.852	726.04167
405.797	699.375
409.738	706.375
413.676	734.04167
417.61	738.04167
421.542	716.375
425.47	673.375
429.396	665.375
433.318	666.04167
437.236	680.375
441.152	720.375
445.065	660.04167
448.974	679.04167
452.88	667.04167
456.783	653.70833
460.683	659.375
464.58	667.375
468.473	681.04167
472.364	667.70833
476.251	675.375
480.135	662.04167
484.016	672.375
487.894	685.04167
491.769	679.375
495.641	684.04167
499.509	689.70833
503.375	701.375
507.237	693.70833
511.096	695.375
514.952	736.70833
518.805	756.70833
522.655	767.04167
526.502	722.04167
530.346	700.70833
534.187	688.04167
538.024	672.375
541.859	668.04167
545.69	685.04167
549.519	674.70833
553.344	671.04167
557.166	657.375
560.985	655.375
564.802	666.375
568.615	653.375
572.425	641.70833
576.232	640.375
580.036	643.04167
583.836	652.375
587.634	660.04167
591.429	649.70833
595.221	662.04167
599.01	657.375
602.796	658.04167
606.578	659.70833
610.358	677.375
614.135	649.70833
617.909	664.04167
621.679	653.70833
625.447	638.375
629.212	649.70833
632.973	655.70833
636.732	654.375
640.488	661.375
644.241	635.04167
647.991	632.04167
651.737	661.04167
655.481	630.04167
659.222	646.70833
662.96	634.375
666.695	654.70833
670.427	640.375
674.156	650.70833
677.882	649.70833
681.605	652.375
685.325	638.04167
689.043	656.04167
692.757	637.04167
696.468	640.70833
700.177	642.04167
703.882	628.70833
707.585	631.70833
711.284	628.375
714.981	615.375
718.675	612.70833
722.366	638.04167
726.054	617.04167
729.739	621.70833
733.421	622.70833
737.1	615.375
740.777	638.70833
744.45	626.375
748.121	636.375
751.789	652.04167
755.453	635.70833
759.115	648.70833
762.774	643.375
766.431	650.04167
770.084	649.375
773.734	637.375
777.382	672.04167
781.027	657.375
784.669	658.375
788.308	651.04167
791.944	662.70833
795.577	671.375
799.208	664.70833
802.835	675.70833
806.46	679.70833
810.082	677.375
813.701	672.04167
817.317	690.375
820.931	681.04167
824.542	695.04167
828.149	686.04167
831.754	661.375
835.357	666.04167
838.956	676.04167
842.553	667.70833
846.146	660.70833
849.737	644.04167
853.326	652.04167
856.911	628.70833
860.493	669.375
864.073	658.375
867.65	688.04167
871.225	700.375
874.796	681.70833
878.365	665.70833
881.931	675.70833
885.494	688.70833
889.054	673.04167
892.612	698.375
896.166	684.375
899.719	669.375
903.268	648.375
906.814	660.375
910.358	637.375
913.899	631.04167
917.438	629.70833
920.973	614.375
924.506	637.70833
928.036	643.04167
931.564	656.70833
935.088	666.04167
938.61	657.70833
942.129	643.04167
945.646	663.04167
949.16	659.70833
952.671	668.04167
956.179	687.375
959.685	660.04167
963.188	685.375
966.688	678.70833
970.185	647.04167
973.68	625.04167
977.173	625.04167
980.662	615.70833
984.149	638.375
987.633	605.04167
991.114	610.04167
994.593	632.375
998.069	644.04167
1001.542	664.375
1005.013	658.70833
1008.481	622.04167
1011.947	600.375
1015.409	597.70833
1018.869	608.375
1022.327	611.70833
1025.782	599.375
1029.234	599.04167
1032.683	599.375
1036.13	579.375
1039.574	543.375
1043.016	555.70833
1046.455	544.375
1049.891	529.375
1053.325	537.70833
1056.756	530.04167
1060.184	528.04167
1063.61	523.70833
1067.033	536.04167
1070.454	539.375
1073.872	552.04167
1077.287	524.70833
1080.7	533.70833
1084.11	533.04167
1087.517	535.70833
1090.922	533.70833
1094.325	521.70833
1097.724	520.04167
1101.122	518.375
1104.516	514.375
1107.908	507.04167
1111.298	505.70833
1114.684	521.375
1118.069	518.375
1121.45	543.70833
1124.83	516.375
1128.206	532.375
1131.58	531.04167
1134.951	540.70833
1138.32	554.375
1141.687	582.04167
1145.05	588.375
1148.412	590.04167
1151.77	583.375
1155.126	577.375
1158.48	574.04167
1161.831	574.04167
1165.18	573.70833
1168.525	584.70833
1171.869	572.375
1175.21	577.70833
1178.548	595.04167
1181.884	595.375
1185.217	598.70833
1188.548	611.04167
1191.877	611.70833
1195.202	655.04167
1198.526	667.375
1201.846	650.04167
1205.165	656.04167
1208.48	667.375
1211.794	656.04167
1215.104	676.375
1218.413	652.70833
1221.719	670.375
1225.022	648.375
1228.323	642.375
1231.621	641.04167
1234.917	632.70833
1238.21	664.375
1241.501	644.04167
1244.79	625.70833
1248.076	606.04167
1251.359	625.04167
1254.64	667.70833
1257.919	642.04167
1261.195	649.04167
1264.468	652.04167
1267.74	668.375
1271.008	659.375
1274.275	666.04167
1277.538	656.04167
1280.8	667.70833
1284.059	647.70833
1287.315	675.375
1290.569	658.04167
1293.821	673.70833
1297.07	675.375
1300.317	685.04167
1303.562	676.375
1306.803	681.04167
1310.043	662.04167
1313.28	659.04167
1316.515	650.04167
1319.747	672.375
1322.977	650.70833
1326.204	654.375
1329.429	659.70833
1332.652	661.04167
1335.872	663.04167
1339.09	631.70833
1342.306	654.375
1345.519	640.70833
1348.729	631.70833
1351.938	632.375
1355.144	623.375
1358.347	616.375
1361.548	635.70833
1364.747	631.70833
1367.944	602.04167
1371.138	612.375
1374.329	620.375
1377.518	617.04167
1380.705	619.04167
1383.89	614.70833
1387.072	597.375
1390.252	592.375
1393.429	568.70833
1396.605	554.04167
1399.777	538.375
1402.948	535.04167
1406.116	536.70833
1409.282	537.04167
1412.445	539.04167
1415.606	537.375
1418.765	538.70833
1421.921	557.04167
1425.075	549.70833
1428.227	562.70833
1431.376	582.70833
1434.524	599.70833
1437.668	614.375
1440.811	621.375
1443.951	615.70833
1447.089	624.375
1450.224	613.70833
1453.357	606.04167
1456.488	618.70833
1459.617	610.04167
1462.743	592.70833
1465.867	566.375
1468.989	574.70833
1472.108	570.70833
1475.225	560.04167
1478.34	558.70833
1481.453	554.70833
1484.563	539.70833
1487.671	555.375
1490.776	563.375
1493.88	568.375
1496.981	588.04167
1500.08	576.375
1503.176	582.375
1506.271	585.375
1509.363	597.04167
1512.452	589.70833
1515.54	586.375
1518.625	604.04167
1521.708	634.04167
1524.789	640.04167
1527.867	643.70833
1530.944	674.70833
1534.018	679.04167
1537.089	729.70833
1540.159	736.375
1543.226	733.375
1546.291	719.375
1549.354	711.04167
1552.415	705.04167
1555.473	690.04167
1558.529	685.375
1561.583	679.04167
1564.634	662.375
1567.684	671.375
1570.731	657.70833
1573.776	678.375
1576.819	676.04167
1579.859	669.70833
1582.898	690.375
1585.934	691.04167
1588.968	700.70833
1591.999	677.375
1595.029	683.70833
1598.056	689.375
1601.081	716.375
1604.104	706.70833
1607.125	685.04167
1610.144	673.04167
1613.16	655.375
1616.174	633.70833
1619.186	640.375
1622.196	631.70833
1625.203	601.375
1628.209	614.04167
1631.212	604.04167
1634.213	619.375
1637.212	619.04167
1640.209	626.375
1643.203	590.70833
1646.196	574.70833
1649.186	557.04167
1652.174	558.375
1655.16	531.70833
1658.144	534.70833
1661.125	497.70833
1664.105	487.04167
1667.082	465.375
1670.057	436.375
1673.03	415.375
1676.001	408.04167
1678.97	378.375
1681.937	356.70833
1684.901	351.375
1687.863	342.375
1690.824	330.04167
1693.782	336.375
1696.738	298.04167
1699.692	320.04167
1702.643	295.70833
1705.593	299.70833
1708.54	308.70833
1711.486	307.375
1714.429	292.04167
1717.37	296.375
1720.309	290.70833
1723.246	298.375
1726.181	283.70833
1729.113	286.375
1732.044	285.375
1734.972	281.70833
1737.899	291.375
1740.823	294.375
1743.745	314.375
1746.665	268.04167
1749.583	270.04167
1752.499	263.375
1755.413	262.375
1758.325	256.375
1761.235	267.375
1764.142	255.375
1767.048	251.70833
1769.951	252.70833
1772.852	260.375
1775.752	269.70833
1778.649	272.70833
1781.544	276.04167
1784.437	235.70833
1787.328	256.375
1790.217	251.70833
1793.104	227.70833
1795.989	235.375
1798.872	231.70833
1801.753	250.70833
1804.631	246.375
1807.508	245.375
1810.383	245.70833
1813.255	239.70833
1816.126	232.70833
1818.994	237.375
1821.861	239.04167
1824.725	245.70833
1827.587	245.375
1830.448	233.04167
1833.306	227.04167
1836.162	245.70833
1839.017	228.70833
1841.869	240.04167
1844.719	235.70833
1847.567	218.375
1850.414	219.04167
1853.258	223.70833
1856.1	233.375
1858.94	240.70833
1861.778	223.04167
1864.614	211.375
1867.448	232.04167
1870.28	215.70833
1873.111	236.04167
1875.939	221.04167
1878.765	239.70833
1881.589	221.70833
1884.411	219.70833
1887.231	228.70833
1890.049	228.375
1892.865	231.375
1895.68	217.375
1898.492	229.70833
1901.302	218.70833
1904.11	211.375
1906.916	222.375
1909.721	220.375
1912.523	229.70833
1915.323	213.375
1918.122	208.70833
1920.918	229.375
1923.712	212.70833
1926.505	219.70833
1929.295	197.375
1932.084	220.70833
1934.87	218.70833
1937.655	213.375
1940.438	206.375
1943.218	209.375
1945.997	209.70833
1948.774	224.375
1951.549	218.70833
1954.322	203.04167
1957.093	213.04167
1959.862	204.375
1962.629	206.04167
1965.394	207.04167
1968.157	192.04167
1970.918	204.04167
1973.678	193.70833
1976.435	206.375
1979.19	202.04167
1981.944	191.70833
1984.696	199.70833
1987.445	202.04167
1990.193	206.375
1992.939	215.04167
1995.683	203.70833
1998.425	184.375
2001.165	218.375
2003.903	188.375
2006.639	198.04167
2009.374	206.04167
2012.106	206.70833
2014.837	179.70833
2017.566	202.70833
2020.292	200.70833
2023.017	187.04167
2025.74	187.04167
2028.461	189.70833
2031.18	196.70833
2033.898	190.375
2036.613	194.70833
2039.327	199.04167
2042.038	183.375
2044.748	191.70833
2047.456	198.70833
2050.162	175.70833
2052.866	185.04167
2055.568	201.375
2058.268	185.04167
2060.967	202.04167
2063.663	181.375
2066.358	182.04167
2069.051	177.70833
2071.742	189.04167
2074.431	192.375
2077.118	186.70833
2079.804	171.375
2082.487	178.70833
2085.169	194.04167
2087.849	204.04167
2090.527	185.04167
2093.203	186.375
2095.877	192.375
2098.55	188.375
2101.22	184.70833
2103.889	202.375
2106.556	184.70833
2109.221	200.04167
2111.884	186.375
2114.546	202.70833
2117.205	202.04167
2119.863	229.04167
2122.519	213.70833
2125.173	225.04167
2127.825	251.04167
2130.475	252.04167
2133.124	229.04167
2135.771	228.70833
2138.416	240.375
2141.059	219.70833
2143.7	224.375
2146.339	198.04167
2148.977	185.70833
2151.613	199.70833
2154.247	199.70833
2156.879	192.375
2159.51	183.375
2162.138	184.375
2164.765	181.375
2167.39	174.04167
2170.013	198.375
2172.634	189.375
2175.254	182.04167
2177.872	218.70833
2180.488	169.375
2183.102	182.375
2185.714	181.375
2188.325	171.04167
2190.934	183.70833
2193.541	189.375
2196.146	184.04167
2198.75	162.04167
2201.351	168.04167
2203.951	157.04167
2206.549	181.04167
2209.146	167.70833
2211.74	159.70833
2214.333	173.70833
2216.924	162.375
2219.514	169.70833
2222.101	169.70833
2224.687	181.70833
2227.271	162.375
2229.853	164.04167
2232.433	147.70833
2235.012	171.375
2237.589	165.04167
2240.164	182.375
2242.738	161.04167
2245.309	160.375
2247.879	183.70833
2250.448	173.70833
2253.014	156.04167
2255.579	149.375
2258.142	156.04167
2260.703	158.70833
2263.262	156.375
2265.82	153.04167
2268.376	166.04167
2270.93	159.375
2273.483	150.04167
2276.033	164.04167
2278.583	153.04167
2281.13	151.04167
2283.675	149.04167
2286.219	158.04167
2288.761	160.70833
2291.302	161.375
2293.841	170.04167
2296.377	150.375
2298.913	162.70833
2301.446	165.04167
2303.978	151.375
2306.508	158.04167
2309.037	161.04167
2311.563	158.04167
2314.088	155.04167
2316.612	148.04167
2319.133	154.70833
2321.653	162.70833
2324.171	154.04167
2326.688	165.375
2329.202	156.70833
2331.715	160.375
2334.227	160.70833
2336.736	159.375
2339.244	151.375
2341.751	148.04167
2344.255	161.375
2346.758	156.375
2349.259	147.70833
2351.759	155.70833
2354.257	146.04167
2356.753	148.70833
2359.247	149.375
2361.74	154.70833
2364.231	154.70833
2366.721	160.375
2369.209	155.04167
2371.695	156.375
2374.179	144.70833
2376.662	138.70833
2379.143	157.70833
2381.622	145.70833
2384.1	159.70833
2386.576	148.375
2389.051	164.375
2391.524	168.70833
2393.995	161.70833
2396.464	151.70833
2398.932	152.70833
2401.398	154.375
2403.863	144.375
2406.325	147.375
2408.787	154.04167
2411.246	153.70833
2413.704	160.375
2416.16	152.375
2418.615	148.375
2421.068	159.04167
2423.519	150.04167
2425.969	145.70833
2428.417	168.04167
2430.863	174.04167
2433.308	158.375
2435.751	155.70833
2438.193	160.70833
2440.633	154.375
2443.071	161.04167
2445.508	151.70833
2447.943	154.70833
2450.376	154.04167
2452.808	161.70833
2455.238	144.04167
2457.667	179.04167
2460.093	151.375
2462.519	138.375
2464.942	145.70833
2467.365	151.70833
2469.785	156.70833
2472.204	148.04167
2474.621	151.04167
2477.037	170.04167
2479.451	140.70833
2481.863	143.70833
2484.274	146.375
2486.683	158.70833
2489.091	165.375
2491.497	155.70833
2493.901	153.04167
2496.304	150.70833
2498.705	164.04167
2501.105	157.375
2503.503	174.04167
2505.899	153.375
2508.294	170.04167
2510.687	152.375
2513.079	157.375
2515.469	152.04167
2517.858	151.04167
2520.245	167.375
2522.63	154.375
2525.014	152.375
2527.396	153.70833
2529.776	155.375
2532.156	162.04167
2534.533	146.04167
2536.909	144.70833
2539.283	138.375
2541.656	151.375
2544.027	172.70833
2546.397	161.70833
2548.765	154.375
2551.131	159.70833
2553.496	158.70833
2555.86	162.375
2558.221	164.04167
2560.582	152.04167
2562.94	145.375
2565.298	158.70833
2567.653	168.375
2570.007	145.70833
2572.36	163.375
2574.711	149.70833
2577.06	167.04167
2579.408	156.375
2581.754	153.70833
2584.099	157.70833
2586.442	154.375
2588.784	165.375
2591.124	157.70833
2593.463	167.04167
2595.8	161.70833
2598.135	150.70833
2600.469	156.70833
2602.802	168.375
2605.133	167.70833
2607.462	150.375
2609.79	144.04167
2612.116	162.70833
2614.441	158.70833
2616.764	168.70833
2619.086	158.04167
2621.406	158.70833
2623.725	175.04167
2626.042	164.375
2628.358	160.70833
2630.672	166.375
2632.985	176.04167
2635.296	171.04167
2637.606	165.375
2639.914	162.375
2642.22	165.04167
2644.525	173.375
2646.829	164.375
2649.131	181.04167
2651.432	176.04167
2653.731	161.375
2656.028	182.04167
2658.324	170.375
2660.619	164.375
2662.912	179.70833
2665.204	160.375
2667.494	176.04167
2669.782	161.375
2672.07	179.70833
2674.355	176.70833
2676.639	177.04167
2678.922	169.375
2681.203	177.375
2683.483	166.70833
2685.761	159.04167
2688.038	182.04167
2690.313	187.375
2692.587	180.04167
2694.859	168.70833
2697.13	175.04167
2699.399	178.04167
2701.667	188.70833
2703.933	180.70833
2706.198	185.04167
2708.461	182.70833
2710.723	182.375
2712.984	174.70833
2715.243	188.04167
2717.5	181.04167
2719.757	193.04167
2722.011	179.04167
2724.264	189.375
2726.516	199.375
2728.766	185.04167
2731.015	187.375
2733.262	187.375
2735.508	187.70833
2737.753	185.70833
2739.996	178.70833
2742.237	176.70833
2744.477	193.375
2746.716	201.375
2748.953	197.04167
2751.189	193.375
2753.423	186.70833
2755.656	184.375
2757.887	176.375
2760.117	187.04167
2762.346	179.70833
2764.573	173.70833
2766.798	182.04167
2769.022	182.375
2771.245	182.04167
2773.467	192.375
2775.686	187.375
2777.905	190.04167
2780.122	186.70833
2782.337	193.70833
2784.552	186.70833
2786.764	188.375
2788.976	190.375
2791.186	189.04167
2793.394	189.04167
2795.601	200.70833
2797.807	204.70833
2800.011	191.04167
2802.214	199.04167
2804.415	198.70833
2806.615	199.04167
2808.814	202.70833
2811.011	214.375
2813.206	202.04167
2815.401	212.70833
2817.594	207.70833
2819.785	207.375
2821.975	206.70833
2824.164	204.70833
2826.351	203.70833
2828.537	218.375
2830.722	214.375
2832.905	209.04167
2835.086	213.70833
2837.267	235.375
2839.445	226.70833
2841.623	229.375
2843.799	222.04167
2845.974	233.04167
2848.147	235.375
2850.319	237.70833
2852.489	245.375
2854.659	249.375
2856.826	249.375
2858.993	273.04167
2861.158	251.375
2863.321	255.70833
2865.483	265.375
2867.644	265.70833
2869.804	260.375
2871.962	259.375
2874.118	263.70833
2876.274	273.375
2878.428	262.70833
2880.58	263.375
2882.731	248.70833
2884.881	253.375
2887.03	261.375
2889.177	265.70833
2891.322	266.375
2893.467	250.04167
2895.61	253.375
2897.751	270.375
2899.892	264.70833
2902.03	271.70833
2904.168	253.375
2906.304	259.04167
2908.439	285.04167
2910.572	256.04167
2912.704	268.70833
2914.835	275.04167
2916.965	267.70833
2919.093	289.70833
2921.219	261.70833
2923.345	290.375
2925.469	269.375
2927.591	272.04167
2929.712	263.375
2931.832	274.70833
2933.951	263.04167
2936.068	268.375
2938.184	259.04167
2940.299	253.375
2942.412	253.04167
2944.524	238.04167
2946.634	261.70833
2948.744	234.375
2950.851	269.70833
2952.958	244.04167
2955.063	253.04167
2957.167	247.375
2959.269	228.70833
2961.371	265.04167
2963.471	242.375
2965.569	257.04167
2967.666	228.04167
2969.762	233.375
2971.857	231.70833
2973.95	224.70833
2976.042	236.375
2978.133	223.04167
2980.222	221.04167
2982.31	212.04167
2984.396	200.04167
2986.482	216.70833
2988.566	210.04167
2990.648	220.04167
2992.73	208.375
2994.81	204.375
2996.889	217.70833
2998.966	210.70833
3001.042	219.70833
3003.117	209.375
3005.191	218.375
3007.263	223.375
3009.334	216.70833
3011.403	218.70833
3013.472	215.70833
3015.539	228.375
3017.604	224.04167
3019.669	198.375
3021.732	203.04167
3023.794	207.375
3025.854	196.70833
3027.914	197.70833
3029.971	202.70833
3032.028	203.375
3034.083	204.70833
3036.137	208.375
3038.19	192.375
3040.242	183.375
3042.292	181.375
3044.341	189.70833
3046.388	207.375
3048.435	176.375
3050.48	194.375
3052.524	181.375
3054.566	171.375
3056.607	183.375
3058.647	175.70833
3060.686	163.70833
3062.723	157.375
3064.759	153.70833
3066.794	2.04167
3068.828	-0.625
3070.86	2.04167
