-0.839	313.45833
3.438	327.125
7.711	102.45833
11.981	48.79167
16.247	45.45833
20.509	39.79167
24.768	43.125
29.024	46.79167
33.276	42.125
37.524	52.45833
41.769	38.79167
46.01	35.79167
50.247	47.45833
54.481	61.125
58.712	64.45833
62.939	47.45833
67.162	60.125
71.382	52.45833
75.599	46.45833
79.812	60.125
84.021	77.125
88.227	59.79167
92.429	59.79167
96.628	47.45833
100.823	60.45833
105.015	72.125
109.204	76.45833
113.388	75.45833
117.57	65.45833
121.748	85.125
125.922	75.45833
130.093	88.79167
134.261	105.45833
138.425	95.45833
142.585	134.79167
146.742	136.45833
150.896	156.79167
155.046	188.79167
159.193	306.79167
163.336	527.45833
167.476	968.79167
171.613	1773.125
175.746	2929.45833
179.875	4279.125
184.002	5552.125
188.124	6394.79167
192.244	6676.79167
196.36	6600.45833
200.472	6366.79167
204.581	6253.45833
208.687	6059.79167
212.79	6052.45833
216.889	6097.79167
220.984	6092.125
225.077	6208.125
229.165	6293.45833
233.251	6319.79167
237.333	6361.45833
241.412	6326.79167
245.487	6296.45833
249.559	6263.45833
253.628	6183.125
257.694	6118.45833
261.756	6066.45833
265.814	5926.45833
269.87	5745.79167
273.922	5575.125
277.97	5505.79167
282.016	5451.125
286.058	5482.125
290.097	5548.79167
294.132	5521.79167
298.164	5366.79167
302.193	5111.79167
306.219	4733.125
310.241	4303.45833
314.26	3954.79167
318.276	3616.79167
322.288	3417.125
326.297	3198.79167
330.303	3046.45833
334.305	2950.125
338.305	2900.125
342.301	2857.125
346.294	2815.125
350.283	2771.45833
354.269	2746.125
358.252	2735.45833
362.232	2676.45833
366.209	2690.79167
370.182	2666.45833
374.152	2645.45833
378.119	2625.45833
382.083	2630.45833
386.043	2663.125
390	2586.125
393.954	2562.45833
397.905	2557.45833
401.852	2550.125
405.797	2505.125
409.738	2478.125
413.676	2507.125
417.61	2492.125
421.542	2433.79167
425.47	2403.79167
429.396	2356.125
433.318	2360.125
437.236	2352.45833
441.152	2356.79167
445.065	2329.79167
448.974	2297.45833
452.88	2272.45833
456.783	2268.45833
460.683	2269.125
464.58	2283.125
468.473	2253.79167
472.364	2266.79167
476.251	2259.79167
480.135	2281.45833
484.016	2324.45833
487.894	2319.79167
491.769	2324.125
495.641	2334.125
499.509	2324.125
503.375	2324.45833
507.237	2328.79167
511.096	2307.125
514.952	2338.79167
518.805	2322.79167
522.655	2325.79167
526.502	2293.125
530.346	2293.125
534.187	2290.79167
538.024	2270.79167
541.859	2303.125
545.69	2316.79167
549.519	2300.125
553.344	2288.79167
557.166	2241.79167
560.985	2234.125
564.802	2206.45833
568.615	2181.45833
572.425	2141.45833
576.232	2132.45833
580.036	2108.125
583.836	2138.79167
587.634	2146.45833
591.429	2127.45833
595.221	2194.125
599.01	2190.79167
602.796	2226.45833
606.578	2248.125
610.358	2262.125
614.135	2227.45833
617.909	2241.79167
621.679	2226.79167
625.447	2182.45833
629.212	2189.125
632.973	2228.125
636.732	2207.125
640.488	2224.79167
644.241	2178.45833
647.991	2158.125
651.737	2192.125
655.481	2144.45833
659.222	2154.125
662.96	2151.79167
666.695	2170.125
670.427	2163.125
674.156	2186.45833
677.882	2196.45833
681.605	2190.125
685.325	2166.45833
689.043	2179.79167
692.757	2181.125
696.468	2193.125
700.177	2174.79167
703.882	2163.45833
707.585	2185.79167
711.284	2191.45833
714.981	2176.125
718.675	2199.45833
722.366	2206.79167
726.054	2189.45833
729.739	2208.125
733.421	2211.45833
737.1	2188.79167
740.777	2202.125
744.45	2216.79167
748.121	2237.79167
751.789	2299.45833
755.453	2275.79167
759.115	2290.79167
762.774	2310.45833
766.431	2335.125
770.084	2359.45833
773.734	2384.45833
777.382	2435.125
781.027	2451.45833
784.669	2462.45833
788.308	2479.79167
791.944	2519.125
795.577	2523.45833
799.208	2546.45833
802.835	2565.45833
806.46	2560.79167
810.082	2591.45833
813.701	2589.45833
817.317	2622.125
820.931	2626.125
824.542	2595.79167
828.149	2603.45833
831.754	2578.45833
835.357	2553.125
838.956	2576.125
842.553	2558.79167
846.146	2557.125
849.737	2536.45833
853.326	2564.45833
856.911	2570.45833
860.493	2623.79167
864.073	2629.125
867.65	2685.79167
871.225	2704.45833
874.796	2686.79167
878.365	2688.45833
881.931	2711.79167
885.494	2747.125
889.054	2752.45833
892.612	2711.45833
896.166	2683.45833
899.719	2667.45833
903.268	2631.79167
906.814	2623.125
910.358	2613.125
913.899	2587.45833
917.438	2609.79167
920.973	2607.45833
924.506	2626.79167
928.036	2635.45833
931.564	2680.125
935.088	2697.79167
938.61	2709.45833
942.129	2746.45833
945.646	2823.79167
949.16	2862.45833
952.671	2939.45833
956.179	2957.125
959.685	2942.125
963.188	2897.125
966.688	2818.125
970.185	2759.45833
973.68	2731.45833
977.173	2723.45833
980.662	2714.125
984.149	2731.125
987.633	2740.79167
991.114	2762.79167
994.593	2883.125
998.069	2952.79167
1001.542	3025.79167
1005.013	2957.125
1008.481	2785.79167
1011.947	2752.125
1015.409	2752.45833
1018.869	2762.45833
1022.327	2736.125
1025.782	2715.125
1029.234	2705.45833
1032.683	2672.125
1036.13	2572.79167
1039.574	2499.45833
1043.016	2423.125
1046.455	2386.79167
1049.891	2367.45833
1053.325	2371.79167
1056.756	2378.79167
1060.184	2397.125
1063.61	2398.79167
1067.033	2393.45833
1070.454	2424.79167
1073.872	2441.79167
1077.287	2446.45833
1080.7	2471.125
1084.11	2451.79167
1087.517	2442.79167
1090.922	2420.45833
1094.325	2375.45833
1097.724	2345.125
1101.122	2369.125
1104.516	2347.45833
1107.908	2354.79167
1111.298	2398.45833
1114.684	2407.79167
1118.069	2426.125
1121.45	2469.45833
1124.83	2447.79167
1128.206	2476.125
1131.58	2510.125
1134.951	2586.45833
1138.32	2659.125
1141.687	2770.79167
1145.05	2821.79167
1148.412	2856.79167
1151.77	2842.79167
1155.126	2839.125
1158.48	2830.45833
1161.831	2852.125
1165.18	2894.125
1168.525	2917.45833
1171.869	2962.45833
1175.21	2971.45833
1178.548	3006.125
1181.884	3033.79167
1185.217	3037.45833
1188.548	3115.45833
1191.877	3152.45833
1195.202	3243.125
1198.526	3265.45833
1201.846	3284.45833
1205.165	3303.125
1208.48	3268.125
1211.794	3283.125
1215.104	3253.125
1218.413	3262.79167
1221.719	3255.125
1225.022	3250.45833
1228.323	3214.79167
1231.621	3212.45833
1234.917	3179.125
1238.21	3225.45833
1241.501	3222.79167
1244.79	3210.45833
1248.076	3218.79167
1251.359	3257.79167
1254.64	3313.125
1257.919	3327.125
1261.195	3380.79167
1264.468	3439.45833
1267.74	3472.45833
1271.008	3470.125
1274.275	3446.125
1277.538	3415.79167
1280.8	3411.125
1284.059	3404.125
1287.315	3438.125
1290.569	3464.125
1293.821	3473.125
1297.07	3479.45833
1300.317	3481.79167
1303.562	3471.79167
1306.803	3448.79167
1310.043	3383.125
1313.28	3351.125
1316.515	3306.125
1319.747	3279.79167
1322.977	3238.79167
1326.204	3175.79167
1329.429	3154.45833
1332.652	3128.125
1335.872	3130.45833
1339.09	3088.125
1342.306	3119.125
1345.519	3081.45833
1348.729	3070.45833
1351.938	3065.79167
1355.144	3030.125
1358.347	2968.125
1361.548	2974.79167
1364.747	2986.79167
1367.944	2966.45833
1371.138	2987.79167
1374.329	3038.125
1377.518	3034.45833
1380.705	3079.125
1383.89	3030.125
1387.072	2958.125
1390.252	2881.45833
1393.429	2791.125
1396.605	2715.125
1399.777	2644.45833
1402.948	2620.79167
1406.116	2583.45833
1409.282	2592.79167
1412.445	2586.79167
1415.606	2636.79167
1418.765	2685.79167
1421.921	2744.45833
1425.075	2800.79167
1428.227	2890.125
1431.376	3011.79167
1434.524	3090.125
1437.668	3143.125
1440.811	3174.125
1443.951	3185.125
1447.089	3206.79167
1450.224	3207.79167
1453.357	3177.125
1456.488	3145.45833
1459.617	3073.125
1462.743	3046.79167
1465.867	2987.79167
1468.989	2956.45833
1472.108	2903.79167
1475.225	2870.45833
1478.34	2828.125
1481.453	2834.79167
1484.563	2812.125
1487.671	2899.79167
1490.776	2931.125
1493.88	2972.125
1496.981	3015.45833
1500.08	3089.79167
1503.176	3117.79167
1506.271	3193.79167
1509.363	3232.125
1512.452	3239.45833
1515.54	3322.45833
1518.625	3397.45833
1521.708	3533.79167
1524.789	3701.45833
1527.867	3914.125
1530.944	4189.45833
1534.018	4395.125
1537.089	4526.125
1540.159	4507.45833
1543.226	4422.45833
1546.291	4260.125
1549.354	4105.45833
1552.415	4005.45833
1555.473	3887.125
1558.529	3804.45833
1561.583	3745.125
1564.634	3703.79167
1567.684	3699.125
1570.731	3676.125
1573.776	3718.125
1576.819	3730.79167
1579.859	3744.79167
1582.898	3778.79167
1585.934	3782.45833
1588.968	3814.45833
1591.999	3827.45833
1595.029	3823.79167
1598.056	3825.125
1601.081	3859.79167
1604.104	3838.45833
1607.125	3800.45833
1610.144	3689.79167
1613.16	3631.79167
1616.174	3529.79167
1619.186	3444.79167
1622.196	3332.45833
1625.203	3271.79167
1628.209	3203.45833
1631.212	3206.45833
1634.213	3133.125
1637.212	3112.125
1640.209	3057.125
1643.203	2999.45833
1646.196	2925.79167
1649.186	2813.125
1652.174	2720.125
1655.16	2656.45833
1658.144	2564.125
1661.125	2424.45833
1664.105	2339.45833
1667.082	2236.125
1670.057	2140.79167
1673.03	1984.125
1676.001	1870.45833
1678.97	1768.45833
1681.937	1663.79167
1684.901	1588.45833
1687.863	1548.45833
1690.824	1468.125
1693.782	1442.79167
1696.738	1393.45833
1699.692	1366.79167
1702.643	1316.79167
1705.593	1308.79167
1708.54	1300.45833
1711.486	1295.45833
1714.429	1256.45833
1717.37	1259.125
1720.309	1222.45833
1723.246	1231.79167
1726.181	1201.79167
1729.113	1213.125
1732.044	1183.79167
1734.972	1176.125
1737.899	1184.125
1740.823	1160.79167
1743.745	1181.79167
1746.665	1123.125
1749.583	1101.45833
1752.499	1094.79167
1755.413	1088.45833
1758.325	1051.125
1761.235	1052.45833
1764.142	1024.45833
1767.048	1031.79167
1769.951	1021.79167
1772.852	1009.45833
1775.752	1014.45833
1778.649	1024.79167
1781.544	1005.79167
1784.437	970.125
1787.328	998.125
1790.217	978.79167
1793.104	946.125
1795.989	946.45833
1798.872	951.79167
1801.753	958.45833
1804.631	962.45833
1807.508	967.79167
1810.383	945.45833
1813.255	944.45833
1816.126	947.79167
1818.994	941.45833
1821.861	918.45833
1824.725	931.45833
1827.587	922.79167
1830.448	922.45833
1833.306	898.79167
1836.162	918.45833
1839.017	882.45833
1841.869	904.45833
1844.719	899.125
1847.567	878.125
1850.414	862.45833
1853.258	875.125
1856.1	892.79167
1858.94	896.79167
1861.778	883.45833
1864.614	874.79167
1867.448	886.125
1870.28	868.125
1873.111	888.45833
1875.939	874.45833
1878.765	884.125
1881.589	869.45833
1884.411	871.79167
1887.231	871.125
1890.049	861.125
1892.865	863.79167
1895.68	852.125
1898.492	859.45833
1901.302	840.79167
1904.11	857.125
1906.916	839.125
1909.721	835.125
1912.523	850.125
1915.323	816.79167
1918.122	830.125
1920.918	833.125
1923.712	824.45833
1926.505	827.45833
1929.295	802.125
1932.084	823.79167
1934.87	828.45833
1937.655	819.125
1940.438	809.79167
1943.218	806.125
1945.997	818.45833
1948.774	835.125
1951.549	820.79167
1954.322	798.45833
1957.093	811.125
1959.862	787.79167
1962.629	800.125
1965.394	795.45833
1968.157	775.45833
1970.918	795.79167
1973.678	779.45833
1976.435	790.125
1979.19	781.45833
1981.944	774.45833
1984.696	772.45833
1987.445	768.125
1990.193	776.79167
1992.939	788.45833
1995.683	777.125
1998.425	740.45833
2001.165	788.79167
2003.903	762.79167
2006.639	753.45833
2009.374	760.79167
2012.106	775.79167
2014.837	744.125
2017.566	758.125
2020.292	768.45833
2023.017	754.79167
2025.74	745.125
2028.461	748.79167
2031.18	759.125
2033.898	733.125
2036.613	753.79167
2039.327	739.79167
2042.038	736.79167
2044.748	737.125
2047.456	728.45833
2050.162	729.125
2052.866	733.125
2055.568	743.45833
2058.268	734.79167
2060.967	738.125
2063.663	716.45833
2066.358	728.79167
2069.051	718.125
2071.742	720.79167
2074.431	733.45833
2077.118	721.125
2079.804	725.45833
2082.487	721.45833
2085.169	740.125
2087.849	744.79167
2090.527	735.79167
2093.203	742.79167
2095.877	752.125
2098.55	746.45833
2101.22	771.79167
2103.889	783.125
2106.556	786.79167
2109.221	818.45833
2111.884	862.125
2114.546	931.125
2117.205	1006.45833
2119.863	1093.45833
2122.519	1204.125
2125.173	1285.45833
2127.825	1363.45833
2130.475	1360.45833
2133.124	1320.125
2135.771	1245.79167
2138.416	1202.125
2141.059	1119.45833
2143.7	1057.79167
2146.339	996.125
2148.977	937.79167
2151.613	909.79167
2154.247	875.45833
2156.879	862.79167
2159.51	825.45833
2162.138	805.79167
2164.765	808.45833
2167.39	785.45833
2170.013	796.45833
2172.634	799.125
2175.254	775.45833
2177.872	801.125
2180.488	744.125
2183.102	743.79167
2185.714	731.45833
2188.325	712.125
2190.934	719.79167
2193.541	722.79167
2196.146	706.125
2198.75	691.79167
2201.351	683.125
2203.951	676.125
2206.549	688.45833
2209.146	667.125
2211.74	659.125
2214.333	654.79167
2216.924	638.79167
2219.514	633.79167
2222.101	634.125
2224.687	648.125
2227.271	625.79167
2229.853	622.125
2232.433	607.79167
2235.012	630.45833
2237.589	629.125
2240.164	628.125
2242.738	617.45833
2245.309	600.79167
2247.879	610.45833
2250.448	610.125
2253.014	602.45833
2255.579	579.45833
2258.142	573.79167
2260.703	576.125
2263.262	577.125
2265.82	571.45833
2268.376	574.125
2270.93	561.79167
2273.483	558.45833
2276.033	563.79167
2278.583	557.79167
2281.13	551.125
2283.675	537.45833
2286.219	545.45833
2288.761	549.79167
2291.302	553.125
2293.841	552.79167
2296.377	530.45833
2298.913	543.45833
2301.446	546.125
2303.978	545.125
2306.508	532.79167
2309.037	527.79167
2311.563	531.45833
2314.088	538.125
2316.612	510.79167
2319.133	521.45833
2321.653	518.79167
2324.171	506.45833
2326.688	531.45833
2329.202	516.45833
2331.715	515.45833
2334.227	510.125
2336.736	505.125
2339.244	509.45833
2341.751	499.45833
2344.255	503.125
2346.758	501.45833
2349.259	499.45833
2351.759	498.125
2354.257	494.125
2356.753	485.125
2359.247	494.45833
2361.74	497.45833
2364.231	485.79167
2366.721	497.45833
2369.209	482.125
2371.695	485.79167
2374.179	481.79167
2376.662	474.125
2379.143	503.45833
2381.622	475.125
2384.1	484.45833
2386.576	480.79167
2389.051	491.79167
2391.524	487.125
2393.995	484.45833
2396.464	477.125
2398.932	465.45833
2401.398	480.125
2403.863	464.45833
2406.325	473.125
2408.787	466.79167
2411.246	469.79167
2413.704	460.79167
2416.16	460.125
2418.615	462.125
2421.068	476.125
2423.519	464.79167
2425.969	449.45833
2428.417	475.125
2430.863	477.125
2433.308	471.125
2435.751	460.79167
2438.193	452.79167
2440.633	466.45833
2443.071	455.125
2445.508	451.79167
2447.943	448.79167
2450.376	439.45833
2452.808	459.125
2455.238	440.79167
2457.667	477.79167
2460.093	453.79167
2462.519	433.125
2464.942	439.79167
2467.365	454.125
2469.785	445.125
2472.204	445.79167
2474.621	426.125
2477.037	457.79167
2479.451	429.45833
2481.863	415.125
2484.274	427.45833
2486.683	431.125
2489.091	429.45833
2491.497	429.45833
2493.901	428.45833
2496.304	423.79167
2498.705	436.79167
2501.105	409.45833
2503.503	449.79167
2505.899	419.45833
2508.294	437.79167
2510.687	412.125
2513.079	422.79167
2515.469	410.79167
2517.858	413.79167
2520.245	429.125
2522.63	422.79167
2525.014	409.79167
2527.396	411.45833
2529.776	399.79167
2532.156	415.45833
2534.533	398.125
2536.909	406.125
2539.283	389.45833
2541.656	406.45833
2544.027	411.79167
2546.397	409.45833
2548.765	401.45833
2551.131	409.125
2553.496	406.79167
2555.86	403.45833
2558.221	395.125
2560.582	394.45833
2562.94	386.79167
2565.298	400.45833
2567.653	417.45833
2570.007	382.79167
2572.36	397.125
2574.711	386.45833
2577.06	412.79167
2579.408	396.45833
2581.754	392.79167
2584.099	397.125
2586.442	390.79167
2588.784	395.79167
2591.124	392.125
2593.463	388.45833
2595.8	393.79167
2598.135	379.45833
2600.469	389.125
2602.802	406.79167
2605.133	396.125
2607.462	375.125
2609.79	385.125
2612.116	392.79167
2614.441	384.125
2616.764	389.79167
2619.086	379.79167
2621.406	376.125
2623.725	392.45833
2626.042	387.79167
2628.358	387.125
2630.672	385.79167
2632.985	391.79167
2635.296	388.79167
2637.606	381.45833
2639.914	379.45833
2642.22	391.125
2644.525	381.79167
2646.829	384.45833
2649.131	402.125
2651.432	391.79167
2653.731	380.79167
2656.028	395.125
2658.324	388.79167
2660.619	377.79167
2662.912	398.125
2665.204	383.79167
2667.494	390.45833
2669.782	380.125
2672.07	388.45833
2674.355	404.125
2676.639	396.125
2678.922	378.79167
2681.203	402.45833
2683.483	382.125
2685.761	378.125
2688.038	396.125
2690.313	409.45833
2692.587	391.45833
2694.859	393.125
2697.13	393.125
2699.399	399.45833
2701.667	412.79167
2703.933	412.79167
2706.198	407.45833
2708.461	409.45833
2710.723	415.79167
2712.984	417.79167
2715.243	418.125
2717.5	409.79167
2719.757	418.125
2722.011	416.45833
2724.264	425.125
2726.516	439.45833
2728.766	423.45833
2731.015	425.45833
2733.262	421.125
2735.508	419.79167
2737.753	419.125
2739.996	396.45833
2742.237	401.45833
2744.477	414.45833
2746.716	419.45833
2748.953	415.79167
2751.189	410.45833
2753.423	398.125
2755.656	397.45833
2757.887	385.125
2760.117	393.125
2762.346	390.45833
2764.573	384.79167
2766.798	392.125
2769.022	390.79167
2771.245	394.125
2773.467	400.79167
2775.686	395.79167
2777.905	398.125
2780.122	412.79167
2782.337	420.45833
2784.552	406.45833
2786.764	421.45833
2788.976	422.79167
2791.186	433.79167
2793.394	425.125
2795.601	438.45833
2797.807	447.45833
2800.011	458.45833
2802.214	470.79167
2804.415	460.45833
2806.615	463.79167
2808.814	475.45833
2811.011	477.79167
2813.206	481.125
2815.401	501.45833
2817.594	511.79167
2819.785	514.79167
2821.975	499.79167
2824.164	520.79167
2826.351	531.79167
2828.537	553.45833
2830.722	551.79167
2832.905	563.125
2835.086	590.45833
2837.267	625.125
2839.445	647.125
2841.623	655.79167
2843.799	682.79167
2845.974	704.79167
2848.147	731.125
2850.319	751.79167
2852.489	787.125
2854.659	778.45833
2856.826	809.79167
2858.993	827.45833
2861.158	806.79167
2863.321	814.79167
2865.483	825.125
2867.644	832.125
2869.804	817.79167
2871.962	821.125
2874.118	824.45833
2876.274	838.79167
2878.428	821.79167
2880.58	820.79167
2882.731	793.45833
2884.881	812.79167
2887.03	801.45833
2889.177	790.45833
2891.322	819.79167
2893.467	796.45833
2895.61	802.45833
2897.751	827.79167
2899.892	809.79167
2902.03	819.79167
2904.168	823.79167
2906.304	819.125
2908.439	854.79167
2910.572	824.125
2912.704	838.79167
2914.835	844.125
2916.965	827.79167
2919.093	841.45833
2921.219	798.79167
2923.345	826.79167
2925.469	805.45833
2927.591	796.79167
2929.712	760.79167
2931.832	763.45833
2933.951	745.125
2936.068	722.125
2938.184	696.45833
2940.299	673.125
2942.412	655.45833
2944.524	625.45833
2946.634	616.125
2948.744	566.79167
2950.851	593.79167
2952.958	544.45833
2955.063	531.125
2957.167	534.79167
2959.269	486.125
2961.371	514.45833
2963.471	472.125
2965.569	474.45833
2967.666	445.125
2969.762	434.45833
2971.857	418.45833
2973.95	411.125
2976.042	408.45833
2978.133	396.79167
2980.222	388.125
2982.31	361.45833
2984.396	352.45833
2986.482	348.45833
2988.566	350.125
2990.648	344.45833
2992.73	342.125
2994.81	322.79167
2996.889	326.45833
2998.966	323.125
3001.042	329.79167
3003.117	317.45833
3005.191	317.125
3007.263	310.79167
3009.334	301.125
3011.403	309.45833
3013.472	286.79167
3015.539	289.79167
3017.604	303.45833
3019.669	267.125
3021.732	272.79167
3023.794	279.45833
3025.854	269.45833
3027.914	264.45833
3029.971	267.79167
3032.028	263.79167
3034.083	264.79167
3036.137	268.125
3038.19	243.125
3040.242	246.45833
3042.292	236.45833
3044.341	236.125
3046.388	243.79167
3048.435	219.45833
3050.48	244.125
3052.524	240.125
3054.566	214.125
3056.607	234.45833
3058.647	218.79167
3060.686	210.45833
3062.723	208.125
3064.759	192.79167
3066.794	-0.54167
3068.828	0.45833
3070.86	-1.54167
