-0.839	313.83333
3.438	332.83333
7.711	96.5
11.981	46.5
16.247	45.83333
20.509	43.5
24.768	47.5
29.024	49.16667
33.276	43.5
37.524	47.16667
41.769	39.83333
46.01	35.16667
50.247	46.83333
54.481	57.5
58.712	61.83333
62.939	46.5
67.162	61.5
71.382	57.5
75.599	44.83333
79.812	66.5
84.021	80.5
88.227	54.83333
92.429	58.83333
96.628	44.83333
100.823	64.83333
105.015	74.83333
109.204	78.5
113.388	75.5
117.57	68.83333
121.748	88.83333
125.922	72.5
130.093	97.5
134.261	104.83333
138.425	91.83333
142.585	134.5
146.742	133.16667
150.896	154.83333
155.046	191.5
159.193	310.5
163.336	528.5
167.476	971.5
171.613	1750.16667
175.746	2934.5
179.875	4279.16667
184.002	5567.5
188.124	6395.16667
192.244	6661.83333
196.36	6567.16667
200.472	6396.5
204.581	6214.16667
208.687	6098.16667
212.79	6025.16667
216.889	6080.16667
220.984	6127.5
225.077	6210.5
229.165	6311.83333
233.251	6322.83333
237.333	6387.16667
241.412	6361.83333
245.487	6310.16667
249.559	6268.5
253.628	6207.83333
257.694	6182.83333
261.756	6089.16667
265.814	5915.5
269.87	5764.83333
273.922	5600.16667
277.97	5523.16667
282.016	5468.83333
286.058	5451.83333
290.097	5534.83333
294.132	5541.83333
298.164	5405.5
302.193	5161.16667
306.219	4746.16667
310.241	4351.83333
314.26	3933.5
318.276	3634.16667
322.288	3363.83333
326.297	3206.16667
330.303	3067.5
334.305	2973.5
338.305	2880.16667
342.301	2845.16667
346.294	2807.83333
350.283	2791.16667
354.269	2767.16667
358.252	2732.5
362.232	2714.5
366.209	2693.16667
370.182	2667.83333
374.152	2648.5
378.119	2634.16667
382.083	2658.16667
386.043	2651.5
390	2605.83333
393.954	2609.83333
397.905	2558.16667
401.852	2578.5
405.797	2503.5
409.738	2509.83333
413.676	2518.5
417.61	2500.5
421.542	2451.83333
425.47	2402.16667
429.396	2392.83333
433.318	2379.83333
437.236	2363.16667
441.152	2373.83333
445.065	2308.83333
448.974	2312.83333
452.88	2307.16667
456.783	2286.5
460.683	2260.83333
464.58	2273.5
468.473	2279.5
472.364	2268.83333
476.251	2298.16667
480.135	2307.16667
484.016	2330.83333
487.894	2337.16667
491.769	2339.83333
495.641	2334.5
499.509	2357.5
503.375	2328.16667
507.237	2336.83333
511.096	2309.83333
514.952	2331.83333
518.805	2317.16667
522.655	2330.16667
526.502	2301.5
530.346	2279.83333
534.187	2312.83333
538.024	2311.16667
541.859	2303.16667
545.69	2327.83333
549.519	2302.5
553.344	2288.5
557.166	2250.16667
560.985	2234.5
564.802	2197.5
568.615	2192.5
572.425	2167.16667
576.232	2135.5
580.036	2119.16667
583.836	2150.16667
587.634	2157.5
591.429	2148.16667
595.221	2212.83333
599.01	2222.16667
602.796	2224.16667
606.578	2268.83333
610.358	2259.5
614.135	2234.83333
617.909	2255.83333
621.679	2250.16667
625.447	2213.5
629.212	2220.16667
632.973	2242.16667
636.732	2227.16667
640.488	2217.83333
644.241	2191.16667
647.991	2183.83333
651.737	2195.16667
655.481	2147.5
659.222	2166.83333
662.96	2168.83333
666.695	2189.5
670.427	2196.5
674.156	2188.83333
677.882	2213.5
681.605	2210.83333
685.325	2174.83333
689.043	2190.16667
692.757	2172.5
696.468	2193.16667
700.177	2194.83333
703.882	2203.83333
707.585	2190.16667
711.284	2198.16667
714.981	2205.83333
718.675	2224.16667
722.366	2217.16667
726.054	2187.5
729.739	2187.16667
733.421	2210.5
737.1	2203.83333
740.777	2229.5
744.45	2224.16667
748.121	2264.16667
751.789	2272.16667
755.453	2301.5
759.115	2313.83333
762.774	2337.83333
766.431	2343.83333
770.084	2383.16667
773.734	2402.16667
777.382	2440.83333
781.027	2451.83333
784.669	2483.16667
788.308	2481.16667
791.944	2517.83333
795.577	2527.83333
799.208	2556.16667
802.835	2558.5
806.46	2577.5
810.082	2605.83333
813.701	2600.16667
817.317	2634.5
820.931	2628.83333
824.542	2630.83333
828.149	2580.16667
831.754	2571.5
835.357	2580.16667
838.956	2578.83333
842.553	2570.83333
846.146	2550.5
849.737	2548.5
853.326	2554.5
856.911	2586.16667
860.493	2609.5
864.073	2612.5
867.65	2671.83333
871.225	2728.83333
874.796	2704.83333
878.365	2701.16667
881.931	2712.83333
885.494	2749.16667
889.054	2721.16667
892.612	2725.83333
896.166	2692.5
899.719	2686.16667
903.268	2643.83333
906.814	2625.16667
910.358	2623.83333
913.899	2610.83333
917.438	2621.16667
920.973	2607.16667
924.506	2644.16667
928.036	2640.5
931.564	2689.83333
935.088	2714.5
938.61	2724.83333
942.129	2766.5
945.646	2817.16667
949.16	2887.16667
952.671	2935.5
956.179	2940.5
959.685	2909.83333
963.188	2906.5
966.688	2844.83333
970.185	2773.5
973.68	2745.16667
977.173	2736.5
980.662	2719.5
984.149	2733.83333
987.633	2728.83333
991.114	2789.5
994.593	2902.16667
998.069	2966.83333
1001.542	3054.16667
1005.013	2973.83333
1008.481	2837.16667
1011.947	2769.5
1015.409	2764.16667
1018.869	2765.5
1022.327	2758.83333
1025.782	2726.5
1029.234	2738.16667
1032.683	2690.5
1036.13	2617.83333
1039.574	2528.83333
1043.016	2432.16667
1046.455	2404.83333
1049.891	2358.16667
1053.325	2404.83333
1056.756	2380.16667
1060.184	2399.83333
1063.61	2407.83333
1067.033	2438.16667
1070.454	2426.16667
1073.872	2463.16667
1077.287	2442.83333
1080.7	2448.5
1084.11	2457.16667
1087.517	2441.5
1090.922	2427.5
1094.325	2404.5
1097.724	2370.83333
1101.122	2356.83333
1104.516	2353.83333
1107.908	2357.5
1111.298	2405.83333
1114.684	2426.5
1118.069	2440.5
1121.45	2466.5
1124.83	2464.16667
1128.206	2500.16667
1131.58	2524.83333
1134.951	2583.16667
1138.32	2645.16667
1141.687	2773.83333
1145.05	2809.83333
1148.412	2839.5
1151.77	2822.83333
1155.126	2839.5
1158.48	2836.83333
1161.831	2865.16667
1165.18	2897.5
1168.525	2936.5
1171.869	2972.16667
1175.21	3002.16667
1178.548	3011.83333
1181.884	3059.16667
1185.217	3058.83333
1188.548	3126.16667
1191.877	3154.5
1195.202	3234.5
1198.526	3289.16667
1201.846	3269.16667
1205.165	3313.16667
1208.48	3263.5
1211.794	3264.83333
1215.104	3272.83333
1218.413	3261.5
1221.719	3252.16667
1225.022	3243.5
1228.323	3213.5
1231.621	3234.5
1234.917	3211.16667
1238.21	3259.83333
1241.501	3203.5
1244.79	3227.16667
1248.076	3227.5
1251.359	3262.83333
1254.64	3343.16667
1257.919	3357.5
1261.195	3409.5
1264.468	3422.5
1267.74	3470.16667
1271.008	3466.16667
1274.275	3472.83333
1277.538	3414.16667
1280.8	3400.16667
1284.059	3416.5
1287.315	3452.5
1290.569	3466.83333
1293.821	3469.16667
1297.07	3477.5
1300.317	3515.5
1303.562	3496.16667
1306.803	3453.5
1310.043	3425.5
1313.28	3389.5
1316.515	3350.83333
1319.747	3302.16667
1322.977	3238.16667
1326.204	3219.83333
1329.429	3162.83333
1332.652	3136.5
1335.872	3112.83333
1339.09	3091.16667
1342.306	3106.83333
1345.519	3118.5
1348.729	3096.16667
1351.938	3076.83333
1355.144	3028.83333
1358.347	2991.83333
1361.548	2989.5
1364.747	3000.16667
1367.944	2986.83333
1371.138	3010.16667
1374.329	3031.16667
1377.518	3044.5
1380.705	3097.16667
1383.89	3075.16667
1387.072	2963.83333
1390.252	2890.83333
1393.429	2794.5
1396.605	2686.5
1399.777	2615.5
1402.948	2616.5
1406.116	2590.16667
1409.282	2601.83333
1412.445	2599.5
1415.606	2641.16667
1418.765	2668.83333
1421.921	2743.5
1425.075	2789.83333
1428.227	2903.16667
1431.376	2997.16667
1434.524	3105.16667
1437.668	3182.83333
1440.811	3168.16667
1443.951	3204.5
1447.089	3204.83333
1450.224	3210.83333
1453.357	3181.16667
1456.488	3145.5
1459.617	3119.83333
1462.743	3084.83333
1465.867	3004.83333
1468.989	2966.83333
1472.108	2911.5
1475.225	2864.16667
1478.34	2822.83333
1481.453	2842.5
1484.563	2830.83333
1487.671	2870.5
1490.776	2896.16667
1493.88	2981.83333
1496.981	3062.16667
1500.08	3106.5
1503.176	3125.5
1506.271	3189.5
1509.363	3256.83333
1512.452	3275.5
1515.54	3324.5
1518.625	3421.5
1521.708	3531.16667
1524.789	3694.5
1527.867	3940.5
1530.944	4191.83333
1534.018	4402.16667
1537.089	4569.16667
1540.159	4541.5
1543.226	4437.83333
1546.291	4277.5
1549.354	4150.83333
1552.415	4009.5
1555.473	3878.16667
1558.529	3809.5
1561.583	3782.16667
1564.634	3702.5
1567.684	3713.83333
1570.731	3691.16667
1573.776	3716.16667
1576.819	3734.83333
1579.859	3747.5
1582.898	3805.83333
1585.934	3828.16667
1588.968	3856.83333
1591.999	3815.83333
1595.029	3834.5
1598.056	3850.5
1601.081	3842.5
1604.104	3838.5
1607.125	3791.5
1610.144	3718.83333
1613.16	3624.16667
1616.174	3542.83333
1619.186	3452.16667
1622.196	3357.16667
1625.203	3277.16667
1628.209	3226.83333
1631.212	3181.5
1634.213	3141.5
1637.212	3125.5
1640.209	3070.83333
1643.203	3005.83333
1646.196	2927.5
1649.186	2809.5
1652.174	2739.16667
1655.16	2653.16667
1658.144	2571.83333
1661.125	2465.5
1664.105	2332.16667
1667.082	2259.16667
1670.057	2128.83333
1673.03	2004.16667
1676.001	1886.83333
1678.97	1762.5
1681.937	1666.5
1684.901	1577.5
1687.863	1549.83333
1690.824	1468.16667
1693.782	1451.83333
1696.738	1396.16667
1699.692	1377.83333
1702.643	1338.5
1705.593	1330.16667
1708.54	1314.5
1711.486	1300.5
1714.429	1270.5
1717.37	1266.5
1720.309	1242.83333
1723.246	1247.16667
1726.181	1210.5
1729.113	1214.16667
1732.044	1216.83333
1734.972	1190.83333
1737.899	1180.16667
1740.823	1174.5
1743.745	1169.83333
1746.665	1124.5
1749.583	1115.16667
1752.499	1089.5
1755.413	1094.83333
1758.325	1053.5
1761.235	1056.83333
1764.142	1024.83333
1767.048	1042.83333
1769.951	1018.83333
1772.852	1008.83333
1775.752	1016.83333
1778.649	1023.83333
1781.544	1002.5
1784.437	984.16667
1787.328	1001.5
1790.217	971.83333
1793.104	965.83333
1795.989	963.16667
1798.872	953.83333
1801.753	976.5
1804.631	957.83333
1807.508	963.5
1810.383	954.5
1813.255	945.16667
1816.126	944.16667
1818.994	937.5
1821.861	936.16667
1824.725	930.16667
1827.587	917.16667
1830.448	922.16667
1833.306	898.5
1836.162	912.5
1839.017	901.16667
1841.869	901.16667
1844.719	895.5
1847.567	891.16667
1850.414	875.83333
1853.258	895.16667
1856.1	901.5
1858.94	889.83333
1861.778	899.83333
1864.614	882.5
1867.448	874.16667
1870.28	865.16667
1873.111	901.5
1875.939	882.83333
1878.765	902.16667
1881.589	879.83333
1884.411	872.5
1887.231	886.83333
1890.049	872.5
1892.865	860.83333
1895.68	856.5
1898.492	867.83333
1901.302	843.83333
1904.11	847.83333
1906.916	834.16667
1909.721	832.83333
1912.523	847.16667
1915.323	828.83333
1918.122	824.83333
1920.918	841.83333
1923.712	825.16667
1926.505	827.16667
1929.295	826.16667
1932.084	839.16667
1934.87	839.83333
1937.655	823.5
1940.438	811.5
1943.218	819.16667
1945.997	813.83333
1948.774	823.16667
1951.549	822.83333
1954.322	813.5
1957.093	813.5
1959.862	802.5
1962.629	804.5
1965.394	795.16667
1968.157	789.16667
1970.918	799.83333
1973.678	794.83333
1976.435	797.83333
1979.19	771.16667
1981.944	770.5
1984.696	776.16667
1987.445	762.83333
1990.193	784.5
1992.939	790.5
1995.683	777.83333
1998.425	759.83333
2001.165	783.16667
2003.903	760.16667
2006.639	773.83333
2009.374	759.5
2012.106	771.5
2014.837	735.5
2017.566	766.5
2020.292	764.83333
2023.017	756.83333
2025.74	761.83333
2028.461	756.16667
2031.18	755.5
2033.898	740.5
2036.613	737.83333
2039.327	746.16667
2042.038	735.5
2044.748	737.83333
2047.456	744.83333
2050.162	722.16667
2052.866	731.83333
2055.568	731.83333
2058.268	726.16667
2060.967	747.16667
2063.663	717.16667
2066.358	730.16667
2069.051	709.5
2071.742	720.5
2074.431	741.5
2077.118	729.5
2079.804	723.5
2082.487	730.83333
2085.169	732.16667
2087.849	748.83333
2090.527	725.5
2093.203	741.5
2095.877	760.16667
2098.55	739.5
2101.22	774.83333
2103.889	782.5
2106.556	781.16667
2109.221	831.5
2111.884	863.16667
2114.546	935.16667
2117.205	1009.5
2119.863	1112.83333
2122.519	1199.83333
2125.173	1286.16667
2127.825	1354.83333
2130.475	1370.83333
2133.124	1323.83333
2135.771	1276.16667
2138.416	1203.5
2141.059	1115.16667
2143.7	1070.5
2146.339	1009.5
2148.977	926.83333
2151.613	913.16667
2154.247	889.5
2156.879	860.16667
2159.51	831.16667
2162.138	799.16667
2164.765	802.5
2167.39	796.16667
2170.013	794.5
2172.634	778.5
2175.254	777.5
2177.872	791.83333
2180.488	753.16667
2183.102	756.16667
2185.714	740.5
2188.325	717.5
2190.934	722.83333
2193.541	710.5
2196.146	698.83333
2198.75	688.16667
2201.351	687.5
2203.951	665.5
2206.549	685.83333
2209.146	674.16667
2211.74	664.5
2214.333	662.83333
2216.924	648.5
2219.514	645.83333
2222.101	636.16667
2224.687	651.5
2227.271	629.5
2229.853	618.5
2232.433	617.83333
2235.012	624.83333
2237.589	624.5
2240.164	629.5
2242.738	617.5
2245.309	610.16667
2247.879	615.16667
2250.448	613.83333
2253.014	584.5
2255.579	589.16667
2258.142	585.16667
2260.703	576.5
2263.262	570.83333
2265.82	556.16667
2268.376	576.5
2270.93	577.5
2273.483	560.16667
2276.033	560.16667
2278.583	552.83333
2281.13	555.16667
2283.675	543.83333
2286.219	551.83333
2288.761	540.16667
2291.302	551.83333
2293.841	553.83333
2296.377	527.5
2298.913	538.5
2301.446	555.16667
2303.978	538.5
2306.508	536.5
2309.037	532.83333
2311.563	536.16667
2314.088	533.5
2316.612	517.16667
2319.133	519.5
2321.653	526.83333
2324.171	514.16667
2326.688	527.5
2329.202	503.5
2331.715	511.83333
2334.227	515.5
2336.736	502.16667
2339.244	503.16667
2341.751	491.5
2344.255	513.83333
2346.758	505.16667
2349.259	486.83333
2351.759	494.16667
2354.257	493.5
2356.753	485.5
2359.247	500.83333
2361.74	493.16667
2364.231	492.16667
2366.721	496.16667
2369.209	489.5
2371.695	481.5
2374.179	491.5
2376.662	485.5
2379.143	494.16667
2381.622	477.16667
2384.1	489.83333
2386.576	473.16667
2389.051	496.16667
2391.524	499.16667
2393.995	487.83333
2396.464	472.16667
2398.932	463.5
2401.398	469.83333
2403.863	464.16667
2406.325	465.16667
2408.787	466.5
2411.246	466.83333
2413.704	465.5
2416.16	463.5
2418.615	459.16667
2421.068	472.16667
2423.519	465.16667
2425.969	450.5
2428.417	470.5
2430.863	477.5
2433.308	470.16667
2435.751	458.16667
2438.193	463.5
2440.633	461.16667
2443.071	463.83333
2445.508	443.5
2447.943	457.83333
2450.376	435.16667
2452.808	452.5
2455.238	444.16667
2457.667	471.83333
2460.093	451.83333
2462.519	435.5
2464.942	441.16667
2467.365	448.16667
2469.785	446.5
2472.204	445.83333
2474.621	433.5
2477.037	458.16667
2479.451	421.5
2481.863	427.5
2484.274	426.5
2486.683	432.16667
2489.091	434.16667
2491.497	440.16667
2493.901	433.5
2496.304	422.5
2498.705	437.5
2501.105	425.83333
2503.503	445.83333
2505.899	415.83333
2508.294	438.5
2510.687	414.83333
2513.079	420.16667
2515.469	421.5
2517.858	417.5
2520.245	434.5
2522.63	415.16667
2525.014	416.16667
2527.396	408.83333
2529.776	399.83333
2532.156	415.83333
2534.533	405.5
2536.909	414.16667
2539.283	392.5
2541.656	398.83333
2544.027	426.83333
2546.397	405.83333
2548.765	404.5
2551.131	400.5
2553.496	401.83333
2555.86	409.16667
2558.221	400.16667
2560.582	403.5
2562.94	389.5
2565.298	402.83333
2567.653	412.5
2570.007	378.16667
2572.36	408.16667
2574.711	393.83333
2577.06	420.16667
2579.408	387.16667
2581.754	390.5
2584.099	399.83333
2586.442	396.83333
2588.784	392.16667
2591.124	397.5
2593.463	382.16667
2595.8	392.16667
2598.135	381.5
2600.469	385.16667
2602.802	404.16667
2605.133	400.83333
2607.462	381.83333
2609.79	381.83333
2612.116	386.5
2614.441	386.83333
2616.764	390.83333
2619.086	385.83333
2621.406	380.5
2623.725	395.83333
2626.042	382.5
2628.358	381.16667
2630.672	379.5
2632.985	401.5
2635.296	387.83333
2637.606	394.16667
2639.914	382.16667
2642.22	397.16667
2644.525	388.5
2646.829	393.83333
2649.131	400.83333
2651.432	391.5
2653.731	386.83333
2656.028	397.83333
2658.324	387.16667
2660.619	383.83333
2662.912	394.16667
2665.204	376.83333
2667.494	394.83333
2669.782	373.5
2672.07	401.5
2674.355	398.83333
2676.639	387.16667
2678.922	381.83333
2681.203	403.16667
2683.483	381.5
2685.761	379.5
2688.038	389.16667
2690.313	408.83333
2692.587	390.83333
2694.859	389.5
2697.13	390.16667
2699.399	395.16667
2701.667	414.5
2703.933	405.16667
2706.198	411.16667
2708.461	411.16667
2710.723	412.5
2712.984	406.5
2715.243	418.16667
2717.5	411.83333
2719.757	422.83333
2722.011	416.5
2724.264	432.83333
2726.516	429.5
2728.766	421.16667
2731.015	424.5
2733.262	428.5
2735.508	413.5
2737.753	413.83333
2739.996	404.5
2742.237	410.5
2744.477	409.83333
2746.716	410.5
2748.953	409.16667
2751.189	407.83333
2753.423	405.83333
2755.656	397.16667
2757.887	393.16667
2760.117	394.83333
2762.346	388.83333
2764.573	389.83333
2766.798	391.83333
2769.022	402.83333
2771.245	394.16667
2773.467	390.16667
2775.686	405.16667
2777.905	404.16667
2780.122	412.83333
2782.337	415.83333
2784.552	402.16667
2786.764	411.83333
2788.976	421.16667
2791.186	431.83333
2793.394	428.16667
2795.601	443.83333
2797.807	442.5
2800.011	453.5
2802.214	459.16667
2804.415	458.16667
2806.615	460.83333
2808.814	470.83333
2811.011	479.5
2813.206	484.5
2815.401	499.83333
2817.594	505.5
2819.785	514.5
2821.975	504.83333
2824.164	519.16667
2826.351	530.5
2828.537	552.83333
2830.722	572.83333
2832.905	563.16667
2835.086	588.83333
2837.267	614.16667
2839.445	639.16667
2841.623	648.16667
2843.799	675.16667
2845.974	701.16667
2848.147	741.5
2850.319	753.83333
2852.489	788.16667
2854.659	799.5
2856.826	809.16667
2858.993	825.16667
2861.158	810.83333
2863.321	813.5
2865.483	825.5
2867.644	832.5
2869.804	826.5
2871.962	815.16667
2874.118	833.16667
2876.274	837.5
2878.428	841.16667
2880.58	818.5
2882.731	808.5
2884.881	794.5
2887.03	799.16667
2889.177	808.83333
2891.322	809.5
2893.467	804.83333
2895.61	812.83333
2897.751	821.83333
2899.892	810.16667
2902.03	819.83333
2904.168	826.5
2906.304	823.83333
2908.439	848.83333
2910.572	817.16667
2912.704	834.5
2914.835	845.83333
2916.965	843.16667
2919.093	846.83333
2921.219	806.16667
2923.345	823.5
2925.469	814.5
2927.591	798.83333
2929.712	772.83333
2931.832	764.83333
2933.951	733.83333
2936.068	716.5
2938.184	702.83333
2940.299	669.5
2942.412	664.16667
2944.524	624.16667
2946.634	614.16667
2948.744	574.16667
2950.851	585.83333
2952.958	545.16667
2955.063	536.16667
2957.167	516.5
2959.269	506.16667
2961.371	516.5
2963.471	475.16667
2965.569	480.16667
2967.666	447.83333
2969.762	440.16667
2971.857	424.83333
2973.95	407.83333
2976.042	417.5
2978.133	391.16667
2980.222	387.83333
2982.31	367.83333
2984.396	352.16667
2986.482	354.83333
2988.566	353.5
2990.648	342.83333
2992.73	344.83333
2994.81	319.83333
2996.889	337.16667
2998.966	319.83333
3001.042	328.5
3003.117	323.16667
3005.191	317.16667
3007.263	316.16667
3009.334	308.83333
3011.403	302.5
3013.472	293.16667
3015.539	293.5
3017.604	310.16667
3019.669	274.5
3021.732	275.83333
3023.794	287.83333
3025.854	257.5
3027.914	260.83333
3029.971	267.5
3032.028	258.83333
3034.083	264.83333
3036.137	258.16667
3038.19	245.5
3040.242	240.5
3042.292	235.5
3044.341	228.16667
3046.388	252.83333
3048.435	221.5
3050.48	241.16667
3052.524	237.16667
3054.566	216.5
3056.607	236.5
3058.647	221.16667
3060.686	202.83333
3062.723	202.5
3064.759	194.16667
3066.794	1.16667
3068.828	-2.16667
3070.86	-1.16667
