-0.839	420.20833
3.438	459.54167
7.711	128.875
11.981	53.54167
16.247	44.875
20.509	42.875
24.768	42.20833
29.024	45.20833
33.276	43.20833
37.524	48.875
41.769	39.20833
46.01	35.875
50.247	51.20833
54.481	59.20833
58.712	70.875
62.939	51.20833
67.162	66.875
71.382	54.20833
75.599	46.20833
79.812	64.875
84.021	83.875
88.227	60.875
92.429	63.875
96.628	45.875
100.823	65.54167
105.015	76.20833
109.204	77.875
113.388	77.54167
117.57	74.20833
121.748	87.54167
125.922	81.54167
130.093	99.20833
134.261	105.875
138.425	91.20833
142.585	135.20833
146.742	137.20833
150.896	159.54167
155.046	196.875
159.193	319.54167
163.336	564.54167
167.476	1012.875
171.613	1852.875
175.746	3055.875
179.875	4522.20833
184.002	5872.54167
188.124	6790.875
192.244	7097.875
196.36	7033.20833
200.472	6825.20833
204.581	6665.875
208.687	6547.875
212.79	6420.20833
216.889	6462.875
220.984	6558.54167
225.077	6648.54167
229.165	6695.54167
233.251	6770.875
237.333	6836.20833
241.412	6827.54167
245.487	6818.20833
249.559	6705.20833
253.628	6670.54167
257.694	6639.54167
261.756	6544.875
265.814	6433.54167
269.87	6280.20833
273.922	6118.875
277.97	5968.20833
282.016	5921.54167
286.058	5873.20833
290.097	5948.54167
294.132	5912.875
298.164	5861.875
302.193	5588.20833
306.219	5165.54167
310.241	4688.20833
314.26	4292.54167
318.276	3944.875
322.288	3706.875
326.297	3491.54167
330.303	3332.20833
334.305	3236.875
338.305	3162.54167
342.301	3128.20833
346.294	3073.875
350.283	3049.875
354.269	3028.54167
358.252	3002.20833
362.232	2981.875
366.209	2953.54167
370.182	2918.54167
374.152	2939.54167
378.119	2922.54167
382.083	2910.875
386.043	2929.875
390	2894.875
393.954	2874.875
397.905	2853.54167
401.852	2841.875
405.797	2808.20833
409.738	2781.875
413.676	2775.54167
417.61	2765.20833
421.542	2738.54167
425.47	2694.875
429.396	2681.875
433.318	2675.54167
437.236	2652.54167
441.152	2667.875
445.065	2618.54167
448.974	2619.20833
452.88	2568.20833
456.783	2561.875
460.683	2570.20833
464.58	2555.20833
468.473	2560.54167
472.364	2576.875
476.251	2573.20833
480.135	2601.54167
484.016	2612.20833
487.894	2632.875
491.769	2633.875
495.641	2618.20833
499.509	2649.20833
503.375	2634.875
507.237	2634.20833
511.096	2630.20833
514.952	2658.54167
518.805	2668.20833
522.655	2675.54167
526.502	2641.54167
530.346	2600.875
534.187	2613.875
538.024	2615.20833
541.859	2599.54167
545.69	2615.875
549.519	2639.20833
553.344	2582.875
557.166	2562.875
560.985	2553.875
564.802	2504.20833
568.615	2482.54167
572.425	2460.20833
576.232	2427.20833
580.036	2407.20833
583.836	2442.54167
587.634	2423.54167
591.429	2445.20833
595.221	2474.20833
599.01	2495.875
602.796	2509.20833
606.578	2537.875
610.358	2553.20833
614.135	2523.54167
617.909	2531.875
621.679	2530.20833
625.447	2501.54167
629.212	2514.20833
632.973	2536.875
636.732	2497.875
640.488	2511.875
644.241	2487.20833
647.991	2497.875
651.737	2531.54167
655.481	2474.20833
659.222	2506.20833
662.96	2484.875
666.695	2505.54167
670.427	2498.54167
674.156	2530.54167
677.882	2513.20833
681.605	2493.875
685.325	2481.54167
689.043	2490.875
692.757	2480.54167
696.468	2469.54167
700.177	2497.20833
703.882	2487.875
707.585	2507.20833
711.284	2475.20833
714.981	2496.20833
718.675	2493.54167
722.366	2497.20833
726.054	2492.20833
729.739	2473.54167
733.421	2497.20833
737.1	2473.20833
740.777	2520.54167
744.45	2535.20833
748.121	2534.875
751.789	2582.875
755.453	2564.875
759.115	2604.20833
762.774	2632.20833
766.431	2639.20833
770.084	2651.20833
773.734	2683.54167
777.382	2739.54167
781.027	2762.54167
784.669	2764.20833
788.308	2768.54167
791.944	2812.875
795.577	2823.20833
799.208	2838.875
802.835	2885.20833
806.46	2885.875
810.082	2902.20833
813.701	2924.54167
817.317	2943.20833
820.931	2954.875
824.542	2936.54167
828.149	2933.54167
831.754	2878.20833
835.357	2852.20833
838.956	2851.875
842.553	2843.54167
846.146	2810.20833
849.737	2815.875
853.326	2812.20833
856.911	2809.54167
860.493	2847.875
864.073	2878.875
867.65	2916.875
871.225	2943.875
874.796	2944.20833
878.365	2954.54167
881.931	2965.875
885.494	2973.20833
889.054	2972.20833
892.612	2958.20833
896.166	2964.20833
899.719	2903.54167
903.268	2904.20833
906.814	2911.54167
910.358	2871.875
913.899	2868.20833
917.438	2885.20833
920.973	2859.54167
924.506	2900.20833
928.036	2919.54167
931.564	2961.20833
935.088	2993.20833
938.61	2982.20833
942.129	3018.54167
945.646	3076.54167
949.16	3145.875
952.671	3212.875
956.179	3248.54167
959.685	3225.54167
963.188	3208.20833
966.688	3207.54167
970.185	3108.20833
973.68	3035.54167
977.173	3001.20833
980.662	3001.20833
984.149	2985.20833
987.633	2998.875
991.114	3056.20833
994.593	3131.20833
998.069	3244.54167
1001.542	3323.20833
1005.013	3248.20833
1008.481	3076.54167
1011.947	3047.20833
1015.409	3001.54167
1018.869	3022.875
1022.327	3033.20833
1025.782	3006.54167
1029.234	3011.20833
1032.683	2990.875
1036.13	2901.875
1039.574	2801.875
1043.016	2716.20833
1046.455	2681.20833
1049.891	2630.20833
1053.325	2640.20833
1056.756	2656.54167
1060.184	2670.54167
1063.61	2667.20833
1067.033	2704.54167
1070.454	2690.54167
1073.872	2752.20833
1077.287	2728.20833
1080.7	2748.20833
1084.11	2753.875
1087.517	2711.54167
1090.922	2694.54167
1094.325	2646.20833
1097.724	2623.875
1101.122	2610.54167
1104.516	2601.875
1107.908	2596.20833
1111.298	2652.20833
1114.684	2693.54167
1118.069	2709.54167
1121.45	2737.20833
1124.83	2715.54167
1128.206	2742.875
1131.58	2779.20833
1134.951	2842.20833
1138.32	2945.20833
1141.687	3030.875
1145.05	3123.20833
1148.412	3129.20833
1151.77	3133.54167
1155.126	3117.54167
1158.48	3119.54167
1161.831	3132.20833
1165.18	3147.54167
1168.525	3193.20833
1171.869	3222.20833
1175.21	3247.875
1178.548	3273.54167
1181.884	3348.875
1185.217	3344.20833
1188.548	3393.20833
1191.877	3450.54167
1195.202	3521.875
1198.526	3558.20833
1201.846	3593.20833
1205.165	3598.54167
1208.48	3593.54167
1211.794	3578.875
1215.104	3596.54167
1218.413	3614.54167
1221.719	3589.20833
1225.022	3547.875
1228.323	3537.875
1231.621	3537.54167
1234.917	3515.54167
1238.21	3526.20833
1241.501	3503.54167
1244.79	3547.54167
1248.076	3524.54167
1251.359	3555.20833
1254.64	3616.20833
1257.919	3632.20833
1261.195	3689.54167
1264.468	3743.875
1267.74	3787.20833
1271.008	3798.875
1274.275	3798.20833
1277.538	3742.875
1280.8	3745.54167
1284.059	3753.20833
1287.315	3789.54167
1290.569	3783.54167
1293.821	3805.54167
1297.07	3826.875
1300.317	3842.875
1303.562	3840.875
1306.803	3794.875
1310.043	3779.875
1313.28	3729.875
1316.515	3694.20833
1319.747	3651.875
1322.977	3611.54167
1326.204	3542.54167
1329.429	3505.875
1332.652	3498.54167
1335.872	3503.875
1339.09	3462.54167
1342.306	3482.875
1345.519	3457.875
1348.729	3454.20833
1351.938	3430.20833
1355.144	3384.54167
1358.347	3333.54167
1361.548	3320.54167
1364.747	3344.20833
1367.944	3302.875
1371.138	3332.54167
1374.329	3367.875
1377.518	3407.20833
1380.705	3431.20833
1383.89	3410.875
1387.072	3318.54167
1390.252	3195.875
1393.429	3094.20833
1396.605	3016.54167
1399.777	2918.54167
1402.948	2887.875
1406.116	2865.20833
1409.282	2860.20833
1412.445	2881.20833
1415.606	2903.875
1418.765	2944.875
1421.921	3011.875
1425.075	3089.20833
1428.227	3172.54167
1431.376	3301.54167
1434.524	3437.20833
1437.668	3533.54167
1440.811	3529.20833
1443.951	3570.20833
1447.089	3558.875
1450.224	3541.875
1453.357	3526.875
1456.488	3513.54167
1459.617	3435.54167
1462.743	3405.875
1465.867	3329.20833
1468.989	3282.54167
1472.108	3232.54167
1475.225	3165.20833
1478.34	3127.875
1481.453	3093.54167
1484.563	3108.20833
1487.671	3149.54167
1490.776	3199.54167
1493.88	3233.875
1496.981	3309.20833
1500.08	3341.20833
1503.176	3414.875
1506.271	3466.20833
1509.363	3527.54167
1512.452	3551.54167
1515.54	3612.54167
1518.625	3729.54167
1521.708	3826.20833
1524.789	4045.54167
1527.867	4295.875
1530.944	4570.875
1534.018	4773.54167
1537.089	4893.20833
1540.159	4879.20833
1543.226	4772.20833
1546.291	4603.875
1549.354	4453.20833
1552.415	4320.20833
1555.473	4179.20833
1558.529	4073.20833
1561.583	4068.54167
1564.634	4004.875
1567.684	4023.20833
1570.731	4010.875
1573.776	4027.20833
1576.819	4063.54167
1579.859	4104.875
1582.898	4168.54167
1585.934	4212.54167
1588.968	4200.875
1591.999	4166.20833
1595.029	4173.875
1598.056	4200.54167
1601.081	4217.875
1604.104	4213.54167
1607.125	4169.20833
1610.144	4100.875
1613.16	4017.54167
1616.174	3915.20833
1619.186	3839.20833
1622.196	3761.54167
1625.203	3648.20833
1628.209	3621.875
1631.212	3639.54167
1634.213	3626.20833
1637.212	3626.875
1640.209	3570.20833
1643.203	3476.54167
1646.196	3372.875
1649.186	3258.875
1652.174	3152.20833
1655.16	3065.20833
1658.144	2969.54167
1661.125	2816.54167
1664.105	2678.20833
1667.082	2558.54167
1670.057	2427.875
1673.03	2259.20833
1676.001	2133.875
1678.97	1976.875
1681.937	1891.875
1684.901	1775.875
1687.863	1717.875
1690.824	1625.20833
1693.782	1619.54167
1696.738	1568.54167
1699.692	1528.875
1702.643	1485.54167
1705.593	1479.20833
1708.54	1451.54167
1711.486	1451.20833
1714.429	1398.20833
1717.37	1402.875
1720.309	1380.54167
1723.246	1397.54167
1726.181	1345.20833
1729.113	1356.875
1732.044	1330.54167
1734.972	1319.20833
1737.899	1325.54167
1740.823	1320.54167
1743.745	1316.875
1746.665	1277.20833
1749.583	1263.875
1752.499	1228.875
1755.413	1221.54167
1758.325	1184.54167
1761.235	1192.54167
1764.142	1161.20833
1767.048	1151.54167
1769.951	1148.54167
1772.852	1128.875
1775.752	1127.875
1778.649	1146.875
1781.544	1131.54167
1784.437	1097.20833
1787.328	1117.54167
1790.217	1089.875
1793.104	1083.875
1795.989	1067.54167
1798.872	1078.875
1801.753	1106.20833
1804.631	1067.875
1807.508	1084.875
1810.383	1081.54167
1813.255	1069.54167
1816.126	1058.875
1818.994	1044.875
1821.861	1058.54167
1824.725	1041.875
1827.587	1050.54167
1830.448	1033.875
1833.306	1015.54167
1836.162	1030.875
1839.017	1007.54167
1841.869	1014.54167
1844.719	1000.54167
1847.567	999.875
1850.414	1006.54167
1853.258	995.54167
1856.1	1009.875
1858.94	1002.875
1861.778	999.875
1864.614	975.54167
1867.448	989.875
1870.28	982.875
1873.111	1010.20833
1875.939	981.875
1878.765	1010.875
1881.589	980.875
1884.411	970.54167
1887.231	991.875
1890.049	982.54167
1892.865	968.54167
1895.68	960.20833
1898.492	965.875
1901.302	949.875
1904.11	953.54167
1906.916	942.54167
1909.721	952.20833
1912.523	942.20833
1915.323	935.54167
1918.122	933.875
1920.918	931.20833
1923.712	927.875
1926.505	930.875
1929.295	917.20833
1932.084	941.20833
1934.87	924.54167
1937.655	916.20833
1940.438	918.54167
1943.218	917.875
1945.997	916.20833
1948.774	930.54167
1951.549	920.20833
1954.322	906.54167
1957.093	915.54167
1959.862	901.875
1962.629	886.54167
1965.394	890.54167
1968.157	880.875
1970.918	885.20833
1973.678	883.20833
1976.435	893.875
1979.19	891.54167
1981.944	874.875
1984.696	873.20833
1987.445	861.20833
1990.193	866.54167
1992.939	882.54167
1995.683	866.875
1998.425	860.54167
2001.165	882.54167
2003.903	858.54167
2006.639	857.54167
2009.374	855.20833
2012.106	865.20833
2014.837	840.20833
2017.566	837.20833
2020.292	846.54167
2023.017	853.20833
2025.74	836.20833
2028.461	838.54167
2031.18	837.20833
2033.898	834.20833
2036.613	835.875
2039.327	837.20833
2042.038	810.54167
2044.748	829.20833
2047.456	820.875
2050.162	810.54167
2052.866	814.54167
2055.568	826.54167
2058.268	816.20833
2060.967	821.875
2063.663	790.875
2066.358	822.20833
2069.051	798.54167
2071.742	818.875
2074.431	807.20833
2077.118	803.54167
2079.804	792.54167
2082.487	813.875
2085.169	814.20833
2087.849	827.875
2090.527	791.54167
2093.203	817.54167
2095.877	825.875
2098.55	819.875
2101.22	838.54167
2103.889	838.20833
2106.556	832.54167
2109.221	865.54167
2111.884	886.20833
2114.546	940.875
2117.205	998.20833
2119.863	1067.875
2122.519	1138.54167
2125.173	1209.875
2127.825	1302.20833
2130.475	1312.20833
2133.124	1289.20833
2135.771	1239.875
2138.416	1195.20833
2141.059	1122.875
2143.7	1081.54167
2146.339	1007.875
2148.977	959.20833
2151.613	931.20833
2154.247	895.54167
2156.879	881.54167
2159.51	859.875
2162.138	848.20833
2164.765	838.875
2167.39	818.54167
2170.013	841.20833
2172.634	830.875
2175.254	808.875
2177.872	832.54167
2180.488	798.20833
2183.102	802.875
2185.714	786.875
2188.325	773.54167
2190.934	774.20833
2193.541	769.54167
2196.146	747.875
2198.75	733.54167
2201.351	740.54167
2203.951	720.20833
2206.549	740.20833
2209.146	722.875
2211.74	720.875
2214.333	719.875
2216.924	698.20833
2219.514	719.20833
2222.101	704.20833
2224.687	708.875
2227.271	680.875
2229.853	683.54167
2232.433	670.20833
2235.012	693.875
2237.589	696.875
2240.164	695.20833
2242.738	680.54167
2245.309	670.875
2247.879	677.54167
2250.448	674.54167
2253.014	665.54167
2255.579	632.20833
2258.142	646.54167
2260.703	631.20833
2263.262	645.54167
2265.82	628.54167
2268.376	643.875
2270.93	632.54167
2273.483	619.20833
2276.033	618.875
2278.583	610.20833
2281.13	618.875
2283.675	597.20833
2286.219	599.20833
2288.761	612.875
2291.302	616.20833
2293.841	604.54167
2296.377	586.20833
2298.913	595.20833
2301.446	594.54167
2303.978	600.20833
2306.508	580.20833
2309.037	588.875
2311.563	588.875
2314.088	595.20833
2316.612	571.875
2319.133	579.20833
2321.653	580.20833
2324.171	558.54167
2326.688	580.20833
2329.202	579.54167
2331.715	572.875
2334.227	566.20833
2336.736	558.875
2339.244	562.20833
2341.751	563.20833
2344.255	572.54167
2346.758	553.54167
2349.259	555.875
2351.759	553.20833
2354.257	547.875
2356.753	536.54167
2359.247	547.54167
2361.74	557.20833
2364.231	538.875
2366.721	550.54167
2369.209	540.54167
2371.695	549.20833
2374.179	542.875
2376.662	528.20833
2379.143	548.875
2381.622	526.20833
2384.1	534.54167
2386.576	535.875
2389.051	553.875
2391.524	547.20833
2393.995	544.875
2396.464	526.20833
2398.932	521.20833
2401.398	529.20833
2403.863	521.875
2406.325	523.20833
2408.787	514.20833
2411.246	518.875
2413.704	511.20833
2416.16	515.875
2418.615	515.54167
2421.068	510.54167
2423.519	525.20833
2425.969	518.54167
2428.417	520.54167
2430.863	536.54167
2433.308	523.875
2435.751	507.875
2438.193	511.54167
2440.633	514.54167
2443.071	512.20833
2445.508	499.54167
2447.943	503.54167
2450.376	494.875
2452.808	492.20833
2455.238	491.875
2457.667	518.875
2460.093	497.54167
2462.519	477.20833
2464.942	489.20833
2467.365	500.54167
2469.785	488.54167
2472.204	489.54167
2474.621	481.20833
2477.037	505.20833
2479.451	472.54167
2481.863	478.20833
2484.274	476.20833
2486.683	475.20833
2489.091	481.20833
2491.497	473.875
2493.901	488.20833
2496.304	468.54167
2498.705	478.54167
2501.105	468.875
2503.503	501.875
2505.899	464.20833
2508.294	491.54167
2510.687	457.20833
2513.079	469.54167
2515.469	459.54167
2517.858	467.54167
2520.245	466.875
2522.63	461.875
2525.014	459.20833
2527.396	452.875
2529.776	449.875
2532.156	461.20833
2534.533	447.20833
2536.909	456.54167
2539.283	439.875
2541.656	452.20833
2544.027	469.20833
2546.397	457.875
2548.765	454.20833
2551.131	456.875
2553.496	453.54167
2555.86	454.54167
2558.221	453.54167
2560.582	450.875
2562.94	434.54167
2565.298	446.20833
2567.653	465.20833
2570.007	432.875
2572.36	450.875
2574.711	443.54167
2577.06	457.54167
2579.408	442.20833
2581.754	444.54167
2584.099	441.20833
2586.442	441.875
2588.784	442.20833
2591.124	441.54167
2593.463	437.20833
2595.8	443.20833
2598.135	430.20833
2600.469	429.875
2602.802	455.20833
2605.133	451.20833
2607.462	436.20833
2609.79	426.54167
2612.116	436.875
2614.441	438.875
2616.764	435.20833
2619.086	441.20833
2621.406	430.54167
2623.725	443.875
2626.042	441.20833
2628.358	424.875
2630.672	431.54167
2632.985	445.54167
2635.296	433.54167
2637.606	434.20833
2639.914	425.875
2642.22	430.20833
2644.525	433.875
2646.829	436.875
2649.131	437.20833
2651.432	451.54167
2653.731	436.54167
2656.028	448.20833
2658.324	439.20833
2660.619	425.20833
2662.912	449.20833
2665.204	424.875
2667.494	444.875
2669.782	430.20833
2672.07	443.875
2674.355	450.20833
2676.639	433.20833
2678.922	437.54167
2681.203	457.54167
2683.483	424.54167
2685.761	436.875
2688.038	446.54167
2690.313	452.54167
2692.587	448.20833
2694.859	433.875
2697.13	447.875
2699.399	448.54167
2701.667	460.875
2703.933	466.20833
2706.198	463.20833
2708.461	466.875
2710.723	461.875
2712.984	458.875
2715.243	460.20833
2717.5	467.875
2719.757	477.54167
2722.011	469.875
2724.264	477.54167
2726.516	494.54167
2728.766	468.875
2731.015	470.875
2733.262	466.20833
2735.508	475.875
2737.753	471.20833
2739.996	448.54167
2742.237	446.875
2744.477	472.20833
2746.716	465.875
2748.953	459.54167
2751.189	464.20833
2753.423	447.875
2755.656	450.54167
2757.887	436.875
2760.117	447.20833
2762.346	440.20833
2764.573	444.875
2766.798	439.875
2769.022	441.875
2771.245	445.20833
2773.467	440.20833
2775.686	447.875
2777.905	455.20833
2780.122	451.54167
2782.337	465.54167
2784.552	457.20833
2786.764	460.20833
2788.976	467.875
2791.186	481.875
2793.394	477.20833
2795.601	483.875
2797.807	495.20833
2800.011	496.54167
2802.214	507.54167
2804.415	511.20833
2806.615	505.20833
2808.814	526.20833
2811.011	527.875
2813.206	530.20833
2815.401	536.875
2817.594	564.54167
2819.785	570.20833
2821.975	561.20833
2824.164	572.875
2826.351	582.20833
2828.537	607.20833
2830.722	616.875
2832.905	622.875
2835.086	654.875
2837.267	687.54167
2839.445	717.54167
2841.623	737.54167
2843.799	768.20833
2845.974	815.875
2848.147	855.54167
2850.319	880.54167
2852.489	903.54167
2854.659	899.54167
2856.826	921.20833
2858.993	942.20833
2861.158	945.54167
2863.321	942.20833
2865.483	962.20833
2867.644	954.54167
2869.804	952.54167
2871.962	945.54167
2874.118	944.875
2876.274	938.20833
2878.428	935.20833
2880.58	917.20833
2882.731	922.54167
2884.881	930.875
2887.03	918.54167
2889.177	931.54167
2891.322	944.20833
2893.467	947.875
2895.61	946.875
2897.751	961.875
2899.892	957.20833
2902.03	974.54167
2904.168	964.20833
2906.304	984.20833
2908.439	998.20833
2910.572	977.20833
2912.704	983.875
2914.835	992.875
2916.965	979.20833
2919.093	1004.54167
2921.219	961.20833
2923.345	980.875
2925.469	955.20833
2927.591	950.54167
2929.712	914.875
2931.832	920.54167
2933.951	871.20833
2936.068	848.54167
2938.184	845.54167
2940.299	807.20833
2942.412	782.875
2944.524	748.54167
2946.634	733.875
2948.744	674.20833
2950.851	707.875
2952.958	655.20833
2955.063	643.20833
2957.167	626.20833
2959.269	596.54167
2961.371	606.54167
2963.471	573.54167
2965.569	566.875
2967.666	537.20833
2969.762	526.54167
2971.857	516.875
2973.95	488.20833
2976.042	489.20833
2978.133	475.20833
2980.222	465.875
2982.31	446.875
2984.396	437.20833
2986.482	429.875
2988.566	432.20833
2990.648	412.54167
2992.73	412.875
2994.81	384.875
2996.889	400.20833
2998.966	391.875
3001.042	391.875
3003.117	386.54167
3005.191	383.875
3007.263	380.20833
3009.334	366.54167
3011.403	369.54167
3013.472	355.875
3015.539	359.20833
3017.604	373.54167
3019.669	338.20833
3021.732	342.875
3023.794	342.54167
3025.854	324.20833
3027.914	329.875
3029.971	330.20833
3032.028	323.54167
3034.083	328.20833
3036.137	323.875
3038.19	310.54167
3040.242	304.20833
3042.292	292.875
3044.341	290.875
3046.388	306.54167
3048.435	282.54167
3050.48	295.875
3052.524	290.875
3054.566	268.20833
3056.607	279.875
3058.647	280.875
3060.686	254.20833
3062.723	245.875
3064.759	249.20833
3066.794	-0.125
3068.828	-0.79167
3070.86	-2.125
