-0.839	485.75
3.438	521.08333
7.711	137.08333
11.981	58.41667
16.247	46.08333
20.509	41.08333
24.768	43.08333
29.024	46.08333
33.276	42.41667
37.524	52.41667
41.769	44.41667
46.01	35.41667
50.247	49.75
54.481	61.08333
58.712	67.08333
62.939	52.75
67.162	60.75
71.382	55.75
75.599	50.75
79.812	63.08333
84.021	83.08333
88.227	59.75
92.429	62.08333
96.628	51.75
100.823	70.08333
105.015	76.08333
109.204	81.75
113.388	76.75
117.57	71.75
121.748	90.75
125.922	87.08333
130.093	105.41667
134.261	109.41667
138.425	101.75
142.585	149.08333
146.742	150.75
150.896	180.75
155.046	240.08333
159.193	376.75
163.336	663.41667
167.476	1224.08333
171.613	2198.75
175.746	3645.75
179.875	5328.41667
184.002	6844.41667
188.124	7772.75
192.244	8031.75
196.36	7774.41667
200.472	7417.08333
204.581	7106.41667
208.687	6820.75
212.79	6608.08333
216.889	6499.75
220.984	6461.75
225.077	6440.08333
229.165	6419.75
233.251	6389.08333
237.333	6357.75
241.412	6255.08333
245.487	6198.75
249.559	6134.41667
253.628	6053.75
257.694	5991.08333
261.756	5901.41667
265.814	5767.75
269.87	5590.08333
273.922	5451.41667
277.97	5363.08333
282.016	5287.41667
286.058	5302.41667
290.097	5336.41667
294.132	5321.08333
298.164	5255.41667
302.193	5027.08333
306.219	4668.75
310.241	4274.75
314.26	3927.41667
318.276	3622.75
322.288	3424.41667
326.297	3234.75
330.303	3086.41667
334.305	3011.08333
338.305	2935.75
342.301	2888.41667
346.294	2847.41667
350.283	2826.75
354.269	2795.08333
358.252	2782.75
362.232	2729.08333
366.209	2734.41667
370.182	2672.41667
374.152	2658.41667
378.119	2650.41667
382.083	2638.41667
386.043	2665.75
390	2623.08333
393.954	2606.75
397.905	2594.75
401.852	2582.41667
405.797	2547.08333
409.738	2548.75
413.676	2552.41667
417.61	2577.08333
421.542	2485.75
425.47	2476.08333
429.396	2441.75
433.318	2411.08333
437.236	2422.08333
441.152	2425.75
445.065	2372.08333
448.974	2359.75
452.88	2329.08333
456.783	2332.41667
460.683	2311.41667
464.58	2319.08333
468.473	2306.41667
472.364	2305.75
476.251	2318.41667
480.135	2343.75
484.016	2366.41667
487.894	2377.75
491.769	2385.41667
495.641	2367.08333
499.509	2376.41667
503.375	2395.08333
507.237	2391.08333
511.096	2386.75
514.952	2468.08333
518.805	2508.08333
522.655	2535.08333
526.502	2434.08333
530.346	2367.75
534.187	2375.75
538.024	2351.75
541.859	2357.41667
545.69	2369.75
549.519	2368.75
553.344	2340.75
557.166	2290.41667
560.985	2280.75
564.802	2250.08333
568.615	2216.41667
572.425	2212.08333
576.232	2186.41667
580.036	2182.41667
583.836	2203.75
587.634	2175.08333
591.429	2188.75
595.221	2234.08333
599.01	2246.75
602.796	2285.41667
606.578	2302.75
610.358	2296.41667
614.135	2280.41667
617.909	2278.75
621.679	2275.41667
625.447	2246.41667
629.212	2260.75
632.973	2238.41667
636.732	2256.08333
640.488	2261.75
644.241	2202.41667
647.991	2219.08333
651.737	2239.41667
655.481	2218.41667
659.222	2233.41667
662.96	2210.08333
666.695	2219.75
670.427	2221.41667
674.156	2245.08333
677.882	2245.08333
681.605	2254.41667
685.325	2201.41667
689.043	2232.08333
692.757	2217.75
696.468	2219.08333
700.177	2237.08333
703.882	2217.08333
707.585	2217.08333
711.284	2223.08333
714.981	2209.75
718.675	2219.75
722.366	2252.75
726.054	2226.08333
729.739	2220.41667
733.421	2221.75
737.1	2205.41667
740.777	2252.75
744.45	2257.75
748.121	2269.75
751.789	2317.75
755.453	2304.08333
759.115	2340.08333
762.774	2352.08333
766.431	2362.08333
770.084	2364.08333
773.734	2396.08333
777.382	2408.41667
781.027	2452.08333
784.669	2452.08333
788.308	2483.41667
791.944	2499.41667
795.577	2522.41667
799.208	2532.75
802.835	2572.75
806.46	2580.75
810.082	2593.75
813.701	2593.08333
817.317	2613.08333
820.931	2607.08333
824.542	2607.75
828.149	2592.41667
831.754	2564.41667
835.357	2548.41667
838.956	2557.41667
842.553	2561.41667
846.146	2536.08333
849.737	2517.08333
853.326	2514.75
856.911	2508.75
860.493	2564.41667
864.073	2575.75
867.65	2614.08333
871.225	2659.08333
874.796	2618.08333
878.365	2647.08333
881.931	2661.75
885.494	2659.75
889.054	2655.41667
892.612	2672.41667
896.166	2647.75
899.719	2609.75
903.268	2594.08333
906.814	2571.75
910.358	2564.08333
913.899	2547.41667
917.438	2554.08333
920.973	2555.08333
924.506	2578.08333
928.036	2611.75
931.564	2633.41667
935.088	2677.08333
938.61	2678.75
942.129	2695.75
945.646	2772.75
949.16	2797.08333
952.671	2849.75
956.179	2883.41667
959.685	2872.75
963.188	2865.41667
966.688	2821.75
970.185	2757.41667
973.68	2698.08333
977.173	2695.08333
980.662	2669.75
984.149	2697.75
987.633	2671.41667
991.114	2724.08333
994.593	2823.08333
998.069	2901.08333
1001.542	2992.41667
1005.013	2935.41667
1008.481	2735.08333
1011.947	2695.41667
1015.409	2677.41667
1018.869	2679.08333
1022.327	2662.08333
1025.782	2672.75
1029.234	2656.08333
1032.683	2613.41667
1036.13	2557.41667
1039.574	2472.08333
1043.016	2386.41667
1046.455	2351.75
1049.891	2344.75
1053.325	2338.75
1056.756	2334.75
1060.184	2355.08333
1063.61	2374.41667
1067.033	2377.75
1070.454	2375.08333
1073.872	2419.08333
1077.287	2387.08333
1080.7	2419.08333
1084.11	2418.08333
1087.517	2403.41667
1090.922	2364.41667
1094.325	2343.75
1097.724	2312.75
1101.122	2305.41667
1104.516	2310.75
1107.908	2312.75
1111.298	2360.75
1114.684	2380.08333
1118.069	2374.08333
1121.45	2429.41667
1124.83	2417.41667
1128.206	2441.08333
1131.58	2470.41667
1134.951	2533.41667
1138.32	2630.75
1141.687	2711.08333
1145.05	2775.08333
1148.412	2786.41667
1151.77	2762.41667
1155.126	2763.75
1158.48	2745.41667
1161.831	2779.75
1165.18	2791.41667
1168.525	2819.08333
1171.869	2855.08333
1175.21	2887.41667
1178.548	2920.08333
1181.884	2941.75
1185.217	2961.41667
1188.548	3026.75
1191.877	3060.75
1195.202	3154.41667
1198.526	3192.41667
1201.846	3167.08333
1205.165	3204.75
1208.48	3169.75
1211.794	3174.75
1215.104	3198.41667
1218.413	3195.41667
1221.719	3231.41667
1225.022	3205.08333
1228.323	3151.08333
1231.621	3118.08333
1234.917	3127.08333
1238.21	3126.75
1241.501	3121.41667
1244.79	3106.75
1248.076	3110.75
1251.359	3162.41667
1254.64	3223.08333
1257.919	3247.41667
1261.195	3308.75
1264.468	3380.08333
1267.74	3436.41667
1271.008	3425.75
1274.275	3369.75
1277.538	3379.08333
1280.8	3335.41667
1284.059	3331.41667
1287.315	3366.08333
1290.569	3399.75
1293.821	3402.08333
1297.07	3446.08333
1300.317	3438.08333
1303.562	3421.75
1306.803	3384.75
1310.043	3352.08333
1313.28	3308.41667
1316.515	3272.41667
1319.747	3255.75
1322.977	3216.41667
1326.204	3152.08333
1329.429	3123.08333
1332.652	3124.08333
1335.872	3099.08333
1339.09	3114.41667
1342.306	3114.41667
1345.519	3075.75
1348.729	3068.75
1351.938	3051.75
1355.144	2999.08333
1358.347	2946.41667
1361.548	2986.08333
1364.747	2993.41667
1367.944	2961.08333
1371.138	2967.75
1374.329	2993.41667
1377.518	3015.75
1380.705	3038.08333
1383.89	3020.08333
1387.072	2923.08333
1390.252	2837.41667
1393.429	2735.75
1396.605	2665.08333
1399.777	2569.08333
1402.948	2580.08333
1406.116	2535.08333
1409.282	2527.41667
1412.445	2552.08333
1415.606	2583.41667
1418.765	2620.08333
1421.921	2705.08333
1425.075	2736.08333
1428.227	2839.08333
1431.376	2969.08333
1434.524	3059.41667
1437.668	3141.75
1440.811	3149.08333
1443.951	3171.08333
1447.089	3184.41667
1450.224	3169.08333
1453.357	3145.08333
1456.488	3135.75
1459.617	3073.75
1462.743	3031.41667
1465.867	2956.41667
1468.989	2926.75
1472.108	2869.75
1475.225	2805.75
1478.34	2783.41667
1481.453	2798.75
1484.563	2801.41667
1487.671	2844.08333
1490.776	2882.08333
1493.88	2935.08333
1496.981	3001.75
1500.08	3052.75
1503.176	3057.08333
1506.271	3111.41667
1509.363	3161.08333
1512.452	3207.41667
1515.54	3242.41667
1518.625	3285.41667
1521.708	3399.08333
1524.789	3566.75
1527.867	3764.75
1530.944	3999.41667
1534.018	4203.75
1537.089	4364.75
1540.159	4387.75
1543.226	4305.41667
1546.291	4189.08333
1549.354	4039.41667
1552.415	3922.41667
1555.473	3806.41667
1558.529	3685.41667
1561.583	3644.75
1564.634	3603.41667
1567.684	3589.75
1570.731	3586.41667
1573.776	3591.41667
1576.819	3628.08333
1579.859	3654.41667
1582.898	3713.75
1585.934	3728.08333
1588.968	3737.75
1591.999	3736.41667
1595.029	3722.75
1598.056	3739.75
1601.081	3756.41667
1604.104	3743.75
1607.125	3706.41667
1610.144	3624.75
1613.16	3547.75
1616.174	3485.08333
1619.186	3426.75
1622.196	3341.75
1625.203	3249.08333
1628.209	3237.08333
1631.212	3243.08333
1634.213	3220.41667
1637.212	3211.08333
1640.209	3163.08333
1643.203	3098.41667
1646.196	3013.08333
1649.186	2903.08333
1652.174	2819.08333
1655.16	2733.75
1658.144	2660.08333
1661.125	2543.75
1664.105	2432.41667
1667.082	2327.41667
1670.057	2215.75
1673.03	2068.41667
1676.001	1927.75
1678.97	1798.08333
1681.937	1692.41667
1684.901	1597.08333
1687.863	1542.41667
1690.824	1485.41667
1693.782	1464.41667
1696.738	1402.08333
1699.692	1381.41667
1702.643	1355.08333
1705.593	1326.75
1708.54	1306.08333
1711.486	1312.41667
1714.429	1266.08333
1717.37	1278.75
1720.309	1238.75
1723.246	1262.75
1726.181	1209.75
1729.113	1230.75
1732.044	1204.08333
1734.972	1178.75
1737.899	1190.41667
1740.823	1182.08333
1743.745	1179.41667
1746.665	1152.41667
1749.583	1119.08333
1752.499	1109.41667
1755.413	1086.08333
1758.325	1069.75
1761.235	1073.41667
1764.142	1050.41667
1767.048	1038.41667
1769.951	1023.75
1772.852	1034.41667
1775.752	1034.75
1778.649	1052.08333
1781.544	1018.75
1784.437	1018.75
1787.328	1000.41667
1790.217	986.41667
1793.104	972.08333
1795.989	969.75
1798.872	986.41667
1801.753	978.08333
1804.631	976.08333
1807.508	992.75
1810.383	979.41667
1813.255	959.75
1816.126	959.41667
1818.994	954.41667
1821.861	966.08333
1824.725	951.41667
1827.587	947.41667
1830.448	942.75
1833.306	911.41667
1836.162	941.41667
1839.017	915.75
1841.869	919.08333
1844.719	912.08333
1847.567	916.75
1850.414	895.75
1853.258	891.41667
1856.1	916.08333
1858.94	921.08333
1861.778	899.75
1864.614	900.75
1867.448	906.41667
1870.28	888.08333
1873.111	900.75
1875.939	902.08333
1878.765	916.08333
1881.589	886.41667
1884.411	891.41667
1887.231	900.75
1890.049	889.41667
1892.865	892.08333
1895.68	864.41667
1898.492	882.41667
1901.302	864.08333
1904.11	873.08333
1906.916	873.75
1909.721	856.75
1912.523	859.75
1915.323	849.75
1918.122	845.75
1920.918	864.75
1923.712	862.08333
1926.505	852.41667
1929.295	832.08333
1932.084	839.08333
1934.87	853.08333
1937.655	833.75
1940.438	833.75
1943.218	838.41667
1945.997	840.08333
1948.774	851.75
1951.549	844.08333
1954.322	838.08333
1957.093	842.41667
1959.862	830.41667
1962.629	833.75
1965.394	819.41667
1968.157	811.41667
1970.918	809.41667
1973.678	811.41667
1976.435	818.41667
1979.19	816.41667
1981.944	795.41667
1984.696	799.41667
1987.445	791.75
1990.193	799.41667
1992.939	817.41667
1995.683	803.08333
1998.425	781.08333
2001.165	803.08333
2003.903	787.08333
2006.639	777.41667
2009.374	781.75
2012.106	792.08333
2014.837	761.75
2017.566	781.75
2020.292	795.08333
2023.017	785.75
2025.74	760.41667
2028.461	762.41667
2031.18	777.08333
2033.898	770.75
2036.613	774.41667
2039.327	788.08333
2042.038	767.08333
2044.748	766.08333
2047.456	771.41667
2050.162	738.08333
2052.866	745.08333
2055.568	750.08333
2058.268	744.75
2060.967	762.41667
2063.663	738.08333
2066.358	745.75
2069.051	745.75
2071.742	752.41667
2074.431	757.41667
2077.118	740.08333
2079.804	735.08333
2082.487	743.41667
2085.169	749.41667
2087.849	805.08333
2090.527	841.75
2093.203	765.08333
2095.877	769.75
2098.55	757.41667
2101.22	767.41667
2103.889	789.75
2106.556	780.08333
2109.221	803.41667
2111.884	830.75
2114.546	873.08333
2117.205	926.75
2119.863	1004.08333
2122.519	1047.41667
2125.173	1122.08333
2127.825	1195.41667
2130.475	1199.75
2133.124	1156.08333
2135.771	1116.08333
2138.416	1062.41667
2141.059	1005.75
2143.7	978.41667
2146.339	902.08333
2148.977	860.08333
2151.613	853.75
2154.247	826.41667
2156.879	809.75
2159.51	794.75
2162.138	768.08333
2164.765	773.41667
2167.39	764.08333
2170.013	773.08333
2172.634	770.08333
2175.254	751.41667
2177.872	771.75
2180.488	743.08333
2183.102	730.41667
2185.714	728.41667
2188.325	707.08333
2190.934	712.08333
2193.541	700.75
2196.146	701.41667
2198.75	688.75
2201.351	686.41667
2203.951	682.41667
2206.549	706.75
2209.146	682.41667
2211.74	674.08333
2214.333	694.08333
2216.924	663.75
2219.514	662.41667
2222.101	654.75
2224.687	679.41667
2227.271	643.08333
2229.853	645.41667
2232.433	647.75
2235.012	656.41667
2237.589	656.08333
2240.164	665.41667
2242.738	664.08333
2245.309	638.08333
2247.879	647.41667
2250.448	652.75
2253.014	638.75
2255.579	622.75
2258.142	614.75
2260.703	614.41667
2263.262	612.41667
2265.82	613.08333
2268.376	610.41667
2270.93	598.08333
2273.483	593.75
2276.033	606.75
2278.583	595.41667
2281.13	594.75
2283.675	589.75
2286.219	600.41667
2288.761	599.41667
2291.302	595.75
2293.841	598.75
2296.377	568.08333
2298.913	585.75
2301.446	593.75
2303.978	588.08333
2306.508	570.41667
2309.037	568.41667
2311.563	589.41667
2314.088	586.08333
2316.612	560.08333
2319.133	580.75
2321.653	568.08333
2324.171	556.75
2326.688	582.75
2329.202	568.08333
2331.715	572.41667
2334.227	559.75
2336.736	556.75
2339.244	551.08333
2341.751	549.75
2344.255	561.75
2346.758	545.41667
2349.259	548.75
2351.759	541.08333
2354.257	548.41667
2356.753	548.41667
2359.247	551.41667
2361.74	570.08333
2364.231	545.08333
2366.721	563.08333
2369.209	539.41667
2371.695	546.41667
2374.179	544.75
2376.662	535.75
2379.143	554.75
2381.622	543.75
2384.1	546.75
2386.576	540.41667
2389.051	545.41667
2391.524	557.75
2393.995	553.75
2396.464	533.41667
2398.932	539.08333
2401.398	534.75
2403.863	541.08333
2406.325	538.41667
2408.787	536.41667
2411.246	532.41667
2413.704	527.08333
2416.16	538.41667
2418.615	536.08333
2421.068	550.41667
2423.519	532.75
2425.969	532.75
2428.417	537.08333
2430.863	548.08333
2433.308	534.75
2435.751	535.41667
2438.193	531.41667
2440.633	533.41667
2443.071	539.08333
2445.508	529.08333
2447.943	524.41667
2450.376	516.41667
2452.808	533.08333
2455.238	523.41667
2457.667	554.75
2460.093	523.75
2462.519	511.41667
2464.942	519.75
2467.365	528.75
2469.785	534.41667
2472.204	525.75
2474.621	514.75
2477.037	549.41667
2479.451	509.75
2481.863	503.41667
2484.274	506.41667
2486.683	523.75
2489.091	527.75
2491.497	520.41667
2493.901	515.75
2496.304	517.75
2498.705	519.75
2501.105	516.41667
2503.503	541.41667
2505.899	508.08333
2508.294	534.08333
2510.687	508.41667
2513.079	515.08333
2515.469	506.75
2517.858	511.41667
2520.245	530.75
2522.63	512.41667
2525.014	510.41667
2527.396	507.08333
2529.776	506.41667
2532.156	515.08333
2534.533	505.41667
2536.909	512.08333
2539.283	501.41667
2541.656	509.41667
2544.027	528.75
2546.397	513.75
2548.765	514.08333
2551.131	506.08333
2553.496	510.41667
2555.86	515.75
2558.221	519.41667
2560.582	513.75
2562.94	493.41667
2565.298	507.75
2567.653	534.08333
2570.007	502.08333
2572.36	523.75
2574.711	501.75
2577.06	526.08333
2579.408	514.41667
2581.754	516.41667
2584.099	515.08333
2586.442	513.41667
2588.784	522.08333
2591.124	517.41667
2593.463	517.75
2595.8	511.75
2598.135	500.41667
2600.469	510.41667
2602.802	531.41667
2605.133	525.41667
2607.462	504.75
2609.79	501.75
2612.116	517.08333
2614.441	511.75
2616.764	514.08333
2619.086	504.75
2621.406	507.75
2623.725	517.41667
2626.042	520.75
2628.358	517.41667
2630.672	504.75
2632.985	523.08333
2635.296	523.08333
2637.606	512.41667
2639.914	502.41667
2642.22	525.41667
2644.525	519.75
2646.829	533.08333
2649.131	530.75
2651.432	538.08333
2653.731	533.41667
2656.028	542.08333
2658.324	531.08333
2660.619	528.75
2662.912	541.41667
2665.204	523.75
2667.494	556.75
2669.782	530.75
2672.07	543.08333
2674.355	550.08333
2676.639	534.75
2678.922	531.08333
2681.203	554.08333
2683.483	524.41667
2685.761	533.08333
2688.038	539.41667
2690.313	565.41667
2692.587	551.75
2694.859	544.08333
2697.13	549.41667
2699.399	557.08333
2701.667	565.41667
2703.933	552.75
2706.198	571.41667
2708.461	569.75
2710.723	572.75
2712.984	570.75
2715.243	580.75
2717.5	582.75
2719.757	589.41667
2722.011	578.75
2724.264	587.41667
2726.516	601.08333
2728.766	587.41667
2731.015	594.75
2733.262	597.41667
2735.508	591.75
2737.753	587.75
2739.996	580.41667
2742.237	570.41667
2744.477	597.41667
2746.716	590.75
2748.953	575.08333
2751.189	578.08333
2753.423	567.75
2755.656	567.08333
2757.887	565.41667
2760.117	567.41667
2762.346	566.41667
2764.573	558.41667
2766.798	562.08333
2769.022	575.41667
2771.245	568.41667
2773.467	569.41667
2775.686	576.41667
2777.905	584.08333
2780.122	589.08333
2782.337	602.75
2784.552	579.41667
2786.764	596.75
2788.976	597.08333
2791.186	611.08333
2793.394	609.41667
2795.601	631.41667
2797.807	622.41667
2800.011	633.75
2802.214	634.75
2804.415	645.75
2806.615	644.75
2808.814	659.75
2811.011	665.41667
2813.206	655.75
2815.401	681.75
2817.594	691.75
2819.785	698.41667
2821.975	687.08333
2824.164	696.08333
2826.351	710.41667
2828.537	731.41667
2830.722	757.75
2832.905	750.41667
2835.086	778.75
2837.267	807.08333
2839.445	825.41667
2841.623	830.08333
2843.799	871.08333
2845.974	899.08333
2848.147	916.08333
2850.319	952.08333
2852.489	971.41667
2854.659	986.41667
2856.826	990.75
2858.993	1015.08333
2861.158	1019.75
2863.321	1008.08333
2865.483	1037.75
2867.644	1028.08333
2869.804	1024.41667
2871.962	1026.75
2874.118	1041.08333
2876.274	1076.08333
2878.428	1062.08333
2880.58	1033.41667
2882.731	1022.08333
2884.881	1007.75
2887.03	1014.41667
2889.177	1001.08333
2891.322	1032.41667
2893.467	1025.75
2895.61	1019.08333
2897.751	1044.41667
2899.892	1029.41667
2902.03	1034.41667
2904.168	1044.08333
2906.304	1037.75
2908.439	1057.75
2910.572	1060.41667
2912.704	1067.75
2914.835	1059.41667
2916.965	1068.41667
2919.093	1086.75
2921.219	1032.41667
2923.345	1049.08333
2925.469	1031.75
2927.591	1027.41667
2929.712	999.41667
2931.832	987.75
2933.951	980.41667
2936.068	939.75
2938.184	937.75
2940.299	911.75
2942.412	886.41667
2944.524	856.41667
2946.634	854.08333
2948.744	803.41667
2950.851	833.75
2952.958	788.08333
2955.063	780.08333
2957.167	776.41667
2959.269	739.41667
2961.371	772.41667
2963.471	717.75
2965.569	727.08333
2967.666	698.41667
2969.762	701.75
2971.857	690.08333
2973.95	642.08333
2976.042	654.75
2978.133	649.08333
2980.222	634.41667
2982.31	615.75
2984.396	601.08333
2986.482	591.08333
2988.566	600.75
2990.648	583.41667
2992.73	587.08333
2994.81	572.75
2996.889	591.41667
2998.966	577.75
3001.042	583.41667
3003.117	585.08333
3005.191	568.08333
3007.263	575.41667
3009.334	567.08333
3011.403	550.41667
3013.472	541.75
3015.539	545.41667
3017.604	556.75
3019.669	518.75
3021.732	526.41667
3023.794	538.08333
3025.854	515.08333
3027.914	507.08333
3029.971	516.41667
3032.028	512.75
3034.083	513.75
3036.137	510.75
3038.19	487.75
3040.242	471.75
3042.292	470.75
3044.341	456.75
3046.388	479.75
3048.435	451.08333
3050.48	473.75
3052.524	466.08333
3054.566	431.75
3056.607	458.41667
3058.647	439.41667
3060.686	428.41667
3062.723	408.08333
3064.759	397.08333
3066.794	-0.25
3068.828	-2.25
3070.86	-1.25
