-0.839	306.70833
3.438	337.375
7.711	96.375
11.981	49.70833
16.247	44.70833
20.509	43.375
24.768	44.70833
29.024	45.04167
33.276	40.04167
37.524	47.04167
41.769	42.375
46.01	36.70833
50.247	51.375
54.481	60.375
58.712	66.70833
62.939	49.70833
67.162	60.04167
71.382	55.375
75.599	48.375
79.812	64.375
84.021	82.375
88.227	57.70833
92.429	60.70833
96.628	49.04167
100.823	63.375
105.015	78.04167
109.204	76.70833
113.388	76.375
117.57	64.375
121.748	88.375
125.922	77.375
130.093	95.04167
134.261	100.70833
138.425	96.375
142.585	136.04167
146.742	137.375
150.896	156.375
155.046	195.375
159.193	310.375
163.336	525.70833
167.476	943.70833
171.613	1763.70833
175.746	2907.70833
179.875	4272.70833
184.002	5547.375
188.124	6381.70833
192.244	6634.70833
196.36	6633.375
200.472	6447.04167
204.581	6277.70833
208.687	6096.375
212.79	6093.04167
216.889	6148.04167
220.984	6185.375
225.077	6259.375
229.165	6362.04167
233.251	6401.04167
237.333	6430.375
241.412	6441.70833
245.487	6417.70833
249.559	6367.375
253.628	6290.375
257.694	6237.70833
261.756	6118.04167
265.814	6003.70833
269.87	5839.04167
273.922	5667.04167
277.97	5588.04167
282.016	5503.70833
286.058	5498.70833
290.097	5578.70833
294.132	5559.70833
298.164	5466.04167
302.193	5186.70833
306.219	4794.70833
310.241	4363.375
314.26	3966.70833
318.276	3666.375
322.288	3411.70833
326.297	3234.375
330.303	3105.375
334.305	3021.375
338.305	2939.70833
342.301	2863.04167
346.294	2865.70833
350.283	2840.375
354.269	2809.70833
358.252	2766.375
362.232	2763.375
366.209	2732.04167
370.182	2710.70833
374.152	2686.70833
378.119	2692.70833
382.083	2694.70833
386.043	2718.04167
390	2667.70833
393.954	2647.70833
397.905	2619.375
401.852	2602.70833
405.797	2567.375
409.738	2540.375
413.676	2554.04167
417.61	2525.70833
421.542	2485.04167
425.47	2444.375
429.396	2428.04167
433.318	2404.70833
437.236	2398.70833
441.152	2399.70833
445.065	2379.375
448.974	2368.04167
452.88	2352.70833
456.783	2308.70833
460.683	2295.04167
464.58	2313.70833
468.473	2316.04167
472.364	2328.375
476.251	2323.70833
480.135	2347.70833
484.016	2353.375
487.894	2386.375
491.769	2412.70833
495.641	2381.04167
499.509	2379.70833
503.375	2402.70833
507.237	2376.70833
511.096	2364.70833
514.952	2381.04167
518.805	2387.70833
522.655	2387.375
526.502	2341.70833
530.346	2313.70833
534.187	2361.70833
538.024	2363.04167
541.859	2345.70833
545.69	2348.70833
549.519	2349.04167
553.344	2340.375
557.166	2311.375
560.985	2273.70833
564.802	2259.04167
568.615	2226.04167
572.425	2213.04167
576.232	2195.375
580.036	2174.04167
583.836	2195.70833
587.634	2196.70833
591.429	2189.70833
595.221	2236.375
599.01	2244.04167
602.796	2280.04167
606.578	2317.70833
610.358	2295.04167
614.135	2270.04167
617.909	2278.04167
621.679	2281.70833
625.447	2252.375
629.212	2263.70833
632.973	2269.04167
636.732	2277.70833
640.488	2263.04167
644.241	2224.04167
647.991	2197.70833
651.737	2231.04167
655.481	2194.375
659.222	2213.375
662.96	2221.375
666.695	2217.70833
670.427	2207.375
674.156	2258.375
677.882	2250.04167
681.605	2246.70833
685.325	2219.70833
689.043	2223.375
692.757	2215.375
696.468	2230.70833
700.177	2236.375
703.882	2240.375
707.585	2231.04167
711.284	2236.375
714.981	2242.375
718.675	2244.375
722.366	2256.70833
726.054	2243.375
729.739	2229.375
733.421	2222.375
737.1	2223.375
740.777	2252.375
744.45	2264.04167
748.121	2280.04167
751.789	2346.375
755.453	2342.375
759.115	2318.375
762.774	2385.375
766.431	2409.04167
770.084	2425.375
773.734	2444.375
777.382	2484.375
781.027	2491.04167
784.669	2537.70833
788.308	2527.375
791.944	2572.70833
795.577	2576.375
799.208	2600.04167
802.835	2631.70833
806.46	2633.04167
810.082	2649.70833
813.701	2655.70833
817.317	2665.375
820.931	2691.70833
824.542	2668.04167
828.149	2646.375
831.754	2627.70833
835.357	2627.375
838.956	2615.70833
842.553	2612.70833
846.146	2592.375
849.737	2593.04167
853.326	2605.70833
856.911	2606.04167
860.493	2647.04167
864.073	2644.70833
867.65	2726.375
871.225	2758.70833
874.796	2720.04167
878.365	2730.375
881.931	2732.375
885.494	2765.70833
889.054	2740.70833
892.612	2766.375
896.166	2740.04167
899.719	2723.70833
903.268	2679.375
906.814	2668.70833
910.358	2671.70833
913.899	2638.70833
917.438	2634.04167
920.973	2638.04167
924.506	2679.70833
928.036	2701.375
931.564	2730.04167
935.088	2757.375
938.61	2753.04167
942.129	2797.04167
945.646	2870.04167
949.16	2917.375
952.671	2970.04167
956.179	2991.70833
959.685	2997.04167
963.188	2949.04167
966.688	2890.04167
970.185	2807.04167
973.68	2789.70833
977.173	2777.375
980.662	2744.04167
984.149	2773.70833
987.633	2780.70833
991.114	2824.04167
994.593	2907.375
998.069	3004.70833
1001.542	3089.04167
1005.013	3005.04167
1008.481	2862.04167
1011.947	2794.375
1015.409	2785.04167
1018.869	2815.04167
1022.327	2773.375
1025.782	2763.375
1029.234	2774.04167
1032.683	2736.70833
1036.13	2633.04167
1039.574	2556.04167
1043.016	2488.70833
1046.455	2423.375
1049.891	2415.70833
1053.325	2432.375
1056.756	2427.375
1060.184	2442.04167
1063.61	2462.375
1067.033	2453.70833
1070.454	2443.375
1073.872	2484.375
1077.287	2485.04167
1080.7	2492.04167
1084.11	2492.70833
1087.517	2478.70833
1090.922	2446.70833
1094.325	2437.375
1097.724	2396.70833
1101.122	2423.70833
1104.516	2384.375
1107.908	2384.375
1111.298	2423.70833
1114.684	2433.375
1118.069	2485.04167
1121.45	2505.04167
1124.83	2489.04167
1128.206	2508.04167
1131.58	2536.04167
1134.951	2607.375
1138.32	2706.375
1141.687	2781.375
1145.05	2852.70833
1148.412	2875.04167
1151.77	2860.375
1155.126	2888.70833
1158.48	2870.04167
1161.831	2892.375
1165.18	2908.375
1168.525	2946.04167
1171.869	2996.375
1175.21	3015.04167
1178.548	3048.375
1181.884	3046.04167
1185.217	3106.375
1188.548	3152.04167
1191.877	3203.04167
1195.202	3275.04167
1198.526	3299.375
1201.846	3341.375
1205.165	3316.04167
1208.48	3295.375
1211.794	3304.70833
1215.104	3298.375
1218.413	3318.375
1221.719	3316.04167
1225.022	3281.70833
1228.323	3263.375
1231.621	3247.70833
1234.917	3233.70833
1238.21	3253.375
1241.501	3248.70833
1244.79	3254.70833
1248.076	3253.04167
1251.359	3292.04167
1254.64	3342.375
1257.919	3355.375
1261.195	3413.375
1264.468	3478.375
1267.74	3521.375
1271.008	3514.70833
1274.275	3475.70833
1277.538	3448.375
1280.8	3432.04167
1284.059	3437.375
1287.315	3481.70833
1290.569	3477.04167
1293.821	3492.04167
1297.07	3527.375
1300.317	3529.70833
1303.562	3525.04167
1306.803	3493.70833
1310.043	3438.04167
1313.28	3408.70833
1316.515	3355.375
1319.747	3325.70833
1322.977	3280.70833
1326.204	3232.375
1329.429	3206.70833
1332.652	3182.04167
1335.872	3174.375
1339.09	3123.70833
1342.306	3176.375
1345.519	3136.70833
1348.729	3125.70833
1351.938	3097.04167
1355.144	3076.04167
1358.347	3043.375
1361.548	3032.375
1364.747	3044.70833
1367.944	3030.70833
1371.138	3059.04167
1374.329	3062.04167
1377.518	3078.70833
1380.705	3122.04167
1383.89	3085.70833
1387.072	3006.04167
1390.252	2883.70833
1393.429	2812.375
1396.605	2737.70833
1399.777	2669.04167
1402.948	2647.70833
1406.116	2616.70833
1409.282	2624.70833
1412.445	2653.70833
1415.606	2669.04167
1418.765	2683.70833
1421.921	2760.375
1425.075	2828.04167
1428.227	2921.04167
1431.376	3037.04167
1434.524	3146.04167
1437.668	3209.375
1440.811	3237.70833
1443.951	3270.375
1447.089	3253.70833
1450.224	3257.375
1453.357	3201.70833
1456.488	3198.375
1459.617	3138.375
1462.743	3106.04167
1465.867	3026.375
1468.989	3002.375
1472.108	2943.375
1475.225	2889.04167
1478.34	2830.375
1481.453	2837.70833
1484.563	2869.04167
1487.671	2895.375
1490.776	2926.375
1493.88	2992.70833
1496.981	3059.70833
1500.08	3128.375
1503.176	3143.70833
1506.271	3186.70833
1509.363	3266.375
1512.452	3277.70833
1515.54	3331.375
1518.625	3433.70833
1521.708	3580.70833
1524.789	3742.375
1527.867	3944.70833
1530.944	4230.04167
1534.018	4456.70833
1537.089	4571.04167
1540.159	4560.375
1543.226	4481.04167
1546.291	4273.375
1549.354	4158.375
1552.415	4033.04167
1555.473	3901.375
1558.529	3835.375
1561.583	3788.70833
1564.634	3720.04167
1567.684	3714.70833
1570.731	3703.04167
1573.776	3737.04167
1576.819	3764.375
1579.859	3780.70833
1582.898	3827.04167
1585.934	3839.375
1588.968	3846.04167
1591.999	3842.70833
1595.029	3829.70833
1598.056	3838.375
1601.081	3876.04167
1604.104	3848.375
1607.125	3811.375
1610.144	3733.70833
1613.16	3647.375
1616.174	3546.375
1619.186	3492.70833
1622.196	3396.375
1625.203	3327.70833
1628.209	3262.04167
1631.212	3248.04167
1634.213	3208.70833
1637.212	3172.70833
1640.209	3126.375
1643.203	3055.04167
1646.196	2981.375
1649.186	2854.70833
1652.174	2805.375
1655.16	2708.375
1658.144	2622.70833
1661.125	2508.70833
1664.105	2389.04167
1667.082	2280.70833
1670.057	2161.375
1673.03	2021.04167
1676.001	1911.70833
1678.97	1807.70833
1681.937	1683.375
1684.901	1587.70833
1687.863	1567.04167
1690.824	1489.375
1693.782	1478.375
1696.738	1406.04167
1699.692	1405.04167
1702.643	1359.70833
1705.593	1344.375
1708.54	1309.70833
1711.486	1316.375
1714.429	1293.375
1717.37	1271.70833
1720.309	1257.375
1723.246	1257.04167
1726.181	1210.70833
1729.113	1243.375
1732.044	1211.70833
1734.972	1197.04167
1737.899	1192.70833
1740.823	1196.04167
1743.745	1215.375
1746.665	1148.70833
1749.583	1129.70833
1752.499	1107.70833
1755.413	1093.70833
1758.325	1076.70833
1761.235	1089.04167
1764.142	1039.04167
1767.048	1038.04167
1769.951	1032.04167
1772.852	1031.375
1775.752	1028.375
1778.649	1035.70833
1781.544	1032.04167
1784.437	992.70833
1787.328	1017.375
1790.217	991.04167
1793.104	968.375
1795.989	965.70833
1798.872	960.375
1801.753	983.04167
1804.631	975.70833
1807.508	982.375
1810.383	966.375
1813.255	961.04167
1816.126	955.70833
1818.994	950.04167
1821.861	943.70833
1824.725	947.70833
1827.587	939.70833
1830.448	931.70833
1833.306	917.70833
1836.162	923.375
1839.017	901.04167
1841.869	914.375
1844.719	915.04167
1847.567	905.04167
1850.414	890.375
1853.258	896.04167
1856.1	916.375
1858.94	921.04167
1861.778	905.375
1864.614	898.70833
1867.448	903.70833
1870.28	889.375
1873.111	908.375
1875.939	904.70833
1878.765	901.70833
1881.589	883.04167
1884.411	884.70833
1887.231	891.70833
1890.049	885.375
1892.865	881.375
1895.68	860.375
1898.492	893.04167
1901.302	864.375
1904.11	849.70833
1906.916	856.04167
1909.721	855.375
1912.523	873.04167
1915.323	828.04167
1918.122	849.375
1920.918	855.375
1923.712	834.375
1926.505	844.70833
1929.295	832.70833
1932.084	841.04167
1934.87	845.375
1937.655	821.70833
1940.438	819.70833
1943.218	825.70833
1945.997	837.375
1948.774	848.70833
1951.549	837.70833
1954.322	821.375
1957.093	829.70833
1959.862	821.04167
1962.629	816.375
1965.394	805.04167
1968.157	798.375
1970.918	807.04167
1973.678	804.04167
1976.435	809.375
1979.19	792.375
1981.944	799.375
1984.696	799.375
1987.445	782.375
1990.193	783.375
1992.939	805.375
1995.683	797.70833
1998.425	770.70833
2001.165	806.375
2003.903	771.375
2006.639	770.04167
2009.374	777.375
2012.106	789.70833
2014.837	764.04167
2017.566	784.375
2020.292	771.375
2023.017	780.04167
2025.74	768.04167
2028.461	761.04167
2031.18	759.70833
2033.898	743.70833
2036.613	762.375
2039.327	762.04167
2042.038	751.70833
2044.748	750.04167
2047.456	748.70833
2050.162	737.04167
2052.866	740.70833
2055.568	749.375
2058.268	729.04167
2060.967	745.375
2063.663	729.04167
2066.358	741.70833
2069.051	725.375
2071.742	732.70833
2074.431	747.04167
2077.118	738.70833
2079.804	722.70833
2082.487	740.375
2085.169	747.04167
2087.849	757.70833
2090.527	732.375
2093.203	756.70833
2095.877	758.375
2098.55	765.375
2101.22	781.70833
2103.889	791.04167
2106.556	796.04167
2109.221	835.04167
2111.884	857.375
2114.546	950.375
2117.205	1009.375
2119.863	1102.375
2122.519	1200.04167
2125.173	1269.375
2127.825	1353.375
2130.475	1381.04167
2133.124	1310.375
2135.771	1280.70833
2138.416	1216.375
2141.059	1117.375
2143.7	1087.375
2146.339	999.04167
2148.977	943.04167
2151.613	930.375
2154.247	887.04167
2156.879	872.375
2159.51	834.375
2162.138	824.70833
2164.765	817.70833
2167.39	787.70833
2170.013	811.70833
2172.634	790.04167
2175.254	789.04167
2177.872	791.375
2180.488	763.70833
2183.102	786.04167
2185.714	741.04167
2188.325	724.70833
2190.934	729.70833
2193.541	723.04167
2196.146	712.70833
2198.75	703.70833
2201.351	695.375
2203.951	681.04167
2206.549	692.04167
2209.146	674.375
2211.74	650.04167
2214.333	672.04167
2216.924	644.375
2219.514	658.70833
2222.101	639.375
2224.687	667.70833
2227.271	632.04167
2229.853	627.375
2232.433	618.04167
2235.012	638.375
2237.589	622.04167
2240.164	638.375
2242.738	631.70833
2245.309	609.375
2247.879	619.70833
2250.448	628.375
2253.014	602.375
2255.579	591.04167
2258.142	590.04167
2260.703	577.375
2263.262	576.375
2265.82	571.70833
2268.376	587.04167
2270.93	575.70833
2273.483	572.04167
2276.033	584.375
2278.583	560.04167
2281.13	557.375
2283.675	553.70833
2286.219	559.04167
2288.761	553.70833
2291.302	564.375
2293.841	554.04167
2296.377	532.375
2298.913	543.70833
2301.446	559.04167
2303.978	539.04167
2306.508	534.70833
2309.037	543.04167
2311.563	544.375
2314.088	552.375
2316.612	521.70833
2319.133	533.04167
2321.653	529.04167
2324.171	519.70833
2326.688	526.375
2329.202	519.375
2331.715	524.375
2334.227	511.04167
2336.736	516.70833
2339.244	516.04167
2341.751	512.70833
2344.255	517.70833
2346.758	500.04167
2349.259	501.375
2351.759	496.04167
2354.257	506.375
2356.753	490.04167
2359.247	504.70833
2361.74	505.04167
2364.231	482.375
2366.721	507.04167
2369.209	482.70833
2371.695	483.70833
2374.179	490.04167
2376.662	489.04167
2379.143	496.375
2381.622	487.04167
2384.1	499.04167
2386.576	477.70833
2389.051	494.375
2391.524	506.70833
2393.995	496.375
2396.464	477.04167
2398.932	473.375
2401.398	475.375
2403.863	476.375
2406.325	460.375
2408.787	480.70833
2411.246	476.70833
2413.704	476.70833
2416.16	464.375
2418.615	466.70833
2421.068	484.04167
2423.519	467.70833
2425.969	465.04167
2428.417	466.04167
2430.863	482.375
2433.308	475.04167
2435.751	459.375
2438.193	458.70833
2440.633	462.375
2443.071	461.70833
2445.508	446.375
2447.943	452.70833
2450.376	448.70833
2452.808	454.70833
2455.238	443.04167
2457.667	475.70833
2460.093	448.375
2462.519	440.04167
2464.942	442.04167
2467.365	449.375
2469.785	447.70833
2472.204	447.375
2474.621	435.04167
2477.037	467.04167
2479.451	430.04167
2481.863	423.375
2484.274	421.375
2486.683	436.70833
2489.091	444.375
2491.497	440.375
2493.901	433.375
2496.304	429.375
2498.705	441.04167
2501.105	430.375
2503.503	455.04167
2505.899	426.70833
2508.294	449.70833
2510.687	419.375
2513.079	418.70833
2515.469	412.375
2517.858	415.375
2520.245	442.70833
2522.63	416.375
2525.014	416.70833
2527.396	416.04167
2529.776	412.70833
2532.156	413.375
2534.533	405.70833
2536.909	416.375
2539.283	400.70833
2541.656	412.375
2544.027	422.375
2546.397	412.375
2548.765	408.04167
2551.131	405.375
2553.496	409.04167
2555.86	417.70833
2558.221	409.04167
2560.582	408.375
2562.94	389.70833
2565.298	403.04167
2567.653	419.04167
2570.007	387.70833
2572.36	404.04167
2574.711	393.70833
2577.06	418.70833
2579.408	392.04167
2581.754	396.375
2584.099	395.375
2586.442	397.375
2588.784	405.04167
2591.124	399.04167
2593.463	393.70833
2595.8	392.04167
2598.135	380.375
2600.469	391.04167
2602.802	405.04167
2605.133	404.04167
2607.462	381.70833
2609.79	381.04167
2612.116	398.70833
2614.441	389.04167
2616.764	398.70833
2619.086	389.04167
2621.406	382.04167
2623.725	395.70833
2626.042	389.04167
2628.358	387.375
2630.672	387.70833
2632.985	388.70833
2635.296	395.70833
2637.606	396.04167
2639.914	374.375
2642.22	390.04167
2644.525	379.04167
2646.829	394.04167
2649.131	398.04167
2651.432	403.70833
2653.731	387.375
2656.028	400.375
2658.324	389.70833
2660.619	381.70833
2662.912	396.04167
2665.204	379.375
2667.494	401.04167
2669.782	380.375
2672.07	402.70833
2674.355	393.70833
2676.639	393.70833
2678.922	388.375
2681.203	403.04167
2683.483	377.70833
2685.761	379.70833
2688.038	402.04167
2690.313	410.04167
2692.587	393.375
2694.859	388.04167
2697.13	391.375
2699.399	396.70833
2701.667	410.70833
2703.933	410.375
2706.198	406.70833
2708.461	410.04167
2710.723	424.70833
2712.984	412.375
2715.243	425.04167
2717.5	413.04167
2719.757	419.70833
2722.011	416.04167
2724.264	431.04167
2726.516	439.70833
2728.766	418.70833
2731.015	427.375
2733.262	416.375
2735.508	425.04167
2737.753	419.375
2739.996	403.375
2742.237	411.04167
2744.477	412.70833
2746.716	419.04167
2748.953	401.04167
2751.189	415.375
2753.423	406.375
2755.656	395.375
2757.887	397.375
2760.117	398.04167
2762.346	389.375
2764.573	388.375
2766.798	388.04167
2769.022	399.04167
2771.245	398.04167
2773.467	398.70833
2775.686	396.375
2777.905	407.375
2780.122	408.375
2782.337	418.375
2784.552	410.70833
2786.764	411.70833
2788.976	420.04167
2791.186	428.04167
2793.394	420.375
2795.601	435.70833
2797.807	448.04167
2800.011	455.04167
2802.214	458.70833
2804.415	458.375
2806.615	468.375
2808.814	480.04167
2811.011	480.70833
2813.206	477.375
2815.401	489.70833
2817.594	502.70833
2819.785	506.70833
2821.975	504.04167
2824.164	516.375
2826.351	535.375
2828.537	545.04167
2830.722	560.70833
2832.905	559.04167
2835.086	580.375
2837.267	612.04167
2839.445	631.375
2841.623	648.375
2843.799	671.04167
2845.974	717.04167
2848.147	736.375
2850.319	760.04167
2852.489	788.04167
2854.659	793.04167
2856.826	811.70833
2858.993	832.04167
2861.158	817.375
2863.321	823.70833
2865.483	834.04167
2867.644	829.375
2869.804	816.70833
2871.962	832.375
2874.118	830.70833
2876.274	853.375
2878.428	837.375
2880.58	818.375
2882.731	805.04167
2884.881	817.04167
2887.03	813.04167
2889.177	796.04167
2891.322	826.375
2893.467	808.375
2895.61	818.375
2897.751	823.70833
2899.892	819.04167
2902.03	826.70833
2904.168	831.70833
2906.304	828.04167
2908.439	847.375
2910.572	825.04167
2912.704	853.70833
2914.835	850.04167
2916.965	838.70833
2919.093	846.70833
2921.219	815.04167
2923.345	842.375
2925.469	816.375
2927.591	790.70833
2929.712	763.04167
2931.832	762.70833
2933.951	751.375
2936.068	736.375
2938.184	710.375
2940.299	670.375
2942.412	662.70833
2944.524	632.04167
2946.634	618.04167
2948.744	579.375
2950.851	597.70833
2952.958	554.04167
2955.063	540.04167
2957.167	530.375
2959.269	500.375
2961.371	514.70833
2963.471	474.04167
2965.569	468.70833
2967.666	443.04167
2969.762	451.04167
2971.857	426.70833
2973.95	407.04167
2976.042	411.70833
2978.133	391.04167
2980.222	387.70833
2982.31	363.70833
2984.396	356.375
2986.482	352.375
2988.566	363.04167
2990.648	347.70833
2992.73	340.70833
2994.81	334.04167
2996.889	332.70833
2998.966	321.70833
3001.042	330.70833
3003.117	321.70833
3005.191	318.70833
3007.263	308.04167
3009.334	310.04167
3011.403	308.04167
3013.472	292.70833
3015.539	299.04167
3017.604	308.04167
3019.669	267.04167
3021.732	276.04167
3023.794	282.04167
3025.854	262.04167
3027.914	261.375
3029.971	266.70833
3032.028	260.375
3034.083	267.04167
3036.137	264.70833
3038.19	249.375
3040.242	244.375
3042.292	244.375
3044.341	236.04167
3046.388	251.375
3048.435	225.70833
3050.48	243.70833
3052.524	235.375
3054.566	212.375
3056.607	230.04167
3058.647	217.04167
3060.686	214.375
3062.723	201.70833
3064.759	195.375
3066.794	0.70833
3068.828	0.04167
3070.86	-2.625
