-0.839	487.70833
3.438	527.70833
7.711	134.70833
11.981	52.375
16.247	45.70833
20.509	42.375
24.768	43.70833
29.024	47.04167
33.276	45.04167
37.524	48.04167
41.769	40.375
46.01	39.04167
50.247	50.70833
54.481	60.70833
58.712	66.70833
62.939	45.70833
67.162	63.04167
71.382	54.375
75.599	48.70833
79.812	61.70833
84.021	80.70833
88.227	58.04167
92.429	65.70833
96.628	49.70833
100.823	68.04167
105.015	76.04167
109.204	81.04167
113.388	77.70833
117.57	73.04167
121.748	96.04167
125.922	88.375
130.093	106.70833
134.261	104.375
138.425	101.70833
142.585	150.04167
146.742	149.04167
150.896	183.375
155.046	228.04167
159.193	375.04167
163.336	671.375
167.476	1216.70833
171.613	2223.375
175.746	3619.375
179.875	5301.375
184.002	6767.04167
188.124	7684.375
192.244	7873.70833
196.36	7589.375
200.472	7273.04167
204.581	6949.375
208.687	6675.70833
212.79	6494.04167
216.889	6393.375
220.984	6316.04167
225.077	6291.70833
229.165	6266.70833
233.251	6249.70833
237.333	6216.04167
241.412	6143.70833
245.487	6079.70833
249.559	5956.70833
253.628	5862.70833
257.694	5833.04167
261.756	5753.375
265.814	5639.04167
269.87	5459.375
273.922	5295.70833
277.97	5215.04167
282.016	5138.70833
286.058	5154.04167
290.097	5214.375
294.132	5213.70833
298.164	5116.04167
302.193	4901.375
306.219	4565.04167
310.241	4170.375
314.26	3814.04167
318.276	3517.70833
322.288	3315.70833
326.297	3125.04167
330.303	2986.70833
334.305	2895.70833
338.305	2829.70833
342.301	2787.70833
346.294	2764.375
350.283	2743.375
354.269	2671.04167
358.252	2657.375
362.232	2629.70833
366.209	2619.70833
370.182	2565.70833
374.152	2564.70833
378.119	2571.375
382.083	2514.04167
386.043	2531.70833
390	2483.04167
393.954	2501.375
397.905	2462.04167
401.852	2473.04167
405.797	2428.04167
409.738	2422.04167
413.676	2446.70833
417.61	2438.04167
421.542	2386.70833
425.47	2346.375
429.396	2305.375
433.318	2305.375
437.236	2301.70833
441.152	2308.04167
445.065	2239.70833
448.974	2264.375
452.88	2235.70833
456.783	2216.375
460.683	2189.04167
464.58	2195.375
468.473	2212.70833
472.364	2191.70833
476.251	2218.70833
480.135	2211.04167
484.016	2267.04167
487.894	2258.70833
491.769	2259.70833
495.641	2263.375
499.509	2271.375
503.375	2286.70833
507.237	2281.04167
511.096	2270.375
514.952	2342.375
518.805	2422.04167
522.655	2454.375
526.502	2289.70833
530.346	2260.375
534.187	2268.70833
538.024	2239.70833
541.859	2257.70833
545.69	2277.375
549.519	2256.375
553.344	2247.375
557.166	2202.375
560.985	2187.375
564.802	2158.04167
568.615	2125.04167
572.425	2086.04167
576.232	2098.70833
580.036	2090.70833
583.836	2098.04167
587.634	2087.04167
591.429	2088.70833
595.221	2113.375
599.01	2145.04167
602.796	2189.04167
606.578	2179.70833
610.358	2185.04167
614.135	2174.04167
617.909	2193.375
621.679	2149.04167
625.447	2130.04167
629.212	2151.04167
632.973	2145.04167
636.732	2141.375
640.488	2163.70833
644.241	2106.04167
647.991	2113.04167
651.737	2122.70833
655.481	2107.04167
659.222	2111.70833
662.96	2105.70833
666.695	2109.70833
670.427	2129.04167
674.156	2141.70833
677.882	2139.375
681.605	2137.04167
685.325	2120.375
689.043	2119.70833
692.757	2102.04167
696.468	2111.375
700.177	2127.04167
703.882	2102.70833
707.585	2121.70833
711.284	2115.375
714.981	2133.04167
718.675	2127.375
722.366	2142.375
726.054	2126.375
729.739	2121.04167
733.421	2130.375
737.1	2134.70833
740.777	2142.70833
744.45	2130.375
748.121	2165.70833
751.789	2224.70833
755.453	2211.04167
759.115	2216.70833
762.774	2248.04167
766.431	2263.375
770.084	2260.375
773.734	2289.375
777.382	2333.04167
781.027	2355.375
784.669	2377.375
788.308	2392.375
791.944	2403.375
795.577	2449.70833
799.208	2447.375
802.835	2457.04167
806.46	2470.04167
810.082	2489.375
813.701	2481.375
817.317	2500.375
820.931	2503.70833
824.542	2494.70833
828.149	2487.375
831.754	2462.04167
835.357	2451.70833
838.956	2449.04167
842.553	2437.70833
846.146	2428.04167
849.737	2427.70833
853.326	2420.70833
856.911	2436.70833
860.493	2469.375
864.073	2497.04167
867.65	2550.70833
871.225	2586.375
874.796	2558.70833
878.365	2547.375
881.931	2580.70833
885.494	2598.375
889.054	2587.375
892.612	2593.04167
896.166	2559.70833
899.719	2533.04167
903.268	2514.375
906.814	2489.375
910.358	2487.04167
913.899	2461.375
917.438	2481.375
920.973	2458.375
924.506	2493.70833
928.036	2520.70833
931.564	2548.70833
935.088	2563.04167
938.61	2566.70833
942.129	2606.04167
945.646	2676.04167
949.16	2732.375
952.671	2772.70833
956.179	2810.04167
959.685	2773.375
963.188	2747.70833
966.688	2735.70833
970.185	2660.375
973.68	2599.04167
977.173	2601.70833
980.662	2589.375
984.149	2598.70833
987.633	2592.70833
991.114	2650.04167
994.593	2713.04167
998.069	2812.70833
1001.542	2889.375
1005.013	2825.375
1008.481	2664.04167
1011.947	2587.04167
1015.409	2602.70833
1018.869	2605.375
1022.327	2583.70833
1025.782	2580.375
1029.234	2585.04167
1032.683	2542.70833
1036.13	2470.04167
1039.574	2379.04167
1043.016	2311.375
1046.455	2271.70833
1049.891	2253.375
1053.325	2253.375
1056.756	2261.375
1060.184	2275.70833
1063.61	2290.04167
1067.033	2297.375
1070.454	2295.04167
1073.872	2346.375
1077.287	2334.375
1080.7	2347.70833
1084.11	2352.04167
1087.517	2303.375
1090.922	2268.375
1094.325	2254.70833
1097.724	2229.04167
1101.122	2243.375
1104.516	2230.04167
1107.908	2247.04167
1111.298	2276.375
1114.684	2299.04167
1118.069	2326.04167
1121.45	2341.04167
1124.83	2361.04167
1128.206	2356.375
1131.58	2420.375
1134.951	2474.70833
1138.32	2575.375
1141.687	2647.70833
1145.05	2729.375
1148.412	2729.375
1151.77	2711.04167
1155.126	2713.04167
1158.48	2697.375
1161.831	2718.04167
1165.18	2723.04167
1168.525	2801.70833
1171.869	2826.04167
1175.21	2838.375
1178.548	2863.375
1181.884	2888.04167
1185.217	2890.04167
1188.548	2939.04167
1191.877	2989.70833
1195.202	3058.04167
1198.526	3119.375
1201.846	3096.70833
1205.165	3122.70833
1208.48	3101.375
1211.794	3110.70833
1215.104	3118.375
1218.413	3126.375
1221.719	3118.04167
1225.022	3086.375
1228.323	3060.375
1231.621	3046.70833
1234.917	3040.04167
1238.21	3075.04167
1241.501	3064.04167
1244.79	3038.70833
1248.076	3060.04167
1251.359	3103.70833
1254.64	3168.375
1257.919	3185.70833
1261.195	3263.375
1264.468	3327.70833
1267.74	3355.04167
1271.008	3374.70833
1274.275	3349.70833
1277.538	3305.04167
1280.8	3248.375
1284.059	3258.04167
1287.315	3309.375
1290.569	3304.70833
1293.821	3355.04167
1297.07	3358.375
1300.317	3371.375
1303.562	3333.375
1306.803	3327.375
1310.043	3274.375
1313.28	3235.70833
1316.515	3184.375
1319.747	3155.375
1322.977	3137.70833
1326.204	3081.70833
1329.429	3041.375
1332.652	3013.04167
1335.872	3024.375
1339.09	3012.04167
1342.306	3023.70833
1345.519	2990.04167
1348.729	2971.70833
1351.938	2962.04167
1355.144	2911.70833
1358.347	2893.04167
1361.548	2887.70833
1364.747	2893.70833
1367.944	2867.375
1371.138	2873.375
1374.329	2907.375
1377.518	2906.375
1380.705	2948.375
1383.89	2924.70833
1387.072	2854.375
1390.252	2743.70833
1393.429	2654.70833
1396.605	2577.375
1399.777	2509.375
1402.948	2493.70833
1406.116	2468.375
1409.282	2481.70833
1412.445	2469.375
1415.606	2528.04167
1418.765	2566.375
1421.921	2623.04167
1425.075	2692.04167
1428.227	2786.70833
1431.376	2893.04167
1434.524	2971.70833
1437.668	3043.04167
1440.811	3073.70833
1443.951	3098.70833
1447.089	3091.70833
1450.224	3099.375
1453.357	3066.04167
1456.488	3023.70833
1459.617	2980.70833
1462.743	2954.70833
1465.867	2889.375
1468.989	2862.375
1472.108	2802.70833
1475.225	2769.375
1478.34	2712.375
1481.453	2740.70833
1484.563	2727.04167
1487.671	2781.375
1490.776	2817.70833
1493.88	2884.375
1496.981	2953.04167
1500.08	2977.375
1503.176	3002.04167
1506.271	3061.04167
1509.363	3104.70833
1512.452	3120.375
1515.54	3160.70833
1518.625	3234.375
1521.708	3353.70833
1524.789	3487.70833
1527.867	3689.375
1530.944	3929.375
1534.018	4143.70833
1537.089	4269.70833
1540.159	4322.70833
1543.226	4240.375
1546.291	4127.70833
1549.354	3999.375
1552.415	3861.70833
1555.473	3754.04167
1558.529	3644.375
1561.583	3605.70833
1564.634	3553.70833
1567.684	3559.04167
1570.731	3520.375
1573.776	3574.375
1576.819	3583.375
1579.859	3605.70833
1582.898	3663.375
1585.934	3669.375
1588.968	3684.04167
1591.999	3655.70833
1595.029	3676.04167
1598.056	3687.04167
1601.081	3714.375
1604.104	3672.375
1607.125	3672.375
1610.144	3572.375
1613.16	3500.375
1616.174	3415.375
1619.186	3323.70833
1622.196	3270.375
1625.203	3181.04167
1628.209	3165.70833
1631.212	3155.04167
1634.213	3152.375
1637.212	3103.04167
1640.209	3077.375
1643.203	2974.04167
1646.196	2909.04167
1649.186	2814.375
1652.174	2736.04167
1655.16	2651.70833
1658.144	2549.375
1661.125	2458.04167
1664.105	2327.70833
1667.082	2246.70833
1670.057	2136.375
1673.03	1980.70833
1676.001	1859.70833
1678.97	1748.375
1681.937	1647.04167
1684.901	1567.375
1687.863	1500.375
1690.824	1416.375
1693.782	1411.04167
1696.738	1348.375
1699.692	1322.04167
1702.643	1296.70833
1705.593	1293.375
1708.54	1254.70833
1711.486	1269.04167
1714.429	1228.70833
1717.37	1230.70833
1720.309	1191.375
1723.246	1208.375
1726.181	1172.04167
1729.113	1179.375
1732.044	1166.70833
1734.972	1131.375
1737.899	1152.04167
1740.823	1142.04167
1743.745	1148.04167
1746.665	1092.04167
1749.583	1086.04167
1752.499	1060.375
1755.413	1053.70833
1758.325	1028.04167
1761.235	1028.375
1764.142	1012.375
1767.048	995.70833
1769.951	999.04167
1772.852	981.04167
1775.752	991.04167
1778.649	996.375
1781.544	993.04167
1784.437	940.375
1787.328	969.70833
1790.217	961.70833
1793.104	940.375
1795.989	924.04167
1798.872	934.04167
1801.753	950.70833
1804.631	943.70833
1807.508	945.04167
1810.383	941.70833
1813.255	931.04167
1816.126	931.04167
1818.994	901.04167
1821.861	913.70833
1824.725	888.04167
1827.587	911.70833
1830.448	896.70833
1833.306	882.04167
1836.162	889.375
1839.017	880.70833
1841.869	877.375
1844.719	881.70833
1847.567	873.70833
1850.414	856.04167
1853.258	860.70833
1856.1	887.375
1858.94	884.375
1861.778	872.70833
1864.614	859.70833
1867.448	858.04167
1870.28	842.375
1873.111	870.70833
1875.939	861.04167
1878.765	867.04167
1881.589	852.70833
1884.411	860.04167
1887.231	859.70833
1890.049	851.375
1892.865	845.70833
1895.68	851.375
1898.492	848.04167
1901.302	834.04167
1904.11	835.375
1906.916	828.375
1909.721	823.70833
1912.523	839.70833
1915.323	810.70833
1918.122	802.70833
1920.918	820.375
1923.712	806.70833
1926.505	812.375
1929.295	805.375
1932.084	828.70833
1934.87	811.375
1937.655	811.375
1940.438	791.70833
1943.218	800.375
1945.997	809.70833
1948.774	814.04167
1951.549	807.70833
1954.322	805.70833
1957.093	800.375
1959.862	789.375
1962.629	809.04167
1965.394	782.375
1968.157	770.70833
1970.918	783.375
1973.678	770.375
1976.435	777.70833
1979.19	768.70833
1981.944	758.70833
1984.696	765.04167
1987.445	753.375
1990.193	762.375
1992.939	781.70833
1995.683	766.375
1998.425	739.375
2001.165	781.70833
2003.903	771.04167
2006.639	757.04167
2009.374	750.70833
2012.106	766.375
2014.837	735.70833
2017.566	759.04167
2020.292	759.70833
2023.017	751.04167
2025.74	743.375
2028.461	729.04167
2031.18	752.70833
2033.898	736.70833
2036.613	751.375
2039.327	735.375
2042.038	729.70833
2044.748	737.70833
2047.456	749.70833
2050.162	719.375
2052.866	727.04167
2055.568	742.04167
2058.268	725.04167
2060.967	731.375
2063.663	719.70833
2066.358	728.04167
2069.051	717.04167
2071.742	727.70833
2074.431	724.70833
2077.118	709.04167
2079.804	703.375
2082.487	727.70833
2085.169	719.70833
2087.849	737.70833
2090.527	719.70833
2093.203	730.375
2095.877	741.04167
2098.55	737.70833
2101.22	746.70833
2103.889	748.375
2106.556	752.04167
2109.221	785.04167
2111.884	811.04167
2114.546	865.70833
2117.205	924.04167
2119.863	991.04167
2122.519	1053.375
2125.173	1124.375
2127.825	1165.375
2130.475	1170.70833
2133.124	1150.04167
2135.771	1086.375
2138.416	1041.375
2141.059	972.70833
2143.7	956.04167
2146.339	887.70833
2148.977	843.04167
2151.613	826.04167
2154.247	808.375
2156.879	796.70833
2159.51	767.375
2162.138	764.70833
2164.765	754.70833
2167.39	734.375
2170.013	748.375
2172.634	743.375
2175.254	728.70833
2177.872	756.70833
2180.488	707.375
2183.102	717.04167
2185.714	699.375
2188.325	688.04167
2190.934	687.375
2193.541	696.04167
2196.146	689.70833
2198.75	673.70833
2201.351	668.70833
2203.951	657.70833
2206.549	671.70833
2209.146	657.04167
2211.74	644.70833
2214.333	668.375
2216.924	634.375
2219.514	638.70833
2222.101	636.375
2224.687	653.375
2227.271	648.375
2229.853	626.70833
2232.433	619.04167
2235.012	649.70833
2237.589	639.375
2240.164	639.375
2242.738	632.04167
2245.309	626.70833
2247.879	631.70833
2250.448	644.70833
2253.014	608.04167
2255.579	599.375
2258.142	607.70833
2260.703	581.375
2263.262	591.375
2265.82	589.04167
2268.376	594.70833
2270.93	578.375
2273.483	582.04167
2276.033	583.04167
2278.583	575.70833
2281.13	593.04167
2283.675	573.04167
2286.219	579.70833
2288.761	576.04167
2291.302	578.04167
2293.841	583.375
2296.377	557.70833
2298.913	571.375
2301.446	585.04167
2303.978	561.04167
2306.508	547.04167
2309.037	559.375
2311.563	563.70833
2314.088	561.04167
2316.612	550.375
2319.133	561.70833
2321.653	565.375
2324.171	540.04167
2326.688	565.375
2329.202	546.375
2331.715	550.375
2334.227	553.375
2336.736	543.04167
2339.244	548.375
2341.751	536.04167
2344.255	551.375
2346.758	539.375
2349.259	531.04167
2351.759	538.04167
2354.257	538.375
2356.753	528.04167
2359.247	531.375
2361.74	531.375
2364.231	530.375
2366.721	537.04167
2369.209	537.70833
2371.695	532.70833
2374.179	535.04167
2376.662	528.375
2379.143	553.375
2381.622	528.04167
2384.1	528.70833
2386.576	525.04167
2389.051	549.04167
2391.524	547.70833
2393.995	536.70833
2396.464	515.70833
2398.932	513.375
2401.398	534.04167
2403.863	517.70833
2406.325	525.04167
2408.787	527.375
2411.246	528.375
2413.704	517.70833
2416.16	517.04167
2418.615	522.04167
2421.068	525.70833
2423.519	531.04167
2425.969	523.375
2428.417	537.04167
2430.863	540.70833
2433.308	532.375
2435.751	520.70833
2438.193	523.70833
2440.633	532.04167
2443.071	525.04167
2445.508	513.04167
2447.943	518.375
2450.376	511.04167
2452.808	519.04167
2455.238	515.70833
2457.667	538.70833
2460.093	519.04167
2462.519	500.70833
2464.942	513.04167
2467.365	517.375
2469.785	525.70833
2472.204	517.04167
2474.621	493.04167
2477.037	529.70833
2479.451	511.70833
2481.863	513.04167
2484.274	499.04167
2486.683	510.70833
2489.091	518.70833
2491.497	521.70833
2493.901	509.70833
2496.304	519.375
2498.705	516.375
2501.105	504.70833
2503.503	542.375
2505.899	512.70833
2508.294	530.70833
2510.687	502.375
2513.079	508.04167
2515.469	503.70833
2517.858	501.375
2520.245	521.70833
2522.63	509.70833
2525.014	507.375
2527.396	494.70833
2529.776	503.70833
2532.156	517.375
2534.533	495.70833
2536.909	505.04167
2539.283	493.04167
2541.656	496.375
2544.027	524.04167
2546.397	508.375
2548.765	506.375
2551.131	499.375
2553.496	506.70833
2555.86	514.70833
2558.221	515.70833
2560.582	513.375
2562.94	498.04167
2565.298	503.70833
2567.653	523.70833
2570.007	499.375
2572.36	511.375
2574.711	500.375
2577.06	521.375
2579.408	507.70833
2581.754	508.70833
2584.099	511.04167
2586.442	507.70833
2588.784	515.375
2591.124	509.70833
2593.463	508.04167
2595.8	507.04167
2598.135	495.04167
2600.469	506.04167
2602.802	518.375
2605.133	514.04167
2607.462	508.375
2609.79	498.04167
2612.116	518.70833
2614.441	505.04167
2616.764	514.04167
2619.086	515.04167
2621.406	512.70833
2623.725	525.04167
2626.042	525.04167
2628.358	508.70833
2630.672	510.70833
2632.985	522.04167
2635.296	512.70833
2637.606	519.375
2639.914	519.375
2642.22	523.04167
2644.525	519.375
2646.829	522.04167
2649.131	533.70833
2651.432	537.04167
2653.731	532.375
2656.028	545.04167
2658.324	529.70833
2660.619	518.375
2662.912	539.375
2665.204	527.70833
2667.494	548.375
2669.782	530.375
2672.07	543.70833
2674.355	560.375
2676.639	546.70833
2678.922	534.70833
2681.203	551.04167
2683.483	530.70833
2685.761	529.375
2688.038	551.70833
2690.313	563.375
2692.587	549.70833
2694.859	546.70833
2697.13	553.04167
2699.399	551.04167
2701.667	562.70833
2703.933	567.04167
2706.198	562.375
2708.461	568.70833
2710.723	575.70833
2712.984	568.375
2715.243	574.04167
2717.5	570.70833
2719.757	595.70833
2722.011	589.04167
2724.264	594.04167
2726.516	611.70833
2728.766	585.375
2731.015	599.04167
2733.262	582.375
2735.508	585.70833
2737.753	594.04167
2739.996	571.70833
2742.237	577.04167
2744.477	604.04167
2746.716	583.375
2748.953	577.70833
2751.189	592.04167
2753.423	567.70833
2755.656	573.04167
2757.887	573.70833
2760.117	565.70833
2762.346	564.70833
2764.573	567.375
2766.798	572.70833
2769.022	575.04167
2771.245	584.375
2773.467	574.375
2775.686	579.70833
2777.905	587.04167
2780.122	589.70833
2782.337	598.04167
2784.552	586.375
2786.764	597.375
2788.976	615.375
2791.186	614.70833
2793.394	617.375
2795.601	624.70833
2797.807	632.04167
2800.011	633.04167
2802.214	654.04167
2804.415	648.70833
2806.615	648.375
2808.814	662.70833
2811.011	664.70833
2813.206	661.375
2815.401	682.70833
2817.594	687.70833
2819.785	702.375
2821.975	681.70833
2824.164	693.04167
2826.351	730.375
2828.537	752.70833
2830.722	756.70833
2832.905	747.70833
2835.086	789.70833
2837.267	806.375
2839.445	831.375
2841.623	846.70833
2843.799	869.70833
2845.974	905.70833
2848.147	938.04167
2850.319	942.375
2852.489	982.375
2854.659	998.375
2856.826	1005.70833
2858.993	1027.375
2861.158	1004.70833
2863.321	1026.70833
2865.483	1035.375
2867.644	1031.04167
2869.804	1032.375
2871.962	1025.04167
2874.118	1045.04167
2876.274	1061.70833
2878.428	1053.375
2880.58	1032.375
2882.731	1012.04167
2884.881	1007.375
2887.03	1012.375
2889.177	1011.04167
2891.322	1034.70833
2893.467	1017.04167
2895.61	1025.375
2897.751	1049.375
2899.892	1031.375
2902.03	1035.70833
2904.168	1044.70833
2906.304	1046.70833
2908.439	1082.375
2910.572	1052.04167
2912.704	1071.70833
2914.835	1076.375
2916.965	1049.70833
2919.093	1076.375
2921.219	1028.70833
2923.345	1060.04167
2925.469	1022.04167
2927.591	1022.70833
2929.712	993.375
2931.832	996.375
2933.951	974.04167
2936.068	957.04167
2938.184	934.375
2940.299	919.375
2942.412	902.70833
2944.524	865.375
2946.634	855.70833
2948.744	802.375
2950.851	846.375
2952.958	791.70833
2955.063	787.04167
2957.167	770.04167
2959.269	745.70833
2961.371	761.375
2963.471	727.04167
2965.569	736.04167
2967.666	708.375
2969.762	690.375
2971.857	678.70833
2973.95	662.375
2976.042	663.375
2978.133	645.70833
2980.222	638.70833
2982.31	612.04167
2984.396	604.70833
2986.482	612.375
2988.566	609.04167
2990.648	606.70833
2992.73	599.375
2994.81	582.70833
2996.889	589.70833
2998.966	590.70833
3001.042	592.04167
3003.117	579.04167
3005.191	583.375
3007.263	578.04167
3009.334	572.04167
3011.403	566.375
3013.472	547.70833
3015.539	555.04167
3017.604	555.70833
3019.669	534.04167
3021.732	536.375
3023.794	540.04167
3025.854	523.04167
3027.914	524.04167
3029.971	519.375
3032.028	522.04167
3034.083	519.375
3036.137	513.04167
3038.19	497.04167
3040.242	490.375
3042.292	474.70833
3044.341	472.375
3046.388	483.70833
3048.435	450.70833
3050.48	476.70833
3052.524	474.70833
3054.566	444.70833
3056.607	463.70833
3058.647	455.375
3060.686	431.70833
3062.723	426.375
3064.759	406.04167
3066.794	-0.95833
3068.828	-0.95833
3070.86	-1.29167
