-0.839	499.91667
3.438	541.58333
7.711	142.91667
11.981	60.25
16.247	46.25
20.509	44.25
24.768	46.91667
29.024	44.25
33.276	42.58333
37.524	47.91667
41.769	41.25
46.01	37.58333
50.247	49.58333
54.481	60.25
58.712	70.58333
62.939	50.91667
67.162	60.58333
71.382	57.58333
75.599	44.91667
79.812	65.25
84.021	76.25
88.227	58.25
92.429	64.25
96.628	53.25
100.823	70.58333
105.015	75.25
109.204	79.91667
113.388	80.25
117.57	79.58333
121.748	91.91667
125.922	84.91667
130.093	105.91667
134.261	114.25
138.425	106.91667
142.585	145.58333
146.742	146.58333
150.896	180.25
155.046	234.91667
159.193	387.58333
163.336	666.91667
167.476	1226.25
171.613	2220.91667
175.746	3622.58333
179.875	5307.58333
184.002	6813.58333
188.124	7694.25
192.244	7879.91667
196.36	7639.25
200.472	7255.25
204.581	6951.58333
208.687	6660.91667
212.79	6482.58333
216.889	6356.58333
220.984	6241.58333
225.077	6224.91667
229.165	6203.58333
233.251	6204.25
237.333	6146.25
241.412	6089.58333
245.487	5973.25
249.559	5880.25
253.628	5842.91667
257.694	5777.58333
261.756	5695.91667
265.814	5590.91667
269.87	5396.25
273.922	5223.25
277.97	5175.25
282.016	5108.58333
286.058	5104.25
290.097	5166.25
294.132	5183.25
298.164	5085.58333
302.193	4857.25
306.219	4521.91667
310.241	4125.91667
314.26	3792.91667
318.276	3483.25
322.288	3269.25
326.297	3073.25
330.303	2968.58333
334.305	2866.58333
338.305	2794.58333
342.301	2761.25
346.294	2708.91667
350.283	2712.25
354.269	2649.25
358.252	2631.91667
362.232	2580.91667
366.209	2552.25
370.182	2532.91667
374.152	2506.25
378.119	2540.58333
382.083	2491.91667
386.043	2519.25
390	2457.58333
393.954	2469.25
397.905	2408.25
401.852	2422.91667
405.797	2405.25
409.738	2364.58333
413.676	2397.58333
417.61	2385.58333
421.542	2336.58333
425.47	2309.25
429.396	2282.25
433.318	2281.25
437.236	2245.25
441.152	2263.91667
445.065	2204.91667
448.974	2203.91667
452.88	2166.91667
456.783	2161.58333
460.683	2134.58333
464.58	2160.91667
468.473	2151.58333
472.364	2154.58333
476.251	2180.91667
480.135	2173.25
484.016	2203.91667
487.894	2201.91667
491.769	2200.91667
495.641	2216.58333
499.509	2226.91667
503.375	2228.91667
507.237	2216.25
511.096	2225.25
514.952	2298.58333
518.805	2354.91667
522.655	2390.58333
526.502	2260.91667
530.346	2215.58333
534.187	2217.58333
538.024	2195.58333
541.859	2218.58333
545.69	2224.58333
549.519	2215.25
553.344	2175.25
557.166	2151.58333
560.985	2131.58333
564.802	2098.58333
568.615	2099.58333
572.425	2037.58333
576.232	2061.25
580.036	2033.91667
583.836	2051.91667
587.634	2040.58333
591.429	2036.91667
595.221	2104.91667
599.01	2106.25
602.796	2125.25
606.578	2147.91667
610.358	2152.25
614.135	2119.25
617.909	2126.58333
621.679	2109.25
625.447	2088.58333
629.212	2098.25
632.973	2093.25
636.732	2095.25
640.488	2131.91667
644.241	2087.25
647.991	2087.91667
651.737	2080.25
655.481	2049.25
659.222	2040.25
662.96	2063.25
666.695	2072.91667
670.427	2091.58333
674.156	2095.58333
677.882	2097.58333
681.605	2087.25
685.325	2068.91667
689.043	2083.58333
692.757	2068.58333
696.468	2057.58333
700.177	2066.58333
703.882	2059.58333
707.585	2073.58333
711.284	2074.25
714.981	2063.91667
718.675	2094.91667
722.366	2106.25
726.054	2084.25
729.739	2084.25
733.421	2081.25
737.1	2057.91667
740.777	2106.91667
744.45	2144.58333
748.121	2111.91667
751.789	2178.25
755.453	2159.91667
759.115	2150.25
762.774	2200.25
766.431	2222.91667
770.084	2237.25
773.734	2247.25
777.382	2292.91667
781.027	2330.58333
784.669	2332.91667
788.308	2341.91667
791.944	2367.25
795.577	2386.91667
799.208	2413.25
802.835	2412.91667
806.46	2422.25
810.082	2437.58333
813.701	2448.91667
817.317	2476.91667
820.931	2465.91667
824.542	2457.91667
828.149	2444.91667
831.754	2428.58333
835.357	2411.58333
838.956	2434.91667
842.553	2420.25
846.146	2407.25
849.737	2387.91667
853.326	2400.91667
856.911	2408.58333
860.493	2446.58333
864.073	2473.25
867.65	2521.25
871.225	2540.91667
874.796	2512.25
878.365	2508.91667
881.931	2548.58333
885.494	2563.91667
889.054	2558.25
892.612	2557.91667
896.166	2531.25
899.719	2508.91667
903.268	2471.58333
906.814	2464.25
910.358	2453.25
913.899	2426.91667
917.438	2433.58333
920.973	2425.91667
924.506	2454.91667
928.036	2478.91667
931.564	2520.25
935.088	2530.58333
938.61	2551.91667
942.129	2566.25
945.646	2660.25
949.16	2715.91667
952.671	2739.25
956.179	2749.58333
959.685	2718.58333
963.188	2720.91667
966.688	2675.91667
970.185	2627.91667
973.68	2552.25
977.173	2563.58333
980.662	2546.25
984.149	2562.25
987.633	2566.91667
991.114	2594.25
994.593	2691.58333
998.069	2779.25
1001.542	2868.91667
1005.013	2810.91667
1008.481	2604.91667
1011.947	2568.58333
1015.409	2547.91667
1018.869	2564.58333
1022.327	2565.58333
1025.782	2539.58333
1029.234	2552.91667
1032.683	2508.91667
1036.13	2422.58333
1039.574	2348.58333
1043.016	2280.25
1046.455	2246.25
1049.891	2236.25
1053.325	2221.58333
1056.756	2216.91667
1060.184	2233.25
1063.61	2241.91667
1067.033	2260.25
1070.454	2258.91667
1073.872	2307.25
1077.287	2300.91667
1080.7	2319.25
1084.11	2297.91667
1087.517	2271.58333
1090.922	2281.25
1094.325	2234.58333
1097.724	2218.58333
1101.122	2216.25
1104.516	2198.25
1107.908	2198.58333
1111.298	2245.91667
1114.684	2284.58333
1118.069	2309.25
1121.45	2330.25
1124.83	2331.25
1128.206	2346.25
1131.58	2385.91667
1134.951	2449.58333
1138.32	2544.25
1141.687	2622.25
1145.05	2690.25
1148.412	2713.25
1151.77	2676.91667
1155.126	2682.25
1158.48	2657.91667
1161.831	2689.25
1165.18	2720.91667
1168.525	2737.25
1171.869	2781.25
1175.21	2800.25
1178.548	2815.58333
1181.884	2867.91667
1185.217	2888.25
1188.548	2939.91667
1191.877	2981.25
1195.202	3049.91667
1198.526	3072.91667
1201.846	3095.58333
1205.165	3090.91667
1208.48	3084.58333
1211.794	3074.91667
1215.104	3082.91667
1218.413	3117.91667
1221.719	3087.58333
1225.022	3070.91667
1228.323	3041.25
1231.621	3018.91667
1234.917	3017.91667
1238.21	3045.91667
1241.501	3025.91667
1244.79	3017.58333
1248.076	3043.25
1251.359	3056.25
1254.64	3151.25
1257.919	3173.91667
1261.195	3204.91667
1264.468	3282.25
1267.74	3318.91667
1271.008	3320.25
1274.275	3296.58333
1277.538	3259.25
1280.8	3228.25
1284.059	3242.25
1287.315	3271.58333
1290.569	3282.58333
1293.821	3308.91667
1297.07	3319.25
1300.317	3346.58333
1303.562	3312.91667
1306.803	3283.91667
1310.043	3239.91667
1313.28	3215.25
1316.515	3187.58333
1319.747	3136.91667
1322.977	3101.91667
1326.204	3045.58333
1329.429	3008.91667
1332.652	3008.58333
1335.872	2998.58333
1339.09	2991.58333
1342.306	2967.58333
1345.519	2950.25
1348.729	2927.58333
1351.938	2926.91667
1355.144	2878.91667
1358.347	2823.25
1361.548	2866.25
1364.747	2862.25
1367.944	2837.91667
1371.138	2861.25
1374.329	2868.58333
1377.518	2933.91667
1380.705	2922.91667
1383.89	2895.58333
1387.072	2816.25
1390.252	2713.25
1393.429	2629.25
1396.605	2560.58333
1399.777	2495.25
1402.948	2476.25
1406.116	2453.25
1409.282	2440.91667
1412.445	2433.91667
1415.606	2487.25
1418.765	2531.91667
1421.921	2594.25
1425.075	2649.25
1428.227	2748.91667
1431.376	2863.25
1434.524	2966.58333
1437.668	3015.25
1440.811	3043.25
1443.951	3062.25
1447.089	3074.58333
1450.224	3080.25
1453.357	3035.91667
1456.488	3026.58333
1459.617	2997.25
1462.743	2921.58333
1465.867	2872.25
1468.989	2834.91667
1472.108	2781.91667
1475.225	2736.58333
1478.34	2698.58333
1481.453	2689.91667
1484.563	2708.25
1487.671	2746.58333
1490.776	2813.91667
1493.88	2863.91667
1496.981	2914.25
1500.08	2949.58333
1503.176	2993.25
1506.271	3033.58333
1509.363	3080.25
1512.452	3097.25
1515.54	3160.58333
1518.625	3202.25
1521.708	3328.58333
1524.789	3496.91667
1527.867	3667.25
1530.944	3908.91667
1534.018	4142.58333
1537.089	4264.58333
1540.159	4307.25
1543.226	4227.58333
1546.291	4108.25
1549.354	3967.58333
1552.415	3846.91667
1555.473	3750.25
1558.529	3648.91667
1561.583	3576.25
1564.634	3548.25
1567.684	3525.58333
1570.731	3505.58333
1573.776	3555.58333
1576.819	3572.58333
1579.859	3591.91667
1582.898	3623.25
1585.934	3647.91667
1588.968	3672.25
1591.999	3681.58333
1595.029	3669.91667
1598.056	3679.58333
1601.081	3705.25
1604.104	3660.25
1607.125	3650.25
1610.144	3562.58333
1613.16	3484.58333
1616.174	3407.91667
1619.186	3295.91667
1622.196	3223.25
1625.203	3169.58333
1628.209	3144.25
1631.212	3101.25
1634.213	3098.25
1637.212	3073.58333
1640.209	3027.91667
1643.203	2953.91667
1646.196	2873.25
1649.186	2769.25
1652.174	2693.91667
1655.16	2605.58333
1658.144	2525.25
1661.125	2422.91667
1664.105	2315.58333
1667.082	2221.58333
1670.057	2081.25
1673.03	1967.91667
1676.001	1827.91667
1678.97	1731.25
1681.937	1613.58333
1684.901	1536.91667
1687.863	1488.25
1690.824	1412.58333
1693.782	1401.91667
1696.738	1345.91667
1699.692	1333.91667
1702.643	1271.58333
1705.593	1277.25
1708.54	1255.58333
1711.486	1255.58333
1714.429	1202.58333
1717.37	1221.58333
1720.309	1191.58333
1723.246	1194.25
1726.181	1148.25
1729.113	1173.25
1732.044	1141.91667
1734.972	1129.25
1737.899	1138.58333
1740.823	1135.25
1743.745	1132.25
1746.665	1080.58333
1749.583	1068.25
1752.499	1063.58333
1755.413	1043.91667
1758.325	1001.58333
1761.235	1016.25
1764.142	993.25
1767.048	992.58333
1769.951	975.25
1772.852	971.91667
1775.752	980.91667
1778.649	981.91667
1781.544	972.58333
1784.437	930.25
1787.328	954.58333
1790.217	941.25
1793.104	918.91667
1795.989	908.25
1798.872	898.58333
1801.753	923.91667
1804.631	921.91667
1807.508	918.91667
1810.383	917.91667
1813.255	913.91667
1816.126	915.91667
1818.994	905.58333
1821.861	895.25
1824.725	891.58333
1827.587	895.58333
1830.448	878.58333
1833.306	861.58333
1836.162	872.58333
1839.017	860.91667
1841.869	876.91667
1844.719	881.25
1847.567	845.91667
1850.414	845.58333
1853.258	843.58333
1856.1	857.25
1858.94	864.25
1861.778	860.91667
1864.614	849.91667
1867.448	851.91667
1870.28	835.91667
1873.111	864.91667
1875.939	835.25
1878.765	867.58333
1881.589	833.91667
1884.411	836.91667
1887.231	845.25
1890.049	849.25
1892.865	831.58333
1895.68	821.25
1898.492	829.25
1901.302	820.25
1904.11	821.25
1906.916	811.91667
1909.721	811.58333
1912.523	814.58333
1915.323	789.91667
1918.122	817.58333
1920.918	806.91667
1923.712	811.91667
1926.505	797.25
1929.295	793.91667
1932.084	810.58333
1934.87	804.91667
1937.655	792.91667
1940.438	781.25
1943.218	793.91667
1945.997	798.91667
1948.774	809.58333
1951.549	806.58333
1954.322	798.58333
1957.093	781.58333
1959.862	774.91667
1962.629	772.58333
1965.394	774.91667
1968.157	762.91667
1970.918	770.91667
1973.678	776.91667
1976.435	768.91667
1979.19	754.91667
1981.944	755.58333
1984.696	761.25
1987.445	755.25
1990.193	749.91667
1992.939	773.25
1995.683	750.91667
1998.425	730.91667
2001.165	761.58333
2003.903	747.25
2006.639	733.58333
2009.374	748.58333
2012.106	751.58333
2014.837	721.91667
2017.566	754.58333
2020.292	741.58333
2023.017	749.91667
2025.74	741.58333
2028.461	726.58333
2031.18	737.91667
2033.898	730.58333
2036.613	733.25
2039.327	743.58333
2042.038	711.25
2044.748	728.91667
2047.456	728.25
2050.162	711.25
2052.866	718.91667
2055.568	724.25
2058.268	713.25
2060.967	718.58333
2063.663	698.58333
2066.358	718.25
2069.051	707.91667
2071.742	708.58333
2074.431	711.91667
2077.118	707.91667
2079.804	703.91667
2082.487	714.91667
2085.169	728.91667
2087.849	737.58333
2090.527	704.91667
2093.203	729.25
2095.877	728.91667
2098.55	727.58333
2101.22	740.25
2103.889	747.91667
2106.556	750.58333
2109.221	773.25
2111.884	803.58333
2114.546	853.25
2117.205	917.58333
2119.863	982.58333
2122.519	1044.58333
2125.173	1103.58333
2127.825	1171.25
2130.475	1166.25
2133.124	1118.25
2135.771	1079.25
2138.416	1039.91667
2141.059	968.25
2143.7	944.58333
2146.339	883.25
2148.977	837.58333
2151.613	816.91667
2154.247	790.25
2156.879	776.25
2159.51	755.58333
2162.138	739.58333
2164.765	749.58333
2167.39	744.25
2170.013	747.91667
2172.634	743.25
2175.254	726.91667
2177.872	738.91667
2180.488	709.58333
2183.102	708.25
2185.714	694.91667
2188.325	670.25
2190.934	686.58333
2193.541	691.91667
2196.146	682.58333
2198.75	656.91667
2201.351	661.58333
2203.951	652.91667
2206.549	670.58333
2209.146	635.91667
2211.74	652.58333
2214.333	648.25
2216.924	634.91667
2219.514	642.91667
2222.101	633.58333
2224.687	645.91667
2227.271	623.91667
2229.853	624.58333
2232.433	622.91667
2235.012	646.91667
2237.589	624.91667
2240.164	642.91667
2242.738	631.58333
2245.309	621.25
2247.879	637.25
2250.448	630.91667
2253.014	601.25
2255.579	604.58333
2258.142	600.91667
2260.703	600.58333
2263.262	597.91667
2265.82	586.58333
2268.376	602.91667
2270.93	575.58333
2273.483	575.58333
2276.033	592.58333
2278.583	569.58333
2281.13	575.58333
2283.675	567.25
2286.219	576.91667
2288.761	571.58333
2291.302	572.91667
2293.841	571.25
2296.377	552.91667
2298.913	565.91667
2301.446	568.58333
2303.978	553.25
2306.508	556.91667
2309.037	557.91667
2311.563	557.91667
2314.088	559.91667
2316.612	547.91667
2319.133	559.91667
2321.653	544.25
2324.171	531.91667
2326.688	559.58333
2329.202	546.25
2331.715	548.25
2334.227	557.58333
2336.736	538.58333
2339.244	527.91667
2341.751	537.58333
2344.255	540.58333
2346.758	528.91667
2349.259	535.91667
2351.759	533.58333
2354.257	524.91667
2356.753	530.58333
2359.247	537.91667
2361.74	539.25
2364.231	533.91667
2366.721	538.25
2369.209	525.25
2371.695	527.91667
2374.179	521.25
2376.662	528.58333
2379.143	542.58333
2381.622	531.91667
2384.1	536.58333
2386.576	527.91667
2389.051	548.25
2391.524	535.58333
2393.995	542.25
2396.464	525.58333
2398.932	532.25
2401.398	531.25
2403.863	530.25
2406.325	514.25
2408.787	530.91667
2411.246	514.91667
2413.704	522.58333
2416.16	514.91667
2418.615	516.91667
2421.068	534.91667
2423.519	516.58333
2425.969	513.58333
2428.417	523.25
2430.863	549.58333
2433.308	535.25
2435.751	519.58333
2438.193	515.25
2440.633	520.91667
2443.071	525.25
2445.508	513.91667
2447.943	512.58333
2450.376	508.25
2452.808	516.91667
2455.238	506.91667
2457.667	540.58333
2460.093	507.58333
2462.519	497.25
2464.942	497.58333
2467.365	528.91667
2469.785	525.25
2472.204	513.58333
2474.621	499.25
2477.037	534.91667
2479.451	506.58333
2481.863	499.58333
2484.274	496.25
2486.683	515.25
2489.091	527.25
2491.497	510.58333
2493.901	509.58333
2496.304	513.25
2498.705	519.58333
2501.105	500.91667
2503.503	526.91667
2505.899	490.58333
2508.294	525.58333
2510.687	496.25
2513.079	500.58333
2515.469	493.25
2517.858	499.91667
2520.245	516.58333
2522.63	512.91667
2525.014	507.91667
2527.396	496.58333
2529.776	506.25
2532.156	511.25
2534.533	489.91667
2536.909	505.58333
2539.283	493.91667
2541.656	507.91667
2544.027	534.25
2546.397	508.58333
2548.765	506.58333
2551.131	501.25
2553.496	501.25
2555.86	506.25
2558.221	511.25
2560.582	500.91667
2562.94	492.58333
2565.298	505.58333
2567.653	525.58333
2570.007	482.58333
2572.36	510.25
2574.711	502.25
2577.06	525.91667
2579.408	512.25
2581.754	503.91667
2584.099	504.25
2586.442	505.25
2588.784	509.58333
2591.124	522.25
2593.463	509.91667
2595.8	494.25
2598.135	503.58333
2600.469	496.25
2602.802	521.91667
2605.133	517.25
2607.462	499.25
2609.79	499.25
2612.116	506.25
2614.441	505.58333
2616.764	517.58333
2619.086	513.91667
2621.406	505.25
2623.725	519.25
2626.042	518.58333
2628.358	504.25
2630.672	509.25
2632.985	530.25
2635.296	521.91667
2637.606	516.25
2639.914	510.91667
2642.22	518.25
2644.525	511.58333
2646.829	521.91667
2649.131	538.91667
2651.432	544.58333
2653.731	526.91667
2656.028	541.91667
2658.324	528.58333
2660.619	533.25
2662.912	541.91667
2665.204	523.58333
2667.494	532.91667
2669.782	526.91667
2672.07	540.25
2674.355	549.91667
2676.639	540.25
2678.922	536.91667
2681.203	533.58333
2683.483	525.91667
2685.761	529.58333
2688.038	548.25
2690.313	561.25
2692.587	547.25
2694.859	541.25
2697.13	551.25
2699.399	553.91667
2701.667	572.91667
2703.933	573.91667
2706.198	559.58333
2708.461	578.58333
2710.723	577.25
2712.984	575.91667
2715.243	588.58333
2717.5	581.25
2719.757	595.25
2722.011	580.91667
2724.264	605.25
2726.516	607.58333
2728.766	593.25
2731.015	594.25
2733.262	583.91667
2735.508	586.91667
2737.753	602.91667
2739.996	571.91667
2742.237	581.91667
2744.477	587.91667
2746.716	583.58333
2748.953	578.25
2751.189	587.91667
2753.423	576.25
2755.656	574.25
2757.887	574.25
2760.117	570.58333
2762.346	567.25
2764.573	563.91667
2766.798	574.58333
2769.022	572.91667
2771.245	572.25
2773.467	580.91667
2775.686	583.58333
2777.905	581.25
2780.122	600.25
2782.337	595.91667
2784.552	592.25
2786.764	603.58333
2788.976	605.91667
2791.186	613.58333
2793.394	614.58333
2795.601	624.58333
2797.807	640.91667
2800.011	631.25
2802.214	641.25
2804.415	650.91667
2806.615	660.58333
2808.814	659.25
2811.011	673.91667
2813.206	665.25
2815.401	689.91667
2817.594	693.25
2819.785	705.58333
2821.975	692.58333
2824.164	706.91667
2826.351	727.91667
2828.537	754.91667
2830.722	756.91667
2832.905	761.91667
2835.086	785.58333
2837.267	807.25
2839.445	839.91667
2841.623	847.91667
2843.799	891.91667
2845.974	906.58333
2848.147	930.91667
2850.319	945.91667
2852.489	987.58333
2854.659	984.25
2856.826	1018.58333
2858.993	1026.91667
2861.158	1009.25
2863.321	1011.58333
2865.483	1042.91667
2867.644	1049.58333
2869.804	1027.58333
2871.962	1022.91667
2874.118	1024.58333
2876.274	1076.91667
2878.428	1069.58333
2880.58	1039.25
2882.731	1015.91667
2884.881	1025.25
2887.03	1028.25
2889.177	1003.91667
2891.322	1029.91667
2893.467	1022.58333
2895.61	1016.58333
2897.751	1042.91667
2899.892	1024.58333
2902.03	1042.25
2904.168	1057.91667
2906.304	1044.58333
2908.439	1064.58333
2910.572	1037.25
2912.704	1056.58333
2914.835	1072.91667
2916.965	1055.58333
2919.093	1088.25
2921.219	1030.91667
2923.345	1063.91667
2925.469	1026.25
2927.591	1023.58333
2929.712	999.58333
2931.832	994.91667
2933.951	967.25
2936.068	959.58333
2938.184	921.58333
2940.299	904.25
2942.412	895.58333
2944.524	852.58333
2946.634	843.91667
2948.744	795.25
2950.851	837.58333
2952.958	785.25
2955.063	789.25
2957.167	783.25
2959.269	753.25
2961.371	770.25
2963.471	726.58333
2965.569	736.25
2967.666	705.25
2969.762	705.58333
2971.857	688.25
2973.95	667.25
2976.042	673.58333
2978.133	658.25
2980.222	641.91667
2982.31	624.91667
2984.396	610.58333
2986.482	615.25
2988.566	614.25
2990.648	595.25
2992.73	597.58333
2994.81	589.25
2996.889	597.25
2998.966	591.58333
3001.042	590.25
3003.117	587.91667
3005.191	589.25
3007.263	574.58333
3009.334	563.25
3011.403	572.58333
3013.472	545.58333
3015.539	558.58333
3017.604	562.25
3019.669	529.91667
3021.732	529.25
3023.794	536.58333
3025.854	516.91667
3027.914	512.25
3029.971	524.91667
3032.028	515.25
3034.083	524.91667
3036.137	519.25
3038.19	490.58333
3040.242	479.25
3042.292	471.91667
3044.341	473.25
3046.388	494.25
3048.435	458.58333
3050.48	475.91667
3052.524	474.58333
3054.566	443.58333
3056.607	465.25
3058.647	452.91667
3060.686	441.25
3062.723	422.25
3064.759	415.91667
3066.794	-1.75
3068.828	0.91667
3070.86	-2.08333
