-0.839	495.25
3.438	526.91667
7.711	143.91667
11.981	51.91667
16.247	44.25
20.509	43.91667
24.768	40.25
29.024	46.58333
33.276	44.91667
37.524	47.25
41.769	36.91667
46.01	35.91667
50.247	51.25
54.481	63.58333
58.712	68.25
62.939	45.91667
67.162	62.25
71.382	58.25
75.599	44.58333
79.812	62.58333
84.021	85.58333
88.227	55.91667
92.429	61.58333
96.628	52.25
100.823	65.25
105.015	75.91667
109.204	78.25
113.388	81.91667
117.57	73.58333
121.748	91.58333
125.922	82.58333
130.093	100.58333
134.261	106.58333
138.425	103.91667
142.585	150.91667
146.742	146.58333
150.896	177.58333
155.046	226.91667
159.193	376.25
163.336	660.58333
167.476	1204.58333
171.613	2205.25
175.746	3631.58333
179.875	5292.58333
184.002	6792.58333
188.124	7716.25
192.244	7882.58333
196.36	7622.25
200.472	7244.91667
204.581	6987.91667
208.687	6651.25
212.79	6478.91667
216.889	6362.25
220.984	6334.91667
225.077	6248.58333
229.165	6224.91667
233.251	6240.91667
237.333	6187.25
241.412	6109.25
245.487	6045.25
249.559	5925.58333
253.628	5904.58333
257.694	5808.58333
261.756	5715.58333
265.814	5592.58333
269.87	5412.91667
273.922	5287.58333
277.97	5174.25
282.016	5147.91667
286.058	5140.58333
290.097	5193.91667
294.132	5181.25
298.164	5104.58333
302.193	4886.25
306.219	4560.91667
310.241	4160.25
314.26	3823.91667
318.276	3491.25
322.288	3313.25
326.297	3105.25
330.303	2988.91667
334.305	2881.25
338.305	2801.58333
342.301	2778.58333
346.294	2720.91667
350.283	2706.25
354.269	2673.25
358.252	2655.91667
362.232	2614.58333
366.209	2595.91667
370.182	2535.25
374.152	2531.58333
378.119	2530.58333
382.083	2528.91667
386.043	2534.25
390	2498.91667
393.954	2462.58333
397.905	2455.58333
401.852	2461.91667
405.797	2421.91667
409.738	2406.91667
413.676	2414.25
417.61	2418.25
421.542	2381.91667
425.47	2329.25
429.396	2292.91667
433.318	2303.58333
437.236	2270.91667
441.152	2303.58333
445.065	2248.91667
448.974	2239.58333
452.88	2202.25
456.783	2196.58333
460.683	2192.25
464.58	2174.91667
468.473	2193.91667
472.364	2179.58333
476.251	2208.25
480.135	2215.91667
484.016	2227.91667
487.894	2261.91667
491.769	2242.58333
495.641	2264.58333
499.509	2234.58333
503.375	2262.25
507.237	2233.91667
511.096	2251.91667
514.952	2327.91667
518.805	2390.25
522.655	2416.58333
526.502	2300.91667
530.346	2241.25
534.187	2240.58333
538.024	2244.58333
541.859	2231.58333
545.69	2248.58333
549.519	2238.58333
553.344	2219.91667
557.166	2180.58333
560.985	2177.58333
564.802	2136.91667
568.615	2134.25
572.425	2082.91667
576.232	2067.25
580.036	2065.91667
583.836	2085.25
587.634	2053.58333
591.429	2059.25
595.221	2117.58333
599.01	2143.25
602.796	2146.58333
606.578	2177.91667
610.358	2186.91667
614.135	2164.91667
617.909	2171.25
621.679	2143.58333
625.447	2122.91667
629.212	2125.58333
632.973	2140.58333
636.732	2133.91667
640.488	2139.58333
644.241	2100.91667
647.991	2095.58333
651.737	2122.91667
655.481	2090.91667
659.222	2086.25
662.96	2078.91667
666.695	2110.58333
670.427	2112.58333
674.156	2128.25
677.882	2125.25
681.605	2126.25
685.325	2097.25
689.043	2119.91667
692.757	2105.25
696.468	2096.58333
700.177	2124.58333
703.882	2091.58333
707.585	2081.25
711.284	2093.91667
714.981	2125.58333
718.675	2108.91667
722.366	2131.58333
726.054	2085.25
729.739	2135.58333
733.421	2101.58333
737.1	2104.25
740.777	2137.58333
744.45	2139.91667
748.121	2154.58333
751.789	2196.91667
755.453	2211.25
759.115	2190.25
762.774	2219.58333
766.431	2234.91667
770.084	2273.25
773.734	2302.91667
777.382	2329.58333
781.027	2352.58333
784.669	2344.91667
788.308	2380.25
791.944	2404.91667
795.577	2414.91667
799.208	2435.58333
802.835	2444.25
806.46	2463.25
810.082	2450.91667
813.701	2455.25
817.317	2490.91667
820.931	2488.25
824.542	2504.91667
828.149	2463.58333
831.754	2450.58333
835.357	2443.25
838.956	2448.91667
842.553	2451.25
846.146	2408.25
849.737	2424.91667
853.326	2426.91667
856.911	2417.58333
860.493	2483.91667
864.073	2495.58333
867.65	2535.25
871.225	2553.25
874.796	2545.25
878.365	2550.91667
881.931	2569.25
885.494	2583.91667
889.054	2570.25
892.612	2569.25
896.166	2530.25
899.719	2507.58333
903.268	2509.91667
906.814	2492.25
910.358	2490.25
913.899	2449.25
917.438	2455.25
920.973	2438.91667
924.506	2496.25
928.036	2516.25
931.564	2526.58333
935.088	2575.25
938.61	2560.91667
942.129	2583.58333
945.646	2655.58333
949.16	2708.58333
952.671	2769.58333
956.179	2791.91667
959.685	2763.25
963.188	2759.91667
966.688	2706.91667
970.185	2639.58333
973.68	2591.58333
977.173	2574.58333
980.662	2576.91667
984.149	2586.58333
987.633	2587.25
991.114	2632.91667
994.593	2720.25
998.069	2795.25
1001.542	2876.25
1005.013	2802.25
1008.481	2638.91667
1011.947	2601.91667
1015.409	2582.25
1018.869	2583.91667
1022.327	2566.91667
1025.782	2556.91667
1029.234	2551.91667
1032.683	2552.58333
1036.13	2450.25
1039.574	2362.25
1043.016	2300.91667
1046.455	2250.91667
1049.891	2220.25
1053.325	2250.25
1056.756	2243.91667
1060.184	2263.58333
1063.61	2254.58333
1067.033	2295.58333
1070.454	2290.58333
1073.872	2323.91667
1077.287	2309.58333
1080.7	2323.91667
1084.11	2328.58333
1087.517	2309.25
1090.922	2286.25
1094.325	2249.58333
1097.724	2229.58333
1101.122	2222.58333
1104.516	2216.25
1107.908	2231.25
1111.298	2267.25
1114.684	2280.25
1118.069	2315.58333
1121.45	2341.91667
1124.83	2333.25
1128.206	2363.58333
1131.58	2402.91667
1134.951	2470.91667
1138.32	2546.25
1141.687	2647.91667
1145.05	2707.58333
1148.412	2733.91667
1151.77	2695.58333
1155.126	2695.91667
1158.48	2706.25
1161.831	2705.58333
1165.18	2741.91667
1168.525	2769.25
1171.869	2806.25
1175.21	2831.25
1178.548	2851.25
1181.884	2888.58333
1185.217	2888.25
1188.548	2939.58333
1191.877	2969.58333
1195.202	3064.25
1198.526	3106.25
1201.846	3111.91667
1205.165	3095.91667
1208.48	3107.58333
1211.794	3106.58333
1215.104	3125.58333
1218.413	3141.25
1221.719	3105.25
1225.022	3104.91667
1228.323	3065.58333
1231.621	3043.25
1234.917	3046.58333
1238.21	3049.91667
1241.501	3041.25
1244.79	3045.25
1248.076	3042.25
1251.359	3084.58333
1254.64	3136.58333
1257.919	3154.58333
1261.195	3233.25
1264.468	3303.25
1267.74	3344.25
1271.008	3347.58333
1274.275	3301.25
1277.538	3253.91667
1280.8	3249.25
1284.059	3262.25
1287.315	3281.58333
1290.569	3310.91667
1293.821	3359.58333
1297.07	3356.25
1300.317	3355.58333
1303.562	3331.58333
1306.803	3309.91667
1310.043	3260.58333
1313.28	3230.91667
1316.515	3184.91667
1319.747	3169.25
1322.977	3106.58333
1326.204	3080.25
1329.429	3043.25
1332.652	2994.58333
1335.872	3025.58333
1339.09	2986.58333
1342.306	3013.25
1345.519	2985.91667
1348.729	2960.58333
1351.938	2955.58333
1355.144	2891.58333
1358.347	2870.25
1361.548	2847.58333
1364.747	2896.58333
1367.944	2844.91667
1371.138	2884.91667
1374.329	2905.58333
1377.518	2933.58333
1380.705	2931.25
1383.89	2910.91667
1387.072	2841.25
1390.252	2718.91667
1393.429	2655.58333
1396.605	2585.58333
1399.777	2526.25
1402.948	2471.25
1406.116	2458.25
1409.282	2461.58333
1412.445	2482.91667
1415.606	2513.58333
1418.765	2565.58333
1421.921	2595.58333
1425.075	2658.58333
1428.227	2754.58333
1431.376	2894.58333
1434.524	2976.58333
1437.668	3042.25
1440.811	3064.91667
1443.951	3094.58333
1447.089	3089.58333
1450.224	3090.25
1453.357	3063.58333
1456.488	3055.58333
1459.617	2995.25
1462.743	2956.58333
1465.867	2884.25
1468.989	2870.91667
1472.108	2799.91667
1475.225	2760.91667
1478.34	2716.58333
1481.453	2715.91667
1484.563	2711.25
1487.671	2764.25
1490.776	2851.91667
1493.88	2893.25
1496.981	2925.25
1500.08	2995.25
1503.176	3003.58333
1506.271	3063.25
1509.363	3101.58333
1512.452	3119.91667
1515.54	3154.58333
1518.625	3215.25
1521.708	3334.58333
1524.789	3502.91667
1527.867	3678.91667
1530.944	3924.58333
1534.018	4105.25
1537.089	4294.91667
1540.159	4328.91667
1543.226	4245.91667
1546.291	4151.25
1549.354	3982.91667
1552.415	3854.58333
1555.473	3754.91667
1558.529	3661.25
1561.583	3586.25
1564.634	3524.58333
1567.684	3525.58333
1570.731	3527.58333
1573.776	3561.91667
1576.819	3572.91667
1579.859	3594.91667
1582.898	3644.91667
1585.934	3660.25
1588.968	3699.25
1591.999	3647.58333
1595.029	3662.91667
1598.056	3694.25
1601.081	3705.91667
1604.104	3697.91667
1607.125	3670.25
1610.144	3559.58333
1613.16	3496.91667
1616.174	3405.25
1619.186	3313.91667
1622.196	3254.25
1625.203	3180.25
1628.209	3140.91667
1631.212	3135.91667
1634.213	3111.25
1637.212	3095.91667
1640.209	3055.25
1643.203	2974.91667
1646.196	2885.91667
1649.186	2778.58333
1652.174	2718.25
1655.16	2636.25
1658.144	2558.58333
1661.125	2445.25
1664.105	2351.25
1667.082	2234.58333
1670.057	2128.58333
1673.03	1978.91667
1676.001	1865.91667
1678.97	1722.91667
1681.937	1637.58333
1684.901	1546.91667
1687.863	1494.58333
1690.824	1424.91667
1693.782	1401.91667
1696.738	1347.58333
1699.692	1310.58333
1702.643	1285.58333
1705.593	1277.91667
1708.54	1255.25
1711.486	1247.58333
1714.429	1215.91667
1717.37	1215.58333
1720.309	1192.91667
1723.246	1201.91667
1726.181	1168.58333
1729.113	1165.25
1732.044	1151.25
1734.972	1159.58333
1737.899	1149.91667
1740.823	1132.91667
1743.745	1124.25
1746.665	1083.58333
1749.583	1065.58333
1752.499	1076.25
1755.413	1049.58333
1758.325	1011.25
1761.235	1016.91667
1764.142	992.91667
1767.048	995.58333
1769.951	984.58333
1772.852	990.58333
1775.752	1002.25
1778.649	997.58333
1781.544	985.25
1784.437	950.91667
1787.328	966.25
1790.217	942.25
1793.104	928.91667
1795.989	929.58333
1798.872	906.91667
1801.753	946.58333
1804.631	932.58333
1807.508	944.25
1810.383	923.91667
1813.255	923.25
1816.126	916.58333
1818.994	915.25
1821.861	911.58333
1824.725	891.91667
1827.587	911.25
1830.448	904.58333
1833.306	883.25
1836.162	890.91667
1839.017	864.91667
1841.869	869.58333
1844.719	868.58333
1847.567	847.58333
1850.414	857.58333
1853.258	845.91667
1856.1	877.25
1858.94	885.25
1861.778	863.58333
1864.614	847.91667
1867.448	866.91667
1870.28	843.91667
1873.111	863.25
1875.939	851.25
1878.765	873.25
1881.589	833.58333
1884.411	854.58333
1887.231	856.25
1890.049	835.25
1892.865	840.25
1895.68	832.58333
1898.492	840.58333
1901.302	826.25
1904.11	828.91667
1906.916	817.58333
1909.721	818.91667
1912.523	833.91667
1915.323	812.91667
1918.122	814.58333
1920.918	826.58333
1923.712	807.25
1926.505	811.91667
1929.295	793.58333
1932.084	805.25
1934.87	810.91667
1937.655	796.25
1940.438	793.58333
1943.218	800.58333
1945.997	796.58333
1948.774	799.25
1951.549	805.25
1954.322	791.91667
1957.093	796.91667
1959.862	785.91667
1962.629	781.25
1965.394	774.91667
1968.157	774.58333
1970.918	774.25
1973.678	766.58333
1976.435	786.58333
1979.19	768.25
1981.944	760.58333
1984.696	756.91667
1987.445	761.25
1990.193	775.91667
1992.939	781.91667
1995.683	762.58333
1998.425	745.91667
2001.165	780.91667
2003.903	747.25
2006.639	744.25
2009.374	749.58333
2012.106	758.91667
2014.837	735.25
2017.566	751.58333
2020.292	762.91667
2023.017	751.58333
2025.74	739.58333
2028.461	735.25
2031.18	743.25
2033.898	731.58333
2036.613	743.58333
2039.327	744.25
2042.038	723.58333
2044.748	729.58333
2047.456	729.25
2050.162	728.25
2052.866	723.25
2055.568	730.25
2058.268	706.58333
2060.967	720.91667
2063.663	706.25
2066.358	724.91667
2069.051	708.25
2071.742	729.25
2074.431	712.91667
2077.118	713.91667
2079.804	704.91667
2082.487	718.91667
2085.169	733.91667
2087.849	735.25
2090.527	715.91667
2093.203	729.91667
2095.877	742.58333
2098.55	729.25
2101.22	746.91667
2103.889	760.58333
2106.556	752.58333
2109.221	770.25
2111.884	799.25
2114.546	856.58333
2117.205	910.58333
2119.863	997.91667
2122.519	1044.58333
2125.173	1105.91667
2127.825	1165.91667
2130.475	1172.58333
2133.124	1132.58333
2135.771	1080.58333
2138.416	1049.25
2141.059	977.58333
2143.7	946.25
2146.339	887.58333
2148.977	843.58333
2151.613	834.58333
2154.247	801.91667
2156.879	783.25
2159.51	768.91667
2162.138	761.91667
2164.765	765.91667
2167.39	736.58333
2170.013	747.91667
2172.634	741.25
2175.254	727.58333
2177.872	748.25
2180.488	707.25
2183.102	718.58333
2185.714	704.91667
2188.325	679.25
2190.934	689.91667
2193.541	678.58333
2196.146	673.58333
2198.75	663.58333
2201.351	665.91667
2203.951	650.91667
2206.549	656.91667
2209.146	662.91667
2211.74	649.25
2214.333	660.25
2216.924	638.58333
2219.514	644.91667
2222.101	630.25
2224.687	649.58333
2227.271	629.25
2229.853	631.91667
2232.433	621.58333
2235.012	638.25
2237.589	634.58333
2240.164	652.25
2242.738	631.25
2245.309	619.58333
2247.879	632.25
2250.448	634.58333
2253.014	615.58333
2255.579	589.58333
2258.142	608.58333
2260.703	588.58333
2263.262	596.91667
2265.82	594.91667
2268.376	601.58333
2270.93	583.25
2273.483	567.91667
2276.033	594.91667
2278.583	573.58333
2281.13	574.58333
2283.675	565.58333
2286.219	578.91667
2288.761	571.58333
2291.302	584.25
2293.841	570.58333
2296.377	558.58333
2298.913	565.58333
2301.446	577.91667
2303.978	559.25
2306.508	553.58333
2309.037	561.58333
2311.563	573.25
2314.088	569.58333
2316.612	548.91667
2319.133	557.25
2321.653	551.58333
2324.171	548.25
2326.688	554.58333
2329.202	545.91667
2331.715	552.25
2334.227	544.25
2336.736	550.58333
2339.244	547.58333
2341.751	531.58333
2344.255	546.58333
2346.758	543.58333
2349.259	524.25
2351.759	527.91667
2354.257	541.91667
2356.753	526.25
2359.247	529.91667
2361.74	543.25
2364.231	533.91667
2366.721	535.58333
2369.209	520.58333
2371.695	535.91667
2374.179	528.25
2376.662	526.25
2379.143	539.91667
2381.622	530.58333
2384.1	532.25
2386.576	527.58333
2389.051	528.91667
2391.524	542.25
2393.995	534.91667
2396.464	530.91667
2398.932	528.91667
2401.398	528.25
2403.863	522.91667
2406.325	525.58333
2408.787	525.58333
2411.246	518.91667
2413.704	530.25
2416.16	511.91667
2418.615	523.91667
2421.068	520.58333
2423.519	523.58333
2425.969	506.25
2428.417	534.58333
2430.863	542.91667
2433.308	530.91667
2435.751	522.91667
2438.193	527.25
2440.633	530.91667
2443.071	525.58333
2445.508	514.25
2447.943	520.25
2450.376	514.25
2452.808	514.25
2455.238	507.25
2457.667	536.25
2460.093	522.91667
2462.519	495.25
2464.942	512.91667
2467.365	523.25
2469.785	520.58333
2472.204	520.25
2474.621	500.25
2477.037	526.91667
2479.451	504.58333
2481.863	507.91667
2484.274	500.25
2486.683	515.58333
2489.091	529.25
2491.497	514.58333
2493.901	510.58333
2496.304	512.58333
2498.705	519.58333
2501.105	507.91667
2503.503	538.58333
2505.899	494.58333
2508.294	523.25
2510.687	502.91667
2513.079	499.91667
2515.469	498.58333
2517.858	505.58333
2520.245	534.25
2522.63	507.25
2525.014	497.91667
2527.396	502.25
2529.776	499.91667
2532.156	509.25
2534.533	500.58333
2536.909	502.25
2539.283	490.25
2541.656	496.91667
2544.027	516.58333
2546.397	506.91667
2548.765	503.91667
2551.131	507.25
2553.496	505.25
2555.86	515.91667
2558.221	504.91667
2560.582	500.91667
2562.94	492.58333
2565.298	501.25
2567.653	524.58333
2570.007	498.25
2572.36	514.91667
2574.711	497.91667
2577.06	516.58333
2579.408	507.58333
2581.754	508.58333
2584.099	512.91667
2586.442	507.25
2588.784	529.58333
2591.124	510.58333
2593.463	507.58333
2595.8	502.91667
2598.135	499.91667
2600.469	510.58333
2602.802	520.58333
2605.133	523.91667
2607.462	497.58333
2609.79	496.91667
2612.116	516.25
2614.441	518.58333
2616.764	522.58333
2619.086	513.58333
2621.406	502.91667
2623.725	521.58333
2626.042	511.58333
2628.358	514.91667
2630.672	519.58333
2632.985	529.25
2635.296	521.58333
2637.606	534.25
2639.914	519.25
2642.22	511.91667
2644.525	531.58333
2646.829	529.91667
2649.131	524.91667
2651.432	533.58333
2653.731	518.25
2656.028	532.58333
2658.324	529.58333
2660.619	519.25
2662.912	548.58333
2665.204	526.58333
2667.494	551.58333
2669.782	543.58333
2672.07	549.91667
2674.355	545.58333
2676.639	538.58333
2678.922	538.58333
2681.203	547.58333
2683.483	528.91667
2685.761	525.91667
2688.038	547.58333
2690.313	552.58333
2692.587	556.25
2694.859	538.91667
2697.13	555.91667
2699.399	561.25
2701.667	559.91667
2703.933	568.91667
2706.198	559.91667
2708.461	576.58333
2710.723	578.25
2712.984	563.25
2715.243	583.25
2717.5	578.25
2719.757	591.58333
2722.011	584.58333
2724.264	595.58333
2726.516	602.58333
2728.766	583.91667
2731.015	590.25
2733.262	601.91667
2735.508	591.91667
2737.753	592.58333
2739.996	574.58333
2742.237	578.91667
2744.477	589.91667
2746.716	581.91667
2748.953	580.25
2751.189	587.58333
2753.423	567.58333
2755.656	571.91667
2757.887	565.25
2760.117	565.25
2762.346	569.91667
2764.573	564.91667
2766.798	560.25
2769.022	578.58333
2771.245	585.91667
2773.467	576.91667
2775.686	578.25
2777.905	593.25
2780.122	596.91667
2782.337	598.58333
2784.552	590.58333
2786.764	588.91667
2788.976	609.91667
2791.186	611.25
2793.394	619.58333
2795.601	627.58333
2797.807	630.58333
2800.011	643.25
2802.214	649.58333
2804.415	651.25
2806.615	647.91667
2808.814	666.91667
2811.011	663.25
2813.206	670.25
2815.401	681.91667
2817.594	697.58333
2819.785	699.58333
2821.975	691.25
2824.164	702.25
2826.351	719.58333
2828.537	735.25
2830.722	754.91667
2832.905	762.91667
2835.086	780.25
2837.267	801.91667
2839.445	833.91667
2841.623	839.25
2843.799	885.25
2845.974	899.25
2848.147	926.25
2850.319	953.91667
2852.489	979.58333
2854.659	987.91667
2856.826	1012.25
2858.993	1034.91667
2861.158	1013.25
2863.321	1010.58333
2865.483	1032.25
2867.644	1033.25
2869.804	1034.91667
2871.962	1032.25
2874.118	1049.25
2876.274	1065.25
2878.428	1052.58333
2880.58	1040.25
2882.731	1023.25
2884.881	1027.58333
2887.03	1015.58333
2889.177	1010.25
2891.322	1029.25
2893.467	1004.91667
2895.61	1016.25
2897.751	1035.91667
2899.892	1032.91667
2902.03	1036.91667
2904.168	1052.25
2906.304	1057.25
2908.439	1066.91667
2910.572	1042.25
2912.704	1074.25
2914.835	1073.91667
2916.965	1055.91667
2919.093	1082.25
2921.219	1033.25
2923.345	1062.58333
2925.469	1032.91667
2927.591	1019.91667
2929.712	993.58333
2931.832	998.58333
2933.951	966.58333
2936.068	953.91667
2938.184	930.91667
2940.299	917.91667
2942.412	897.25
2944.524	863.58333
2946.634	853.91667
2948.744	807.91667
2950.851	837.91667
2952.958	783.58333
2955.063	787.25
2957.167	773.91667
2959.269	749.25
2961.371	764.91667
2963.471	733.25
2965.569	730.91667
2967.666	707.91667
2969.762	697.25
2971.857	676.58333
2973.95	660.91667
2976.042	668.91667
2978.133	646.91667
2980.222	637.91667
2982.31	619.58333
2984.396	607.58333
2986.482	608.25
2988.566	602.91667
2990.648	597.25
2992.73	592.25
2994.81	587.91667
2996.889	593.58333
2998.966	584.58333
3001.042	592.25
3003.117	581.91667
3005.191	593.25
3007.263	587.91667
3009.334	569.91667
3011.403	569.91667
3013.472	558.58333
3015.539	563.58333
3017.604	564.58333
3019.669	531.25
3021.732	528.25
3023.794	538.25
3025.854	520.25
3027.914	519.58333
3029.971	528.58333
3032.028	510.58333
3034.083	525.91667
3036.137	518.25
3038.19	497.25
3040.242	485.91667
3042.292	490.58333
3044.341	465.91667
3046.388	486.58333
3048.435	457.25
3050.48	472.58333
3052.524	466.58333
3054.566	449.25
3056.607	455.25
3058.647	445.25
3060.686	429.58333
3062.723	419.91667
3064.759	410.25
3066.794	0.25
3068.828	-1.41667
3070.86	-2.41667
