-0.839	398.875
3.438	420.54167
7.711	118.875
11.981	52.20833
16.247	45.54167
20.509	42.875
24.768	42.20833
29.024	48.20833
33.276	37.54167
37.524	46.875
41.769	40.875
46.01	33.20833
50.247	53.20833
54.481	58.875
58.712	62.875
62.939	47.54167
67.162	59.875
71.382	53.20833
75.599	45.875
79.812	60.875
84.021	76.54167
88.227	59.20833
92.429	62.875
96.628	48.54167
100.823	65.54167
105.015	69.875
109.204	73.54167
113.388	73.875
117.57	72.54167
121.748	89.54167
125.922	74.875
130.093	89.20833
134.261	103.875
138.425	96.875
142.585	128.54167
146.742	130.54167
150.896	153.54167
155.046	200.875
159.193	304.875
163.336	526.54167
167.476	949.54167
171.613	1757.54167
175.746	2879.875
179.875	4258.54167
184.002	5508.20833
188.124	6388.54167
192.244	6694.20833
196.36	6605.20833
200.472	6441.20833
204.581	6284.20833
208.687	6141.875
212.79	6085.875
216.889	6105.54167
220.984	6214.20833
225.077	6248.20833
229.165	6349.875
233.251	6417.54167
237.333	6470.875
241.412	6448.20833
245.487	6461.875
249.559	6376.875
253.628	6306.875
257.694	6289.54167
261.756	6239.54167
265.814	6070.54167
269.87	5942.54167
273.922	5772.20833
277.97	5684.875
282.016	5600.875
286.058	5584.875
290.097	5665.20833
294.132	5626.20833
298.164	5581.875
302.193	5283.875
306.219	4875.875
310.241	4478.20833
314.26	4059.875
318.276	3726.875
322.288	3476.54167
326.297	3261.54167
330.303	3150.875
334.305	3019.20833
338.305	2968.875
342.301	2937.875
346.294	2879.20833
350.283	2844.875
354.269	2829.875
358.252	2795.20833
362.232	2782.875
366.209	2759.20833
370.182	2736.54167
374.152	2726.875
378.119	2712.20833
382.083	2710.20833
386.043	2699.875
390	2693.20833
393.954	2678.20833
397.905	2640.54167
401.852	2630.54167
405.797	2615.54167
409.738	2583.54167
413.676	2576.54167
417.61	2547.54167
421.542	2524.20833
425.47	2514.20833
429.396	2480.54167
433.318	2496.54167
437.236	2454.875
441.152	2474.875
445.065	2429.54167
448.974	2411.54167
452.88	2379.54167
456.783	2381.875
460.683	2394.20833
464.58	2377.875
468.473	2377.54167
472.364	2381.875
476.251	2406.875
480.135	2413.875
484.016	2456.20833
487.894	2436.875
491.769	2450.20833
495.641	2445.875
499.509	2459.54167
503.375	2442.20833
507.237	2442.54167
511.096	2438.54167
514.952	2467.20833
518.805	2481.54167
522.655	2481.875
526.502	2431.875
530.346	2423.20833
534.187	2417.54167
538.024	2441.20833
541.859	2424.54167
545.69	2435.54167
549.519	2428.875
553.344	2397.875
557.166	2388.20833
560.985	2344.875
564.802	2319.54167
568.615	2292.54167
572.425	2277.875
576.232	2250.20833
580.036	2243.20833
583.836	2261.20833
587.634	2256.20833
591.429	2262.875
595.221	2312.20833
599.01	2317.875
602.796	2330.875
606.578	2370.20833
610.358	2383.54167
614.135	2343.20833
617.909	2358.875
621.679	2349.20833
625.447	2318.54167
629.212	2349.20833
632.973	2324.54167
636.732	2326.20833
640.488	2327.20833
644.241	2314.875
647.991	2293.54167
651.737	2305.54167
655.481	2288.20833
659.222	2292.54167
662.96	2299.54167
666.695	2330.20833
670.427	2313.20833
674.156	2342.875
677.882	2329.875
681.605	2326.875
685.325	2305.54167
689.043	2315.875
692.757	2300.20833
696.468	2322.54167
700.177	2312.54167
703.882	2304.875
707.585	2295.54167
711.284	2305.875
714.981	2299.20833
718.675	2312.54167
722.366	2326.20833
726.054	2311.54167
729.739	2302.875
733.421	2327.875
737.1	2287.20833
740.777	2347.20833
744.45	2340.875
748.121	2343.20833
751.789	2413.20833
755.453	2403.54167
759.115	2405.875
762.774	2421.20833
766.431	2447.20833
770.084	2455.20833
773.734	2486.20833
777.382	2535.20833
781.027	2583.54167
784.669	2559.54167
788.308	2579.20833
791.944	2622.875
795.577	2635.20833
799.208	2656.875
802.835	2670.54167
806.46	2724.20833
810.082	2727.20833
813.701	2723.20833
817.317	2750.54167
820.931	2746.54167
824.542	2764.875
828.149	2712.54167
831.754	2701.875
835.357	2672.54167
838.956	2677.54167
842.553	2641.54167
846.146	2641.20833
849.737	2646.20833
853.326	2631.875
856.911	2636.54167
860.493	2694.54167
864.073	2705.20833
867.65	2746.20833
871.225	2778.875
874.796	2775.875
878.365	2783.875
881.931	2786.875
885.494	2798.875
889.054	2796.54167
892.612	2806.875
896.166	2762.20833
899.719	2737.20833
903.268	2719.875
906.814	2694.20833
910.358	2707.20833
913.899	2697.54167
917.438	2708.875
920.973	2690.54167
924.506	2725.20833
928.036	2761.875
931.564	2791.20833
935.088	2829.875
938.61	2807.20833
942.129	2839.875
945.646	2899.875
949.16	2953.875
952.671	3011.875
956.179	3046.54167
959.685	3028.875
963.188	3013.54167
966.688	2983.875
970.185	2917.20833
973.68	2842.20833
977.173	2814.20833
980.662	2788.20833
984.149	2820.875
987.633	2814.54167
991.114	2849.875
994.593	2957.54167
998.069	3061.20833
1001.542	3101.54167
1005.013	3042.20833
1008.481	2884.20833
1011.947	2855.20833
1015.409	2829.20833
1018.869	2840.875
1022.327	2827.54167
1025.782	2814.875
1029.234	2813.875
1032.683	2773.54167
1036.13	2693.875
1039.574	2597.875
1043.016	2540.20833
1046.455	2504.20833
1049.891	2491.20833
1053.325	2474.875
1056.756	2471.20833
1060.184	2491.54167
1063.61	2516.54167
1067.033	2532.20833
1070.454	2525.20833
1073.872	2560.20833
1077.287	2562.20833
1080.7	2581.875
1084.11	2577.54167
1087.517	2557.20833
1090.922	2529.875
1094.325	2472.875
1097.724	2466.875
1101.122	2449.875
1104.516	2451.54167
1107.908	2446.875
1111.298	2489.20833
1114.684	2511.875
1118.069	2536.875
1121.45	2601.875
1124.83	2543.875
1128.206	2569.54167
1131.58	2617.875
1134.951	2685.20833
1138.32	2734.54167
1141.687	2853.875
1145.05	2935.875
1148.412	2975.20833
1151.77	2930.54167
1155.126	2927.20833
1158.48	2943.875
1161.831	2947.875
1165.18	2973.875
1168.525	3015.54167
1171.869	3072.54167
1175.21	3077.875
1178.548	3089.20833
1181.884	3145.20833
1185.217	3159.875
1188.548	3210.875
1191.877	3265.20833
1195.202	3313.875
1198.526	3388.875
1201.846	3391.54167
1205.165	3409.54167
1208.48	3408.20833
1211.794	3381.20833
1215.104	3379.20833
1218.413	3431.54167
1221.719	3392.20833
1225.022	3379.875
1228.323	3333.54167
1231.621	3351.875
1234.917	3300.875
1238.21	3362.875
1241.501	3327.875
1244.79	3346.20833
1248.076	3323.875
1251.359	3385.54167
1254.64	3430.875
1257.919	3435.54167
1261.195	3493.20833
1264.468	3531.54167
1267.74	3586.875
1271.008	3596.875
1274.275	3549.875
1277.538	3566.20833
1280.8	3532.20833
1284.059	3536.54167
1287.315	3566.875
1290.569	3611.20833
1293.821	3609.54167
1297.07	3616.20833
1300.317	3643.54167
1303.562	3618.875
1306.803	3598.54167
1310.043	3548.875
1313.28	3525.20833
1316.515	3478.20833
1319.747	3446.20833
1322.977	3398.20833
1326.204	3336.875
1329.429	3322.20833
1332.652	3313.875
1335.872	3296.875
1339.09	3265.875
1342.306	3253.54167
1345.519	3229.875
1348.729	3226.20833
1351.938	3208.20833
1355.144	3149.54167
1358.347	3139.875
1361.548	3127.54167
1364.747	3141.54167
1367.944	3110.875
1371.138	3119.875
1374.329	3132.20833
1377.518	3173.20833
1380.705	3234.20833
1383.89	3191.20833
1387.072	3099.875
1390.252	3011.54167
1393.429	2912.20833
1396.605	2822.875
1399.777	2732.20833
1402.948	2722.54167
1406.116	2704.20833
1409.282	2700.54167
1412.445	2693.54167
1415.606	2749.20833
1418.765	2757.875
1421.921	2836.20833
1425.075	2895.20833
1428.227	2973.20833
1431.376	3144.54167
1434.524	3249.20833
1437.668	3310.54167
1440.811	3338.20833
1443.951	3351.20833
1447.089	3341.54167
1450.224	3353.20833
1453.357	3346.54167
1456.488	3307.875
1459.617	3231.54167
1462.743	3201.54167
1465.867	3121.54167
1468.989	3070.20833
1472.108	3043.54167
1475.225	2988.20833
1478.34	2967.875
1481.453	2947.875
1484.563	2934.875
1487.671	2996.875
1490.776	2992.54167
1493.88	3067.54167
1496.981	3152.20833
1500.08	3193.20833
1503.176	3239.20833
1506.271	3244.875
1509.363	3317.20833
1512.452	3371.20833
1515.54	3431.875
1518.625	3501.875
1521.708	3671.875
1524.789	3832.875
1527.867	4036.875
1530.944	4306.875
1534.018	4520.875
1537.089	4672.875
1540.159	4628.20833
1543.226	4551.54167
1546.291	4379.875
1549.354	4224.875
1552.415	4107.875
1555.473	3986.20833
1558.529	3906.875
1561.583	3870.875
1564.634	3823.20833
1567.684	3807.20833
1570.731	3812.875
1573.776	3859.875
1576.819	3883.20833
1579.859	3887.54167
1582.898	3967.54167
1585.934	3973.54167
1588.968	3995.875
1591.999	3977.20833
1595.029	3994.20833
1598.056	3997.875
1601.081	4035.20833
1604.104	4008.54167
1607.125	3985.54167
1610.144	3905.20833
1613.16	3817.20833
1616.174	3737.20833
1619.186	3626.875
1622.196	3562.54167
1625.203	3472.875
1628.209	3404.875
1631.212	3384.875
1634.213	3390.875
1637.212	3385.875
1640.209	3309.20833
1643.203	3231.20833
1646.196	3125.875
1649.186	3022.54167
1652.174	2939.20833
1655.16	2835.875
1658.144	2754.54167
1661.125	2619.875
1664.105	2507.54167
1667.082	2375.20833
1670.057	2259.54167
1673.03	2131.54167
1676.001	1990.20833
1678.97	1861.875
1681.937	1750.875
1684.901	1675.20833
1687.863	1618.54167
1690.824	1521.875
1693.782	1512.54167
1696.738	1457.54167
1699.692	1436.20833
1702.643	1384.54167
1705.593	1370.875
1708.54	1358.875
1711.486	1352.54167
1714.429	1310.875
1717.37	1303.54167
1720.309	1294.875
1723.246	1286.875
1726.181	1251.54167
1729.113	1260.875
1732.044	1232.875
1734.972	1232.875
1737.899	1232.875
1740.823	1220.20833
1743.745	1226.875
1746.665	1163.54167
1749.583	1164.875
1752.499	1148.875
1755.413	1136.54167
1758.325	1103.20833
1761.235	1097.20833
1764.142	1065.54167
1767.048	1067.20833
1769.951	1061.20833
1772.852	1054.20833
1775.752	1050.54167
1778.649	1048.875
1781.544	1048.20833
1784.437	1017.20833
1787.328	1025.54167
1790.217	1018.20833
1793.104	1004.875
1795.989	997.20833
1798.872	995.20833
1801.753	995.20833
1804.631	997.54167
1807.508	1004.54167
1810.383	986.875
1813.255	992.875
1816.126	983.20833
1818.994	971.54167
1821.861	966.54167
1824.725	958.54167
1827.587	972.54167
1830.448	956.875
1833.306	932.54167
1836.162	952.20833
1839.017	936.20833
1841.869	941.54167
1844.719	932.54167
1847.567	912.875
1850.414	903.875
1853.258	909.20833
1856.1	934.54167
1858.94	940.875
1861.778	919.875
1864.614	908.54167
1867.448	914.54167
1870.28	912.875
1873.111	935.20833
1875.939	915.20833
1878.765	925.875
1881.589	911.875
1884.411	901.875
1887.231	920.875
1890.049	907.20833
1892.865	896.875
1895.68	894.875
1898.492	888.20833
1901.302	878.20833
1904.11	875.875
1906.916	870.54167
1909.721	878.875
1912.523	866.875
1915.323	854.54167
1918.122	874.20833
1920.918	869.54167
1923.712	853.20833
1926.505	866.875
1929.295	839.54167
1932.084	873.20833
1934.87	861.20833
1937.655	836.20833
1940.438	836.875
1943.218	845.54167
1945.997	859.54167
1948.774	856.875
1951.549	864.54167
1954.322	844.20833
1957.093	855.875
1959.862	833.875
1962.629	833.20833
1965.394	821.875
1968.157	820.875
1970.918	839.20833
1973.678	825.20833
1976.435	826.20833
1979.19	819.875
1981.944	807.875
1984.696	811.875
1987.445	797.875
1990.193	809.875
1992.939	811.875
1995.683	813.54167
1998.425	784.54167
2001.165	823.875
2003.903	796.54167
2006.639	780.875
2009.374	788.54167
2012.106	809.54167
2014.837	769.875
2017.566	804.20833
2020.292	794.54167
2023.017	784.20833
2025.74	772.875
2028.461	769.54167
2031.18	769.20833
2033.898	773.875
2036.613	776.875
2039.327	782.875
2042.038	759.875
2044.748	764.20833
2047.456	756.875
2050.162	742.20833
2052.866	759.54167
2055.568	757.875
2058.268	760.54167
2060.967	762.54167
2063.663	739.54167
2066.358	746.54167
2069.051	736.875
2071.742	761.20833
2074.431	759.54167
2077.118	743.875
2079.804	738.20833
2082.487	748.20833
2085.169	760.875
2087.849	759.875
2090.527	751.54167
2093.203	764.875
2095.877	755.20833
2098.55	757.20833
2101.22	779.875
2103.889	779.20833
2106.556	781.20833
2109.221	808.20833
2111.884	827.54167
2114.546	870.54167
2117.205	933.875
2119.863	1006.20833
2122.519	1075.875
2125.173	1148.875
2127.825	1219.20833
2130.475	1246.54167
2133.124	1201.20833
2135.771	1162.54167
2138.416	1123.875
2141.059	1039.875
2143.7	1002.875
2146.339	943.54167
2148.977	891.20833
2151.613	868.20833
2154.247	841.54167
2156.879	829.875
2159.51	806.54167
2162.138	785.875
2164.765	790.20833
2167.39	768.54167
2170.013	776.875
2172.634	772.875
2175.254	754.54167
2177.872	782.20833
2180.488	741.54167
2183.102	745.54167
2185.714	728.875
2188.325	703.54167
2190.934	719.875
2193.541	713.20833
2196.146	705.20833
2198.75	683.54167
2201.351	688.20833
2203.951	665.54167
2206.549	685.875
2209.146	667.875
2211.74	672.54167
2214.333	675.20833
2216.924	645.54167
2219.514	656.54167
2222.101	649.875
2224.687	667.875
2227.271	639.20833
2229.853	632.875
2232.433	632.20833
2235.012	643.54167
2237.589	641.875
2240.164	650.54167
2242.738	632.54167
2245.309	623.875
2247.879	639.875
2250.448	638.54167
2253.014	613.20833
2255.579	606.20833
2258.142	596.20833
2260.703	585.20833
2263.262	587.54167
2265.82	591.54167
2268.376	582.875
2270.93	579.20833
2273.483	577.20833
2276.033	580.875
2278.583	575.875
2281.13	567.20833
2283.675	556.875
2286.219	573.54167
2288.761	559.20833
2291.302	568.875
2293.841	571.875
2296.377	551.20833
2298.913	551.54167
2301.446	563.20833
2303.978	550.875
2306.508	548.20833
2309.037	544.20833
2311.563	552.54167
2314.088	550.20833
2316.612	530.875
2319.133	544.54167
2321.653	537.20833
2324.171	531.875
2326.688	547.875
2329.202	531.54167
2331.715	525.875
2334.227	524.875
2336.736	523.875
2339.244	522.20833
2341.751	508.875
2344.255	530.54167
2346.758	521.54167
2349.259	513.875
2351.759	510.54167
2354.257	508.875
2356.753	509.875
2359.247	506.875
2361.74	513.20833
2364.231	504.54167
2366.721	505.20833
2369.209	502.54167
2371.695	510.54167
2374.179	507.875
2376.662	495.54167
2379.143	512.54167
2381.622	497.875
2384.1	504.20833
2386.576	506.54167
2389.051	520.20833
2391.524	519.875
2393.995	511.54167
2396.464	491.20833
2398.932	494.20833
2401.398	495.54167
2403.863	483.20833
2406.325	488.875
2408.787	480.875
2411.246	486.54167
2413.704	487.875
2416.16	481.20833
2418.615	480.875
2421.068	485.875
2423.519	471.875
2425.969	474.20833
2428.417	474.20833
2430.863	492.875
2433.308	483.875
2435.751	474.875
2438.193	474.54167
2440.633	476.875
2443.071	483.875
2445.508	458.20833
2447.943	466.875
2450.376	457.20833
2452.808	467.875
2455.238	458.54167
2457.667	486.20833
2460.093	464.875
2462.519	453.20833
2464.942	461.20833
2467.365	465.875
2469.785	453.54167
2472.204	448.875
2474.621	445.875
2477.037	477.54167
2479.451	447.20833
2481.863	444.54167
2484.274	449.54167
2486.683	455.54167
2489.091	462.54167
2491.497	451.875
2493.901	457.875
2496.304	452.20833
2498.705	455.875
2501.105	447.875
2503.503	469.875
2505.899	440.875
2508.294	455.20833
2510.687	433.875
2513.079	437.20833
2515.469	437.875
2517.858	429.875
2520.245	446.20833
2522.63	434.54167
2525.014	425.875
2527.396	424.20833
2529.776	423.54167
2532.156	435.54167
2534.533	408.54167
2536.909	421.54167
2539.283	414.875
2541.656	428.54167
2544.027	441.875
2546.397	429.875
2548.765	420.875
2551.131	426.54167
2553.496	435.54167
2555.86	437.875
2558.221	427.54167
2560.582	414.54167
2562.94	416.875
2565.298	424.54167
2567.653	433.875
2570.007	412.20833
2572.36	425.20833
2574.711	418.875
2577.06	433.54167
2579.408	421.20833
2581.754	415.20833
2584.099	412.54167
2586.442	417.20833
2588.784	420.20833
2591.124	420.54167
2593.463	417.20833
2595.8	412.20833
2598.135	401.875
2600.469	407.54167
2602.802	427.20833
2605.133	426.54167
2607.462	412.20833
2609.79	402.54167
2612.116	407.54167
2614.441	403.20833
2616.764	408.20833
2619.086	405.875
2621.406	400.20833
2623.725	414.20833
2626.042	408.54167
2628.358	407.20833
2630.672	403.875
2632.985	419.20833
2635.296	408.875
2637.606	416.20833
2639.914	399.20833
2642.22	405.54167
2644.525	410.875
2646.829	411.20833
2649.131	417.54167
2651.432	418.54167
2653.731	402.54167
2656.028	426.54167
2658.324	416.20833
2660.619	398.875
2662.912	418.875
2665.204	399.20833
2667.494	419.20833
2669.782	400.20833
2672.07	415.875
2674.355	434.54167
2676.639	409.54167
2678.922	401.875
2681.203	419.20833
2683.483	400.54167
2685.761	398.54167
2688.038	422.20833
2690.313	433.20833
2692.587	415.20833
2694.859	404.54167
2697.13	424.875
2699.399	417.54167
2701.667	432.54167
2703.933	437.54167
2706.198	428.20833
2708.461	437.20833
2710.723	445.20833
2712.984	436.875
2715.243	435.54167
2717.5	442.875
2719.757	452.54167
2722.011	444.20833
2724.264	452.54167
2726.516	467.20833
2728.766	449.54167
2731.015	450.20833
2733.262	448.20833
2735.508	447.54167
2737.753	444.54167
2739.996	425.20833
2742.237	427.54167
2744.477	434.875
2746.716	446.54167
2748.953	427.54167
2751.189	430.875
2753.423	415.875
2755.656	415.20833
2757.887	426.20833
2760.117	417.20833
2762.346	413.54167
2764.573	409.20833
2766.798	416.54167
2769.022	417.54167
2771.245	423.54167
2773.467	422.20833
2775.686	429.20833
2777.905	430.20833
2780.122	431.20833
2782.337	437.20833
2784.552	428.875
2786.764	447.54167
2788.976	439.54167
2791.186	453.20833
2793.394	452.54167
2795.601	464.20833
2797.807	467.54167
2800.011	476.20833
2802.214	486.20833
2804.415	485.54167
2806.615	486.875
2808.814	503.20833
2811.011	502.54167
2813.206	497.875
2815.401	521.875
2817.594	529.54167
2819.785	546.20833
2821.975	530.875
2824.164	541.20833
2826.351	567.54167
2828.537	579.54167
2830.722	596.875
2832.905	598.20833
2835.086	632.54167
2837.267	657.875
2839.445	678.20833
2841.623	702.54167
2843.799	730.875
2845.974	769.54167
2848.147	807.54167
2850.319	819.54167
2852.489	852.875
2854.659	847.54167
2856.826	875.54167
2858.993	906.875
2861.158	892.20833
2863.321	891.875
2865.483	914.54167
2867.644	901.20833
2869.804	912.54167
2871.962	898.20833
2874.118	894.54167
2876.274	899.20833
2878.428	901.54167
2880.58	874.20833
2882.731	881.54167
2884.881	876.54167
2887.03	875.54167
2889.177	875.20833
2891.322	890.54167
2893.467	888.875
2895.61	897.875
2897.751	905.875
2899.892	899.54167
2902.03	913.20833
2904.168	901.54167
2906.304	913.54167
2908.439	928.875
2910.572	921.20833
2912.704	932.875
2914.835	927.875
2916.965	934.54167
2919.093	937.54167
2921.219	890.20833
2923.345	929.20833
2925.469	889.20833
2927.591	884.20833
2929.712	860.54167
2931.832	855.54167
2933.951	815.875
2936.068	806.20833
2938.184	797.20833
2940.299	754.54167
2942.412	747.54167
2944.524	700.20833
2946.634	696.875
2948.744	639.54167
2950.851	661.54167
2952.958	617.20833
2955.063	603.20833
2957.167	596.54167
2959.269	561.875
2961.371	578.20833
2963.471	541.20833
2965.569	537.20833
2967.666	500.875
2969.762	502.875
2971.857	478.54167
2973.95	471.54167
2976.042	460.54167
2978.133	448.875
2980.222	430.54167
2982.31	413.875
2984.396	401.20833
2986.482	401.875
2988.566	404.54167
2990.648	395.20833
2992.73	385.875
2994.81	373.20833
2996.889	369.875
2998.966	367.54167
3001.042	377.54167
3003.117	369.875
3005.191	361.875
3007.263	357.875
3009.334	346.875
3011.403	350.20833
3013.472	327.20833
3015.539	334.875
3017.604	343.20833
3019.669	315.20833
3021.732	315.875
3023.794	317.54167
3025.854	298.54167
3027.914	301.54167
3029.971	317.54167
3032.028	307.54167
3034.083	311.875
3036.137	310.20833
3038.19	284.54167
3040.242	283.875
3042.292	280.20833
3044.341	274.20833
3046.388	289.20833
3048.435	264.20833
3050.48	284.875
3052.524	267.875
3054.566	247.875
3056.607	269.875
3058.647	259.875
3060.686	247.20833
3062.723	243.54167
3064.759	237.875
3066.794	-0.45833
3068.828	0.54167
3070.86	-0.45833
