-0.839	315.45833
3.438	340.125
7.711	103.45833
11.981	50.45833
16.247	44.125
20.509	43.79167
24.768	47.45833
29.024	46.79167
33.276	39.125
37.524	51.125
41.769	40.45833
46.01	35.45833
50.247	51.45833
54.481	60.45833
58.712	69.45833
62.939	49.45833
67.162	57.45833
71.382	55.79167
75.599	45.45833
79.812	66.45833
84.021	79.45833
88.227	62.45833
92.429	60.125
96.628	48.79167
100.823	65.79167
105.015	76.79167
109.204	75.125
113.388	76.79167
117.57	72.125
121.748	92.45833
125.922	79.79167
130.093	95.125
134.261	103.79167
138.425	99.79167
142.585	135.45833
146.742	132.45833
150.896	156.79167
155.046	192.79167
159.193	306.79167
163.336	527.125
167.476	962.79167
171.613	1788.125
175.746	2946.125
179.875	4322.79167
184.002	5625.79167
188.124	6541.79167
192.244	6853.45833
196.36	6823.79167
200.472	6629.45833
204.581	6513.45833
208.687	6393.45833
212.79	6330.45833
216.889	6429.45833
220.984	6449.79167
225.077	6556.125
229.165	6647.45833
233.251	6696.125
237.333	6764.45833
241.412	6773.79167
245.487	6754.79167
249.559	6642.79167
253.628	6586.79167
257.694	6531.79167
261.756	6469.45833
265.814	6344.45833
269.87	6171.45833
273.922	5992.125
277.97	5900.79167
282.016	5845.125
286.058	5818.45833
290.097	5845.125
294.132	5855.79167
298.164	5769.45833
302.193	5493.79167
306.219	5063.79167
310.241	4668.125
314.26	4285.45833
318.276	3914.45833
322.288	3690.125
326.297	3487.79167
330.303	3330.45833
334.305	3258.79167
338.305	3192.125
342.301	3143.45833
346.294	3111.125
350.283	3098.79167
354.269	3072.45833
358.252	3028.79167
362.232	2988.79167
366.209	3008.125
370.182	2975.45833
374.152	2948.125
378.119	2963.125
382.083	2966.79167
386.043	2954.45833
390	2915.125
393.954	2898.45833
397.905	2874.125
401.852	2843.125
405.797	2816.79167
409.738	2825.79167
413.676	2818.125
417.61	2812.125
421.542	2733.79167
425.47	2706.125
429.396	2667.45833
433.318	2641.79167
437.236	2642.45833
441.152	2660.79167
445.065	2602.125
448.974	2591.45833
452.88	2583.125
456.783	2569.125
460.683	2558.79167
464.58	2601.45833
468.473	2562.79167
472.364	2575.79167
476.251	2587.125
480.135	2604.79167
484.016	2613.125
487.894	2639.45833
491.769	2645.45833
495.641	2633.45833
499.509	2655.45833
503.375	2655.45833
507.237	2637.79167
511.096	2613.79167
514.952	2627.125
518.805	2616.45833
522.655	2623.125
526.502	2572.79167
530.346	2594.45833
534.187	2606.125
538.024	2599.79167
541.859	2591.45833
545.69	2636.79167
549.519	2610.45833
553.344	2567.45833
557.166	2556.45833
560.985	2529.79167
564.802	2497.45833
568.615	2461.125
572.425	2430.79167
576.232	2398.125
580.036	2406.45833
583.836	2418.45833
587.634	2432.79167
591.429	2423.79167
595.221	2443.125
599.01	2478.79167
602.796	2526.125
606.578	2541.79167
610.358	2549.79167
614.135	2534.125
617.909	2510.125
621.679	2504.45833
625.447	2490.79167
629.212	2515.45833
632.973	2521.45833
636.732	2493.79167
640.488	2493.79167
644.241	2467.125
647.991	2449.45833
651.737	2485.79167
655.481	2440.125
659.222	2456.79167
662.96	2457.45833
666.695	2457.79167
670.427	2505.45833
674.156	2488.45833
677.882	2489.125
681.605	2476.125
685.325	2465.45833
689.043	2487.45833
692.757	2450.125
696.468	2455.79167
700.177	2474.45833
703.882	2459.79167
707.585	2466.45833
711.284	2480.79167
714.981	2489.45833
718.675	2486.79167
722.366	2491.125
726.054	2482.125
729.739	2468.79167
733.421	2479.125
737.1	2466.125
740.777	2490.79167
744.45	2497.45833
748.121	2513.125
751.789	2578.79167
755.453	2574.125
759.115	2580.79167
762.774	2609.45833
766.431	2631.45833
770.084	2644.125
773.734	2634.79167
777.382	2700.45833
781.027	2724.125
784.669	2747.45833
788.308	2772.125
791.944	2777.45833
795.577	2804.45833
799.208	2843.79167
802.835	2844.125
806.46	2861.125
810.082	2861.45833
813.701	2883.125
817.317	2901.125
820.931	2892.125
824.542	2900.125
828.149	2882.45833
831.754	2833.79167
835.357	2837.79167
838.956	2842.45833
842.553	2820.45833
846.146	2804.125
849.737	2789.125
853.326	2811.125
856.911	2779.45833
860.493	2858.45833
864.073	2842.125
867.65	2919.79167
871.225	2952.45833
874.796	2928.79167
878.365	2921.79167
881.931	2976.125
885.494	2983.79167
889.054	2959.79167
892.612	2968.125
896.166	2939.45833
899.719	2897.45833
903.268	2868.125
906.814	2864.45833
910.358	2844.125
913.899	2843.79167
917.438	2836.45833
920.973	2829.45833
924.506	2874.125
928.036	2927.79167
931.564	2943.79167
935.088	2964.79167
938.61	2973.125
942.129	3024.125
945.646	3095.79167
949.16	3132.125
952.671	3209.79167
956.179	3212.79167
959.685	3179.79167
963.188	3184.79167
966.688	3118.45833
970.185	3051.125
973.68	2994.45833
977.173	2984.79167
980.662	2994.79167
984.149	2996.79167
987.633	3005.79167
991.114	3062.125
994.593	3157.45833
998.069	3265.125
1001.542	3351.79167
1005.013	3246.79167
1008.481	3081.125
1011.947	3035.125
1015.409	3005.45833
1018.869	3008.45833
1022.327	3023.79167
1025.782	2990.45833
1029.234	2994.45833
1032.683	2957.45833
1036.13	2870.45833
1039.574	2753.125
1043.016	2688.45833
1046.455	2649.79167
1049.891	2609.79167
1053.325	2617.45833
1056.756	2601.45833
1060.184	2621.125
1063.61	2639.45833
1067.033	2652.125
1070.454	2647.79167
1073.872	2696.125
1077.287	2677.79167
1080.7	2687.79167
1084.11	2678.45833
1087.517	2676.45833
1090.922	2653.79167
1094.325	2600.79167
1097.724	2605.45833
1101.122	2576.45833
1104.516	2568.125
1107.908	2572.45833
1111.298	2623.45833
1114.684	2633.79167
1118.069	2678.45833
1121.45	2688.79167
1124.83	2682.79167
1128.206	2674.125
1131.58	2728.45833
1134.951	2771.125
1138.32	2869.125
1141.687	2974.45833
1145.05	3048.79167
1148.412	3082.79167
1151.77	3046.125
1155.126	3051.45833
1158.48	3023.79167
1161.831	3083.125
1165.18	3090.125
1168.525	3118.79167
1171.869	3187.79167
1175.21	3182.45833
1178.548	3254.79167
1181.884	3259.79167
1185.217	3302.45833
1188.548	3347.125
1191.877	3383.125
1195.202	3446.79167
1198.526	3519.79167
1201.846	3515.125
1205.165	3519.45833
1208.48	3494.125
1211.794	3495.45833
1215.104	3506.45833
1218.413	3520.125
1221.719	3504.79167
1225.022	3491.125
1228.323	3450.79167
1231.621	3424.45833
1234.917	3409.125
1238.21	3452.79167
1241.501	3433.125
1244.79	3437.125
1248.076	3435.125
1251.359	3502.125
1254.64	3572.79167
1257.919	3566.79167
1261.195	3640.79167
1264.468	3689.79167
1267.74	3717.125
1271.008	3739.45833
1274.275	3707.79167
1277.538	3669.45833
1280.8	3655.79167
1284.059	3643.125
1287.315	3683.79167
1290.569	3690.125
1293.821	3705.79167
1297.07	3731.79167
1300.317	3726.79167
1303.562	3710.45833
1306.803	3683.45833
1310.043	3656.79167
1313.28	3593.125
1316.515	3573.79167
1319.747	3525.125
1322.977	3485.79167
1326.204	3459.79167
1329.429	3370.125
1332.652	3385.45833
1335.872	3385.79167
1339.09	3354.125
1342.306	3372.45833
1345.519	3371.125
1348.729	3343.45833
1351.938	3348.125
1355.144	3285.45833
1358.347	3249.125
1361.548	3262.45833
1364.747	3274.125
1367.944	3236.125
1371.138	3266.79167
1374.329	3278.45833
1377.518	3307.45833
1380.705	3329.45833
1383.89	3314.79167
1387.072	3222.79167
1390.252	3106.125
1393.429	3030.45833
1396.605	2924.125
1399.777	2832.125
1402.948	2841.125
1406.116	2811.45833
1409.282	2797.79167
1412.445	2823.125
1415.606	2857.125
1418.765	2895.125
1421.921	2942.45833
1425.075	3017.79167
1428.227	3092.125
1431.376	3246.125
1434.524	3354.45833
1437.668	3401.125
1440.811	3408.79167
1443.951	3468.45833
1447.089	3445.125
1450.224	3462.125
1453.357	3432.45833
1456.488	3380.79167
1459.617	3354.79167
1462.743	3287.79167
1465.867	3231.125
1468.989	3171.45833
1472.108	3128.45833
1475.225	3069.79167
1478.34	2999.79167
1481.453	3023.45833
1484.563	3029.125
1487.671	3048.79167
1490.776	3097.45833
1493.88	3148.45833
1496.981	3214.45833
1500.08	3260.125
1503.176	3300.45833
1506.271	3385.45833
1509.363	3430.125
1512.452	3461.45833
1515.54	3524.45833
1518.625	3627.45833
1521.708	3735.125
1524.789	3943.45833
1527.867	4181.79167
1530.944	4444.125
1534.018	4665.79167
1537.089	4750.125
1540.159	4745.79167
1543.226	4662.125
1546.291	4499.79167
1549.354	4343.79167
1552.415	4180.79167
1555.473	4084.79167
1558.529	4003.79167
1561.583	3940.125
1564.634	3884.79167
1567.684	3871.79167
1570.731	3891.45833
1573.776	3903.79167
1576.819	3928.79167
1579.859	3970.79167
1582.898	3980.125
1585.934	4014.45833
1588.968	4012.79167
1591.999	3983.45833
1595.029	3996.45833
1598.056	4022.79167
1601.081	4041.79167
1604.104	4014.125
1607.125	3983.79167
1610.144	3934.125
1613.16	3851.125
1616.174	3763.125
1619.186	3667.45833
1622.196	3593.125
1625.203	3476.45833
1628.209	3468.79167
1631.212	3428.79167
1634.213	3433.45833
1637.212	3393.79167
1640.209	3381.125
1643.203	3292.45833
1646.196	3203.125
1649.186	3060.45833
1652.174	3004.45833
1655.16	2895.125
1658.144	2833.45833
1661.125	2708.79167
1664.105	2589.125
1667.082	2464.45833
1670.057	2329.45833
1673.03	2188.125
1676.001	2057.125
1678.97	1931.45833
1681.937	1829.125
1684.901	1727.45833
1687.863	1686.45833
1690.824	1633.79167
1693.782	1579.79167
1696.738	1517.125
1699.692	1495.125
1702.643	1456.79167
1705.593	1445.125
1708.54	1423.125
1711.486	1427.45833
1714.429	1384.45833
1717.37	1390.45833
1720.309	1362.45833
1723.246	1361.45833
1726.181	1327.45833
1729.113	1328.79167
1732.044	1314.125
1734.972	1314.125
1737.899	1301.79167
1740.823	1289.125
1743.745	1287.45833
1746.665	1246.45833
1749.583	1225.79167
1752.499	1209.125
1755.413	1205.79167
1758.325	1178.79167
1761.235	1178.45833
1764.142	1145.45833
1767.048	1143.45833
1769.951	1136.125
1772.852	1122.79167
1775.752	1119.79167
1778.649	1127.45833
1781.544	1122.125
1784.437	1096.79167
1787.328	1090.79167
1790.217	1089.125
1793.104	1070.45833
1795.989	1069.45833
1798.872	1054.45833
1801.753	1074.45833
1804.631	1050.125
1807.508	1072.125
1810.383	1053.125
1813.255	1075.125
1816.126	1060.125
1818.994	1053.125
1821.861	1043.45833
1824.725	1022.45833
1827.587	1037.125
1830.448	1025.125
1833.306	999.79167
1836.162	1013.79167
1839.017	1002.79167
1841.869	996.125
1844.719	1013.79167
1847.567	986.45833
1850.414	984.45833
1853.258	981.125
1856.1	983.45833
1858.94	990.79167
1861.778	984.125
1864.614	986.45833
1867.448	980.45833
1870.28	972.45833
1873.111	999.79167
1875.939	966.45833
1878.765	997.79167
1881.589	983.45833
1884.411	971.79167
1887.231	981.125
1890.049	964.79167
1892.865	974.125
1895.68	957.79167
1898.492	954.45833
1901.302	938.79167
1904.11	949.79167
1906.916	919.45833
1909.721	929.45833
1912.523	959.79167
1915.323	922.125
1918.122	931.45833
1920.918	924.45833
1923.712	921.45833
1926.505	929.125
1929.295	907.79167
1932.084	931.125
1934.87	921.125
1937.655	901.45833
1940.438	898.45833
1943.218	910.45833
1945.997	921.45833
1948.774	935.125
1951.549	914.45833
1954.322	900.45833
1957.093	900.125
1959.862	895.45833
1962.629	891.45833
1965.394	872.79167
1968.157	871.125
1970.918	882.45833
1973.678	877.45833
1976.435	886.45833
1979.19	864.125
1981.944	869.79167
1984.696	864.79167
1987.445	860.125
1990.193	852.125
1992.939	868.79167
1995.683	858.45833
1998.425	842.125
2001.165	868.45833
2003.903	846.79167
2006.639	843.45833
2009.374	839.125
2012.106	853.79167
2014.837	832.45833
2017.566	845.45833
2020.292	853.45833
2023.017	847.125
2025.74	830.79167
2028.461	829.125
2031.18	829.79167
2033.898	835.45833
2036.613	838.125
2039.327	831.125
2042.038	813.125
2044.748	825.79167
2047.456	822.125
2050.162	808.45833
2052.866	797.125
2055.568	808.79167
2058.268	793.125
2060.967	810.79167
2063.663	792.45833
2066.358	798.79167
2069.051	793.125
2071.742	794.125
2074.431	811.45833
2077.118	816.45833
2079.804	795.79167
2082.487	798.79167
2085.169	819.45833
2087.849	827.45833
2090.527	806.125
2093.203	825.45833
2095.877	816.45833
2098.55	821.79167
2101.22	844.79167
2103.889	849.125
2106.556	852.45833
2109.221	896.79167
2111.884	934.45833
2114.546	998.45833
2117.205	1072.79167
2119.863	1169.125
2122.519	1256.125
2125.173	1352.45833
2127.825	1430.125
2130.475	1462.79167
2133.124	1415.45833
2135.771	1343.125
2138.416	1288.45833
2141.059	1200.79167
2143.7	1162.125
2146.339	1063.45833
2148.977	1000.45833
2151.613	1004.45833
2154.247	943.79167
2156.879	918.45833
2159.51	903.45833
2162.138	873.79167
2164.765	888.79167
2167.39	862.79167
2170.013	861.79167
2172.634	877.45833
2175.254	838.45833
2177.872	862.79167
2180.488	824.125
2183.102	837.79167
2185.714	810.45833
2188.325	791.79167
2190.934	788.45833
2193.541	783.79167
2196.146	772.79167
2198.75	742.125
2201.351	748.45833
2203.951	723.79167
2206.549	750.125
2209.146	718.45833
2211.74	722.79167
2214.333	720.125
2216.924	693.45833
2219.514	710.125
2222.101	687.79167
2224.687	703.45833
2227.271	694.45833
2229.853	683.45833
2232.433	663.125
2235.012	697.125
2237.589	683.79167
2240.164	678.79167
2242.738	677.79167
2245.309	663.125
2247.879	664.125
2250.448	674.79167
2253.014	649.45833
2255.579	634.45833
2258.142	636.125
2260.703	630.79167
2263.262	635.45833
2265.82	615.125
2268.376	628.79167
2270.93	607.79167
2273.483	604.79167
2276.033	612.79167
2278.583	597.45833
2281.13	604.79167
2283.675	600.125
2286.219	603.125
2288.761	597.79167
2291.302	607.45833
2293.841	593.125
2296.377	581.79167
2298.913	595.45833
2301.446	589.125
2303.978	585.125
2306.508	574.79167
2309.037	584.79167
2311.563	586.125
2314.088	578.125
2316.612	559.79167
2319.133	579.45833
2321.653	565.125
2324.171	565.45833
2326.688	573.79167
2329.202	556.125
2331.715	558.79167
2334.227	557.79167
2336.736	543.79167
2339.244	550.45833
2341.751	534.45833
2344.255	558.79167
2346.758	550.125
2349.259	530.79167
2351.759	533.79167
2354.257	536.125
2356.753	541.45833
2359.247	542.45833
2361.74	547.45833
2364.231	540.79167
2366.721	536.125
2369.209	523.45833
2371.695	532.125
2374.179	523.45833
2376.662	536.45833
2379.143	545.45833
2381.622	523.45833
2384.1	531.45833
2386.576	518.79167
2389.051	533.45833
2391.524	533.125
2393.995	529.45833
2396.464	513.125
2398.932	511.79167
2401.398	514.45833
2403.863	509.45833
2406.325	505.125
2408.787	508.125
2411.246	513.125
2413.704	503.45833
2416.16	502.125
2418.615	499.125
2421.068	505.79167
2423.519	490.45833
2425.969	499.125
2428.417	504.125
2430.863	526.125
2433.308	510.45833
2435.751	493.45833
2438.193	499.79167
2440.633	501.45833
2443.071	500.125
2445.508	487.79167
2447.943	486.125
2450.376	475.125
2452.808	487.79167
2455.238	477.79167
2457.667	516.125
2460.093	484.45833
2462.519	474.45833
2464.942	473.79167
2467.365	476.125
2469.785	486.45833
2472.204	473.45833
2474.621	465.125
2477.037	482.79167
2479.451	457.125
2481.863	449.79167
2484.274	462.125
2486.683	462.45833
2489.091	472.45833
2491.497	465.125
2493.901	457.125
2496.304	461.79167
2498.705	473.125
2501.105	446.125
2503.503	488.125
2505.899	452.79167
2508.294	468.79167
2510.687	456.79167
2513.079	450.125
2515.469	452.125
2517.858	450.125
2520.245	464.125
2522.63	443.125
2525.014	440.45833
2527.396	438.79167
2529.776	438.45833
2532.156	450.45833
2534.533	436.45833
2536.909	441.45833
2539.283	424.125
2541.656	438.79167
2544.027	453.45833
2546.397	437.79167
2548.765	425.79167
2551.131	433.79167
2553.496	430.79167
2555.86	446.125
2558.221	444.79167
2560.582	434.45833
2562.94	414.125
2565.298	424.79167
2567.653	437.79167
2570.007	414.45833
2572.36	432.79167
2574.711	419.45833
2577.06	441.125
2579.408	427.45833
2581.754	423.125
2584.099	420.125
2586.442	416.45833
2588.784	425.79167
2591.124	424.45833
2593.463	418.45833
2595.8	417.125
2598.135	397.79167
2600.469	413.45833
2602.802	430.79167
2605.133	428.79167
2607.462	411.79167
2609.79	410.45833
2612.116	426.79167
2614.441	417.79167
2616.764	416.79167
2619.086	410.45833
2621.406	406.125
2623.725	422.79167
2626.042	413.79167
2628.358	406.45833
2630.672	412.79167
2632.985	417.79167
2635.296	417.125
2637.606	420.125
2639.914	398.79167
2642.22	411.79167
2644.525	414.125
2646.829	414.45833
2649.131	429.45833
2651.432	429.79167
2653.731	411.79167
2656.028	425.125
2658.324	427.125
2660.619	406.125
2662.912	423.45833
2665.204	410.45833
2667.494	420.79167
2669.782	404.79167
2672.07	418.125
2674.355	432.125
2676.639	411.125
2678.922	412.125
2681.203	423.125
2683.483	407.45833
2685.761	406.45833
2688.038	421.45833
2690.313	428.79167
2692.587	418.45833
2694.859	403.45833
2697.13	412.125
2699.399	412.125
2701.667	421.79167
2703.933	435.79167
2706.198	425.45833
2708.461	432.79167
2710.723	440.125
2712.984	438.79167
2715.243	444.45833
2717.5	433.125
2719.757	453.79167
2722.011	445.45833
2724.264	444.79167
2726.516	457.45833
2728.766	442.79167
2731.015	440.125
2733.262	439.45833
2735.508	442.79167
2737.753	438.79167
2739.996	426.45833
2742.237	432.125
2744.477	432.45833
2746.716	435.79167
2748.953	426.79167
2751.189	430.79167
2753.423	420.125
2755.656	425.45833
2757.887	414.45833
2760.117	421.125
2762.346	408.79167
2764.573	406.125
2766.798	406.79167
2769.022	419.125
2771.245	416.79167
2773.467	417.125
2775.686	413.45833
2777.905	424.125
2780.122	434.125
2782.337	431.79167
2784.552	430.45833
2786.764	439.125
2788.976	437.45833
2791.186	452.125
2793.394	445.45833
2795.601	462.45833
2797.807	472.45833
2800.011	475.125
2802.214	480.79167
2804.415	475.125
2806.615	490.125
2808.814	498.79167
2811.011	500.79167
2813.206	498.79167
2815.401	520.79167
2817.594	524.125
2819.785	535.125
2821.975	525.79167
2824.164	536.79167
2826.351	555.79167
2828.537	566.79167
2830.722	574.45833
2832.905	581.79167
2835.086	624.45833
2837.267	637.125
2839.445	661.125
2841.623	676.125
2843.799	698.79167
2845.974	751.125
2848.147	769.79167
2850.319	783.125
2852.489	829.45833
2854.659	815.45833
2856.826	849.45833
2858.993	863.45833
2861.158	843.45833
2863.321	844.79167
2865.483	868.45833
2867.644	866.125
2869.804	866.45833
2871.962	852.45833
2874.118	873.79167
2876.274	881.125
2878.428	872.45833
2880.58	858.45833
2882.731	841.45833
2884.881	839.45833
2887.03	844.125
2889.177	839.125
2891.322	850.79167
2893.467	841.79167
2895.61	847.79167
2897.751	863.125
2899.892	854.45833
2902.03	863.79167
2904.168	872.45833
2906.304	869.79167
2908.439	888.125
2910.572	868.79167
2912.704	886.79167
2914.835	885.79167
2916.965	879.45833
2919.093	890.45833
2921.219	849.125
2923.345	858.125
2925.469	846.125
2927.591	843.79167
2929.712	807.125
2931.832	805.125
2933.951	776.79167
2936.068	755.45833
2938.184	738.125
2940.299	708.79167
2942.412	703.45833
2944.524	658.125
2946.634	643.79167
2948.744	593.79167
2950.851	613.45833
2952.958	575.45833
2955.063	561.45833
2957.167	552.125
2959.269	517.45833
2961.371	531.125
2963.471	494.79167
2965.569	515.79167
2967.666	474.45833
2969.762	459.125
2971.857	445.125
2973.95	429.125
2976.042	417.125
2978.133	414.79167
2980.222	402.45833
2982.31	391.45833
2984.396	370.79167
2986.482	372.125
2988.566	373.125
2990.648	353.45833
2992.73	351.79167
2994.81	338.125
2996.889	344.45833
2998.966	333.125
3001.042	343.45833
3003.117	335.45833
3005.191	331.125
3007.263	326.125
3009.334	322.79167
3011.403	316.45833
3013.472	298.45833
3015.539	307.79167
3017.604	317.125
3019.669	275.79167
3021.732	289.125
3023.794	289.125
3025.854	276.125
3027.914	270.45833
3029.971	286.125
3032.028	272.125
3034.083	274.125
3036.137	273.45833
3038.19	254.125
3040.242	250.79167
3042.292	248.45833
3044.341	242.79167
3046.388	261.125
3048.435	227.45833
3050.48	249.125
3052.524	241.45833
3054.566	222.79167
3056.607	241.45833
3058.647	232.125
3060.686	214.45833
3062.723	209.79167
3064.759	203.79167
3066.794	-0.20833
3068.828	0.79167
3070.86	-0.54167
