-0.839	304.66667
3.438	316.33333
7.711	102.66667
11.981	48
16.247	41.33333
20.509	39.33333
24.768	44.66667
29.024	49
33.276	41
37.524	45.66667
41.769	38.66667
46.01	35.66667
50.247	48.66667
54.481	62.33333
58.712	62.33333
62.939	44.33333
67.162	54.66667
71.382	55.66667
75.599	47
79.812	60.33333
84.021	78.33333
88.227	57.33333
92.429	58.66667
96.628	50.33333
100.823	67.33333
105.015	74
109.204	72.66667
113.388	77
117.57	68
121.748	90.33333
125.922	76
130.093	92.33333
134.261	97.33333
138.425	92.33333
142.585	133.66667
146.742	135.33333
150.896	155
155.046	183.33333
159.193	301.33333
163.336	540
167.476	965
171.613	1781.33333
175.746	2946
179.875	4297.66667
184.002	5590
188.124	6396
192.244	6673
196.36	6585.66667
200.472	6393.66667
204.581	6211.33333
208.687	6103
212.79	6053.33333
216.889	6078.66667
220.984	6138.66667
225.077	6157.66667
229.165	6250.33333
233.251	6277
237.333	6313.33333
241.412	6294.66667
245.487	6290.33333
249.559	6201
253.628	6153.66667
257.694	6092
261.756	5992.66667
265.814	5858
269.87	5694
273.922	5562
277.97	5473
282.016	5419.33333
286.058	5424
290.097	5481
294.132	5481
298.164	5365.66667
302.193	5074
306.219	4713.33333
310.241	4291.33333
314.26	3902.33333
318.276	3564.33333
322.288	3363.66667
326.297	3173.66667
330.303	3031.66667
334.305	2941
338.305	2857.33333
342.301	2827
346.294	2781.66667
350.283	2770.66667
354.269	2726
358.252	2693.66667
362.232	2680
366.209	2677.66667
370.182	2623.66667
374.152	2620
378.119	2627
382.083	2605.33333
386.043	2600
390	2600.33333
393.954	2572
397.905	2532.66667
401.852	2536.33333
405.797	2498.33333
409.738	2453.33333
413.676	2487.66667
417.61	2459.33333
421.542	2442
425.47	2382.66667
429.396	2366
433.318	2341.33333
437.236	2341.66667
441.152	2356
445.065	2286
448.974	2273.66667
452.88	2270.33333
456.783	2242.33333
460.683	2244
464.58	2238
468.473	2246
472.364	2241.66667
476.251	2252
480.135	2267
484.016	2292.33333
487.894	2318
491.769	2317
495.641	2301.66667
499.509	2310.66667
503.375	2321
507.237	2301
511.096	2292.33333
514.952	2307.33333
518.805	2290.33333
522.655	2307.66667
526.502	2294
530.346	2274
534.187	2293.33333
538.024	2295.33333
541.859	2289.66667
545.69	2287.33333
549.519	2273.66667
553.344	2271.66667
557.166	2233.33333
560.985	2195.66667
564.802	2190.66667
568.615	2144
572.425	2131
576.232	2121.33333
580.036	2114.33333
583.836	2125
587.634	2116
591.429	2112.33333
595.221	2164.33333
599.01	2186.33333
602.796	2211.33333
606.578	2242.33333
610.358	2252
614.135	2224
617.909	2209.33333
621.679	2193.66667
625.447	2185
629.212	2214.66667
632.973	2196
636.732	2181
640.488	2184.33333
644.241	2149.66667
647.991	2150
651.737	2171.33333
655.481	2123.66667
659.222	2123
662.96	2133.66667
666.695	2149.33333
670.427	2177.66667
674.156	2167.66667
677.882	2185
681.605	2154.33333
685.325	2153.66667
689.043	2171.33333
692.757	2161.33333
696.468	2171.66667
700.177	2181.33333
703.882	2152.66667
707.585	2148.33333
711.284	2149
714.981	2187.33333
718.675	2184
722.366	2203
726.054	2163
729.739	2187.66667
733.421	2191.66667
737.1	2168.33333
740.777	2174
744.45	2183.66667
748.121	2217.33333
751.789	2273.66667
755.453	2277
759.115	2267
762.774	2303.33333
766.431	2336.33333
770.084	2328.66667
773.734	2364.66667
777.382	2434.66667
781.027	2423.33333
784.669	2429.66667
788.308	2464.33333
791.944	2495
795.577	2515.33333
799.208	2536.33333
802.835	2526
806.46	2558.66667
810.082	2576.66667
813.701	2577
817.317	2583.66667
820.931	2570.66667
824.542	2605.66667
828.149	2578
831.754	2550
835.357	2556.33333
838.956	2567
842.553	2536.66667
846.146	2520
849.737	2525
853.326	2564.66667
856.911	2551
860.493	2587.33333
864.073	2578
867.65	2652
871.225	2695.66667
874.796	2664.33333
878.365	2677
881.931	2688.33333
885.494	2723.66667
889.054	2686.33333
892.612	2719.33333
896.166	2688.33333
899.719	2632.33333
903.268	2632
906.814	2597
910.358	2598
913.899	2576.33333
917.438	2590.66667
920.973	2592.66667
924.506	2608
928.036	2647.33333
931.564	2672.66667
935.088	2692.66667
938.61	2698
942.129	2703.33333
945.646	2804.66667
949.16	2851.66667
952.671	2903
956.179	2910.33333
959.685	2898.66667
963.188	2854.66667
966.688	2810
970.185	2743.33333
973.68	2725
977.173	2686
980.662	2697.33333
984.149	2704.33333
987.633	2708.33333
991.114	2750.66667
994.593	2818.66667
998.069	2947.33333
1001.542	2994
1005.013	2932.33333
1008.481	2756
1011.947	2730
1015.409	2719.33333
1018.869	2735.33333
1022.327	2706.66667
1025.782	2688.66667
1029.234	2689
1032.683	2655
1036.13	2552.66667
1039.574	2492.33333
1043.016	2429.66667
1046.455	2372.66667
1049.891	2350
1053.325	2337
1056.756	2348.66667
1060.184	2367.66667
1063.61	2376.66667
1067.033	2395
1070.454	2376.33333
1073.872	2411.33333
1077.287	2428.33333
1080.7	2428.33333
1084.11	2418.66667
1087.517	2420
1090.922	2372.66667
1094.325	2361
1097.724	2337
1101.122	2334
1104.516	2323.66667
1107.908	2335.33333
1111.298	2382.33333
1114.684	2400.66667
1118.069	2420
1121.45	2443.33333
1124.83	2458.66667
1128.206	2439.66667
1131.58	2487.66667
1134.951	2538.33333
1138.32	2633
1141.687	2739.33333
1145.05	2800.33333
1148.412	2817.66667
1151.77	2798.66667
1155.126	2801.66667
1158.48	2819.33333
1161.831	2855
1165.18	2855.33333
1168.525	2896.66667
1171.869	2936.33333
1175.21	2939.33333
1178.548	2981.33333
1181.884	3016
1185.217	3037.33333
1188.548	3084.33333
1191.877	3123.66667
1195.202	3212
1198.526	3255.66667
1201.846	3247.66667
1205.165	3261.66667
1208.48	3230.33333
1211.794	3241
1215.104	3235
1218.413	3241.33333
1221.719	3226.66667
1225.022	3214.33333
1228.323	3181.33333
1231.621	3174
1234.917	3176
1238.21	3205.33333
1241.501	3183.66667
1244.79	3166
1248.076	3181
1251.359	3242.33333
1254.64	3295.33333
1257.919	3296.33333
1261.195	3352.66667
1264.468	3394
1267.74	3457.33333
1271.008	3451.33333
1274.275	3403.66667
1277.538	3371
1280.8	3373.33333
1284.059	3371
1287.315	3403.33333
1290.569	3427
1293.821	3461
1297.07	3433.66667
1300.317	3457.66667
1303.562	3466.66667
1306.803	3427.33333
1310.043	3365
1313.28	3290.33333
1316.515	3267.33333
1319.747	3254
1322.977	3225.33333
1326.204	3160.33333
1329.429	3120.33333
1332.652	3101.33333
1335.872	3130.33333
1339.09	3063.33333
1342.306	3077.33333
1345.519	3073.33333
1348.729	3042
1351.938	3031.33333
1355.144	2983.66667
1358.347	2966.33333
1361.548	2971
1364.747	2976.33333
1367.944	2952.33333
1371.138	2972
1374.329	2982.33333
1377.518	3033.66667
1380.705	3039
1383.89	3014.33333
1387.072	2923.33333
1390.252	2819.33333
1393.429	2734.33333
1396.605	2681.33333
1399.777	2605.33333
1402.948	2599.33333
1406.116	2552.66667
1409.282	2551.66667
1412.445	2567
1415.606	2638
1418.765	2648
1421.921	2713
1425.075	2773.33333
1428.227	2862
1431.376	2958
1434.524	3069.33333
1437.668	3124
1440.811	3137
1443.951	3165.33333
1447.089	3184.66667
1450.224	3188.66667
1453.357	3144
1456.488	3126.33333
1459.617	3089
1462.743	3039
1465.867	2947.33333
1468.989	2930.33333
1472.108	2878.66667
1475.225	2821
1478.34	2829
1481.453	2803.33333
1484.563	2807.33333
1487.671	2847.33333
1490.776	2902
1493.88	2932
1496.981	3015.33333
1500.08	3084.33333
1503.176	3108.33333
1506.271	3170.66667
1509.363	3200.33333
1512.452	3242.66667
1515.54	3286.66667
1518.625	3375.33333
1521.708	3514
1524.789	3675
1527.867	3881
1530.944	4127.66667
1534.018	4343
1537.089	4499.66667
1540.159	4500.33333
1543.226	4380
1546.291	4227.66667
1549.354	4105
1552.415	3954.33333
1555.473	3848.66667
1558.529	3762.33333
1561.583	3706.66667
1564.634	3686.66667
1567.684	3656.66667
1570.731	3658.66667
1573.776	3668.33333
1576.819	3686.33333
1579.859	3688.66667
1582.898	3761.33333
1585.934	3787.33333
1588.968	3792
1591.999	3768
1595.029	3793
1598.056	3816.66667
1601.081	3825
1604.104	3820
1607.125	3762.33333
1610.144	3662.33333
1613.16	3575.33333
1616.174	3491.33333
1619.186	3409
1622.196	3299.66667
1625.203	3215
1628.209	3174.66667
1631.212	3131.66667
1634.213	3102.33333
1637.212	3085
1640.209	3022
1643.203	2940.66667
1646.196	2867
1649.186	2774
1652.174	2699.33333
1655.16	2608.33333
1658.144	2539.33333
1661.125	2417.66667
1664.105	2311.33333
1667.082	2211.66667
1670.057	2098
1673.03	1959.33333
1676.001	1863.33333
1678.97	1734
1681.937	1656.33333
1684.901	1556.66667
1687.863	1514.66667
1690.824	1457.66667
1693.782	1441
1696.738	1373.66667
1699.692	1355.66667
1702.643	1317.66667
1705.593	1306.66667
1708.54	1285.33333
1711.486	1281.33333
1714.429	1254.33333
1717.37	1235.33333
1720.309	1213.66667
1723.246	1223.66667
1726.181	1192.33333
1729.113	1183.33333
1732.044	1179
1734.972	1162.33333
1737.899	1150.33333
1740.823	1156.66667
1743.745	1165.33333
1746.665	1107.33333
1749.583	1085.33333
1752.499	1083
1755.413	1055.66667
1758.325	1053.33333
1761.235	1052.33333
1764.142	1011
1767.048	1021.33333
1769.951	1010.33333
1772.852	997.66667
1775.752	992.33333
1778.649	1012.66667
1781.544	994
1784.437	973.33333
1787.328	983
1790.217	962.33333
1793.104	952.66667
1795.989	939.33333
1798.872	926.66667
1801.753	957
1804.631	950.66667
1807.508	961
1810.383	945.33333
1813.255	935.66667
1816.126	932.66667
1818.994	934.66667
1821.861	916.33333
1824.725	918.66667
1827.587	918.66667
1830.448	914.66667
1833.306	887.33333
1836.162	898.66667
1839.017	893
1841.869	895.66667
1844.719	888.66667
1847.567	861.66667
1850.414	850
1853.258	869.66667
1856.1	891.66667
1858.94	876.66667
1861.778	879
1864.614	870.66667
1867.448	866
1870.28	849.66667
1873.111	869.66667
1875.939	869.33333
1878.765	885.33333
1881.589	860.66667
1884.411	869.33333
1887.231	872.33333
1890.049	860.33333
1892.865	864.66667
1895.68	847
1898.492	857.66667
1901.302	839.33333
1904.11	836.66667
1906.916	833
1909.721	823
1912.523	835.33333
1915.323	812.33333
1918.122	817
1920.918	827.66667
1923.712	820.66667
1926.505	821.33333
1929.295	810.33333
1932.084	822.66667
1934.87	814.33333
1937.655	810
1940.438	807
1943.218	797.33333
1945.997	813
1948.774	833.33333
1951.549	816
1954.322	802.66667
1957.093	813.33333
1959.862	799.33333
1962.629	798
1965.394	788.66667
1968.157	772.33333
1970.918	787
1973.678	777
1976.435	797.66667
1979.19	769.66667
1981.944	773
1984.696	769.33333
1987.445	751.66667
1990.193	767.66667
1992.939	778.33333
1995.683	787
1998.425	741.33333
2001.165	775.66667
2003.903	760.33333
2006.639	758.66667
2009.374	746.33333
2012.106	768.33333
2014.837	739.66667
2017.566	760.33333
2020.292	753
2023.017	748.33333
2025.74	737.66667
2028.461	737.66667
2031.18	742
2033.898	729
2036.613	740.33333
2039.327	742
2042.038	711.66667
2044.748	729.33333
2047.456	730.33333
2050.162	717
2052.866	721.33333
2055.568	721.66667
2058.268	724
2060.967	722.33333
2063.663	708.66667
2066.358	718.33333
2069.051	704.33333
2071.742	716.33333
2074.431	717
2077.118	722
2079.804	706.33333
2082.487	714.33333
2085.169	725.33333
2087.849	747.33333
2090.527	728
2093.203	738
2095.877	737.66667
2098.55	735.66667
2101.22	765.33333
2103.889	773.33333
2106.556	772.33333
2109.221	823
2111.884	856
2114.546	922.33333
2117.205	997.66667
2119.863	1096.66667
2122.519	1182.66667
2125.173	1261.33333
2127.825	1340
2130.475	1346.33333
2133.124	1303.66667
2135.771	1250.33333
2138.416	1194.66667
2141.059	1094.33333
2143.7	1059.66667
2146.339	972
2148.977	912
2151.613	913.33333
2154.247	876.33333
2156.879	845.66667
2159.51	835.66667
2162.138	798.33333
2164.765	790
2167.39	775.33333
2170.013	784.33333
2172.634	787.33333
2175.254	770.66667
2177.872	790.33333
2180.488	744
2183.102	749.66667
2185.714	742.33333
2188.325	704.66667
2190.934	712.33333
2193.541	705.33333
2196.146	691
2198.75	680.66667
2201.351	688.33333
2203.951	658
2206.549	669.33333
2209.146	660.33333
2211.74	648
2214.333	655.66667
2216.924	634.66667
2219.514	639
2222.101	619
2224.687	648
2227.271	620
2229.853	607
2232.433	610
2235.012	622
2237.589	619
2240.164	615
2242.738	617.33333
2245.309	591
2247.879	598.33333
2250.448	610.33333
2253.014	589
2255.579	578.33333
2258.142	585.33333
2260.703	568
2263.262	563.66667
2265.82	560.33333
2268.376	562
2270.93	552.33333
2273.483	552.33333
2276.033	554
2278.583	541
2281.13	550.33333
2283.675	531.33333
2286.219	539.66667
2288.761	540.66667
2291.302	548
2293.841	544
2296.377	522.33333
2298.913	528.66667
2301.446	542.33333
2303.978	523.33333
2306.508	520
2309.037	525
2311.563	533
2314.088	529
2316.612	510
2319.133	519
2321.653	522
2324.171	502.33333
2326.688	529.33333
2329.202	509.66667
2331.715	505.33333
2334.227	491.66667
2336.736	501.66667
2339.244	497.33333
2341.751	496.66667
2344.255	501
2346.758	490.33333
2349.259	491.66667
2351.759	485.66667
2354.257	490.33333
2356.753	491
2359.247	480
2361.74	490.66667
2364.231	482.66667
2366.721	492
2369.209	476.66667
2371.695	480.66667
2374.179	473.66667
2376.662	468.66667
2379.143	498.66667
2381.622	475
2384.1	479.33333
2386.576	468.33333
2389.051	487.66667
2391.524	485.33333
2393.995	480
2396.464	466
2398.932	461
2401.398	464
2403.863	459
2406.325	455
2408.787	458.33333
2411.246	457.33333
2413.704	461
2416.16	464
2418.615	456.33333
2421.068	474.33333
2423.519	454.66667
2425.969	446.66667
2428.417	449.33333
2430.863	469.66667
2433.308	466.33333
2435.751	462
2438.193	451.66667
2440.633	460
2443.071	454
2445.508	446.33333
2447.943	441
2450.376	436.33333
2452.808	447
2455.238	438.33333
2457.667	468
2460.093	442.33333
2462.519	424.33333
2464.942	435.66667
2467.365	442
2469.785	437.66667
2472.204	435.33333
2474.621	424.66667
2477.037	446.66667
2479.451	428.33333
2481.863	429.66667
2484.274	417
2486.683	428
2489.091	437
2491.497	429.66667
2493.901	418.66667
2496.304	412
2498.705	426.33333
2501.105	417.66667
2503.503	446.33333
2505.899	418
2508.294	434.33333
2510.687	407.33333
2513.079	414.66667
2515.469	407
2517.858	403.66667
2520.245	430.33333
2522.63	412.33333
2525.014	408.66667
2527.396	399.33333
2529.776	398.33333
2532.156	417.33333
2534.533	403.33333
2536.909	398.66667
2539.283	389.66667
2541.656	391.66667
2544.027	421.66667
2546.397	399.33333
2548.765	403
2551.131	403
2553.496	403.66667
2555.86	405
2558.221	399.66667
2560.582	391.66667
2562.94	388.66667
2565.298	390.33333
2567.653	415.33333
2570.007	376.66667
2572.36	392.66667
2574.711	386
2577.06	407.66667
2579.408	392.66667
2581.754	390.33333
2584.099	386.33333
2586.442	382.66667
2588.784	400
2591.124	389
2593.463	390
2595.8	384.33333
2598.135	365.66667
2600.469	389.66667
2602.802	394.66667
2605.133	396.33333
2607.462	381.33333
2609.79	375.33333
2612.116	388
2614.441	381
2616.764	387
2619.086	373.33333
2621.406	378
2623.725	394.33333
2626.042	392.33333
2628.358	377
2630.672	376.66667
2632.985	390.66667
2635.296	378
2637.606	378.66667
2639.914	373
2642.22	390
2644.525	385.33333
2646.829	393.33333
2649.131	399.66667
2651.432	397.66667
2653.731	378.33333
2656.028	392.66667
2658.324	384
2660.619	374.66667
2662.912	392.66667
2665.204	371.33333
2667.494	389.33333
2669.782	379.66667
2672.07	388.33333
2674.355	402.66667
2676.639	387
2678.922	379.66667
2681.203	402.33333
2683.483	377.33333
2685.761	377.66667
2688.038	395.33333
2690.313	404.33333
2692.587	395
2694.859	386.66667
2697.13	386
2699.399	392.66667
2701.667	408
2703.933	401.66667
2706.198	407.66667
2708.461	403.66667
2710.723	404.33333
2712.984	405.33333
2715.243	418.66667
2717.5	412.33333
2719.757	425.33333
2722.011	408.66667
2724.264	424
2726.516	436.33333
2728.766	412.66667
2731.015	420.66667
2733.262	411
2735.508	414.66667
2737.753	409.66667
2739.996	395.33333
2742.237	397
2744.477	415.33333
2746.716	408.66667
2748.953	405
2751.189	408.33333
2753.423	395.33333
2755.656	397.66667
2757.887	385
2760.117	395.66667
2762.346	389.33333
2764.573	384
2766.798	382.66667
2769.022	395.33333
2771.245	397
2773.467	393.66667
2775.686	395.33333
2777.905	397
2780.122	411.66667
2782.337	414.66667
2784.552	405.66667
2786.764	410.33333
2788.976	422
2791.186	426.33333
2793.394	435
2795.601	431.66667
2797.807	434.66667
2800.011	448.66667
2802.214	461.33333
2804.415	455
2806.615	457.33333
2808.814	468
2811.011	475.33333
2813.206	474.33333
2815.401	495.66667
2817.594	508.33333
2819.785	503.66667
2821.975	506.33333
2824.164	513.66667
2826.351	530.66667
2828.537	542
2830.722	555
2832.905	546
2835.086	590.66667
2837.267	621.66667
2839.445	633
2841.623	639
2843.799	684.33333
2845.974	691
2848.147	734
2850.319	743.66667
2852.489	770
2854.659	780
2856.826	798
2858.993	814
2861.158	792.66667
2863.321	795
2865.483	820
2867.644	821.33333
2869.804	827
2871.962	803.66667
2874.118	821.66667
2876.274	832
2878.428	831.33333
2880.58	813.66667
2882.731	794.66667
2884.881	795.33333
2887.03	798.33333
2889.177	789.66667
2891.322	813.66667
2893.467	782.33333
2895.61	799
2897.751	811.33333
2899.892	807.66667
2902.03	805.66667
2904.168	816.66667
2906.304	806
2908.439	848.33333
2910.572	807.66667
2912.704	832.33333
2914.835	825.66667
2916.965	824
2919.093	836
2921.219	793.33333
2923.345	817
2925.469	793
2927.591	786
2929.712	760
2931.832	748.66667
2933.951	735
2936.068	715
2938.184	684
2940.299	663
2942.412	658.66667
2944.524	618.33333
2946.634	610.66667
2948.744	549.33333
2950.851	586.66667
2952.958	534.33333
2955.063	537
2957.167	523.66667
2959.269	488.33333
2961.371	509.33333
2963.471	461.33333
2965.569	476.66667
2967.666	438.66667
2969.762	436
2971.857	419.66667
2973.95	411.66667
2976.042	406.33333
2978.133	386
2980.222	388
2982.31	357.66667
2984.396	346.66667
2986.482	354
2988.566	357
2990.648	336.66667
2992.73	334.66667
2994.81	322.33333
2996.889	324
2998.966	320.66667
3001.042	325
3003.117	310
3005.191	317.66667
3007.263	310.33333
3009.334	306.33333
3011.403	301.33333
3013.472	277.33333
3015.539	295.33333
3017.604	302
3019.669	269
3021.732	267.66667
3023.794	279
3025.854	265
3027.914	261
3029.971	270
3032.028	262.66667
3034.083	264.66667
3036.137	261
3038.19	250.33333
3040.242	238
3042.292	230
3044.341	233.33333
3046.388	244
3048.435	222.33333
3050.48	238.33333
3052.524	236
3054.566	213.33333
3056.607	226.33333
3058.647	222.33333
3060.686	200.33333
3062.723	192.33333
3064.759	193.33333
3066.794	-0.33333
3068.828	-1.66667
3070.86	-0.33333
