-0.839	309.20833
3.438	334.875
7.711	100.875
11.981	51.54167
16.247	43.54167
20.509	42.20833
24.768	45.20833
29.024	44.54167
33.276	40.54167
37.524	48.20833
41.769	38.875
46.01	38.875
50.247	50.20833
54.481	61.54167
58.712	64.875
62.939	48.54167
67.162	58.875
71.382	55.20833
75.599	47.20833
79.812	65.875
84.021	81.875
88.227	57.875
92.429	58.875
96.628	47.20833
100.823	67.54167
105.015	79.54167
109.204	73.20833
113.388	69.54167
117.57	73.54167
121.748	89.20833
125.922	77.875
130.093	96.875
134.261	103.54167
138.425	92.54167
142.585	135.875
146.742	126.875
150.896	158.875
155.046	195.54167
159.193	308.20833
163.336	518.875
167.476	954.20833
171.613	1752.875
175.746	2897.54167
179.875	4295.54167
184.002	5565.20833
188.124	6402.875
192.244	6689.54167
196.36	6648.875
200.472	6469.875
204.581	6321.875
208.687	6179.20833
212.79	6116.54167
216.889	6176.54167
220.984	6267.54167
225.077	6305.54167
229.165	6384.875
233.251	6451.875
237.333	6516.54167
241.412	6490.875
245.487	6457.20833
249.559	6428.875
253.628	6373.54167
257.694	6268.20833
261.756	6181.20833
265.814	6037.20833
269.87	5909.875
273.922	5719.20833
277.97	5641.54167
282.016	5584.875
286.058	5585.20833
290.097	5608.54167
294.132	5591.875
298.164	5484.875
302.193	5216.875
306.219	4835.20833
310.241	4396.20833
314.26	3999.875
318.276	3701.875
322.288	3481.875
326.297	3273.54167
330.303	3130.875
334.305	3031.875
338.305	2975.875
342.301	2940.54167
346.294	2906.875
350.283	2871.875
354.269	2852.20833
358.252	2806.875
362.232	2799.54167
366.209	2773.875
370.182	2747.20833
374.152	2734.875
378.119	2730.54167
382.083	2741.54167
386.043	2758.20833
390	2692.20833
393.954	2678.20833
397.905	2654.875
401.852	2657.875
405.797	2598.20833
409.738	2585.875
413.676	2596.20833
417.61	2589.20833
421.542	2529.54167
425.47	2502.20833
429.396	2484.875
433.318	2483.875
437.236	2441.20833
441.152	2451.54167
445.065	2392.54167
448.974	2407.875
452.88	2379.54167
456.783	2365.54167
460.683	2359.54167
464.58	2360.54167
468.473	2372.54167
472.364	2369.875
476.251	2350.54167
480.135	2388.54167
484.016	2404.875
487.894	2433.20833
491.769	2437.20833
495.641	2452.20833
499.509	2411.20833
503.375	2431.54167
507.237	2414.875
511.096	2380.875
514.952	2418.54167
518.805	2416.54167
522.655	2419.20833
526.502	2400.54167
530.346	2383.20833
534.187	2384.54167
538.024	2392.54167
541.859	2394.54167
545.69	2417.54167
549.519	2385.20833
553.344	2389.20833
557.166	2334.20833
560.985	2318.875
564.802	2298.54167
568.615	2259.875
572.425	2238.875
576.232	2237.875
580.036	2213.20833
583.836	2238.875
587.634	2225.875
591.429	2229.20833
595.221	2265.875
599.01	2293.20833
602.796	2308.54167
606.578	2330.54167
610.358	2325.54167
614.135	2338.875
617.909	2325.54167
621.679	2307.54167
625.447	2296.54167
629.212	2316.875
632.973	2308.20833
636.732	2298.20833
640.488	2325.875
644.241	2272.875
647.991	2247.54167
651.737	2272.20833
655.481	2257.20833
659.222	2245.20833
662.96	2251.54167
666.695	2265.875
670.427	2276.875
674.156	2291.20833
677.882	2300.54167
681.605	2273.20833
685.325	2251.20833
689.043	2269.20833
692.757	2256.20833
696.468	2280.20833
700.177	2283.54167
703.882	2275.875
707.585	2273.20833
711.284	2271.875
714.981	2291.875
718.675	2286.54167
722.366	2309.20833
726.054	2276.20833
729.739	2288.875
733.421	2296.875
737.1	2280.20833
740.777	2298.20833
744.45	2323.54167
748.121	2344.20833
751.789	2382.54167
755.453	2399.20833
759.115	2391.54167
762.774	2427.20833
766.431	2434.54167
770.084	2449.54167
773.734	2465.20833
777.382	2513.20833
781.027	2579.54167
784.669	2555.20833
788.308	2564.875
791.944	2611.54167
795.577	2608.875
799.208	2663.875
802.835	2651.54167
806.46	2686.20833
810.082	2686.20833
813.701	2694.20833
817.317	2715.20833
820.931	2716.20833
824.542	2719.54167
828.149	2694.875
831.754	2658.20833
835.357	2647.20833
838.956	2673.20833
842.553	2644.875
846.146	2637.875
849.737	2611.20833
853.326	2622.20833
856.911	2627.54167
860.493	2680.54167
864.073	2675.875
867.65	2747.20833
871.225	2768.54167
874.796	2768.20833
878.365	2751.875
881.931	2773.54167
885.494	2802.20833
889.054	2804.875
892.612	2830.875
896.166	2789.875
899.719	2736.20833
903.268	2716.54167
906.814	2690.875
910.358	2679.54167
913.899	2668.20833
917.438	2703.54167
920.973	2669.20833
924.506	2713.54167
928.036	2749.20833
931.564	2780.20833
935.088	2797.54167
938.61	2783.54167
942.129	2831.54167
945.646	2893.54167
949.16	2972.875
952.671	3017.875
956.179	3036.54167
959.685	2999.54167
963.188	2995.20833
966.688	2949.20833
970.185	2879.875
973.68	2841.54167
977.173	2810.875
980.662	2821.875
984.149	2811.54167
987.633	2858.54167
991.114	2878.875
994.593	2974.54167
998.069	3063.54167
1001.542	3144.20833
1005.013	3030.875
1008.481	2883.20833
1011.947	2846.875
1015.409	2826.875
1018.869	2821.875
1022.327	2815.875
1025.782	2805.875
1029.234	2803.875
1032.683	2778.20833
1036.13	2677.54167
1039.574	2602.54167
1043.016	2509.20833
1046.455	2494.20833
1049.891	2436.54167
1053.325	2447.875
1056.756	2450.54167
1060.184	2460.54167
1063.61	2476.875
1067.033	2494.875
1070.454	2476.875
1073.872	2515.54167
1077.287	2540.20833
1080.7	2528.54167
1084.11	2526.54167
1087.517	2512.54167
1090.922	2500.875
1094.325	2467.54167
1097.724	2446.54167
1101.122	2436.875
1104.516	2394.20833
1107.908	2423.54167
1111.298	2480.54167
1114.684	2500.20833
1118.069	2513.875
1121.45	2532.54167
1124.83	2525.875
1128.206	2566.54167
1131.58	2588.875
1134.951	2651.20833
1138.32	2727.54167
1141.687	2832.54167
1145.05	2884.54167
1148.412	2897.20833
1151.77	2894.20833
1155.126	2898.875
1158.48	2898.54167
1161.831	2914.20833
1165.18	2922.20833
1168.525	2984.875
1171.869	3024.20833
1175.21	3046.54167
1178.548	3089.54167
1181.884	3131.20833
1185.217	3136.875
1188.548	3182.20833
1191.877	3219.54167
1195.202	3311.54167
1198.526	3345.875
1201.846	3351.54167
1205.165	3353.54167
1208.48	3336.20833
1211.794	3330.54167
1215.104	3339.875
1218.413	3350.54167
1221.719	3328.54167
1225.022	3312.54167
1228.323	3277.54167
1231.621	3286.54167
1234.917	3281.20833
1238.21	3310.20833
1241.501	3281.875
1244.79	3297.54167
1248.076	3318.54167
1251.359	3338.875
1254.64	3394.875
1257.919	3421.54167
1261.195	3451.54167
1264.468	3512.20833
1267.74	3555.875
1271.008	3558.20833
1274.275	3539.20833
1277.538	3501.875
1280.8	3489.875
1284.059	3473.875
1287.315	3505.20833
1290.569	3561.875
1293.821	3563.20833
1297.07	3574.54167
1300.317	3580.875
1303.562	3577.20833
1306.803	3530.20833
1310.043	3492.54167
1313.28	3427.54167
1316.515	3414.20833
1319.747	3365.54167
1322.977	3327.20833
1326.204	3307.875
1329.429	3227.875
1332.652	3221.54167
1335.872	3207.875
1339.09	3199.54167
1342.306	3222.20833
1345.519	3178.20833
1348.729	3175.875
1351.938	3145.875
1355.144	3104.20833
1358.347	3063.875
1361.548	3064.54167
1364.747	3070.54167
1367.944	3070.875
1371.138	3098.54167
1374.329	3124.20833
1377.518	3116.54167
1380.705	3161.875
1383.89	3125.875
1387.072	3062.875
1390.252	2945.875
1393.429	2853.54167
1396.605	2775.20833
1399.777	2688.20833
1402.948	2674.54167
1406.116	2646.54167
1409.282	2652.54167
1412.445	2652.54167
1415.606	2707.20833
1418.765	2739.20833
1421.921	2787.875
1425.075	2874.20833
1428.227	2961.54167
1431.376	3070.875
1434.524	3173.54167
1437.668	3238.20833
1440.811	3270.875
1443.951	3297.54167
1447.089	3272.20833
1450.224	3282.875
1453.357	3275.54167
1456.488	3231.54167
1459.617	3194.54167
1462.743	3148.20833
1465.867	3056.54167
1468.989	3022.20833
1472.108	2977.20833
1475.225	2913.54167
1478.34	2891.875
1481.453	2887.875
1484.563	2912.54167
1487.671	2932.875
1490.776	2980.875
1493.88	3025.875
1496.981	3088.20833
1500.08	3145.54167
1503.176	3167.20833
1506.271	3231.875
1509.363	3306.875
1512.452	3330.20833
1515.54	3404.875
1518.625	3448.20833
1521.708	3598.875
1524.789	3794.875
1527.867	4000.20833
1530.944	4271.20833
1534.018	4485.20833
1537.089	4650.875
1540.159	4606.875
1543.226	4508.875
1546.291	4369.54167
1549.354	4220.20833
1552.415	4072.20833
1555.473	3936.875
1558.529	3872.875
1561.583	3824.875
1564.634	3754.875
1567.684	3764.20833
1570.731	3729.875
1573.776	3759.875
1576.819	3762.20833
1579.859	3796.875
1582.898	3848.54167
1585.934	3896.20833
1588.968	3894.875
1591.999	3877.54167
1595.029	3882.20833
1598.056	3903.54167
1601.081	3910.20833
1604.104	3897.20833
1607.125	3879.20833
1610.144	3799.875
1613.16	3707.54167
1616.174	3590.20833
1619.186	3524.875
1622.196	3413.875
1625.203	3340.875
1628.209	3309.875
1631.212	3288.875
1634.213	3258.875
1637.212	3218.875
1640.209	3170.20833
1643.203	3093.875
1646.196	3014.20833
1649.186	2933.20833
1652.174	2830.875
1655.16	2763.20833
1658.144	2641.54167
1661.125	2557.54167
1664.105	2424.875
1667.082	2335.54167
1670.057	2188.875
1673.03	2060.54167
1676.001	1931.54167
1678.97	1835.875
1681.937	1721.54167
1684.901	1615.20833
1687.863	1567.20833
1690.824	1512.875
1693.782	1504.20833
1696.738	1433.54167
1699.692	1407.20833
1702.643	1389.20833
1705.593	1367.875
1708.54	1359.54167
1711.486	1345.54167
1714.429	1313.875
1717.37	1316.20833
1720.309	1262.54167
1723.246	1274.875
1726.181	1255.54167
1729.113	1250.875
1732.044	1228.20833
1734.972	1228.54167
1737.899	1222.875
1740.823	1211.54167
1743.745	1222.20833
1746.665	1166.875
1749.583	1165.54167
1752.499	1123.54167
1755.413	1112.54167
1758.325	1084.875
1761.235	1100.54167
1764.142	1056.875
1767.048	1062.54167
1769.951	1044.54167
1772.852	1044.20833
1775.752	1059.54167
1778.649	1057.20833
1781.544	1047.54167
1784.437	1025.54167
1787.328	1021.875
1790.217	1015.875
1793.104	999.20833
1795.989	992.20833
1798.872	980.54167
1801.753	995.20833
1804.631	994.875
1807.508	997.54167
1810.383	978.875
1813.255	977.875
1816.126	985.20833
1818.994	979.20833
1821.861	965.54167
1824.725	965.54167
1827.587	979.20833
1830.448	958.54167
1833.306	929.20833
1836.162	941.20833
1839.017	931.20833
1841.869	930.54167
1844.719	939.54167
1847.567	924.54167
1850.414	920.54167
1853.258	912.20833
1856.1	918.875
1858.94	945.54167
1861.778	921.875
1864.614	910.20833
1867.448	931.54167
1870.28	908.54167
1873.111	923.54167
1875.939	922.20833
1878.765	926.20833
1881.589	899.875
1884.411	910.54167
1887.231	916.54167
1890.049	898.54167
1892.865	898.875
1895.68	882.20833
1898.492	885.20833
1901.302	885.875
1904.11	885.20833
1906.916	868.20833
1909.721	865.875
1912.523	883.875
1915.323	845.54167
1918.122	849.54167
1920.918	864.54167
1923.712	848.54167
1926.505	852.54167
1929.295	841.20833
1932.084	869.20833
1934.87	856.20833
1937.655	836.54167
1940.438	844.20833
1943.218	852.20833
1945.997	846.20833
1948.774	859.54167
1951.549	854.54167
1954.322	835.875
1957.093	840.20833
1959.862	848.875
1962.629	820.54167
1965.394	830.54167
1968.157	810.54167
1970.918	824.54167
1973.678	812.20833
1976.435	812.20833
1979.19	805.54167
1981.944	812.54167
1984.696	798.875
1987.445	798.875
1990.193	799.54167
1992.939	811.875
1995.683	797.20833
1998.425	782.54167
2001.165	804.875
2003.903	789.54167
2006.639	784.875
2009.374	789.54167
2012.106	801.875
2014.837	767.875
2017.566	799.54167
2020.292	788.54167
2023.017	794.875
2025.74	776.54167
2028.461	772.20833
2031.18	772.875
2033.898	765.54167
2036.613	769.875
2039.327	770.875
2042.038	752.875
2044.748	767.20833
2047.456	755.54167
2050.162	754.875
2052.866	756.875
2055.568	759.20833
2058.268	763.875
2060.967	757.20833
2063.663	741.875
2066.358	741.20833
2069.051	752.875
2071.742	736.54167
2074.431	754.20833
2077.118	742.54167
2079.804	739.54167
2082.487	750.875
2085.169	755.54167
2087.849	771.20833
2090.527	755.20833
2093.203	763.875
2095.877	785.20833
2098.55	785.875
2101.22	792.875
2103.889	800.20833
2106.556	805.54167
2109.221	846.875
2111.884	882.54167
2114.546	944.54167
2117.205	1034.54167
2119.863	1121.20833
2122.519	1206.20833
2125.173	1299.54167
2127.825	1377.54167
2130.475	1391.875
2133.124	1341.875
2135.771	1283.54167
2138.416	1245.54167
2141.059	1129.875
2143.7	1076.875
2146.339	1019.20833
2148.977	973.54167
2151.613	937.20833
2154.247	900.20833
2156.879	872.20833
2159.51	854.20833
2162.138	838.875
2164.765	827.875
2167.39	829.20833
2170.013	888.875
2172.634	828.54167
2175.254	786.20833
2177.872	811.875
2180.488	785.875
2183.102	784.875
2185.714	763.54167
2188.325	727.20833
2190.934	741.20833
2193.541	740.54167
2196.146	723.54167
2198.75	704.20833
2201.351	710.54167
2203.951	680.875
2206.549	702.20833
2209.146	681.875
2211.74	676.875
2214.333	681.875
2216.924	651.875
2219.514	678.54167
2222.101	644.54167
2224.687	670.875
2227.271	649.54167
2229.853	642.54167
2232.433	629.875
2235.012	646.875
2237.589	641.875
2240.164	648.20833
2242.738	632.20833
2245.309	625.875
2247.879	628.875
2250.448	638.54167
2253.014	611.875
2255.579	594.20833
2258.142	604.875
2260.703	594.875
2263.262	592.875
2265.82	581.20833
2268.376	594.54167
2270.93	573.875
2273.483	576.54167
2276.033	586.20833
2278.583	567.20833
2281.13	579.20833
2283.675	559.54167
2286.219	568.54167
2288.761	559.54167
2291.302	567.54167
2293.841	560.54167
2296.377	537.20833
2298.913	555.20833
2301.446	566.20833
2303.978	549.875
2306.508	540.54167
2309.037	546.20833
2311.563	537.20833
2314.088	555.20833
2316.612	524.875
2319.133	543.875
2321.653	538.20833
2324.171	535.875
2326.688	535.54167
2329.202	531.20833
2331.715	529.875
2334.227	523.875
2336.736	529.20833
2339.244	509.54167
2341.751	507.20833
2344.255	529.875
2346.758	512.875
2349.259	513.875
2351.759	511.875
2354.257	511.54167
2356.753	504.20833
2359.247	511.875
2361.74	511.20833
2364.231	499.54167
2366.721	507.875
2369.209	507.20833
2371.695	500.875
2374.179	497.54167
2376.662	489.875
2379.143	511.54167
2381.622	501.54167
2384.1	501.54167
2386.576	498.875
2389.051	498.54167
2391.524	506.875
2393.995	506.54167
2396.464	480.875
2398.932	480.20833
2401.398	488.20833
2403.863	475.875
2406.325	485.875
2408.787	475.54167
2411.246	483.875
2413.704	476.875
2416.16	475.875
2418.615	470.875
2421.068	483.54167
2423.519	476.875
2425.969	464.20833
2428.417	471.875
2430.863	497.54167
2433.308	479.20833
2435.751	466.875
2438.193	469.54167
2440.633	472.20833
2443.071	466.20833
2445.508	453.20833
2447.943	464.20833
2450.376	456.20833
2452.808	463.875
2455.238	452.875
2457.667	480.20833
2460.093	455.20833
2462.519	447.875
2464.942	449.54167
2467.365	453.875
2469.785	446.20833
2472.204	447.54167
2474.621	434.875
2477.037	462.54167
2479.451	432.20833
2481.863	442.54167
2484.274	435.54167
2486.683	440.54167
2489.091	454.20833
2491.497	438.875
2493.901	443.875
2496.304	440.54167
2498.705	437.20833
2501.105	433.875
2503.503	459.875
2505.899	424.54167
2508.294	452.54167
2510.687	419.54167
2513.079	419.875
2515.469	424.20833
2517.858	427.20833
2520.245	442.875
2522.63	424.875
2525.014	422.20833
2527.396	414.20833
2529.776	418.54167
2532.156	427.875
2534.533	411.54167
2536.909	418.20833
2539.283	404.54167
2541.656	419.54167
2544.027	431.875
2546.397	419.54167
2548.765	414.875
2551.131	417.54167
2553.496	410.20833
2555.86	425.54167
2558.221	409.54167
2560.582	416.20833
2562.94	393.875
2565.298	405.20833
2567.653	422.54167
2570.007	392.875
2572.36	410.54167
2574.711	401.20833
2577.06	417.875
2579.408	402.20833
2581.754	407.875
2584.099	408.20833
2586.442	395.54167
2588.784	410.20833
2591.124	406.20833
2593.463	402.54167
2595.8	395.875
2598.135	384.54167
2600.469	393.875
2602.802	419.20833
2605.133	399.875
2607.462	389.875
2609.79	395.875
2612.116	403.54167
2614.441	396.20833
2616.764	401.54167
2619.086	385.875
2621.406	385.875
2623.725	404.20833
2626.042	397.20833
2628.358	387.20833
2630.672	383.54167
2632.985	416.875
2635.296	396.875
2637.606	395.875
2639.914	391.875
2642.22	394.875
2644.525	389.20833
2646.829	393.54167
2649.131	416.54167
2651.432	418.20833
2653.731	399.20833
2656.028	400.54167
2658.324	397.20833
2660.619	391.20833
2662.912	402.54167
2665.204	386.875
2667.494	404.875
2669.782	388.20833
2672.07	403.54167
2674.355	396.875
2676.639	391.875
2678.922	385.875
2681.203	410.875
2683.483	385.20833
2685.761	382.20833
2688.038	400.875
2690.313	406.875
2692.587	402.875
2694.859	384.54167
2697.13	405.20833
2699.399	403.20833
2701.667	423.20833
2703.933	414.875
2706.198	413.54167
2708.461	418.20833
2710.723	423.875
2712.984	417.54167
2715.243	422.875
2717.5	412.875
2719.757	431.20833
2722.011	420.54167
2724.264	436.20833
2726.516	438.54167
2728.766	423.875
2731.015	430.875
2733.262	424.20833
2735.508	423.54167
2737.753	428.20833
2739.996	414.20833
2742.237	404.20833
2744.477	428.54167
2746.716	424.20833
2748.953	412.20833
2751.189	415.20833
2753.423	407.20833
2755.656	402.875
2757.887	400.54167
2760.117	402.54167
2762.346	398.20833
2764.573	389.20833
2766.798	398.54167
2769.022	406.54167
2771.245	409.54167
2773.467	409.54167
2775.686	414.20833
2777.905	419.20833
2780.122	419.20833
2782.337	420.54167
2784.552	409.54167
2786.764	425.875
2788.976	429.54167
2791.186	433.875
2793.394	431.875
2795.601	445.875
2797.807	448.875
2800.011	447.54167
2802.214	463.20833
2804.415	462.875
2806.615	466.54167
2808.814	481.20833
2811.011	487.54167
2813.206	481.875
2815.401	507.54167
2817.594	514.20833
2819.785	529.20833
2821.975	510.875
2824.164	517.875
2826.351	532.20833
2828.537	552.20833
2830.722	569.20833
2832.905	570.20833
2835.086	599.54167
2837.267	617.875
2839.445	648.20833
2841.623	649.54167
2843.799	691.20833
2845.974	721.875
2848.147	749.54167
2850.319	775.20833
2852.489	795.54167
2854.659	796.54167
2856.826	833.875
2858.993	836.875
2861.158	820.20833
2863.321	820.54167
2865.483	841.875
2867.644	846.875
2869.804	840.875
2871.962	842.54167
2874.118	833.875
2876.274	855.20833
2878.428	828.20833
2880.58	828.875
2882.731	817.20833
2884.881	831.54167
2887.03	822.20833
2889.177	822.20833
2891.322	828.20833
2893.467	819.20833
2895.61	816.54167
2897.751	852.54167
2899.892	825.54167
2902.03	839.20833
2904.168	841.54167
2906.304	843.54167
2908.439	873.20833
2910.572	840.20833
2912.704	850.20833
2914.835	857.54167
2916.965	845.20833
2919.093	864.54167
2921.219	827.54167
2923.345	844.20833
2925.469	828.20833
2927.591	818.54167
2929.712	775.875
2931.832	769.875
2933.951	750.54167
2936.068	734.54167
2938.184	710.54167
2940.299	690.54167
2942.412	672.20833
2944.524	642.875
2946.634	628.20833
2948.744	561.20833
2950.851	603.875
2952.958	562.875
2955.063	550.20833
2957.167	542.54167
2959.269	507.875
2961.371	527.20833
2963.471	475.20833
2965.569	484.54167
2967.666	461.54167
2969.762	445.875
2971.857	424.875
2973.95	416.875
2976.042	417.54167
2978.133	398.54167
2980.222	394.20833
2982.31	375.20833
2984.396	356.54167
2986.482	360.20833
2988.566	360.875
2990.648	342.54167
2992.73	347.875
2994.81	331.20833
2996.889	337.20833
2998.966	327.875
3001.042	330.875
3003.117	316.875
3005.191	321.20833
3007.263	312.20833
3009.334	310.54167
3011.403	309.20833
3013.472	291.875
3015.539	300.20833
3017.604	308.875
3019.669	273.875
3021.732	271.875
3023.794	283.20833
3025.854	262.875
3027.914	266.20833
3029.971	271.20833
3032.028	262.54167
3034.083	271.20833
3036.137	266.54167
3038.19	249.54167
3040.242	244.20833
3042.292	238.54167
3044.341	241.20833
3046.388	249.875
3048.435	221.54167
3050.48	244.875
3052.524	238.20833
3054.566	214.54167
3056.607	228.20833
3058.647	228.54167
3060.686	207.875
3062.723	204.54167
3064.759	201.54167
3066.794	-0.45833
3068.828	-1.45833
3070.86	-2.45833
