-0.839	453.25
3.438	491.25
7.711	131.91667
11.981	58.58333
16.247	45.25
20.509	42.91667
24.768	44.25
29.024	48.25
33.276	43.25
37.524	49.25
41.769	42.91667
46.01	35.91667
50.247	53.25
54.481	59.91667
58.712	64.91667
62.939	47.91667
67.162	64.25
71.382	56.25
75.599	47.58333
79.812	63.91667
84.021	80.58333
88.227	60.58333
92.429	65.91667
96.628	51.25
100.823	71.25
105.015	81.25
109.204	81.91667
113.388	84.58333
117.57	81.91667
121.748	90.91667
125.922	85.25
130.093	106.25
134.261	116.91667
138.425	113.58333
142.585	153.58333
146.742	156.25
150.896	192.25
155.046	242.91667
159.193	400.58333
163.336	692.25
167.476	1286.58333
171.613	2339.25
175.746	3860.25
179.875	5710.91667
184.002	7348.58333
188.124	8402.25
192.244	8677.58333
196.36	8458.58333
200.472	8143.58333
204.581	7860.58333
208.687	7604.25
212.79	7446.58333
216.889	7358.25
220.984	7371.91667
225.077	7437.25
229.165	7468.25
233.251	7489.58333
237.333	7540.58333
241.412	7483.58333
245.487	7477.58333
249.559	7366.25
253.628	7270.91667
257.694	7188.25
261.756	7108.25
265.814	6976.91667
269.87	6747.25
273.922	6519.91667
277.97	6389.25
282.016	6308.25
286.058	6234.25
290.097	6267.91667
294.132	6275.25
298.164	6181.91667
302.193	5921.58333
306.219	5478.25
310.241	4987.58333
314.26	4492.58333
318.276	4108.58333
322.288	3856.91667
326.297	3638.58333
330.303	3451.91667
334.305	3325.91667
338.305	3252.91667
342.301	3208.25
346.294	3156.91667
350.283	3119.58333
354.269	3068.91667
358.252	3063.58333
362.232	2999.25
366.209	2952.58333
370.182	2925.91667
374.152	2899.91667
378.119	2885.91667
382.083	2874.91667
386.043	2908.25
390	2864.25
393.954	2833.58333
397.905	2806.91667
401.852	2799.58333
405.797	2737.25
409.738	2714.91667
413.676	2727.58333
417.61	2681.58333
421.542	2646.25
425.47	2635.91667
429.396	2587.91667
433.318	2598.25
437.236	2581.25
441.152	2594.58333
445.065	2530.91667
448.974	2528.91667
452.88	2491.58333
456.783	2470.91667
460.683	2451.91667
464.58	2449.25
468.473	2452.91667
472.364	2451.25
476.251	2457.25
480.135	2465.25
484.016	2490.58333
487.894	2505.25
491.769	2531.58333
495.641	2528.91667
499.509	2514.91667
503.375	2514.58333
507.237	2522.91667
511.096	2501.91667
514.952	2501.91667
518.805	2502.91667
522.655	2511.91667
526.502	2473.91667
530.346	2499.91667
534.187	2517.25
538.024	2520.91667
541.859	2522.91667
545.69	2522.25
549.519	2530.25
553.344	2475.58333
557.166	2441.91667
560.985	2424.58333
564.802	2408.25
568.615	2338.91667
572.425	2316.58333
576.232	2308.91667
580.036	2301.58333
583.836	2304.91667
587.634	2313.58333
591.429	2313.91667
595.221	2364.25
599.01	2379.58333
602.796	2410.91667
606.578	2444.91667
610.358	2451.58333
614.135	2407.25
617.909	2400.91667
621.679	2415.58333
625.447	2367.58333
629.212	2401.91667
632.973	2398.91667
636.732	2389.91667
640.488	2375.58333
644.241	2356.58333
647.991	2357.25
651.737	2376.25
655.481	2350.25
659.222	2338.25
662.96	2352.91667
666.695	2361.58333
670.427	2366.91667
674.156	2373.91667
677.882	2372.58333
681.605	2376.91667
685.325	2363.91667
689.043	2356.58333
692.757	2355.25
696.468	2369.91667
700.177	2359.91667
703.882	2337.58333
707.585	2340.58333
711.284	2369.58333
714.981	2381.25
718.675	2383.58333
722.366	2375.58333
726.054	2349.58333
729.739	2369.91667
733.421	2381.25
737.1	2371.25
740.777	2391.25
744.45	2400.25
748.121	2406.25
751.789	2459.58333
755.453	2462.25
759.115	2498.91667
762.774	2525.25
766.431	2525.25
770.084	2579.25
773.734	2606.58333
777.382	2667.25
781.027	2696.91667
784.669	2679.58333
788.308	2713.91667
791.944	2744.25
795.577	2753.25
799.208	2754.91667
802.835	2813.25
806.46	2813.58333
810.082	2855.58333
813.701	2854.58333
817.317	2878.91667
820.931	2876.25
824.542	2889.58333
828.149	2849.58333
831.754	2834.58333
835.357	2831.58333
838.956	2852.58333
842.553	2826.58333
846.146	2805.91667
849.737	2807.25
853.326	2790.91667
856.911	2837.25
860.493	2878.25
864.073	2892.91667
867.65	2947.58333
871.225	2986.91667
874.796	2996.91667
878.365	2972.91667
881.931	3020.58333
885.494	3047.91667
889.054	3050.25
892.612	3047.58333
896.166	3010.91667
899.719	2997.25
903.268	2945.91667
906.814	2927.58333
910.358	2899.25
913.899	2912.25
917.438	2928.58333
920.973	2905.25
924.506	2944.25
928.036	2979.25
931.564	3013.25
935.088	3038.58333
938.61	3039.25
942.129	3075.91667
945.646	3143.58333
949.16	3231.58333
952.671	3325.91667
956.179	3329.25
959.685	3271.25
963.188	3256.25
966.688	3182.25
970.185	3102.91667
973.68	3039.25
977.173	3060.58333
980.662	3001.25
984.149	3009.25
987.633	3034.25
991.114	3094.25
994.593	3191.58333
998.069	3296.91667
1001.542	3389.91667
1005.013	3309.58333
1008.481	3125.25
1011.947	3095.91667
1015.409	3100.25
1018.869	3100.58333
1022.327	3064.58333
1025.782	3051.25
1029.234	3018.58333
1032.683	3004.25
1036.13	2915.91667
1039.574	2788.91667
1043.016	2710.58333
1046.455	2669.25
1049.891	2627.91667
1053.325	2623.25
1056.756	2632.58333
1060.184	2673.91667
1063.61	2658.25
1067.033	2682.25
1070.454	2687.58333
1073.872	2730.91667
1077.287	2707.91667
1080.7	2724.91667
1084.11	2721.91667
1087.517	2705.58333
1090.922	2702.91667
1094.325	2670.25
1097.724	2634.25
1101.122	2638.91667
1104.516	2640.91667
1107.908	2623.91667
1111.298	2685.91667
1114.684	2705.58333
1118.069	2764.91667
1121.45	2778.91667
1124.83	2787.25
1128.206	2852.58333
1131.58	2879.91667
1134.951	2987.91667
1138.32	3076.58333
1141.687	3239.25
1145.05	3358.25
1148.412	3381.25
1151.77	3380.91667
1155.126	3393.58333
1158.48	3392.58333
1161.831	3420.91667
1165.18	3428.25
1168.525	3474.91667
1171.869	3531.25
1175.21	3572.91667
1178.548	3618.58333
1181.884	3636.58333
1185.217	3633.91667
1188.548	3682.91667
1191.877	3694.58333
1195.202	3767.25
1198.526	3803.58333
1201.846	3833.58333
1205.165	3779.58333
1208.48	3763.91667
1211.794	3723.25
1215.104	3739.25
1218.413	3725.91667
1221.719	3712.91667
1225.022	3658.58333
1228.323	3676.91667
1231.621	3634.91667
1234.917	3615.91667
1238.21	3658.58333
1241.501	3660.25
1244.79	3651.25
1248.076	3648.91667
1251.359	3679.91667
1254.64	3746.58333
1257.919	3777.58333
1261.195	3827.25
1264.468	3930.25
1267.74	3976.58333
1271.008	4006.91667
1274.275	3979.25
1277.538	3951.58333
1280.8	3938.58333
1284.059	3920.25
1287.315	3975.58333
1290.569	3981.91667
1293.821	4018.91667
1297.07	4026.58333
1300.317	4026.25
1303.562	3992.91667
1306.803	3975.25
1310.043	3927.25
1313.28	3878.58333
1316.515	3831.25
1319.747	3801.25
1322.977	3733.91667
1326.204	3688.91667
1329.429	3621.58333
1332.652	3591.25
1335.872	3596.91667
1339.09	3568.91667
1342.306	3581.91667
1345.519	3531.58333
1348.729	3494.91667
1351.938	3467.91667
1355.144	3413.58333
1358.347	3391.58333
1361.548	3375.58333
1364.747	3407.91667
1367.944	3376.25
1371.138	3394.58333
1374.329	3451.58333
1377.518	3480.25
1380.705	3535.25
1383.89	3512.91667
1387.072	3403.91667
1390.252	3258.25
1393.429	3161.25
1396.605	3055.58333
1399.777	2978.25
1402.948	2959.25
1406.116	2923.58333
1409.282	2927.91667
1412.445	2913.91667
1415.606	2966.58333
1418.765	2992.91667
1421.921	3068.91667
1425.075	3133.58333
1428.227	3259.58333
1431.376	3398.58333
1434.524	3531.25
1437.668	3613.58333
1440.811	3641.91667
1443.951	3687.58333
1447.089	3681.91667
1450.224	3682.91667
1453.357	3681.25
1456.488	3642.58333
1459.617	3596.58333
1462.743	3577.58333
1465.867	3494.25
1468.989	3473.25
1472.108	3401.91667
1475.225	3376.25
1478.34	3339.58333
1481.453	3362.91667
1484.563	3392.58333
1487.671	3432.25
1490.776	3491.58333
1493.88	3571.91667
1496.981	3686.58333
1500.08	3744.25
1503.176	3791.58333
1506.271	3869.58333
1509.363	3900.25
1512.452	3963.25
1515.54	4022.25
1518.625	4144.91667
1521.708	4272.58333
1524.789	4492.91667
1527.867	4768.58333
1530.944	5034.91667
1534.018	5292.58333
1537.089	5456.25
1540.159	5417.25
1543.226	5307.91667
1546.291	5114.25
1549.354	4965.91667
1552.415	4850.25
1555.473	4712.58333
1558.529	4624.25
1561.583	4573.25
1564.634	4566.25
1567.684	4526.91667
1570.731	4541.91667
1573.776	4579.58333
1576.819	4654.25
1579.859	4678.25
1582.898	4745.91667
1585.934	4764.25
1588.968	4758.58333
1591.999	4748.25
1595.029	4741.91667
1598.056	4720.25
1601.081	4744.25
1604.104	4716.58333
1607.125	4640.58333
1610.144	4556.25
1613.16	4433.25
1616.174	4321.25
1619.186	4206.58333
1622.196	4116.25
1625.203	3968.58333
1628.209	3917.91667
1631.212	3824.25
1634.213	3773.91667
1637.212	3702.58333
1640.209	3612.25
1643.203	3484.58333
1646.196	3374.25
1649.186	3256.91667
1652.174	3142.58333
1655.16	3034.91667
1658.144	2920.25
1661.125	2786.58333
1664.105	2636.25
1667.082	2534.58333
1670.057	2404.91667
1673.03	2249.58333
1676.001	2111.91667
1678.97	1981.91667
1681.937	1877.58333
1684.901	1774.58333
1687.863	1726.91667
1690.824	1645.91667
1693.782	1631.91667
1696.738	1558.25
1699.692	1527.91667
1702.643	1481.58333
1705.593	1457.58333
1708.54	1438.58333
1711.486	1458.25
1714.429	1410.58333
1717.37	1396.25
1720.309	1370.91667
1723.246	1368.58333
1726.181	1344.58333
1729.113	1347.58333
1732.044	1310.91667
1734.972	1308.58333
1737.899	1305.91667
1740.823	1301.25
1743.745	1300.58333
1746.665	1242.25
1749.583	1230.91667
1752.499	1211.25
1755.413	1195.91667
1758.325	1162.25
1761.235	1150.91667
1764.142	1135.58333
1767.048	1117.91667
1769.951	1109.58333
1772.852	1106.91667
1775.752	1105.58333
1778.649	1096.58333
1781.544	1107.25
1784.437	1077.25
1787.328	1092.91667
1790.217	1068.25
1793.104	1047.25
1795.989	1053.25
1798.872	1040.91667
1801.753	1053.58333
1804.631	1065.25
1807.508	1041.58333
1810.383	1035.58333
1813.255	1035.25
1816.126	1033.58333
1818.994	1019.25
1821.861	1028.91667
1824.725	1006.58333
1827.587	1013.58333
1830.448	996.25
1833.306	979.91667
1836.162	992.58333
1839.017	976.25
1841.869	991.91667
1844.719	984.25
1847.567	961.25
1850.414	971.25
1853.258	962.25
1856.1	975.91667
1858.94	979.25
1861.778	968.25
1864.614	959.58333
1867.448	966.25
1870.28	946.25
1873.111	969.58333
1875.939	961.91667
1878.765	975.91667
1881.589	963.25
1884.411	954.25
1887.231	962.58333
1890.049	943.25
1892.865	945.25
1895.68	933.58333
1898.492	933.91667
1901.302	924.58333
1904.11	915.25
1906.916	912.25
1909.721	907.25
1912.523	923.58333
1915.323	899.25
1918.122	902.58333
1920.918	907.58333
1923.712	892.25
1926.505	907.25
1929.295	899.58333
1932.084	903.91667
1934.87	909.58333
1937.655	886.58333
1940.438	880.91667
1943.218	900.58333
1945.997	886.91667
1948.774	902.25
1951.549	904.91667
1954.322	893.25
1957.093	891.58333
1959.862	872.91667
1962.629	868.58333
1965.394	866.91667
1968.157	857.91667
1970.918	866.25
1973.678	854.58333
1976.435	874.25
1979.19	864.91667
1981.944	858.91667
1984.696	851.25
1987.445	837.25
1990.193	850.58333
1992.939	868.25
1995.683	841.91667
1998.425	819.91667
2001.165	862.91667
2003.903	840.58333
2006.639	838.25
2009.374	840.91667
2012.106	853.58333
2014.837	823.58333
2017.566	833.58333
2020.292	843.91667
2023.017	841.91667
2025.74	808.25
2028.461	823.91667
2031.18	812.91667
2033.898	813.58333
2036.613	816.91667
2039.327	828.91667
2042.038	805.25
2044.748	821.91667
2047.456	809.25
2050.162	800.58333
2052.866	806.25
2055.568	804.25
2058.268	797.58333
2060.967	806.25
2063.663	775.25
2066.358	801.58333
2069.051	785.91667
2071.742	791.91667
2074.431	800.58333
2077.118	778.25
2079.804	790.91667
2082.487	788.91667
2085.169	814.58333
2087.849	817.58333
2090.527	788.58333
2093.203	806.91667
2095.877	813.91667
2098.55	802.25
2101.22	817.25
2103.889	836.58333
2106.556	832.91667
2109.221	857.25
2111.884	879.58333
2114.546	933.25
2117.205	1007.91667
2119.863	1084.91667
2122.519	1157.25
2125.173	1259.25
2127.825	1351.25
2130.475	1390.58333
2133.124	1340.58333
2135.771	1303.58333
2138.416	1247.25
2141.059	1164.58333
2143.7	1110.91667
2146.339	1050.58333
2148.977	987.91667
2151.613	965.58333
2154.247	935.25
2156.879	908.58333
2159.51	895.58333
2162.138	874.25
2164.765	883.25
2167.39	862.58333
2170.013	874.25
2172.634	864.58333
2175.254	848.58333
2177.872	869.91667
2180.488	835.91667
2183.102	839.58333
2185.714	807.58333
2188.325	801.91667
2190.934	815.58333
2193.541	796.91667
2196.146	781.91667
2198.75	764.91667
2201.351	761.25
2203.951	737.58333
2206.549	758.91667
2209.146	741.25
2211.74	742.25
2214.333	758.25
2216.924	725.91667
2219.514	726.58333
2222.101	706.91667
2224.687	725.91667
2227.271	688.25
2229.853	699.91667
2232.433	684.91667
2235.012	715.91667
2237.589	698.25
2240.164	695.25
2242.738	690.58333
2245.309	684.91667
2247.879	677.25
2250.448	689.91667
2253.014	656.25
2255.579	639.91667
2258.142	645.91667
2260.703	637.91667
2263.262	634.91667
2265.82	633.91667
2268.376	633.58333
2270.93	621.25
2273.483	610.58333
2276.033	625.91667
2278.583	609.25
2281.13	605.25
2283.675	599.58333
2286.219	604.25
2288.761	606.91667
2291.302	614.25
2293.841	608.25
2296.377	584.91667
2298.913	590.25
2301.446	603.91667
2303.978	589.58333
2306.508	581.91667
2309.037	585.91667
2311.563	582.91667
2314.088	589.25
2316.612	574.25
2319.133	576.58333
2321.653	572.91667
2324.171	565.91667
2326.688	584.25
2329.202	573.91667
2331.715	572.91667
2334.227	560.58333
2336.736	567.91667
2339.244	549.91667
2341.751	543.58333
2344.255	567.58333
2346.758	548.58333
2349.259	537.91667
2351.759	549.91667
2354.257	541.25
2356.753	549.58333
2359.247	542.91667
2361.74	558.25
2364.231	539.58333
2366.721	555.58333
2369.209	532.91667
2371.695	537.58333
2374.179	525.58333
2376.662	529.58333
2379.143	549.25
2381.622	529.91667
2384.1	543.58333
2386.576	532.25
2389.051	537.58333
2391.524	546.25
2393.995	543.25
2396.464	518.25
2398.932	526.58333
2401.398	524.25
2403.863	512.58333
2406.325	520.58333
2408.787	513.91667
2411.246	506.58333
2413.704	513.25
2416.16	517.25
2418.615	513.91667
2421.068	517.91667
2423.519	512.91667
2425.969	504.58333
2428.417	520.25
2430.863	533.25
2433.308	519.25
2435.751	514.25
2438.193	506.58333
2440.633	516.25
2443.071	504.91667
2445.508	493.58333
2447.943	493.58333
2450.376	487.58333
2452.808	503.91667
2455.238	475.91667
2457.667	521.91667
2460.093	493.58333
2462.519	480.91667
2464.942	489.91667
2467.365	497.91667
2469.785	488.25
2472.204	486.25
2474.621	470.58333
2477.037	499.58333
2479.451	472.25
2481.863	464.25
2484.274	477.25
2486.683	474.91667
2489.091	483.25
2491.497	479.91667
2493.901	472.91667
2496.304	466.58333
2498.705	479.91667
2501.105	472.91667
2503.503	496.25
2505.899	457.58333
2508.294	488.58333
2510.687	463.91667
2513.079	460.25
2515.469	462.25
2517.858	463.91667
2520.245	486.58333
2522.63	457.58333
2525.014	462.25
2527.396	456.25
2529.776	451.91667
2532.156	463.91667
2534.533	448.25
2536.909	458.58333
2539.283	440.58333
2541.656	445.91667
2544.027	469.58333
2546.397	458.91667
2548.765	450.58333
2551.131	446.25
2553.496	451.58333
2555.86	453.91667
2558.221	455.91667
2560.582	448.25
2562.94	432.25
2565.298	458.58333
2567.653	462.58333
2570.007	428.91667
2572.36	450.58333
2574.711	433.25
2577.06	466.91667
2579.408	442.91667
2581.754	443.25
2584.099	443.25
2586.442	435.58333
2588.784	443.58333
2591.124	441.58333
2593.463	436.25
2595.8	442.25
2598.135	426.58333
2600.469	435.91667
2602.802	444.58333
2605.133	441.58333
2607.462	433.58333
2609.79	420.58333
2612.116	434.25
2614.441	431.25
2616.764	436.91667
2619.086	431.25
2621.406	431.91667
2623.725	439.58333
2626.042	433.25
2628.358	439.58333
2630.672	427.58333
2632.985	453.58333
2635.296	435.25
2637.606	437.91667
2639.914	422.58333
2642.22	416.58333
2644.525	428.25
2646.829	432.58333
2649.131	448.91667
2651.432	447.91667
2653.731	431.58333
2656.028	434.91667
2658.324	429.91667
2660.619	431.25
2662.912	441.91667
2665.204	425.58333
2667.494	441.25
2669.782	428.25
2672.07	437.58333
2674.355	449.25
2676.639	431.25
2678.922	432.91667
2681.203	437.91667
2683.483	418.25
2685.761	423.25
2688.038	433.91667
2690.313	440.25
2692.587	443.25
2694.859	438.25
2697.13	436.91667
2699.399	443.25
2701.667	451.25
2703.933	455.91667
2706.198	465.58333
2708.461	454.25
2710.723	459.25
2712.984	461.91667
2715.243	466.91667
2717.5	452.58333
2719.757	471.25
2722.011	464.91667
2724.264	480.91667
2726.516	494.25
2728.766	470.91667
2731.015	469.91667
2733.262	464.58333
2735.508	466.91667
2737.753	465.91667
2739.996	449.25
2742.237	446.91667
2744.477	461.25
2746.716	456.58333
2748.953	456.25
2751.189	455.25
2753.423	442.25
2755.656	437.58333
2757.887	440.25
2760.117	431.58333
2762.346	435.25
2764.573	430.25
2766.798	435.25
2769.022	440.25
2771.245	443.25
2773.467	448.58333
2775.686	440.25
2777.905	448.91667
2780.122	459.91667
2782.337	460.58333
2784.552	455.25
2786.764	458.91667
2788.976	467.91667
2791.186	477.91667
2793.394	479.58333
2795.601	480.25
2797.807	489.58333
2800.011	505.91667
2802.214	505.58333
2804.415	509.58333
2806.615	497.91667
2808.814	514.91667
2811.011	529.91667
2813.206	527.58333
2815.401	545.58333
2817.594	561.91667
2819.785	565.25
2821.975	557.91667
2824.164	572.91667
2826.351	587.58333
2828.537	603.25
2830.722	625.25
2832.905	631.25
2835.086	669.58333
2837.267	700.25
2839.445	735.25
2841.623	756.91667
2843.799	804.91667
2845.974	825.91667
2848.147	859.58333
2850.319	898.91667
2852.489	932.25
2854.659	944.58333
2856.826	956.91667
2858.993	975.25
2861.158	961.91667
2863.321	969.25
2865.483	996.58333
2867.644	987.25
2869.804	995.58333
2871.962	977.25
2874.118	978.25
2876.274	972.25
2878.428	958.91667
2880.58	961.91667
2882.731	961.25
2884.881	959.58333
2887.03	962.91667
2889.177	946.25
2891.322	997.91667
2893.467	972.91667
2895.61	988.58333
2897.751	998.25
2899.892	996.25
2902.03	1006.58333
2904.168	1020.25
2906.304	1012.91667
2908.439	1039.25
2910.572	1011.25
2912.704	1039.58333
2914.835	1038.25
2916.965	1030.58333
2919.093	1051.25
2921.219	1002.25
2923.345	1014.91667
2925.469	1001.25
2927.591	985.58333
2929.712	958.25
2931.832	944.91667
2933.951	912.91667
2936.068	893.25
2938.184	873.91667
2940.299	847.25
2942.412	802.58333
2944.524	771.91667
2946.634	754.58333
2948.744	693.91667
2950.851	727.91667
2952.958	668.91667
2955.063	655.58333
2957.167	642.58333
2959.269	606.25
2961.371	624.91667
2963.471	574.91667
2965.569	583.25
2967.666	544.91667
2969.762	536.58333
2971.857	505.58333
2973.95	494.25
2976.042	486.25
2978.133	478.25
2980.222	460.58333
2982.31	442.25
2984.396	426.25
2986.482	418.25
2988.566	417.25
2990.648	404.91667
2992.73	403.91667
2994.81	392.91667
2996.889	394.91667
2998.966	388.91667
3001.042	386.91667
3003.117	383.25
3005.191	387.91667
3007.263	374.91667
3009.334	362.58333
3011.403	366.58333
3013.472	350.25
3015.539	352.58333
3017.604	366.91667
3019.669	321.91667
3021.732	324.58333
3023.794	321.58333
3025.854	306.58333
3027.914	310.58333
3029.971	319.58333
3032.028	307.91667
3034.083	318.91667
3036.137	311.25
3038.19	294.91667
3040.242	288.91667
3042.292	285.25
3044.341	283.25
3046.388	294.91667
3048.435	263.58333
3050.48	288.58333
3052.524	273.91667
3054.566	260.58333
3056.607	274.25
3058.647	270.58333
3060.686	248.58333
3062.723	237.58333
3064.759	235.91667
3066.794	0.58333
3068.828	-0.75
3070.86	-0.75
