-0.839	318.29167
3.438	349.29167
7.711	98.625
11.981	57.29167
16.247	46.29167
20.509	42.625
24.768	44.29167
29.024	43.625
33.276	46.625
37.524	47.625
41.769	36.625
46.01	37.95833
50.247	52.29167
54.481	59.95833
58.712	62.625
62.939	48.95833
67.162	59.625
71.382	55.29167
75.599	48.29167
79.812	63.29167
84.021	79.29167
88.227	59.625
92.429	60.95833
96.628	48.625
100.823	67.625
105.015	75.29167
109.204	73.625
113.388	76.625
117.57	71.625
121.748	90.29167
125.922	76.29167
130.093	99.625
134.261	104.625
138.425	96.625
142.585	139.29167
146.742	136.29167
150.896	155.625
155.046	191.29167
159.193	312.95833
163.336	516.29167
167.476	966.95833
171.613	1742.95833
175.746	2937.95833
179.875	4324.29167
184.002	5605.95833
188.124	6484.29167
192.244	6756.29167
196.36	6716.29167
200.472	6550.29167
204.581	6402.95833
208.687	6246.625
212.79	6214.95833
216.889	6265.625
220.984	6343.625
225.077	6422.95833
229.165	6543.95833
233.251	6602.625
237.333	6618.95833
241.412	6650.625
245.487	6623.29167
249.559	6586.29167
253.628	6480.625
257.694	6416.29167
261.756	6330.95833
265.814	6210.29167
269.87	6038.95833
273.922	5873.625
277.97	5766.29167
282.016	5712.95833
286.058	5701.625
290.097	5760.29167
294.132	5713.625
298.164	5632.95833
302.193	5349.29167
306.219	4978.95833
310.241	4520.29167
314.26	4152.95833
318.276	3830.29167
322.288	3568.95833
326.297	3378.625
330.303	3241.95833
334.305	3151.29167
338.305	3084.95833
342.301	3037.29167
346.294	3007.29167
350.283	2947.95833
354.269	2946.95833
358.252	2938.29167
362.232	2902.29167
366.209	2883.29167
370.182	2873.29167
374.152	2839.29167
378.119	2840.625
382.083	2828.95833
386.043	2856.29167
390	2803.29167
393.954	2780.625
397.905	2748.625
401.852	2766.625
405.797	2704.29167
409.738	2702.95833
413.676	2702.625
417.61	2689.625
421.542	2637.95833
425.47	2586.95833
429.396	2562.95833
433.318	2553.625
437.236	2542.625
441.152	2562.95833
445.065	2485.625
448.974	2498.95833
452.88	2472.95833
456.783	2453.95833
460.683	2468.625
464.58	2454.95833
468.473	2463.95833
472.364	2451.95833
476.251	2502.625
480.135	2484.95833
484.016	2511.625
487.894	2530.29167
491.769	2539.29167
495.641	2540.95833
499.509	2529.625
503.375	2526.625
507.237	2507.29167
511.096	2514.625
514.952	2505.95833
518.805	2522.625
522.655	2498.95833
526.502	2485.625
530.346	2475.29167
534.187	2494.29167
538.024	2484.29167
541.859	2466.95833
545.69	2506.625
549.519	2494.29167
553.344	2476.625
557.166	2432.29167
560.985	2419.625
564.802	2399.95833
568.615	2354.29167
572.425	2347.625
576.232	2321.625
580.036	2305.95833
583.836	2318.625
587.634	2323.95833
591.429	2336.29167
595.221	2367.29167
599.01	2382.29167
602.796	2398.625
606.578	2420.625
610.358	2449.625
614.135	2410.29167
617.909	2427.625
621.679	2420.625
625.447	2378.625
629.212	2398.95833
632.973	2391.625
636.732	2398.29167
640.488	2395.95833
644.241	2375.95833
647.991	2364.95833
651.737	2387.625
655.481	2342.625
659.222	2376.625
662.96	2367.29167
666.695	2380.95833
670.427	2370.625
674.156	2383.29167
677.882	2375.29167
681.605	2404.95833
685.325	2357.95833
689.043	2372.625
692.757	2355.625
696.468	2374.625
700.177	2383.625
703.882	2370.625
707.585	2375.29167
711.284	2378.95833
714.981	2391.29167
718.675	2392.29167
722.366	2397.29167
726.054	2390.95833
729.739	2382.625
733.421	2381.29167
737.1	2383.625
740.777	2389.95833
744.45	2415.95833
748.121	2406.95833
751.789	2489.29167
755.453	2480.625
759.115	2484.625
762.774	2517.95833
766.431	2517.29167
770.084	2566.29167
773.734	2578.625
777.382	2631.625
781.027	2646.29167
784.669	2651.95833
788.308	2683.95833
791.944	2686.625
795.577	2726.625
799.208	2748.29167
802.835	2733.29167
806.46	2766.625
810.082	2781.95833
813.701	2811.625
817.317	2823.625
820.931	2812.95833
824.542	2818.95833
828.149	2778.29167
831.754	2749.29167
835.357	2744.95833
838.956	2743.625
842.553	2726.95833
846.146	2747.625
849.737	2684.625
853.326	2717.29167
856.911	2754.29167
860.493	2767.625
864.073	2811.95833
867.65	2845.95833
871.225	2860.29167
874.796	2828.95833
878.365	2835.29167
881.931	2878.29167
885.494	2872.95833
889.054	2881.95833
892.612	2901.95833
896.166	2857.29167
899.719	2831.29167
903.268	2811.95833
906.814	2767.95833
910.358	2761.29167
913.899	2772.625
917.438	2774.29167
920.973	2767.625
924.506	2815.29167
928.036	2829.95833
931.564	2839.29167
935.088	2910.29167
938.61	2883.95833
942.129	2909.625
945.646	3018.625
949.16	3049.95833
952.671	3099.95833
956.179	3153.625
959.685	3086.625
963.188	3079.95833
966.688	3052.95833
970.185	3004.625
973.68	2929.625
977.173	2917.95833
980.662	2905.625
984.149	2909.95833
987.633	2925.95833
991.114	2975.95833
994.593	3053.95833
998.069	3149.29167
1001.542	3242.95833
1005.013	3165.625
1008.481	2980.95833
1011.947	2917.29167
1015.409	2921.29167
1018.869	2931.625
1022.327	2926.95833
1025.782	2919.625
1029.234	2894.625
1032.683	2865.625
1036.13	2763.625
1039.574	2693.29167
1043.016	2593.625
1046.455	2558.625
1049.891	2544.625
1053.325	2539.29167
1056.756	2522.625
1060.184	2559.29167
1063.61	2548.29167
1067.033	2589.95833
1070.454	2582.95833
1073.872	2605.29167
1077.287	2580.29167
1080.7	2622.29167
1084.11	2626.29167
1087.517	2606.625
1090.922	2576.625
1094.325	2548.29167
1097.724	2519.625
1101.122	2527.95833
1104.516	2490.625
1107.908	2521.29167
1111.298	2549.625
1114.684	2584.29167
1118.069	2596.625
1121.45	2614.95833
1124.83	2638.625
1128.206	2614.95833
1131.58	2675.625
1134.951	2751.29167
1138.32	2789.29167
1141.687	2892.95833
1145.05	2968.95833
1148.412	2988.95833
1151.77	2988.29167
1155.126	2963.95833
1158.48	2981.95833
1161.831	2987.95833
1165.18	3046.625
1168.525	3058.625
1171.869	3105.625
1175.21	3137.625
1178.548	3166.29167
1181.884	3211.95833
1185.217	3201.29167
1188.548	3270.95833
1191.877	3312.625
1195.202	3413.95833
1198.526	3411.29167
1201.846	3453.95833
1205.165	3442.95833
1208.48	3438.29167
1211.794	3441.625
1215.104	3436.29167
1218.413	3445.95833
1221.719	3434.95833
1225.022	3401.29167
1228.323	3375.29167
1231.621	3374.95833
1234.917	3368.95833
1238.21	3395.95833
1241.501	3379.95833
1244.79	3385.625
1248.076	3370.29167
1251.359	3424.29167
1254.64	3517.95833
1257.919	3532.95833
1261.195	3547.95833
1264.468	3618.29167
1267.74	3640.95833
1271.008	3642.95833
1274.275	3638.625
1277.538	3580.95833
1280.8	3577.625
1284.059	3587.95833
1287.315	3611.95833
1290.569	3610.95833
1293.821	3660.95833
1297.07	3650.625
1300.317	3648.29167
1303.562	3634.625
1306.803	3619.29167
1310.043	3585.625
1313.28	3535.29167
1316.515	3496.29167
1319.747	3463.95833
1322.977	3434.625
1326.204	3375.95833
1329.429	3337.625
1332.652	3291.95833
1335.872	3309.625
1339.09	3290.29167
1342.306	3309.29167
1345.519	3330.29167
1348.729	3286.29167
1351.938	3258.29167
1355.144	3185.29167
1358.347	3161.95833
1361.548	3197.625
1364.747	3183.95833
1367.944	3142.625
1371.138	3178.625
1374.329	3223.95833
1377.518	3250.95833
1380.705	3277.625
1383.89	3264.625
1387.072	3157.95833
1390.252	3016.95833
1393.429	2946.95833
1396.605	2858.29167
1399.777	2778.625
1402.948	2764.625
1406.116	2745.625
1409.282	2752.95833
1412.445	2735.625
1415.606	2782.95833
1418.765	2794.95833
1421.921	2887.95833
1425.075	2944.95833
1428.227	3032.625
1431.376	3154.625
1434.524	3278.95833
1437.668	3329.29167
1440.811	3352.29167
1443.951	3378.29167
1447.089	3371.29167
1450.224	3361.95833
1453.357	3338.95833
1456.488	3317.95833
1459.617	3265.625
1462.743	3227.29167
1465.867	3159.95833
1468.989	3108.95833
1472.108	3043.95833
1475.225	3005.95833
1478.34	2991.29167
1481.453	2976.625
1484.563	2972.625
1487.671	3008.625
1490.776	3029.625
1493.88	3127.29167
1496.981	3187.95833
1500.08	3225.29167
1503.176	3266.625
1506.271	3326.625
1509.363	3387.29167
1512.452	3411.29167
1515.54	3455.625
1518.625	3558.29167
1521.708	3727.625
1524.789	3884.625
1527.867	4100.29167
1530.944	4345.29167
1534.018	4579.625
1537.089	4719.625
1540.159	4711.29167
1543.226	4624.95833
1546.291	4438.95833
1549.354	4299.625
1552.415	4160.95833
1555.473	4021.95833
1558.529	3950.95833
1561.583	3922.95833
1564.634	3855.95833
1567.684	3857.29167
1570.731	3809.29167
1573.776	3845.95833
1576.819	3873.95833
1579.859	3880.29167
1582.898	3914.29167
1585.934	3967.95833
1588.968	3972.29167
1591.999	3950.29167
1595.029	3952.95833
1598.056	3951.625
1601.081	3964.29167
1604.104	3967.29167
1607.125	3974.625
1610.144	3869.29167
1613.16	3778.29167
1616.174	3673.625
1619.186	3592.29167
1622.196	3516.29167
1625.203	3441.95833
1628.209	3403.625
1631.212	3375.625
1634.213	3360.29167
1637.212	3360.29167
1640.209	3295.29167
1643.203	3199.95833
1646.196	3124.625
1649.186	2998.95833
1652.174	2933.95833
1655.16	2840.95833
1658.144	2744.95833
1661.125	2645.95833
1664.105	2495.95833
1667.082	2407.95833
1670.057	2271.29167
1673.03	2123.29167
1676.001	2019.29167
1678.97	1888.95833
1681.937	1792.625
1684.901	1687.625
1687.863	1671.625
1690.824	1558.95833
1693.782	1550.29167
1696.738	1490.95833
1699.692	1469.95833
1702.643	1428.29167
1705.593	1405.95833
1708.54	1378.95833
1711.486	1386.95833
1714.429	1355.95833
1717.37	1352.625
1720.309	1317.95833
1723.246	1328.625
1726.181	1294.625
1729.113	1308.95833
1732.044	1263.95833
1734.972	1260.625
1737.899	1270.29167
1740.823	1260.95833
1743.745	1256.625
1746.665	1199.29167
1749.583	1191.29167
1752.499	1181.95833
1755.413	1160.29167
1758.325	1130.95833
1761.235	1145.29167
1764.142	1098.29167
1767.048	1099.29167
1769.951	1097.29167
1772.852	1094.95833
1775.752	1092.29167
1778.649	1093.29167
1781.544	1080.625
1784.437	1039.95833
1787.328	1054.625
1790.217	1054.95833
1793.104	1041.95833
1795.989	1016.29167
1798.872	1019.29167
1801.753	1034.95833
1804.631	1035.625
1807.508	1042.625
1810.383	1014.625
1813.255	1021.29167
1816.126	1011.625
1818.994	1003.95833
1821.861	1006.95833
1824.725	998.95833
1827.587	1004.95833
1830.448	987.29167
1833.306	966.29167
1836.162	976.95833
1839.017	955.29167
1841.869	970.29167
1844.719	956.29167
1847.567	957.625
1850.414	963.95833
1853.258	961.29167
1856.1	962.95833
1858.94	972.29167
1861.778	954.625
1864.614	951.95833
1867.448	947.625
1870.28	941.625
1873.111	968.625
1875.939	939.29167
1878.765	955.29167
1881.589	933.95833
1884.411	929.95833
1887.231	940.95833
1890.049	948.95833
1892.865	931.625
1895.68	927.625
1898.492	923.625
1901.302	921.95833
1904.11	914.29167
1906.916	906.625
1909.721	885.95833
1912.523	912.625
1915.323	887.95833
1918.122	891.29167
1920.918	908.625
1923.712	893.29167
1926.505	892.625
1929.295	870.625
1932.084	900.29167
1934.87	880.95833
1937.655	862.625
1940.438	865.625
1943.218	877.625
1945.997	886.625
1948.774	888.29167
1951.549	874.95833
1954.322	877.95833
1957.093	880.29167
1959.862	861.95833
1962.629	868.95833
1965.394	857.95833
1968.157	829.95833
1970.918	843.625
1973.678	854.95833
1976.435	851.625
1979.19	843.625
1981.944	832.95833
1984.696	831.625
1987.445	821.95833
1990.193	844.625
1992.939	846.625
1995.683	832.95833
1998.425	816.29167
2001.165	840.625
2003.903	830.95833
2006.639	813.625
2009.374	807.29167
2012.106	828.29167
2014.837	793.29167
2017.566	817.95833
2020.292	808.625
2023.017	807.625
2025.74	800.625
2028.461	799.29167
2031.18	804.625
2033.898	795.625
2036.613	809.29167
2039.327	809.95833
2042.038	782.29167
2044.748	791.95833
2047.456	792.95833
2050.162	779.625
2052.866	777.29167
2055.568	799.29167
2058.268	775.95833
2060.967	798.29167
2063.663	771.29167
2066.358	776.29167
2069.051	777.625
2071.742	774.625
2074.431	790.95833
2077.118	775.625
2079.804	767.625
2082.487	771.29167
2085.169	789.95833
2087.849	789.625
2090.527	769.625
2093.203	786.625
2095.877	795.625
2098.55	803.95833
2101.22	828.29167
2103.889	832.29167
2106.556	824.625
2109.221	878.625
2111.884	905.95833
2114.546	974.625
2117.205	1050.95833
2119.863	1150.625
2122.519	1226.95833
2125.173	1324.625
2127.825	1417.95833
2130.475	1417.625
2133.124	1389.625
2135.771	1330.29167
2138.416	1261.625
2141.059	1181.95833
2143.7	1129.29167
2146.339	1049.29167
2148.977	991.625
2151.613	977.95833
2154.247	924.29167
2156.879	908.29167
2159.51	875.625
2162.138	860.625
2164.765	852.29167
2167.39	839.29167
2170.013	845.29167
2172.634	840.29167
2175.254	826.625
2177.872	847.29167
2180.488	800.625
2183.102	802.95833
2185.714	789.625
2188.325	768.625
2190.934	773.95833
2193.541	756.29167
2196.146	752.625
2198.75	741.95833
2201.351	729.625
2203.951	710.625
2206.549	716.29167
2209.146	708.29167
2211.74	703.95833
2214.333	701.29167
2216.924	680.625
2219.514	691.625
2222.101	671.95833
2224.687	694.29167
2227.271	658.29167
2229.853	656.95833
2232.433	642.29167
2235.012	676.95833
2237.589	667.95833
2240.164	669.625
2242.738	660.29167
2245.309	651.95833
2247.879	647.29167
2250.448	652.29167
2253.014	628.95833
2255.579	616.625
2258.142	626.29167
2260.703	616.625
2263.262	613.29167
2265.82	609.625
2268.376	616.95833
2270.93	600.95833
2273.483	592.29167
2276.033	590.625
2278.583	592.625
2281.13	588.625
2283.675	570.29167
2286.219	578.95833
2288.761	579.625
2291.302	593.95833
2293.841	593.625
2296.377	558.95833
2298.913	566.29167
2301.446	575.625
2303.978	561.29167
2306.508	560.625
2309.037	561.625
2311.563	565.29167
2314.088	577.29167
2316.612	545.29167
2319.133	558.29167
2321.653	551.29167
2324.171	541.29167
2326.688	555.29167
2329.202	544.29167
2331.715	554.625
2334.227	540.625
2336.736	538.625
2339.244	535.95833
2341.751	529.29167
2344.255	537.625
2346.758	525.95833
2349.259	518.95833
2351.759	528.95833
2354.257	518.29167
2356.753	514.95833
2359.247	519.29167
2361.74	515.625
2364.231	519.29167
2366.721	532.95833
2369.209	506.625
2371.695	514.95833
2374.179	514.95833
2376.662	516.29167
2379.143	526.95833
2381.622	517.29167
2384.1	515.95833
2386.576	508.95833
2389.051	525.95833
2391.524	528.625
2393.995	518.625
2396.464	506.625
2398.932	495.29167
2401.398	501.29167
2403.863	497.29167
2406.325	493.95833
2408.787	493.625
2411.246	501.625
2413.704	492.29167
2416.16	478.29167
2418.615	496.29167
2421.068	495.95833
2423.519	491.29167
2425.969	481.29167
2428.417	491.29167
2430.863	506.95833
2433.308	496.29167
2435.751	489.625
2438.193	482.625
2440.633	488.29167
2443.071	476.625
2445.508	467.29167
2447.943	474.625
2450.376	466.95833
2452.808	470.625
2455.238	474.95833
2457.667	498.625
2460.093	467.625
2462.519	453.29167
2464.942	457.29167
2467.365	466.95833
2469.785	472.29167
2472.204	464.29167
2474.621	458.625
2477.037	481.95833
2479.451	447.95833
2481.863	451.29167
2484.274	459.625
2486.683	457.625
2489.091	460.29167
2491.497	457.625
2493.901	446.29167
2496.304	445.95833
2498.705	457.625
2501.105	439.625
2503.503	469.29167
2505.899	443.625
2508.294	465.625
2510.687	441.29167
2513.079	435.29167
2515.469	433.625
2517.858	434.29167
2520.245	451.29167
2522.63	433.95833
2525.014	431.29167
2527.396	426.95833
2529.776	423.95833
2532.156	438.95833
2534.533	419.625
2536.909	424.95833
2539.283	415.95833
2541.656	422.625
2544.027	445.95833
2546.397	431.625
2548.765	424.29167
2551.131	414.95833
2553.496	426.95833
2555.86	429.95833
2558.221	431.29167
2560.582	432.625
2562.94	411.29167
2565.298	408.29167
2567.653	441.29167
2570.007	400.95833
2572.36	421.95833
2574.711	413.95833
2577.06	430.95833
2579.408	416.95833
2581.754	414.29167
2584.099	411.29167
2586.442	412.625
2588.784	416.625
2591.124	409.95833
2593.463	398.29167
2595.8	399.625
2598.135	391.29167
2600.469	406.625
2602.802	423.95833
2605.133	415.29167
2607.462	401.95833
2609.79	398.29167
2612.116	413.29167
2614.441	415.625
2616.764	406.95833
2619.086	405.29167
2621.406	396.29167
2623.725	414.625
2626.042	412.625
2628.358	403.625
2630.672	409.95833
2632.985	417.625
2635.296	398.29167
2637.606	411.95833
2639.914	391.625
2642.22	413.29167
2644.525	406.625
2646.829	411.625
2649.131	418.29167
2651.432	420.95833
2653.731	394.29167
2656.028	408.29167
2658.324	408.95833
2660.619	391.625
2662.912	407.29167
2665.204	398.95833
2667.494	418.95833
2669.782	401.625
2672.07	408.625
2674.355	416.95833
2676.639	405.29167
2678.922	397.95833
2681.203	413.625
2683.483	392.625
2685.761	388.95833
2688.038	413.625
2690.313	422.29167
2692.587	413.625
2694.859	403.625
2697.13	412.95833
2699.399	421.95833
2701.667	422.95833
2703.933	431.95833
2706.198	425.29167
2708.461	433.95833
2710.723	426.625
2712.984	427.625
2715.243	432.29167
2717.5	421.95833
2719.757	439.625
2722.011	437.95833
2724.264	444.95833
2726.516	454.95833
2728.766	435.95833
2731.015	438.29167
2733.262	444.625
2735.508	431.625
2737.753	432.29167
2739.996	417.625
2742.237	424.29167
2744.477	435.95833
2746.716	434.29167
2748.953	423.95833
2751.189	429.95833
2753.423	413.29167
2755.656	406.625
2757.887	408.95833
2760.117	407.95833
2762.346	403.625
2764.573	396.29167
2766.798	400.29167
2769.022	414.95833
2771.245	417.625
2773.467	416.625
2775.686	419.29167
2777.905	427.625
2780.122	420.95833
2782.337	427.95833
2784.552	421.625
2786.764	433.95833
2788.976	432.625
2791.186	447.95833
2793.394	448.95833
2795.601	453.95833
2797.807	459.29167
2800.011	467.29167
2802.214	475.95833
2804.415	473.29167
2806.615	476.29167
2808.814	496.95833
2811.011	490.29167
2813.206	504.95833
2815.401	509.29167
2817.594	515.29167
2819.785	522.95833
2821.975	519.95833
2824.164	532.95833
2826.351	538.95833
2828.537	556.95833
2830.722	580.95833
2832.905	576.95833
2835.086	608.29167
2837.267	639.95833
2839.445	658.29167
2841.623	672.625
2843.799	701.625
2845.974	727.625
2848.147	755.95833
2850.319	783.95833
2852.489	811.95833
2854.659	821.625
2856.826	833.29167
2858.993	859.95833
2861.158	831.625
2863.321	839.95833
2865.483	855.29167
2867.644	866.29167
2869.804	859.95833
2871.962	850.625
2874.118	867.95833
2876.274	858.95833
2878.428	861.29167
2880.58	843.29167
2882.731	823.95833
2884.881	833.29167
2887.03	839.625
2889.177	829.95833
2891.322	845.625
2893.467	831.95833
2895.61	837.29167
2897.751	853.29167
2899.892	851.95833
2902.03	846.29167
2904.168	870.625
2906.304	855.95833
2908.439	881.29167
2910.572	845.29167
2912.704	867.95833
2914.835	879.95833
2916.965	864.95833
2919.093	870.29167
2921.219	840.625
2923.345	849.95833
2925.469	840.95833
2927.591	828.625
2929.712	798.95833
2931.832	803.625
2933.951	766.95833
2936.068	751.625
2938.184	736.95833
2940.299	699.625
2942.412	691.625
2944.524	646.95833
2946.634	643.95833
2948.744	591.95833
2950.851	616.29167
2952.958	572.29167
2955.063	576.29167
2957.167	542.625
2959.269	518.95833
2961.371	532.625
2963.471	491.29167
2965.569	490.29167
2967.666	457.29167
2969.762	454.29167
2971.857	439.625
2973.95	424.625
2976.042	422.625
2978.133	405.625
2980.222	393.95833
2982.31	375.29167
2984.396	366.29167
2986.482	370.95833
2988.566	361.95833
2990.648	358.29167
2992.73	342.625
2994.81	335.95833
2996.889	345.625
2998.966	329.625
3001.042	340.625
3003.117	328.625
3005.191	332.95833
3007.263	319.625
3009.334	316.625
3011.403	317.29167
3013.472	299.95833
3015.539	300.95833
3017.604	315.95833
3019.669	277.29167
3021.732	284.29167
3023.794	292.625
3025.854	269.625
3027.914	267.95833
3029.971	276.29167
3032.028	266.95833
3034.083	271.95833
3036.137	268.625
3038.19	253.625
3040.242	246.95833
3042.292	239.29167
3044.341	241.29167
3046.388	257.95833
3048.435	226.29167
3050.48	253.625
3052.524	240.95833
3054.566	218.625
3056.607	234.625
3058.647	230.95833
3060.686	210.29167
3062.723	209.625
3064.759	200.625
3066.794	-0.70833
3068.828	-0.70833
3070.86	-0.70833
