-0.839	486.45833
3.438	507.79167
7.711	136.45833
11.981	54.125
16.247	47.125
20.509	41.45833
24.768	48.125
29.024	45.125
33.276	42.45833
37.524	50.45833
41.769	44.125
46.01	36.79167
50.247	51.125
54.481	64.125
58.712	67.125
62.939	50.79167
67.162	61.45833
71.382	59.79167
75.599	45.79167
79.812	63.79167
84.021	79.125
88.227	59.125
92.429	61.45833
96.628	48.125
100.823	70.125
105.015	79.79167
109.204	78.45833
113.388	76.45833
117.57	73.79167
121.748	91.45833
125.922	87.125
130.093	98.125
134.261	109.79167
138.425	105.79167
142.585	146.45833
146.742	154.125
150.896	184.45833
155.046	235.45833
159.193	385.45833
163.336	675.79167
167.476	1233.79167
171.613	2217.45833
175.746	3650.45833
179.875	5311.79167
184.002	6839.125
188.124	7789.45833
192.244	7986.125
196.36	7720.45833
200.472	7417.125
204.581	7070.45833
208.687	6795.45833
212.79	6585.125
216.889	6475.45833
220.984	6410.79167
225.077	6396.79167
229.165	6387.79167
233.251	6375.45833
237.333	6334.125
241.412	6247.45833
245.487	6196.125
249.559	6092.45833
253.628	6047.125
257.694	5953.125
261.756	5878.45833
265.814	5776.79167
269.87	5547.45833
273.922	5420.79167
277.97	5338.125
282.016	5257.79167
286.058	5246.125
290.097	5281.45833
294.132	5271.79167
298.164	5242.79167
302.193	5001.79167
306.219	4651.45833
310.241	4284.125
314.26	3899.125
318.276	3602.45833
322.288	3378.79167
326.297	3197.45833
330.303	3043.79167
334.305	2970.125
338.305	2904.125
342.301	2870.45833
346.294	2830.125
350.283	2795.79167
354.269	2763.125
358.252	2746.125
362.232	2731.79167
366.209	2692.79167
370.182	2658.125
374.152	2632.125
378.119	2629.125
382.083	2619.79167
386.043	2633.45833
390	2565.125
393.954	2593.125
397.905	2565.125
401.852	2535.79167
405.797	2539.79167
409.738	2514.45833
413.676	2521.45833
417.61	2521.125
421.542	2479.45833
425.47	2449.45833
429.396	2392.79167
433.318	2409.79167
437.236	2377.125
441.152	2386.125
445.065	2351.125
448.974	2309.79167
452.88	2295.45833
456.783	2280.79167
460.683	2270.45833
464.58	2287.125
468.473	2291.125
472.364	2282.125
476.251	2308.79167
480.135	2309.45833
484.016	2340.45833
487.894	2337.125
491.769	2348.79167
495.641	2365.79167
499.509	2352.125
503.375	2347.125
507.237	2360.45833
511.096	2368.125
514.952	2428.45833
518.805	2500.45833
522.655	2505.45833
526.502	2387.79167
530.346	2343.45833
534.187	2333.79167
538.024	2344.45833
541.859	2316.45833
545.69	2358.125
549.519	2322.79167
553.344	2317.125
557.166	2287.45833
560.985	2262.79167
564.802	2232.45833
568.615	2189.45833
572.425	2159.79167
576.232	2162.45833
580.036	2155.79167
583.836	2168.79167
587.634	2156.79167
591.429	2139.45833
595.221	2210.125
599.01	2233.125
602.796	2245.45833
606.578	2279.125
610.358	2235.125
614.135	2242.125
617.909	2258.79167
621.679	2241.79167
625.447	2219.125
629.212	2216.45833
632.973	2218.45833
636.732	2225.79167
640.488	2226.79167
644.241	2209.79167
647.991	2178.79167
651.737	2224.125
655.481	2163.45833
659.222	2175.125
662.96	2183.125
666.695	2204.125
670.427	2218.125
674.156	2230.79167
677.882	2206.125
681.605	2214.79167
685.325	2188.125
689.043	2214.45833
692.757	2182.125
696.468	2217.79167
700.177	2173.79167
703.882	2193.125
707.585	2165.79167
711.284	2190.79167
714.981	2197.125
718.675	2205.79167
722.366	2206.125
726.054	2184.125
729.739	2195.125
733.421	2199.125
737.1	2194.79167
740.777	2204.125
744.45	2222.125
748.121	2259.79167
751.789	2295.45833
755.453	2278.79167
759.115	2286.79167
762.774	2303.125
766.431	2329.45833
770.084	2344.125
773.734	2371.79167
777.382	2400.125
781.027	2432.45833
784.669	2427.79167
788.308	2466.45833
791.944	2468.79167
795.577	2514.45833
799.208	2547.125
802.835	2515.79167
806.46	2547.125
810.082	2563.79167
813.701	2567.45833
817.317	2588.125
820.931	2579.79167
824.542	2587.45833
828.149	2546.125
831.754	2530.45833
835.357	2508.79167
838.956	2523.45833
842.553	2504.45833
846.146	2513.79167
849.737	2485.125
853.326	2501.79167
856.911	2505.125
860.493	2541.125
864.073	2535.125
867.65	2616.125
871.225	2623.79167
874.796	2618.45833
878.365	2627.45833
881.931	2623.45833
885.494	2649.125
889.054	2628.79167
892.612	2650.79167
896.166	2625.79167
899.719	2595.125
903.268	2568.125
906.814	2556.79167
910.358	2547.45833
913.899	2497.79167
917.438	2530.79167
920.973	2505.45833
924.506	2539.45833
928.036	2583.45833
931.564	2622.125
935.088	2645.125
938.61	2650.79167
942.129	2665.45833
945.646	2733.45833
949.16	2793.79167
952.671	2821.125
956.179	2864.45833
959.685	2838.125
963.188	2845.45833
966.688	2783.45833
970.185	2725.79167
973.68	2658.125
977.173	2678.45833
980.662	2627.125
984.149	2674.45833
987.633	2657.45833
991.114	2732.79167
994.593	2785.79167
998.069	2908.45833
1001.542	2985.45833
1005.013	2887.79167
1008.481	2711.45833
1011.947	2661.45833
1015.409	2646.45833
1018.869	2668.79167
1022.327	2661.79167
1025.782	2636.45833
1029.234	2630.45833
1032.683	2605.125
1036.13	2523.125
1039.574	2426.125
1043.016	2372.125
1046.455	2332.45833
1049.891	2306.125
1053.325	2319.125
1056.756	2305.125
1060.184	2349.45833
1063.61	2339.79167
1067.033	2343.125
1070.454	2352.79167
1073.872	2405.125
1077.287	2376.125
1080.7	2394.45833
1084.11	2384.125
1087.517	2369.125
1090.922	2340.125
1094.325	2305.79167
1097.724	2296.79167
1101.122	2272.79167
1104.516	2278.79167
1107.908	2284.45833
1111.298	2319.45833
1114.684	2349.125
1118.069	2385.125
1121.45	2403.79167
1124.83	2382.125
1128.206	2431.125
1131.58	2473.45833
1134.951	2518.45833
1138.32	2605.125
1141.687	2701.125
1145.05	2786.79167
1148.412	2784.45833
1151.77	2752.79167
1155.126	2748.45833
1158.48	2719.125
1161.831	2771.45833
1165.18	2775.45833
1168.525	2810.79167
1171.869	2879.79167
1175.21	2881.45833
1178.548	2902.45833
1181.884	2940.79167
1185.217	2949.125
1188.548	2987.45833
1191.877	3028.45833
1195.202	3123.45833
1198.526	3169.45833
1201.846	3163.45833
1205.165	3163.45833
1208.48	3161.45833
1211.794	3161.125
1215.104	3169.79167
1218.413	3197.45833
1221.719	3157.79167
1225.022	3181.125
1228.323	3119.79167
1231.621	3087.79167
1234.917	3093.125
1238.21	3129.79167
1241.501	3085.79167
1244.79	3104.79167
1248.076	3108.45833
1251.359	3152.125
1254.64	3231.79167
1257.919	3248.79167
1261.195	3299.45833
1264.468	3362.79167
1267.74	3413.125
1271.008	3386.79167
1274.275	3392.125
1277.538	3359.125
1280.8	3340.125
1284.059	3321.125
1287.315	3341.125
1290.569	3383.125
1293.821	3386.79167
1297.07	3421.79167
1300.317	3421.79167
1303.562	3396.45833
1306.803	3352.125
1310.043	3319.79167
1313.28	3283.79167
1316.515	3257.125
1319.747	3239.125
1322.977	3182.45833
1326.204	3144.125
1329.429	3132.45833
1332.652	3117.125
1335.872	3092.45833
1339.09	3071.45833
1342.306	3078.125
1345.519	3063.125
1348.729	3029.79167
1351.938	3050.45833
1355.144	2980.45833
1358.347	2944.79167
1361.548	2948.125
1364.747	2957.79167
1367.944	2943.125
1371.138	2957.125
1374.329	2977.45833
1377.518	3002.125
1380.705	3048.45833
1383.89	2988.45833
1387.072	2918.79167
1390.252	2819.125
1393.429	2724.125
1396.605	2627.45833
1399.777	2574.79167
1402.948	2549.79167
1406.116	2513.79167
1409.282	2542.79167
1412.445	2545.45833
1415.606	2570.125
1418.765	2618.45833
1421.921	2666.125
1425.075	2730.45833
1428.227	2816.45833
1431.376	2933.125
1434.524	3033.125
1437.668	3092.125
1440.811	3134.125
1443.951	3152.125
1447.089	3172.45833
1450.224	3145.79167
1453.357	3144.45833
1456.488	3106.79167
1459.617	3055.125
1462.743	3025.45833
1465.867	2959.125
1468.989	2912.79167
1472.108	2870.45833
1475.225	2800.79167
1478.34	2788.79167
1481.453	2767.45833
1484.563	2758.79167
1487.671	2825.45833
1490.776	2859.79167
1493.88	2930.45833
1496.981	2991.45833
1500.08	3024.45833
1503.176	3079.125
1506.271	3116.45833
1509.363	3156.45833
1512.452	3187.45833
1515.54	3223.79167
1518.625	3271.79167
1521.708	3391.79167
1524.789	3559.45833
1527.867	3743.125
1530.944	3994.45833
1534.018	4185.79167
1537.089	4365.45833
1540.159	4377.45833
1543.226	4302.79167
1546.291	4188.79167
1549.354	4047.79167
1552.415	3917.79167
1555.473	3789.45833
1558.529	3663.79167
1561.583	3642.45833
1564.634	3590.79167
1567.684	3599.125
1570.731	3573.79167
1573.776	3593.45833
1576.819	3623.79167
1579.859	3640.45833
1582.898	3680.125
1585.934	3691.125
1588.968	3708.45833
1591.999	3704.79167
1595.029	3694.45833
1598.056	3736.45833
1601.081	3776.125
1604.104	3741.79167
1607.125	3700.125
1610.144	3624.79167
1613.16	3571.45833
1616.174	3495.45833
1619.186	3419.125
1622.196	3339.45833
1625.203	3286.125
1628.209	3217.125
1631.212	3220.79167
1634.213	3240.79167
1637.212	3210.125
1640.209	3168.79167
1643.203	3068.125
1646.196	2994.79167
1649.186	2873.125
1652.174	2796.125
1655.16	2721.125
1658.144	2647.45833
1661.125	2512.125
1664.105	2408.125
1667.082	2301.45833
1670.057	2179.125
1673.03	2034.125
1676.001	1895.45833
1678.97	1784.79167
1681.937	1668.45833
1684.901	1619.79167
1687.863	1537.125
1690.824	1471.45833
1693.782	1436.79167
1696.738	1385.125
1699.692	1368.45833
1702.643	1329.79167
1705.593	1320.45833
1708.54	1295.79167
1711.486	1303.125
1714.429	1269.79167
1717.37	1258.79167
1720.309	1240.45833
1723.246	1236.79167
1726.181	1193.45833
1729.113	1219.79167
1732.044	1180.45833
1734.972	1165.45833
1737.899	1182.79167
1740.823	1164.125
1743.745	1174.125
1746.665	1108.79167
1749.583	1120.79167
1752.499	1108.45833
1755.413	1087.125
1758.325	1055.45833
1761.235	1064.45833
1764.142	1035.79167
1767.048	1039.79167
1769.951	1026.125
1772.852	1003.125
1775.752	1022.45833
1778.649	1028.45833
1781.544	1014.45833
1784.437	991.45833
1787.328	1002.45833
1790.217	990.125
1793.104	954.45833
1795.989	955.125
1798.872	961.45833
1801.753	975.45833
1804.631	956.45833
1807.508	980.79167
1810.383	971.125
1813.255	952.45833
1816.126	956.79167
1818.994	948.125
1821.861	930.45833
1824.725	934.79167
1827.587	933.79167
1830.448	927.79167
1833.306	904.125
1836.162	929.79167
1839.017	901.45833
1841.869	914.125
1844.719	903.45833
1847.567	898.125
1850.414	886.125
1853.258	885.125
1856.1	905.125
1858.94	911.79167
1861.778	890.125
1864.614	886.125
1867.448	898.79167
1870.28	879.125
1873.111	907.45833
1875.939	889.125
1878.765	906.125
1881.589	879.79167
1884.411	871.45833
1887.231	887.125
1890.049	885.125
1892.865	884.45833
1895.68	877.125
1898.492	864.125
1901.302	861.79167
1904.11	853.79167
1906.916	852.79167
1909.721	849.125
1912.523	857.125
1915.323	835.79167
1918.122	840.125
1920.918	851.79167
1923.712	827.125
1926.505	845.45833
1929.295	820.79167
1932.084	843.45833
1934.87	841.45833
1937.655	834.45833
1940.438	813.79167
1943.218	838.45833
1945.997	831.79167
1948.774	840.79167
1951.549	843.79167
1954.322	821.45833
1957.093	823.125
1959.862	809.125
1962.629	805.45833
1965.394	807.45833
1968.157	795.125
1970.918	815.79167
1973.678	791.45833
1976.435	797.45833
1979.19	795.45833
1981.944	794.45833
1984.696	790.79167
1987.445	793.125
1990.193	786.45833
1992.939	802.79167
1995.683	787.125
1998.425	769.79167
2001.165	799.45833
2003.903	782.79167
2006.639	766.79167
2009.374	779.45833
2012.106	794.79167
2014.837	760.45833
2017.566	776.125
2020.292	770.79167
2023.017	778.125
2025.74	762.79167
2028.461	755.45833
2031.18	769.125
2033.898	764.125
2036.613	766.125
2039.327	767.79167
2042.038	751.45833
2044.748	745.79167
2047.456	763.45833
2050.162	752.125
2052.866	755.45833
2055.568	754.45833
2058.268	745.45833
2060.967	746.79167
2063.663	733.79167
2066.358	748.45833
2069.051	742.125
2071.742	754.45833
2074.431	750.79167
2077.118	743.45833
2079.804	727.45833
2082.487	725.79167
2085.169	740.125
2087.849	759.45833
2090.527	736.125
2093.203	754.45833
2095.877	755.45833
2098.55	750.125
2101.22	773.125
2103.889	779.79167
2106.556	771.79167
2109.221	800.45833
2111.884	824.125
2114.546	877.45833
2117.205	928.125
2119.863	1009.125
2122.519	1050.79167
2125.173	1106.79167
2127.825	1194.45833
2130.475	1191.45833
2133.124	1166.79167
2135.771	1117.79167
2138.416	1077.45833
2141.059	1000.79167
2143.7	964.79167
2146.339	912.125
2148.977	853.79167
2151.613	852.45833
2154.247	825.79167
2156.879	803.79167
2159.51	797.45833
2162.138	764.125
2164.765	762.45833
2167.39	758.45833
2170.013	776.45833
2172.634	773.79167
2175.254	750.79167
2177.872	773.79167
2180.488	717.45833
2183.102	735.79167
2185.714	725.45833
2188.325	703.125
2190.934	713.79167
2193.541	707.45833
2196.146	683.125
2198.75	684.79167
2201.351	691.125
2203.951	669.125
2206.549	692.79167
2209.146	669.79167
2211.74	673.125
2214.333	685.125
2216.924	646.45833
2219.514	662.79167
2222.101	654.125
2224.687	669.125
2227.271	638.79167
2229.853	642.79167
2232.433	632.79167
2235.012	663.125
2237.589	652.79167
2240.164	659.79167
2242.738	647.45833
2245.309	634.79167
2247.879	650.45833
2250.448	651.45833
2253.014	626.79167
2255.579	616.79167
2258.142	620.125
2260.703	602.125
2263.262	601.45833
2265.82	605.45833
2268.376	606.125
2270.93	598.125
2273.483	586.79167
2276.033	606.125
2278.583	588.45833
2281.13	590.125
2283.675	583.125
2286.219	586.125
2288.761	591.125
2291.302	597.79167
2293.841	597.79167
2296.377	576.79167
2298.913	575.45833
2301.446	583.79167
2303.978	576.79167
2306.508	571.79167
2309.037	574.79167
2311.563	577.45833
2314.088	578.125
2316.612	553.125
2319.133	575.79167
2321.653	568.125
2324.171	555.125
2326.688	570.45833
2329.202	561.125
2331.715	568.125
2334.227	561.45833
2336.736	554.45833
2339.244	560.79167
2341.751	550.125
2344.255	556.79167
2346.758	556.79167
2349.259	544.79167
2351.759	547.79167
2354.257	548.45833
2356.753	537.45833
2359.247	548.45833
2361.74	551.45833
2364.231	545.79167
2366.721	553.45833
2369.209	541.45833
2371.695	545.125
2374.179	542.45833
2376.662	528.45833
2379.143	552.45833
2381.622	539.79167
2384.1	550.125
2386.576	541.125
2389.051	545.45833
2391.524	565.125
2393.995	550.125
2396.464	535.125
2398.932	530.125
2401.398	543.45833
2403.863	528.79167
2406.325	534.45833
2408.787	536.45833
2411.246	536.79167
2413.704	532.45833
2416.16	522.45833
2418.615	540.45833
2421.068	533.79167
2423.519	529.79167
2425.969	529.79167
2428.417	543.79167
2430.863	551.45833
2433.308	543.45833
2435.751	534.125
2438.193	524.125
2440.633	532.79167
2443.071	529.45833
2445.508	518.79167
2447.943	530.79167
2450.376	514.45833
2452.808	535.45833
2455.238	517.79167
2457.667	551.125
2460.093	521.125
2462.519	513.45833
2464.942	516.79167
2467.365	535.125
2469.785	525.79167
2472.204	518.125
2474.621	521.79167
2477.037	542.125
2479.451	506.79167
2481.863	513.45833
2484.274	509.79167
2486.683	520.45833
2489.091	524.125
2491.497	510.79167
2493.901	510.125
2496.304	521.125
2498.705	524.125
2501.105	509.45833
2503.503	549.45833
2505.899	513.79167
2508.294	529.125
2510.687	507.79167
2513.079	512.45833
2515.469	504.79167
2517.858	518.45833
2520.245	523.125
2522.63	509.45833
2525.014	502.79167
2527.396	506.45833
2529.776	506.79167
2532.156	509.125
2534.533	491.125
2536.909	509.125
2539.283	497.45833
2541.656	503.45833
2544.027	529.45833
2546.397	518.125
2548.765	506.79167
2551.131	502.79167
2553.496	501.45833
2555.86	516.45833
2558.221	513.125
2560.582	504.45833
2562.94	497.79167
2565.298	506.79167
2567.653	533.45833
2570.007	499.45833
2572.36	516.125
2574.711	498.79167
2577.06	517.79167
2579.408	508.79167
2581.754	510.79167
2584.099	505.125
2586.442	506.79167
2588.784	511.125
2591.124	507.125
2593.463	512.45833
2595.8	506.45833
2598.135	497.45833
2600.469	507.125
2602.802	519.79167
2605.133	527.125
2607.462	502.79167
2609.79	505.79167
2612.116	515.45833
2614.441	512.79167
2616.764	518.79167
2619.086	509.125
2621.406	507.45833
2623.725	529.79167
2626.042	512.79167
2628.358	521.125
2630.672	510.79167
2632.985	533.45833
2635.296	515.125
2637.606	517.45833
2639.914	525.45833
2642.22	521.79167
2644.525	520.79167
2646.829	532.45833
2649.131	542.125
2651.432	537.79167
2653.731	521.79167
2656.028	546.45833
2658.324	526.79167
2660.619	526.125
2662.912	544.79167
2665.204	520.125
2667.494	538.125
2669.782	540.125
2672.07	549.125
2674.355	544.125
2676.639	535.45833
2678.922	538.125
2681.203	541.79167
2683.483	523.45833
2685.761	531.79167
2688.038	549.45833
2690.313	558.45833
2692.587	553.79167
2694.859	535.79167
2697.13	544.45833
2699.399	555.125
2701.667	563.125
2703.933	570.79167
2706.198	565.45833
2708.461	571.125
2710.723	581.125
2712.984	571.125
2715.243	583.79167
2717.5	575.125
2719.757	585.125
2722.011	578.79167
2724.264	597.45833
2726.516	593.79167
2728.766	585.125
2731.015	594.79167
2733.262	583.45833
2735.508	582.79167
2737.753	586.79167
2739.996	573.79167
2742.237	578.45833
2744.477	586.79167
2746.716	601.45833
2748.953	581.79167
2751.189	584.79167
2753.423	578.79167
2755.656	571.125
2757.887	569.79167
2760.117	582.45833
2762.346	562.45833
2764.573	567.79167
2766.798	555.45833
2769.022	573.45833
2771.245	568.45833
2773.467	570.125
2775.686	582.79167
2777.905	582.79167
2780.122	586.45833
2782.337	588.125
2784.552	601.125
2786.764	606.125
2788.976	599.125
2791.186	609.125
2793.394	619.125
2795.601	627.125
2797.807	641.79167
2800.011	640.125
2802.214	638.79167
2804.415	645.125
2806.615	657.125
2808.814	657.45833
2811.011	665.125
2813.206	662.79167
2815.401	672.79167
2817.594	683.79167
2819.785	704.79167
2821.975	691.125
2824.164	699.125
2826.351	732.79167
2828.537	736.125
2830.722	734.79167
2832.905	744.79167
2835.086	775.79167
2837.267	809.125
2839.445	825.125
2841.623	831.45833
2843.799	867.45833
2845.974	900.79167
2848.147	934.79167
2850.319	944.79167
2852.489	975.45833
2854.659	991.125
2856.826	995.125
2858.993	1019.45833
2861.158	1011.125
2863.321	1015.79167
2865.483	1028.125
2867.644	1031.79167
2869.804	1041.79167
2871.962	1038.125
2874.118	1030.79167
2876.274	1072.125
2878.428	1061.125
2880.58	1032.125
2882.731	1021.79167
2884.881	1028.79167
2887.03	1019.125
2889.177	1022.45833
2891.322	1021.45833
2893.467	1015.79167
2895.61	1026.79167
2897.751	1041.125
2899.892	1027.45833
2902.03	1048.45833
2904.168	1054.79167
2906.304	1047.79167
2908.439	1070.79167
2910.572	1050.125
2912.704	1067.79167
2914.835	1065.125
2916.965	1074.45833
2919.093	1069.45833
2921.219	1032.45833
2923.345	1063.79167
2925.469	1039.45833
2927.591	1036.125
2929.712	994.125
2931.832	1001.125
2933.951	979.45833
2936.068	947.79167
2938.184	928.125
2940.299	908.125
2942.412	892.45833
2944.524	855.125
2946.634	849.45833
2948.744	805.45833
2950.851	834.79167
2952.958	792.79167
2955.063	795.125
2957.167	773.45833
2959.269	743.45833
2961.371	760.125
2963.471	720.45833
2965.569	738.45833
2967.666	704.79167
2969.762	695.79167
2971.857	679.79167
2973.95	656.79167
2976.042	657.45833
2978.133	637.125
2980.222	630.45833
2982.31	614.125
2984.396	599.79167
2986.482	608.125
2988.566	614.79167
2990.648	584.45833
2992.73	595.125
2994.81	581.79167
2996.889	587.45833
2998.966	576.125
3001.042	579.79167
3003.117	587.79167
3005.191	572.45833
3007.263	570.125
3009.334	570.45833
3011.403	566.125
3013.472	545.79167
3015.539	541.79167
3017.604	555.79167
3019.669	521.79167
3021.732	520.45833
3023.794	526.45833
3025.854	509.79167
3027.914	504.79167
3029.971	528.125
3032.028	510.45833
3034.083	511.45833
3036.137	513.79167
3038.19	491.79167
3040.242	474.79167
3042.292	467.125
3044.341	461.125
3046.388	481.125
3048.435	457.45833
3050.48	471.45833
3052.524	461.45833
3054.566	439.45833
3056.607	461.79167
3058.647	443.125
3060.686	422.45833
3062.723	424.125
3064.759	407.125
3066.794	-1.20833
3068.828	-0.875
3070.86	-0.20833
