-0.839	380.875
3.438	416.54167
7.711	118.875
11.981	52.20833
16.247	45.54167
20.509	41.20833
24.768	46.54167
29.024	43.20833
33.276	41.54167
37.524	50.875
41.769	42.54167
46.01	38.20833
50.247	53.20833
54.481	59.875
58.712	67.875
62.939	49.54167
67.162	62.54167
71.382	56.20833
75.599	44.875
79.812	64.875
84.021	79.875
88.227	58.875
92.429	66.20833
96.628	49.875
100.823	62.54167
105.015	69.875
109.204	71.875
113.388	71.54167
117.57	70.875
121.748	83.875
125.922	76.20833
130.093	96.54167
134.261	98.875
138.425	93.875
142.585	131.875
146.742	132.20833
150.896	159.54167
155.046	187.54167
159.193	309.20833
163.336	528.875
167.476	960.20833
171.613	1738.54167
175.746	2880.20833
179.875	4242.875
184.002	5462.20833
188.124	6330.20833
192.244	6615.20833
196.36	6544.875
200.472	6370.54167
204.581	6214.20833
208.687	6025.875
212.79	6011.54167
216.889	6024.54167
220.984	6110.20833
225.077	6165.875
229.165	6237.54167
233.251	6316.875
237.333	6360.20833
241.412	6367.54167
245.487	6327.54167
249.559	6250.875
253.628	6255.54167
257.694	6187.875
261.756	6092.54167
265.814	5976.54167
269.87	5861.875
273.922	5681.875
277.97	5566.20833
282.016	5513.875
286.058	5505.20833
290.097	5564.54167
294.132	5561.20833
298.164	5496.20833
302.193	5242.875
306.219	4819.875
310.241	4400.20833
314.26	3978.54167
318.276	3657.54167
322.288	3428.20833
326.297	3219.54167
330.303	3079.54167
334.305	2971.54167
338.305	2918.54167
342.301	2860.875
346.294	2831.20833
350.283	2795.875
354.269	2775.875
358.252	2756.20833
362.232	2721.20833
366.209	2695.875
370.182	2668.20833
374.152	2656.20833
378.119	2659.20833
382.083	2639.54167
386.043	2665.20833
390	2620.20833
393.954	2594.875
397.905	2578.20833
401.852	2573.20833
405.797	2549.875
409.738	2526.54167
413.676	2492.20833
417.61	2492.875
421.542	2470.20833
425.47	2448.20833
429.396	2404.54167
433.318	2410.20833
437.236	2406.20833
441.152	2416.54167
445.065	2361.54167
448.974	2379.875
452.88	2320.875
456.783	2309.20833
460.683	2309.875
464.58	2310.54167
468.473	2302.875
472.364	2332.20833
476.251	2334.20833
480.135	2346.875
484.016	2376.20833
487.894	2376.54167
491.769	2394.875
495.641	2374.875
499.509	2380.875
503.375	2366.54167
507.237	2373.875
511.096	2378.20833
514.952	2378.54167
518.805	2412.875
522.655	2423.54167
526.502	2361.20833
530.346	2358.54167
534.187	2369.875
538.024	2372.875
541.859	2369.875
545.69	2386.20833
549.519	2385.20833
553.344	2341.20833
557.166	2317.54167
560.985	2298.54167
564.802	2271.875
568.615	2225.54167
572.425	2212.20833
576.232	2211.54167
580.036	2191.20833
583.836	2200.875
587.634	2196.54167
591.429	2186.875
595.221	2223.20833
599.01	2272.20833
602.796	2278.20833
606.578	2306.20833
610.358	2322.54167
614.135	2292.875
617.909	2305.875
621.679	2301.54167
625.447	2278.54167
629.212	2264.875
632.973	2288.20833
636.732	2270.20833
640.488	2283.54167
644.241	2246.20833
647.991	2234.875
651.737	2264.54167
655.481	2232.20833
659.222	2239.875
662.96	2218.54167
666.695	2262.875
670.427	2260.54167
674.156	2276.54167
677.882	2281.20833
681.605	2265.20833
685.325	2243.875
689.043	2249.20833
692.757	2246.54167
696.468	2236.20833
700.177	2262.54167
703.882	2218.54167
707.585	2245.20833
711.284	2221.54167
714.981	2232.54167
718.675	2252.875
722.366	2275.54167
726.054	2235.20833
729.739	2241.54167
733.421	2249.875
737.1	2250.20833
740.777	2266.875
744.45	2280.54167
748.121	2300.54167
751.789	2347.20833
755.453	2312.875
759.115	2350.54167
762.774	2369.875
766.431	2391.20833
770.084	2419.20833
773.734	2430.20833
777.382	2472.54167
781.027	2503.875
784.669	2506.54167
788.308	2539.20833
791.944	2540.875
795.577	2582.54167
799.208	2606.54167
802.835	2638.54167
806.46	2657.875
810.082	2669.20833
813.701	2651.54167
817.317	2686.875
820.931	2667.54167
824.542	2676.20833
828.149	2661.875
831.754	2617.54167
835.357	2626.20833
838.956	2632.20833
842.553	2597.54167
846.146	2592.875
849.737	2590.54167
853.326	2587.20833
856.911	2587.20833
860.493	2620.875
864.073	2634.875
867.65	2700.20833
871.225	2732.54167
874.796	2703.20833
878.365	2746.875
881.931	2742.54167
885.494	2774.875
889.054	2750.20833
892.612	2739.54167
896.166	2727.20833
899.719	2689.20833
903.268	2681.875
906.814	2646.54167
910.358	2641.20833
913.899	2612.875
917.438	2644.54167
920.973	2630.54167
924.506	2676.20833
928.036	2708.875
931.564	2716.875
935.088	2768.54167
938.61	2744.20833
942.129	2786.54167
945.646	2850.20833
949.16	2913.20833
952.671	2964.20833
956.179	2991.20833
959.685	2955.54167
963.188	2921.54167
966.688	2916.875
970.185	2838.875
973.68	2770.875
977.173	2733.20833
980.662	2727.875
984.149	2741.20833
987.633	2742.54167
991.114	2787.20833
994.593	2890.54167
998.069	2949.20833
1001.542	3045.54167
1005.013	2995.20833
1008.481	2817.20833
1011.947	2790.54167
1015.409	2775.20833
1018.869	2769.54167
1022.327	2775.54167
1025.782	2763.875
1029.234	2733.875
1032.683	2736.875
1036.13	2639.20833
1039.574	2536.54167
1043.016	2480.875
1046.455	2457.20833
1049.891	2421.54167
1053.325	2400.54167
1056.756	2417.20833
1060.184	2438.875
1063.61	2447.54167
1067.033	2459.20833
1070.454	2454.20833
1073.872	2504.875
1077.287	2493.54167
1080.7	2501.20833
1084.11	2499.54167
1087.517	2468.54167
1090.922	2454.20833
1094.325	2413.54167
1097.724	2402.20833
1101.122	2397.875
1104.516	2384.875
1107.908	2380.875
1111.298	2446.20833
1114.684	2452.20833
1118.069	2490.20833
1121.45	2510.20833
1124.83	2484.20833
1128.206	2536.54167
1131.58	2576.54167
1134.951	2622.20833
1138.32	2699.875
1141.687	2803.875
1145.05	2873.54167
1148.412	2902.54167
1151.77	2888.54167
1155.126	2892.54167
1158.48	2892.54167
1161.831	2908.54167
1165.18	2928.54167
1168.525	2970.20833
1171.869	3009.875
1175.21	3015.875
1178.548	3055.20833
1181.884	3099.54167
1185.217	3111.20833
1188.548	3154.20833
1191.877	3201.875
1195.202	3283.54167
1198.526	3327.20833
1201.846	3346.54167
1205.165	3360.20833
1208.48	3344.875
1211.794	3320.875
1215.104	3327.20833
1218.413	3325.20833
1221.719	3319.20833
1225.022	3291.875
1228.323	3261.20833
1231.621	3254.54167
1234.917	3234.20833
1238.21	3285.875
1241.501	3278.54167
1244.79	3263.54167
1248.076	3264.875
1251.359	3273.875
1254.64	3366.875
1257.919	3369.20833
1261.195	3424.875
1264.468	3481.54167
1267.74	3519.875
1271.008	3509.875
1274.275	3495.20833
1277.538	3470.875
1280.8	3451.20833
1284.059	3465.20833
1287.315	3513.875
1290.569	3530.875
1293.821	3545.875
1297.07	3538.20833
1300.317	3588.20833
1303.562	3563.875
1306.803	3530.20833
1310.043	3497.20833
1313.28	3436.875
1316.515	3424.875
1319.747	3377.20833
1322.977	3337.54167
1326.204	3287.20833
1329.429	3238.875
1332.652	3214.875
1335.872	3216.875
1339.09	3170.20833
1342.306	3195.875
1345.519	3182.20833
1348.729	3132.875
1351.938	3154.54167
1355.144	3106.875
1358.347	3031.875
1361.548	3043.20833
1364.747	3033.875
1367.944	3050.54167
1371.138	3048.20833
1374.329	3089.20833
1377.518	3093.875
1380.705	3133.875
1383.89	3107.20833
1387.072	3028.54167
1390.252	2942.54167
1393.429	2842.875
1396.605	2771.20833
1399.777	2666.54167
1402.948	2643.20833
1406.116	2627.20833
1409.282	2634.54167
1412.445	2635.875
1415.606	2679.20833
1418.765	2709.875
1421.921	2771.875
1425.075	2848.20833
1428.227	2916.20833
1431.376	3050.875
1434.524	3167.54167
1437.668	3244.20833
1440.811	3262.20833
1443.951	3280.54167
1447.089	3282.875
1450.224	3250.875
1453.357	3237.54167
1456.488	3231.875
1459.617	3203.20833
1462.743	3143.875
1465.867	3050.20833
1468.989	3030.54167
1472.108	2988.54167
1475.225	2916.54167
1478.34	2881.875
1481.453	2876.20833
1484.563	2884.54167
1487.671	2932.875
1490.776	2978.54167
1493.88	3011.54167
1496.981	3086.875
1500.08	3148.875
1503.176	3173.20833
1506.271	3217.20833
1509.363	3305.875
1512.452	3325.54167
1515.54	3357.20833
1518.625	3465.54167
1521.708	3602.875
1524.789	3762.54167
1527.867	4013.54167
1530.944	4216.54167
1534.018	4457.875
1537.089	4610.20833
1540.159	4590.54167
1543.226	4471.875
1546.291	4351.20833
1549.354	4188.875
1552.415	4048.54167
1555.473	3930.54167
1558.529	3866.875
1561.583	3817.20833
1564.634	3784.54167
1567.684	3756.20833
1570.731	3751.875
1573.776	3818.54167
1576.819	3838.20833
1579.859	3855.20833
1582.898	3911.54167
1585.934	3898.20833
1588.968	3940.875
1591.999	3937.20833
1595.029	3901.875
1598.056	3938.54167
1601.081	3946.875
1604.104	3942.875
1607.125	3897.20833
1610.144	3811.875
1613.16	3771.20833
1616.174	3659.20833
1619.186	3568.875
1622.196	3502.20833
1625.203	3393.54167
1628.209	3359.20833
1631.212	3320.54167
1634.213	3312.54167
1637.212	3259.875
1640.209	3216.54167
1643.203	3126.54167
1646.196	3036.20833
1649.186	2921.54167
1652.174	2852.875
1655.16	2759.875
1658.144	2665.20833
1661.125	2535.875
1664.105	2405.54167
1667.082	2314.875
1670.057	2173.875
1673.03	2057.54167
1676.001	1926.20833
1678.97	1813.20833
1681.937	1709.875
1684.901	1625.20833
1687.863	1564.875
1690.824	1496.20833
1693.782	1471.20833
1696.738	1398.20833
1699.692	1394.54167
1702.643	1354.54167
1705.593	1342.875
1708.54	1307.875
1711.486	1330.20833
1714.429	1274.54167
1717.37	1280.875
1720.309	1267.54167
1723.246	1264.875
1726.181	1230.20833
1729.113	1228.875
1732.044	1215.875
1734.972	1201.875
1737.899	1201.54167
1740.823	1196.54167
1743.745	1204.20833
1746.665	1145.20833
1749.583	1128.875
1752.499	1121.54167
1755.413	1103.54167
1758.325	1056.54167
1761.235	1074.20833
1764.142	1034.875
1767.048	1044.20833
1769.951	1026.54167
1772.852	1022.20833
1775.752	1012.20833
1778.649	1007.54167
1781.544	1012.20833
1784.437	990.875
1787.328	1006.20833
1790.217	989.20833
1793.104	961.20833
1795.989	968.54167
1798.872	952.54167
1801.753	972.875
1804.631	979.20833
1807.508	986.20833
1810.383	966.54167
1813.255	950.875
1816.126	961.54167
1818.994	939.54167
1821.861	946.875
1824.725	933.875
1827.587	932.875
1830.448	926.20833
1833.306	889.20833
1836.162	920.20833
1839.017	915.875
1841.869	913.20833
1844.719	891.54167
1847.567	894.20833
1850.414	890.875
1853.258	888.54167
1856.1	909.875
1858.94	913.875
1861.778	897.20833
1864.614	887.54167
1867.448	896.875
1870.28	890.54167
1873.111	900.875
1875.939	880.54167
1878.765	900.875
1881.589	877.54167
1884.411	883.20833
1887.231	895.20833
1890.049	873.54167
1892.865	869.20833
1895.68	851.20833
1898.492	863.20833
1901.302	856.20833
1904.11	855.20833
1906.916	844.20833
1909.721	834.20833
1912.523	850.875
1915.323	828.20833
1918.122	847.875
1920.918	851.20833
1923.712	844.875
1926.505	838.54167
1929.295	824.875
1932.084	830.54167
1934.87	831.875
1937.655	824.54167
1940.438	826.20833
1943.218	828.875
1945.997	825.20833
1948.774	837.20833
1951.549	838.20833
1954.322	824.54167
1957.093	822.875
1959.862	809.54167
1962.629	817.20833
1965.394	816.54167
1968.157	793.20833
1970.918	796.54167
1973.678	775.54167
1976.435	809.54167
1979.19	793.54167
1981.944	787.54167
1984.696	786.54167
1987.445	770.875
1990.193	786.875
1992.939	793.875
1995.683	785.54167
1998.425	765.54167
2001.165	784.54167
2003.903	762.875
2006.639	776.20833
2009.374	776.54167
2012.106	776.875
2014.837	741.875
2017.566	763.20833
2020.292	769.875
2023.017	768.54167
2025.74	751.20833
2028.461	748.20833
2031.18	751.54167
2033.898	741.54167
2036.613	751.54167
2039.327	763.54167
2042.038	740.20833
2044.748	746.20833
2047.456	744.875
2050.162	738.20833
2052.866	734.54167
2055.568	747.20833
2058.268	723.54167
2060.967	733.875
2063.663	715.20833
2066.358	733.54167
2069.051	722.54167
2071.742	731.875
2074.431	734.54167
2077.118	724.875
2079.804	710.54167
2082.487	731.20833
2085.169	739.20833
2087.849	740.20833
2090.527	711.875
2093.203	736.54167
2095.877	746.875
2098.55	741.20833
2101.22	772.875
2103.889	759.875
2106.556	744.54167
2109.221	790.54167
2111.884	797.20833
2114.546	860.875
2117.205	918.20833
2119.863	997.20833
2122.519	1050.54167
2125.173	1128.875
2127.825	1207.20833
2130.475	1214.875
2133.124	1178.54167
2135.771	1137.20833
2138.416	1117.875
2141.059	1024.54167
2143.7	984.875
2146.339	925.875
2148.977	864.20833
2151.613	859.54167
2154.247	826.20833
2156.879	815.20833
2159.51	792.54167
2162.138	771.20833
2164.765	775.20833
2167.39	747.875
2170.013	773.20833
2172.634	757.54167
2175.254	734.54167
2177.872	758.54167
2180.488	731.875
2183.102	726.54167
2185.714	716.875
2188.325	684.20833
2190.934	709.54167
2193.541	684.875
2196.146	691.54167
2198.75	663.875
2201.351	674.875
2203.951	659.875
2206.549	668.54167
2209.146	655.875
2211.74	652.54167
2214.333	645.875
2216.924	637.54167
2219.514	635.875
2222.101	619.875
2224.687	645.875
2227.271	620.20833
2229.853	636.20833
2232.433	606.54167
2235.012	634.54167
2237.589	621.20833
2240.164	626.20833
2242.738	631.875
2245.309	602.20833
2247.879	621.54167
2250.448	631.20833
2253.014	595.20833
2255.579	578.54167
2258.142	585.54167
2260.703	570.54167
2263.262	584.20833
2265.82	572.54167
2268.376	575.54167
2270.93	563.20833
2273.483	552.54167
2276.033	577.54167
2278.583	551.20833
2281.13	553.54167
2283.675	546.54167
2286.219	546.54167
2288.761	552.875
2291.302	562.875
2293.841	559.20833
2296.377	538.20833
2298.913	536.20833
2301.446	548.875
2303.978	538.20833
2306.508	540.875
2309.037	538.875
2311.563	539.20833
2314.088	541.20833
2316.612	511.875
2319.133	529.54167
2321.653	524.20833
2324.171	525.20833
2326.688	530.20833
2329.202	505.875
2331.715	520.20833
2334.227	517.875
2336.736	511.54167
2339.244	509.20833
2341.751	504.20833
2344.255	519.875
2346.758	501.54167
2349.259	499.20833
2351.759	506.54167
2354.257	502.20833
2356.753	499.20833
2359.247	493.875
2361.74	498.20833
2364.231	498.54167
2366.721	509.54167
2369.209	493.20833
2371.695	496.54167
2374.179	489.875
2376.662	481.20833
2379.143	510.20833
2381.622	494.54167
2384.1	497.54167
2386.576	483.54167
2389.051	492.20833
2391.524	496.875
2393.995	492.20833
2396.464	481.20833
2398.932	475.20833
2401.398	476.20833
2403.863	470.875
2406.325	471.54167
2408.787	478.20833
2411.246	470.20833
2413.704	471.20833
2416.16	467.54167
2418.615	464.54167
2421.068	477.54167
2423.519	463.54167
2425.969	463.875
2428.417	468.875
2430.863	489.875
2433.308	482.54167
2435.751	468.20833
2438.193	468.875
2440.633	467.875
2443.071	465.20833
2445.508	461.875
2447.943	448.54167
2450.376	446.20833
2452.808	460.20833
2455.238	455.54167
2457.667	475.875
2460.093	459.20833
2462.519	438.20833
2464.942	455.20833
2467.365	461.875
2469.785	460.875
2472.204	448.20833
2474.621	439.54167
2477.037	467.875
2479.451	429.875
2481.863	433.54167
2484.274	440.54167
2486.683	440.20833
2489.091	439.875
2491.497	438.20833
2493.901	436.875
2496.304	433.20833
2498.705	445.54167
2501.105	427.54167
2503.503	461.54167
2505.899	424.54167
2508.294	449.875
2510.687	420.875
2513.079	433.54167
2515.469	417.20833
2517.858	424.54167
2520.245	442.20833
2522.63	429.20833
2525.014	425.875
2527.396	423.875
2529.776	415.20833
2532.156	429.54167
2534.533	407.54167
2536.909	408.875
2539.283	397.54167
2541.656	408.875
2544.027	434.20833
2546.397	415.54167
2548.765	409.20833
2551.131	414.20833
2553.496	420.20833
2555.86	423.875
2558.221	407.54167
2560.582	402.20833
2562.94	398.875
2565.298	409.875
2567.653	424.875
2570.007	404.54167
2572.36	415.20833
2574.711	395.20833
2577.06	434.875
2579.408	404.20833
2581.754	400.54167
2584.099	411.54167
2586.442	405.54167
2588.784	414.20833
2591.124	411.54167
2593.463	411.875
2595.8	397.54167
2598.135	393.875
2600.469	394.875
2602.802	413.54167
2605.133	420.54167
2607.462	397.54167
2609.79	394.875
2612.116	405.875
2614.441	401.20833
2616.764	401.875
2619.086	395.20833
2621.406	389.20833
2623.725	398.20833
2626.042	399.20833
2628.358	388.875
2630.672	405.875
2632.985	407.54167
2635.296	402.54167
2637.606	402.875
2639.914	395.20833
2642.22	403.875
2644.525	395.875
2646.829	392.20833
2649.131	420.20833
2651.432	412.20833
2653.731	400.20833
2656.028	413.875
2658.324	402.875
2660.619	392.54167
2662.912	408.875
2665.204	387.875
2667.494	410.875
2669.782	396.54167
2672.07	407.20833
2674.355	417.20833
2676.639	400.20833
2678.922	402.875
2681.203	411.20833
2683.483	391.20833
2685.761	394.54167
2688.038	408.54167
2690.313	426.54167
2692.587	417.20833
2694.859	406.20833
2697.13	411.54167
2699.399	413.875
2701.667	425.20833
2703.933	429.875
2706.198	419.20833
2708.461	430.875
2710.723	433.20833
2712.984	423.875
2715.243	440.875
2717.5	425.54167
2719.757	446.20833
2722.011	441.20833
2724.264	439.20833
2726.516	469.54167
2728.766	438.20833
2731.015	448.20833
2733.262	437.875
2735.508	440.875
2737.753	436.20833
2739.996	416.20833
2742.237	422.875
2744.477	436.20833
2746.716	439.20833
2748.953	418.54167
2751.189	429.54167
2753.423	426.875
2755.656	412.875
2757.887	409.20833
2760.117	411.875
2762.346	407.54167
2764.573	410.54167
2766.798	407.20833
2769.022	408.875
2771.245	417.20833
2773.467	420.54167
2775.686	414.875
2777.905	422.20833
2780.122	431.20833
2782.337	436.54167
2784.552	418.875
2786.764	426.875
2788.976	431.875
2791.186	446.54167
2793.394	444.20833
2795.601	458.54167
2797.807	464.875
2800.011	467.54167
2802.214	484.875
2804.415	474.54167
2806.615	475.875
2808.814	490.20833
2811.011	501.54167
2813.206	497.20833
2815.401	522.20833
2817.594	525.875
2819.785	536.54167
2821.975	524.875
2824.164	536.875
2826.351	555.54167
2828.537	577.20833
2830.722	579.875
2832.905	585.20833
2835.086	614.54167
2837.267	648.54167
2839.445	664.875
2841.623	696.20833
2843.799	720.20833
2845.974	752.54167
2848.147	802.875
2850.319	808.20833
2852.489	841.54167
2854.659	843.875
2856.826	871.875
2858.993	882.20833
2861.158	870.20833
2863.321	875.20833
2865.483	882.54167
2867.644	885.875
2869.804	895.875
2871.962	869.875
2874.118	880.20833
2876.274	877.20833
2878.428	861.20833
2880.58	861.20833
2882.731	852.54167
2884.881	861.875
2887.03	878.54167
2889.177	873.20833
2891.322	871.20833
2893.467	864.54167
2895.61	878.54167
2897.751	896.875
2899.892	878.875
2902.03	890.875
2904.168	899.875
2906.304	900.20833
2908.439	926.20833
2910.572	892.875
2912.704	905.20833
2914.835	901.54167
2916.965	912.875
2919.093	925.875
2921.219	884.54167
2923.345	894.20833
2925.469	870.54167
2927.591	871.875
2929.712	849.54167
2931.832	834.54167
2933.951	808.875
2936.068	788.20833
2938.184	766.875
2940.299	750.20833
2942.412	719.20833
2944.524	688.20833
2946.634	685.54167
2948.744	624.875
2950.851	658.54167
2952.958	601.20833
2955.063	590.875
2957.167	584.54167
2959.269	549.875
2961.371	566.54167
2963.471	521.20833
2965.569	530.54167
2967.666	492.20833
2969.762	490.54167
2971.857	469.875
2973.95	458.54167
2976.042	446.54167
2978.133	440.875
2980.222	425.20833
2982.31	410.20833
2984.396	397.20833
2986.482	395.20833
2988.566	389.20833
2990.648	385.20833
2992.73	376.54167
2994.81	358.54167
2996.889	374.20833
2998.966	365.20833
3001.042	361.54167
3003.117	359.54167
3005.191	359.875
3007.263	352.875
3009.334	346.54167
3011.403	338.54167
3013.472	333.875
3015.539	330.54167
3017.604	343.875
3019.669	304.20833
3021.732	311.875
3023.794	316.54167
3025.854	299.54167
3027.914	294.875
3029.971	310.54167
3032.028	291.54167
3034.083	301.875
3036.137	295.54167
3038.19	284.20833
3040.242	279.20833
3042.292	268.54167
3044.341	269.54167
3046.388	284.20833
3048.435	253.875
3050.48	272.54167
3052.524	270.875
3054.566	248.20833
3056.607	268.54167
3058.647	255.54167
3060.686	239.20833
3062.723	234.875
3064.759	231.875
3066.794	-0.125
3068.828	-0.79167
3070.86	-1.45833
