-0.839	478.79167
3.438	495.79167
7.711	138.45833
11.981	57.125
16.247	48.45833
20.509	45.45833
24.768	47.45833
29.024	48.125
33.276	46.125
37.524	49.45833
41.769	40.79167
46.01	36.125
50.247	53.79167
54.481	62.79167
58.712	66.79167
62.939	45.79167
67.162	62.125
71.382	61.45833
75.599	46.125
79.812	62.45833
84.021	81.45833
88.227	59.125
92.429	63.125
96.628	51.79167
100.823	67.45833
105.015	78.45833
109.204	80.125
113.388	78.45833
117.57	77.79167
121.748	89.45833
125.922	82.79167
130.093	105.79167
134.261	108.79167
138.425	104.125
142.585	151.45833
146.742	150.45833
150.896	185.45833
155.046	233.125
159.193	377.45833
163.336	673.125
167.476	1245.125
171.613	2238.79167
175.746	3707.125
179.875	5342.45833
184.002	6839.45833
188.124	7820.79167
192.244	8023.125
196.36	7789.45833
200.472	7415.79167
204.581	7104.79167
208.687	6799.79167
212.79	6615.125
216.889	6477.45833
220.984	6429.45833
225.077	6388.45833
229.165	6369.45833
233.251	6357.45833
237.333	6339.45833
241.412	6205.79167
245.487	6170.45833
249.559	6112.79167
253.628	6008.125
257.694	5923.125
261.756	5851.125
265.814	5751.79167
269.87	5537.125
273.922	5389.45833
277.97	5323.45833
282.016	5266.125
286.058	5223.125
290.097	5287.79167
294.132	5275.125
298.164	5243.79167
302.193	4991.125
306.219	4625.79167
310.241	4235.125
314.26	3917.45833
318.276	3582.125
322.288	3390.125
326.297	3195.45833
330.303	3047.45833
334.305	2976.79167
338.305	2889.79167
342.301	2857.79167
346.294	2825.125
350.283	2784.125
354.269	2749.125
358.252	2732.45833
362.232	2701.45833
366.209	2669.79167
370.182	2631.79167
374.152	2616.45833
378.119	2609.45833
382.083	2601.125
386.043	2606.125
390	2562.125
393.954	2557.45833
397.905	2539.45833
401.852	2550.45833
405.797	2509.125
409.738	2508.125
413.676	2528.125
417.61	2509.45833
421.542	2448.45833
425.47	2401.79167
429.396	2407.79167
433.318	2380.79167
437.236	2367.125
441.152	2387.45833
445.065	2313.45833
448.974	2304.79167
452.88	2290.45833
456.783	2273.125
460.683	2245.45833
464.58	2257.79167
468.473	2263.79167
472.364	2262.79167
476.251	2264.79167
480.135	2286.45833
484.016	2323.125
487.894	2304.45833
491.769	2332.125
495.641	2323.79167
499.509	2340.45833
503.375	2319.125
507.237	2328.45833
511.096	2336.79167
514.952	2407.79167
518.805	2472.45833
522.655	2476.125
526.502	2386.45833
530.346	2332.79167
534.187	2301.79167
538.024	2310.125
541.859	2289.125
545.69	2325.79167
549.519	2316.79167
553.344	2287.125
557.166	2267.125
560.985	2240.125
564.802	2212.45833
568.615	2195.79167
572.425	2163.79167
576.232	2125.79167
580.036	2126.79167
583.836	2161.79167
587.634	2141.79167
591.429	2134.45833
595.221	2175.79167
599.01	2191.45833
602.796	2220.79167
606.578	2223.125
610.358	2230.79167
614.135	2228.45833
617.909	2226.79167
621.679	2227.125
625.447	2203.125
629.212	2196.79167
632.973	2210.125
636.732	2214.125
640.488	2210.45833
644.241	2183.79167
647.991	2168.45833
651.737	2175.125
655.481	2157.125
659.222	2159.125
662.96	2169.125
666.695	2181.125
670.427	2191.45833
674.156	2196.79167
677.882	2193.79167
681.605	2208.125
685.325	2171.125
689.043	2173.125
692.757	2169.45833
696.468	2166.45833
700.177	2166.79167
703.882	2162.125
707.585	2171.45833
711.284	2166.79167
714.981	2157.79167
718.675	2175.125
722.366	2208.79167
726.054	2163.45833
729.739	2165.79167
733.421	2185.125
737.1	2166.45833
740.777	2195.45833
744.45	2210.45833
748.121	2207.79167
751.789	2277.45833
755.453	2264.45833
759.115	2249.45833
762.774	2303.79167
766.431	2316.125
770.084	2331.125
773.734	2360.125
777.382	2391.125
781.027	2421.125
784.669	2434.45833
788.308	2426.125
791.944	2463.125
795.577	2470.45833
799.208	2498.79167
802.835	2514.79167
806.46	2523.79167
810.082	2535.45833
813.701	2536.45833
817.317	2572.45833
820.931	2558.125
824.542	2550.79167
828.149	2522.45833
831.754	2513.79167
835.357	2499.79167
838.956	2504.125
842.553	2469.45833
846.146	2495.45833
849.737	2471.125
853.326	2469.79167
856.911	2478.125
860.493	2512.45833
864.073	2534.45833
867.65	2608.45833
871.225	2620.125
874.796	2598.125
878.365	2617.79167
881.931	2628.125
885.494	2640.125
889.054	2637.45833
892.612	2630.45833
896.166	2606.45833
899.719	2583.125
903.268	2565.125
906.814	2557.125
910.358	2495.79167
913.899	2516.79167
917.438	2521.45833
920.973	2488.125
924.506	2538.45833
928.036	2577.79167
931.564	2612.45833
935.088	2618.79167
938.61	2629.79167
942.129	2654.125
945.646	2701.45833
949.16	2773.125
952.671	2822.79167
956.179	2859.79167
959.685	2814.45833
963.188	2836.125
966.688	2783.45833
970.185	2714.79167
973.68	2678.79167
977.173	2649.79167
980.662	2633.45833
984.149	2636.125
987.633	2644.79167
991.114	2697.79167
994.593	2778.45833
998.069	2866.79167
1001.542	2946.45833
1005.013	2871.45833
1008.481	2709.45833
1011.947	2643.125
1015.409	2653.45833
1018.869	2647.79167
1022.327	2629.79167
1025.782	2617.45833
1029.234	2629.79167
1032.683	2609.45833
1036.13	2502.125
1039.574	2443.79167
1043.016	2391.45833
1046.455	2327.125
1049.891	2293.125
1053.325	2303.125
1056.756	2315.79167
1060.184	2303.79167
1063.61	2335.125
1067.033	2339.45833
1070.454	2325.125
1073.872	2365.79167
1077.287	2393.45833
1080.7	2381.45833
1084.11	2383.45833
1087.517	2353.79167
1090.922	2335.45833
1094.325	2305.45833
1097.724	2277.125
1101.122	2262.79167
1104.516	2253.45833
1107.908	2260.79167
1111.298	2329.125
1114.684	2325.79167
1118.069	2362.45833
1121.45	2394.125
1124.83	2378.45833
1128.206	2424.125
1131.58	2466.125
1134.951	2518.125
1138.32	2593.79167
1141.687	2679.79167
1145.05	2760.125
1148.412	2760.45833
1151.77	2736.45833
1155.126	2736.45833
1158.48	2721.125
1161.831	2755.45833
1165.18	2765.45833
1168.525	2831.45833
1171.869	2847.79167
1175.21	2863.79167
1178.548	2905.45833
1181.884	2943.125
1185.217	2936.45833
1188.548	2998.79167
1191.877	3012.79167
1195.202	3114.45833
1198.526	3157.79167
1201.846	3151.45833
1205.165	3176.125
1208.48	3134.45833
1211.794	3170.45833
1215.104	3198.125
1218.413	3189.45833
1221.719	3173.45833
1225.022	3143.45833
1228.323	3116.79167
1231.621	3128.79167
1234.917	3088.125
1238.21	3109.45833
1241.501	3081.79167
1244.79	3115.79167
1248.076	3123.125
1251.359	3129.125
1254.64	3182.125
1257.919	3231.79167
1261.195	3287.79167
1264.468	3359.125
1267.74	3418.79167
1271.008	3391.125
1274.275	3367.125
1277.538	3342.125
1280.8	3320.125
1284.059	3300.125
1287.315	3360.79167
1290.569	3383.125
1293.821	3410.125
1297.07	3415.125
1300.317	3410.45833
1303.562	3404.79167
1306.803	3354.125
1310.043	3349.79167
1313.28	3280.45833
1316.515	3250.79167
1319.747	3235.45833
1322.977	3171.125
1326.204	3165.79167
1329.429	3098.125
1332.652	3077.79167
1335.872	3075.125
1339.09	3067.45833
1342.306	3081.45833
1345.519	3049.125
1348.729	3029.125
1351.938	3005.125
1355.144	2968.125
1358.347	2942.79167
1361.548	2943.125
1364.747	2961.79167
1367.944	2933.125
1371.138	2939.79167
1374.329	2965.125
1377.518	2975.45833
1380.705	3010.79167
1383.89	3007.45833
1387.072	2916.125
1390.252	2820.79167
1393.429	2725.125
1396.605	2629.45833
1399.777	2552.125
1402.948	2548.125
1406.116	2512.45833
1409.282	2515.45833
1412.445	2525.45833
1415.606	2569.45833
1418.765	2582.45833
1421.921	2682.79167
1425.075	2702.79167
1428.227	2814.79167
1431.376	2928.79167
1434.524	3062.79167
1437.668	3104.79167
1440.811	3126.79167
1443.951	3156.79167
1447.089	3132.79167
1450.224	3161.79167
1453.357	3131.79167
1456.488	3099.45833
1459.617	3037.125
1462.743	2996.125
1465.867	2940.125
1468.989	2897.125
1472.108	2855.125
1475.225	2825.79167
1478.34	2768.79167
1481.453	2784.125
1484.563	2775.45833
1487.671	2818.125
1490.776	2870.79167
1493.88	2926.79167
1496.981	2980.45833
1500.08	3027.79167
1503.176	3080.45833
1506.271	3109.125
1509.363	3147.125
1512.452	3172.45833
1515.54	3227.79167
1518.625	3273.45833
1521.708	3404.79167
1524.789	3562.45833
1527.867	3759.45833
1530.944	3999.79167
1534.018	4205.79167
1537.089	4391.79167
1540.159	4376.45833
1543.226	4319.45833
1546.291	4168.125
1549.354	4054.45833
1552.415	3906.125
1555.473	3780.125
1558.529	3679.125
1561.583	3641.125
1564.634	3594.125
1567.684	3598.125
1570.731	3593.45833
1573.776	3589.79167
1576.819	3631.45833
1579.859	3647.79167
1582.898	3698.45833
1585.934	3707.79167
1588.968	3731.79167
1591.999	3704.125
1595.029	3722.79167
1598.056	3733.45833
1601.081	3746.79167
1604.104	3726.45833
1607.125	3721.125
1610.144	3634.125
1613.16	3539.79167
1616.174	3472.79167
1619.186	3396.79167
1622.196	3325.125
1625.203	3221.45833
1628.209	3219.125
1631.212	3186.79167
1634.213	3216.79167
1637.212	3196.125
1640.209	3121.79167
1643.203	3071.45833
1646.196	2962.45833
1649.186	2872.125
1652.174	2797.79167
1655.16	2708.125
1658.144	2639.125
1661.125	2511.125
1664.105	2412.79167
1667.082	2312.125
1670.057	2157.79167
1673.03	2025.79167
1676.001	1907.79167
1678.97	1769.125
1681.937	1674.45833
1684.901	1568.125
1687.863	1532.125
1690.824	1450.45833
1693.782	1438.45833
1696.738	1385.125
1699.692	1352.45833
1702.643	1329.45833
1705.593	1310.125
1708.54	1306.79167
1711.486	1298.125
1714.429	1255.125
1717.37	1234.125
1720.309	1232.125
1723.246	1225.125
1726.181	1204.79167
1729.113	1208.79167
1732.044	1175.125
1734.972	1162.125
1737.899	1160.125
1740.823	1162.45833
1743.745	1177.79167
1746.665	1103.125
1749.583	1115.79167
1752.499	1106.79167
1755.413	1070.125
1758.325	1053.125
1761.235	1070.125
1764.142	1026.45833
1767.048	1021.125
1769.951	1024.45833
1772.852	1004.125
1775.752	1016.125
1778.649	1024.45833
1781.544	1018.79167
1784.437	982.45833
1787.328	981.125
1790.217	974.79167
1793.104	954.45833
1795.989	942.45833
1798.872	947.79167
1801.753	977.79167
1804.631	971.125
1807.508	968.45833
1810.383	953.79167
1813.255	943.79167
1816.126	931.45833
1818.994	938.45833
1821.861	943.125
1824.725	931.79167
1827.587	925.125
1830.448	920.125
1833.306	907.125
1836.162	923.45833
1839.017	909.125
1841.869	903.79167
1844.719	903.79167
1847.567	873.79167
1850.414	871.125
1853.258	873.45833
1856.1	895.45833
1858.94	897.79167
1861.778	894.45833
1864.614	881.45833
1867.448	875.45833
1870.28	886.79167
1873.111	890.125
1875.939	882.45833
1878.765	888.45833
1881.589	884.79167
1884.411	864.79167
1887.231	879.125
1890.049	872.45833
1892.865	872.45833
1895.68	860.125
1898.492	865.45833
1901.302	855.79167
1904.11	856.125
1906.916	845.79167
1909.721	851.125
1912.523	849.79167
1915.323	829.125
1918.122	830.125
1920.918	839.45833
1923.712	833.125
1926.505	834.125
1929.295	814.79167
1932.084	835.125
1934.87	838.79167
1937.655	811.45833
1940.438	828.79167
1943.218	824.125
1945.997	826.79167
1948.774	832.125
1951.549	830.79167
1954.322	809.79167
1957.093	823.125
1959.862	810.79167
1962.629	813.45833
1965.394	801.45833
1968.157	781.79167
1970.918	804.79167
1973.678	790.45833
1976.435	800.79167
1979.19	784.45833
1981.944	779.45833
1984.696	789.125
1987.445	770.125
1990.193	794.45833
1992.939	798.45833
1995.683	782.79167
1998.425	773.45833
2001.165	779.79167
2003.903	767.45833
2006.639	773.79167
2009.374	773.79167
2012.106	783.125
2014.837	749.45833
2017.566	771.45833
2020.292	769.45833
2023.017	766.125
2025.74	756.45833
2028.461	751.45833
2031.18	759.45833
2033.898	752.45833
2036.613	751.125
2039.327	764.45833
2042.038	737.79167
2044.748	750.45833
2047.456	756.125
2050.162	734.125
2052.866	737.79167
2055.568	752.125
2058.268	739.45833
2060.967	749.79167
2063.663	736.79167
2066.358	736.79167
2069.051	733.45833
2071.742	740.45833
2074.431	738.45833
2077.118	731.125
2079.804	722.79167
2082.487	742.45833
2085.169	740.79167
2087.849	755.79167
2090.527	737.79167
2093.203	740.79167
2095.877	757.125
2098.55	743.45833
2101.22	763.125
2103.889	770.125
2106.556	766.125
2109.221	788.45833
2111.884	821.125
2114.546	872.79167
2117.205	927.79167
2119.863	1009.125
2122.519	1061.79167
2125.173	1130.125
2127.825	1187.45833
2130.475	1169.45833
2133.124	1163.125
2135.771	1106.45833
2138.416	1059.79167
2141.059	1001.79167
2143.7	947.79167
2146.339	896.79167
2148.977	859.125
2151.613	844.45833
2154.247	830.79167
2156.879	798.125
2159.51	791.79167
2162.138	774.125
2164.765	769.125
2167.39	744.79167
2170.013	764.125
2172.634	759.125
2175.254	743.125
2177.872	763.45833
2180.488	718.45833
2183.102	734.79167
2185.714	710.125
2188.325	691.45833
2190.934	702.79167
2193.541	704.45833
2196.146	700.45833
2198.75	684.45833
2201.351	686.125
2203.951	673.79167
2206.549	678.45833
2209.146	654.45833
2211.74	668.79167
2214.333	679.79167
2216.924	671.125
2219.514	661.45833
2222.101	652.79167
2224.687	675.45833
2227.271	636.45833
2229.853	638.79167
2232.433	636.125
2235.012	658.45833
2237.589	645.79167
2240.164	663.45833
2242.738	645.45833
2245.309	634.125
2247.879	640.45833
2250.448	645.125
2253.014	613.125
2255.579	606.79167
2258.142	610.45833
2260.703	603.79167
2263.262	605.125
2265.82	608.125
2268.376	606.125
2270.93	591.45833
2273.483	577.79167
2276.033	593.79167
2278.583	588.79167
2281.13	597.79167
2283.675	577.45833
2286.219	574.79167
2288.761	577.79167
2291.302	595.125
2293.841	589.79167
2296.377	566.45833
2298.913	577.45833
2301.446	577.125
2303.978	575.125
2306.508	579.125
2309.037	568.125
2311.563	568.79167
2314.088	571.79167
2316.612	554.125
2319.133	559.45833
2321.653	555.125
2324.171	556.45833
2326.688	570.45833
2329.202	561.79167
2331.715	568.125
2334.227	563.125
2336.736	554.79167
2339.244	551.79167
2341.751	535.45833
2344.255	559.79167
2346.758	546.79167
2349.259	546.79167
2351.759	551.79167
2354.257	547.45833
2356.753	539.125
2359.247	540.79167
2361.74	554.45833
2364.231	549.125
2366.721	553.79167
2369.209	536.79167
2371.695	535.79167
2374.179	530.79167
2376.662	537.79167
2379.143	552.79167
2381.622	536.125
2384.1	544.45833
2386.576	538.125
2389.051	543.45833
2391.524	557.79167
2393.995	556.125
2396.464	523.79167
2398.932	538.125
2401.398	537.125
2403.863	528.79167
2406.325	524.125
2408.787	531.79167
2411.246	531.125
2413.704	521.79167
2416.16	531.79167
2418.615	541.79167
2421.068	536.125
2423.519	543.45833
2425.969	532.79167
2428.417	539.79167
2430.863	554.79167
2433.308	540.45833
2435.751	531.79167
2438.193	534.79167
2440.633	544.125
2443.071	528.79167
2445.508	514.45833
2447.943	517.45833
2450.376	523.45833
2452.808	525.45833
2455.238	517.45833
2457.667	550.45833
2460.093	527.45833
2462.519	516.79167
2464.942	514.45833
2467.365	528.45833
2469.785	527.45833
2472.204	520.125
2474.621	514.45833
2477.037	539.79167
2479.451	506.125
2481.863	509.79167
2484.274	512.45833
2486.683	523.45833
2489.091	524.45833
2491.497	522.79167
2493.901	512.125
2496.304	516.79167
2498.705	522.45833
2501.105	512.79167
2503.503	546.79167
2505.899	504.79167
2508.294	526.79167
2510.687	506.45833
2513.079	517.125
2515.469	503.79167
2517.858	512.45833
2520.245	532.45833
2522.63	523.125
2525.014	512.125
2527.396	502.125
2529.776	499.125
2532.156	508.125
2534.533	497.45833
2536.909	504.125
2539.283	498.45833
2541.656	501.125
2544.027	529.45833
2546.397	510.125
2548.765	512.125
2551.131	513.79167
2553.496	507.45833
2555.86	519.125
2558.221	515.79167
2560.582	508.79167
2562.94	497.125
2565.298	507.125
2567.653	523.45833
2570.007	506.79167
2572.36	514.125
2574.711	502.45833
2577.06	531.45833
2579.408	511.125
2581.754	514.79167
2584.099	507.125
2586.442	515.45833
2588.784	518.79167
2591.124	513.125
2593.463	505.125
2595.8	512.45833
2598.135	494.125
2600.469	511.79167
2602.802	527.125
2605.133	529.125
2607.462	512.125
2609.79	504.45833
2612.116	512.125
2614.441	517.45833
2616.764	517.45833
2619.086	519.45833
2621.406	511.125
2623.725	532.79167
2626.042	518.79167
2628.358	517.125
2630.672	513.125
2632.985	531.125
2635.296	519.125
2637.606	517.45833
2639.914	510.125
2642.22	530.125
2644.525	518.125
2646.829	530.79167
2649.131	544.45833
2651.432	539.79167
2653.731	524.125
2656.028	539.45833
2658.324	541.125
2660.619	524.45833
2662.912	538.79167
2665.204	538.79167
2667.494	547.125
2669.782	525.125
2672.07	537.45833
2674.355	559.125
2676.639	542.125
2678.922	524.45833
2681.203	548.125
2683.483	529.79167
2685.761	521.79167
2688.038	547.45833
2690.313	560.125
2692.587	549.45833
2694.859	556.45833
2697.13	544.125
2699.399	546.79167
2701.667	571.45833
2703.933	565.45833
2706.198	579.125
2708.461	582.125
2710.723	581.125
2712.984	568.79167
2715.243	586.125
2717.5	577.125
2719.757	596.79167
2722.011	576.45833
2724.264	596.45833
2726.516	608.125
2728.766	590.125
2731.015	598.125
2733.262	582.45833
2735.508	587.79167
2737.753	586.79167
2739.996	575.45833
2742.237	578.79167
2744.477	596.79167
2746.716	588.45833
2748.953	584.125
2751.189	586.79167
2753.423	564.45833
2755.656	571.79167
2757.887	568.79167
2760.117	574.125
2762.346	571.79167
2764.573	579.45833
2766.798	576.79167
2769.022	582.125
2771.245	575.45833
2773.467	581.125
2775.686	566.79167
2777.905	582.45833
2780.122	580.125
2782.337	595.79167
2784.552	585.45833
2786.764	608.125
2788.976	598.45833
2791.186	616.45833
2793.394	612.125
2795.601	623.79167
2797.807	646.125
2800.011	640.125
2802.214	644.125
2804.415	646.125
2806.615	655.125
2808.814	657.125
2811.011	663.45833
2813.206	675.79167
2815.401	687.45833
2817.594	700.125
2819.785	698.45833
2821.975	690.79167
2824.164	709.125
2826.351	728.125
2828.537	739.125
2830.722	756.45833
2832.905	747.125
2835.086	783.79167
2837.267	811.125
2839.445	829.45833
2841.623	842.125
2843.799	867.45833
2845.974	910.125
2848.147	935.45833
2850.319	957.79167
2852.489	990.45833
2854.659	984.79167
2856.826	1010.125
2858.993	1034.79167
2861.158	1025.79167
2863.321	1003.79167
2865.483	1045.45833
2867.644	1034.125
2869.804	1033.125
2871.962	1035.45833
2874.118	1051.125
2876.274	1078.125
2878.428	1061.79167
2880.58	1028.125
2882.731	1013.79167
2884.881	1020.45833
2887.03	1014.45833
2889.177	1017.45833
2891.322	1035.125
2893.467	1024.79167
2895.61	1016.125
2897.751	1048.45833
2899.892	1040.125
2902.03	1044.45833
2904.168	1058.79167
2906.304	1055.45833
2908.439	1072.45833
2910.572	1058.79167
2912.704	1071.125
2914.835	1072.45833
2916.965	1056.125
2919.093	1082.79167
2921.219	1033.45833
2923.345	1057.79167
2925.469	1045.79167
2927.591	1032.125
2929.712	1003.79167
2931.832	983.45833
2933.951	965.125
2936.068	953.79167
2938.184	937.125
2940.299	902.125
2942.412	888.45833
2944.524	866.125
2946.634	856.79167
2948.744	803.125
2950.851	841.79167
2952.958	805.125
2955.063	786.45833
2957.167	784.79167
2959.269	748.45833
2961.371	774.45833
2963.471	731.79167
2965.569	736.45833
2967.666	707.79167
2969.762	703.125
2971.857	682.79167
2973.95	669.79167
2976.042	664.125
2978.133	652.45833
2980.222	644.79167
2982.31	616.79167
2984.396	602.79167
2986.482	607.125
2988.566	613.79167
2990.648	594.125
2992.73	585.125
2994.81	584.45833
2996.889	585.125
2998.966	579.45833
3001.042	592.45833
3003.117	581.79167
3005.191	589.125
3007.263	571.45833
3009.334	569.125
3011.403	571.45833
3013.472	539.125
3015.539	550.79167
3017.604	552.79167
3019.669	520.125
3021.732	519.125
3023.794	534.45833
3025.854	506.45833
3027.914	523.45833
3029.971	525.79167
3032.028	510.79167
3034.083	527.79167
3036.137	520.125
3038.19	506.125
3040.242	481.125
3042.292	472.45833
3044.341	468.79167
3046.388	493.125
3048.435	459.125
3050.48	482.45833
3052.524	470.45833
3054.566	445.45833
3056.607	458.79167
3058.647	451.125
3060.686	424.125
3062.723	418.125
3064.759	410.125
3066.794	-0.875
3068.828	-2.20833
3070.86	-0.20833
