-0.839	454.79167
3.438	493.79167
7.711	135.45833
11.981	53.45833
16.247	51.45833
20.509	44.79167
24.768	45.45833
29.024	48.125
33.276	42.45833
37.524	48.125
41.769	42.79167
46.01	37.45833
50.247	53.45833
54.481	63.45833
58.712	68.45833
62.939	53.79167
67.162	62.125
71.382	60.45833
75.599	49.45833
79.812	65.79167
84.021	82.79167
88.227	64.125
92.429	66.79167
96.628	50.45833
100.823	73.45833
105.015	81.125
109.204	77.125
113.388	82.125
117.57	77.79167
121.748	91.79167
125.922	88.79167
130.093	108.45833
134.261	120.45833
138.425	115.45833
142.585	157.45833
146.742	155.125
150.896	191.125
155.046	248.45833
159.193	405.125
163.336	705.125
167.476	1287.125
171.613	2340.125
175.746	3878.45833
179.875	5699.125
184.002	7342.125
188.124	8376.79167
192.244	8641.79167
196.36	8498.79167
200.472	8153.79167
204.581	7879.125
208.687	7613.79167
212.79	7470.79167
216.889	7395.45833
220.984	7376.79167
225.077	7445.45833
229.165	7476.125
233.251	7538.45833
237.333	7554.125
241.412	7499.79167
245.487	7409.79167
249.559	7362.45833
253.628	7280.45833
257.694	7216.79167
261.756	7100.125
265.814	6966.45833
269.87	6754.79167
273.922	6548.125
277.97	6403.45833
282.016	6279.45833
286.058	6237.79167
290.097	6270.79167
294.132	6262.45833
298.164	6208.45833
302.193	5883.45833
306.219	5445.125
310.241	4941.125
314.26	4497.125
318.276	4116.125
322.288	3851.79167
326.297	3621.45833
330.303	3473.79167
334.305	3346.45833
338.305	3268.45833
342.301	3197.79167
346.294	3136.79167
350.283	3112.79167
354.269	3088.45833
358.252	3040.45833
362.232	3027.125
366.209	2960.79167
370.182	2926.45833
374.152	2907.79167
378.119	2908.125
382.083	2911.45833
386.043	2922.125
390	2867.45833
393.954	2811.79167
397.905	2822.125
401.852	2791.45833
405.797	2746.125
409.738	2713.45833
413.676	2706.79167
417.61	2683.125
421.542	2661.79167
425.47	2622.45833
429.396	2607.125
433.318	2608.45833
437.236	2582.45833
441.152	2596.125
445.065	2542.79167
448.974	2536.125
452.88	2488.45833
456.783	2489.79167
460.683	2453.125
464.58	2461.125
468.473	2465.45833
472.364	2441.45833
476.251	2461.45833
480.135	2470.79167
484.016	2499.45833
487.894	2517.79167
491.769	2525.79167
495.641	2515.125
499.509	2527.45833
503.375	2526.125
507.237	2519.79167
511.096	2512.125
514.952	2528.79167
518.805	2525.79167
522.655	2523.79167
526.502	2494.79167
530.346	2501.125
534.187	2516.125
538.024	2502.79167
541.859	2511.125
545.69	2542.79167
549.519	2530.125
553.344	2507.45833
557.166	2454.125
560.985	2425.125
564.802	2397.125
568.615	2355.45833
572.425	2336.79167
576.232	2331.45833
580.036	2305.45833
583.836	2307.125
587.634	2305.79167
591.429	2315.79167
595.221	2372.79167
599.01	2381.125
602.796	2409.125
606.578	2434.79167
610.358	2435.79167
614.135	2408.45833
617.909	2416.79167
621.679	2406.45833
625.447	2376.125
629.212	2407.125
632.973	2404.125
636.732	2394.125
640.488	2384.79167
644.241	2373.79167
647.991	2349.45833
651.737	2388.45833
655.481	2322.45833
659.222	2344.45833
662.96	2348.125
666.695	2363.45833
670.427	2382.125
674.156	2378.79167
677.882	2385.45833
681.605	2374.125
685.325	2366.125
689.043	2396.125
692.757	2369.45833
696.468	2369.45833
700.177	2373.125
703.882	2357.79167
707.585	2355.79167
711.284	2368.125
714.981	2359.125
718.675	2372.79167
722.366	2396.45833
726.054	2354.79167
729.739	2349.125
733.421	2365.125
737.1	2374.125
740.777	2389.45833
744.45	2413.125
748.121	2435.45833
751.789	2491.125
755.453	2458.79167
759.115	2500.125
762.774	2534.45833
766.431	2552.125
770.084	2560.79167
773.734	2612.79167
777.382	2655.45833
781.027	2686.79167
784.669	2708.125
788.308	2716.125
791.944	2745.45833
795.577	2758.45833
799.208	2806.125
802.835	2805.79167
806.46	2808.45833
810.082	2853.45833
813.701	2853.125
817.317	2908.45833
820.931	2892.79167
824.542	2865.45833
828.149	2869.45833
831.754	2844.79167
835.357	2821.79167
838.956	2837.79167
842.553	2812.125
846.146	2806.125
849.737	2820.45833
853.326	2817.45833
856.911	2841.125
860.493	2876.79167
864.073	2895.79167
867.65	2944.45833
871.225	2968.79167
874.796	2975.45833
878.365	2994.79167
881.931	3016.79167
885.494	3043.79167
889.054	3053.125
892.612	3041.125
896.166	3017.79167
899.719	2979.79167
903.268	2951.45833
906.814	2947.45833
910.358	2951.125
913.899	2919.125
917.438	2925.79167
920.973	2922.45833
924.506	2942.79167
928.036	2977.125
931.564	3008.125
935.088	3040.125
938.61	3055.45833
942.129	3061.79167
945.646	3134.125
949.16	3244.79167
952.671	3315.79167
956.179	3314.79167
959.685	3296.79167
963.188	3240.79167
966.688	3176.45833
970.185	3113.125
973.68	3049.79167
977.173	3024.79167
980.662	3003.45833
984.149	3008.45833
987.633	3009.45833
991.114	3080.79167
994.593	3205.125
998.069	3305.45833
1001.542	3410.45833
1005.013	3317.125
1008.481	3146.79167
1011.947	3097.45833
1015.409	3070.125
1018.869	3083.45833
1022.327	3073.79167
1025.782	3061.79167
1029.234	3050.45833
1032.683	3000.45833
1036.13	2903.125
1039.574	2789.45833
1043.016	2724.79167
1046.455	2671.79167
1049.891	2641.125
1053.325	2656.79167
1056.756	2636.79167
1060.184	2674.45833
1063.61	2669.45833
1067.033	2699.125
1070.454	2674.79167
1073.872	2740.125
1077.287	2709.45833
1080.7	2729.125
1084.11	2720.79167
1087.517	2690.79167
1090.922	2690.79167
1094.325	2659.79167
1097.724	2641.45833
1101.122	2627.79167
1104.516	2622.79167
1107.908	2649.45833
1111.298	2692.45833
1114.684	2717.79167
1118.069	2762.125
1121.45	2792.45833
1124.83	2790.79167
1128.206	2845.45833
1131.58	2882.79167
1134.951	2995.125
1138.32	3100.45833
1141.687	3240.45833
1145.05	3324.45833
1148.412	3368.79167
1151.77	3353.125
1155.126	3372.45833
1158.48	3379.45833
1161.831	3401.125
1165.18	3422.79167
1168.525	3494.125
1171.869	3533.125
1175.21	3579.45833
1178.548	3571.125
1181.884	3605.45833
1185.217	3614.79167
1188.548	3667.45833
1191.877	3715.125
1195.202	3761.79167
1198.526	3793.125
1201.846	3794.125
1205.165	3777.125
1208.48	3740.125
1211.794	3740.79167
1215.104	3740.79167
1218.413	3742.125
1221.719	3713.45833
1225.022	3658.79167
1228.323	3634.45833
1231.621	3631.45833
1234.917	3631.79167
1238.21	3660.79167
1241.501	3650.45833
1244.79	3644.125
1248.076	3647.45833
1251.359	3686.125
1254.64	3749.125
1257.919	3764.79167
1261.195	3850.125
1264.468	3932.125
1267.74	3967.125
1271.008	3990.45833
1274.275	3988.125
1277.538	3945.125
1280.8	3926.125
1284.059	3923.79167
1287.315	3925.79167
1290.569	3972.45833
1293.821	3998.79167
1297.07	4007.79167
1300.317	4030.125
1303.562	4011.45833
1306.803	3959.45833
1310.043	3928.79167
1313.28	3860.125
1316.515	3823.45833
1319.747	3806.79167
1322.977	3736.45833
1326.204	3668.45833
1329.429	3638.79167
1332.652	3599.79167
1335.872	3577.79167
1339.09	3559.125
1342.306	3545.79167
1345.519	3523.125
1348.729	3476.125
1351.938	3486.45833
1355.144	3396.79167
1358.347	3379.45833
1361.548	3368.125
1364.747	3406.45833
1367.944	3382.45833
1371.138	3392.125
1374.329	3444.45833
1377.518	3484.79167
1380.705	3520.125
1383.89	3511.125
1387.072	3430.125
1390.252	3293.125
1393.429	3179.45833
1396.605	3065.125
1399.777	2983.125
1402.948	2945.125
1406.116	2919.79167
1409.282	2924.79167
1412.445	2908.45833
1415.606	2943.45833
1418.765	3008.79167
1421.921	3071.45833
1425.075	3136.79167
1428.227	3246.79167
1431.376	3398.45833
1434.524	3522.45833
1437.668	3619.79167
1440.811	3654.79167
1443.951	3662.45833
1447.089	3678.45833
1450.224	3676.45833
1453.357	3643.45833
1456.488	3636.79167
1459.617	3600.45833
1462.743	3558.79167
1465.867	3471.79167
1468.989	3443.79167
1472.108	3407.125
1475.225	3373.45833
1478.34	3318.45833
1481.453	3337.79167
1484.563	3364.125
1487.671	3423.125
1490.776	3485.125
1493.88	3563.79167
1496.981	3664.125
1500.08	3738.45833
1503.176	3786.125
1506.271	3857.45833
1509.363	3913.79167
1512.452	3982.125
1515.54	4051.125
1518.625	4138.125
1521.708	4270.125
1524.789	4499.125
1527.867	4772.125
1530.944	5058.45833
1534.018	5324.45833
1537.089	5419.45833
1540.159	5399.125
1543.226	5289.79167
1546.291	5081.79167
1549.354	4972.125
1552.415	4809.125
1555.473	4696.79167
1558.529	4617.125
1561.583	4557.45833
1564.634	4533.125
1567.684	4533.79167
1570.731	4518.45833
1573.776	4600.79167
1576.819	4631.79167
1579.859	4667.125
1582.898	4686.45833
1585.934	4757.45833
1588.968	4763.45833
1591.999	4720.125
1595.029	4703.125
1598.056	4725.45833
1601.081	4707.79167
1604.104	4680.45833
1607.125	4653.45833
1610.144	4537.45833
1613.16	4411.79167
1616.174	4301.45833
1619.186	4215.45833
1622.196	4116.79167
1625.203	4004.45833
1628.209	3903.79167
1631.212	3845.125
1634.213	3784.45833
1637.212	3707.45833
1640.209	3617.125
1643.203	3499.125
1646.196	3371.45833
1649.186	3244.45833
1652.174	3157.79167
1655.16	3012.125
1658.144	2928.79167
1661.125	2803.125
1664.105	2632.79167
1667.082	2533.45833
1670.057	2402.45833
1673.03	2241.45833
1676.001	2116.45833
1678.97	1997.125
1681.937	1893.125
1684.901	1778.79167
1687.863	1731.125
1690.824	1634.79167
1693.782	1628.125
1696.738	1557.45833
1699.692	1531.79167
1702.643	1493.125
1705.593	1479.125
1708.54	1455.79167
1711.486	1433.125
1714.429	1407.125
1717.37	1390.79167
1720.309	1357.79167
1723.246	1377.125
1726.181	1326.125
1729.113	1337.45833
1732.044	1326.125
1734.972	1306.45833
1737.899	1307.45833
1740.823	1294.125
1743.745	1307.125
1746.665	1241.79167
1749.583	1232.125
1752.499	1213.79167
1755.413	1213.45833
1758.325	1170.125
1761.235	1155.79167
1764.142	1136.125
1767.048	1125.125
1769.951	1119.125
1772.852	1100.79167
1775.752	1102.125
1778.649	1104.125
1781.544	1099.125
1784.437	1082.45833
1787.328	1080.79167
1790.217	1082.125
1793.104	1049.79167
1795.989	1052.79167
1798.872	1041.45833
1801.753	1063.79167
1804.631	1058.79167
1807.508	1047.125
1810.383	1043.45833
1813.255	1034.45833
1816.126	1031.45833
1818.994	1020.79167
1821.861	1030.79167
1824.725	1031.45833
1827.587	1022.79167
1830.448	999.45833
1833.306	979.45833
1836.162	1003.45833
1839.017	986.45833
1841.869	987.45833
1844.719	987.125
1847.567	960.125
1850.414	963.45833
1853.258	962.45833
1856.1	976.125
1858.94	986.45833
1861.778	967.125
1864.614	964.45833
1867.448	971.45833
1870.28	964.45833
1873.111	979.45833
1875.939	952.79167
1878.765	979.45833
1881.589	960.45833
1884.411	947.79167
1887.231	952.79167
1890.049	956.45833
1892.865	939.45833
1895.68	942.45833
1898.492	942.125
1901.302	930.45833
1904.11	922.45833
1906.916	909.45833
1909.721	908.79167
1912.523	928.45833
1915.323	897.45833
1918.122	905.125
1920.918	902.125
1923.712	905.125
1926.505	909.79167
1929.295	891.125
1932.084	905.125
1934.87	905.79167
1937.655	889.125
1940.438	905.79167
1943.218	879.79167
1945.997	907.125
1948.774	905.79167
1951.549	912.125
1954.322	894.45833
1957.093	900.45833
1959.862	873.79167
1962.629	885.125
1965.394	870.125
1968.157	866.45833
1970.918	889.125
1973.678	860.45833
1976.435	873.79167
1979.19	859.125
1981.944	865.125
1984.696	836.45833
1987.445	839.125
1990.193	844.79167
1992.939	862.125
1995.683	844.79167
1998.425	830.79167
2001.165	848.125
2003.903	831.125
2006.639	840.45833
2009.374	832.79167
2012.106	843.125
2014.837	826.45833
2017.566	833.79167
2020.292	838.125
2023.017	835.79167
2025.74	819.45833
2028.461	822.79167
2031.18	820.79167
2033.898	809.79167
2036.613	810.79167
2039.327	813.125
2042.038	801.79167
2044.748	812.125
2047.456	829.125
2050.162	796.79167
2052.866	797.125
2055.568	804.79167
2058.268	807.125
2060.967	805.79167
2063.663	789.79167
2066.358	780.125
2069.051	782.79167
2071.742	799.45833
2074.431	798.45833
2077.118	806.45833
2079.804	782.125
2082.487	793.125
2085.169	800.79167
2087.849	821.79167
2090.527	788.45833
2093.203	809.45833
2095.877	816.125
2098.55	807.79167
2101.22	834.45833
2103.889	840.125
2106.556	830.125
2109.221	869.125
2111.884	869.125
2114.546	938.45833
2117.205	992.79167
2119.863	1077.45833
2122.519	1154.45833
2125.173	1249.79167
2127.825	1349.79167
2130.475	1373.45833
2133.124	1338.45833
2135.771	1295.79167
2138.416	1257.125
2141.059	1160.79167
2143.7	1116.79167
2146.339	1043.125
2148.977	978.45833
2151.613	968.125
2154.247	932.79167
2156.879	912.125
2159.51	891.79167
2162.138	879.125
2164.765	882.125
2167.39	864.125
2170.013	873.125
2172.634	861.125
2175.254	860.79167
2177.872	872.79167
2180.488	824.125
2183.102	838.79167
2185.714	819.79167
2188.325	799.79167
2190.934	800.125
2193.541	799.125
2196.146	779.45833
2198.75	772.45833
2201.351	765.125
2203.951	747.79167
2206.549	767.79167
2209.146	756.79167
2211.74	745.79167
2214.333	753.45833
2216.924	725.79167
2219.514	733.79167
2222.101	708.79167
2224.687	725.45833
2227.271	690.79167
2229.853	694.79167
2232.433	686.45833
2235.012	711.45833
2237.589	700.79167
2240.164	705.79167
2242.738	692.125
2245.309	678.79167
2247.879	686.79167
2250.448	680.125
2253.014	659.79167
2255.579	644.45833
2258.142	650.45833
2260.703	632.45833
2263.262	635.79167
2265.82	628.125
2268.376	630.79167
2270.93	624.79167
2273.483	614.79167
2276.033	631.125
2278.583	605.79167
2281.13	614.45833
2283.675	601.79167
2286.219	595.45833
2288.761	604.45833
2291.302	613.125
2293.841	605.79167
2296.377	585.79167
2298.913	589.45833
2301.446	608.125
2303.978	598.45833
2306.508	583.125
2309.037	584.125
2311.563	586.125
2314.088	584.45833
2316.612	565.79167
2319.133	586.45833
2321.653	579.125
2324.171	571.45833
2326.688	591.125
2329.202	560.45833
2331.715	583.45833
2334.227	566.125
2336.736	560.125
2339.244	557.79167
2341.751	547.45833
2344.255	562.79167
2346.758	555.45833
2349.259	544.79167
2351.759	544.125
2354.257	549.125
2356.753	540.125
2359.247	553.125
2361.74	546.45833
2364.231	536.79167
2366.721	553.125
2369.209	538.79167
2371.695	537.79167
2374.179	531.79167
2376.662	533.79167
2379.143	555.125
2381.622	529.125
2384.1	535.125
2386.576	528.45833
2389.051	531.125
2391.524	547.125
2393.995	550.125
2396.464	527.125
2398.932	527.45833
2401.398	520.79167
2403.863	510.125
2406.325	513.125
2408.787	517.45833
2411.246	526.79167
2413.704	513.125
2416.16	508.125
2418.615	518.125
2421.068	525.79167
2423.519	510.125
2425.969	512.45833
2428.417	512.79167
2430.863	529.79167
2433.308	519.79167
2435.751	517.45833
2438.193	506.45833
2440.633	507.45833
2443.071	509.125
2445.508	492.79167
2447.943	497.79167
2450.376	499.79167
2452.808	490.79167
2455.238	486.125
2457.667	518.45833
2460.093	484.45833
2462.519	482.45833
2464.942	489.79167
2467.365	494.45833
2469.785	483.125
2472.204	481.79167
2474.621	486.79167
2477.037	506.45833
2479.451	466.79167
2481.863	471.79167
2484.274	478.125
2486.683	480.45833
2489.091	491.79167
2491.497	476.79167
2493.901	473.45833
2496.304	470.79167
2498.705	493.79167
2501.105	478.125
2503.503	493.45833
2505.899	464.79167
2508.294	485.125
2510.687	460.125
2513.079	461.79167
2515.469	455.125
2517.858	462.79167
2520.245	485.79167
2522.63	457.79167
2525.014	458.125
2527.396	454.45833
2529.776	456.125
2532.156	459.45833
2534.533	446.125
2536.909	458.79167
2539.283	440.125
2541.656	450.79167
2544.027	469.45833
2546.397	460.125
2548.765	454.125
2551.131	446.45833
2553.496	450.45833
2555.86	451.125
2558.221	446.79167
2560.582	452.125
2562.94	439.45833
2565.298	443.125
2567.653	460.79167
2570.007	428.79167
2572.36	444.45833
2574.711	432.79167
2577.06	459.125
2579.408	443.125
2581.754	437.45833
2584.099	443.125
2586.442	437.125
2588.784	443.45833
2591.124	440.125
2593.463	435.125
2595.8	437.79167
2598.135	426.125
2600.469	429.125
2602.802	450.79167
2605.133	446.45833
2607.462	423.125
2609.79	427.79167
2612.116	437.45833
2614.441	436.125
2616.764	438.79167
2619.086	432.79167
2621.406	427.125
2623.725	432.45833
2626.042	433.125
2628.358	433.45833
2630.672	424.79167
2632.985	440.45833
2635.296	435.79167
2637.606	443.79167
2639.914	427.45833
2642.22	432.125
2644.525	422.125
2646.829	435.45833
2649.131	439.79167
2651.432	442.45833
2653.731	438.45833
2656.028	453.79167
2658.324	437.125
2660.619	428.45833
2662.912	444.45833
2665.204	427.125
2667.494	444.79167
2669.782	417.79167
2672.07	447.79167
2674.355	442.125
2676.639	437.125
2678.922	427.79167
2681.203	438.79167
2683.483	419.79167
2685.761	430.125
2688.038	443.125
2690.313	445.125
2692.587	437.79167
2694.859	433.79167
2697.13	437.125
2699.399	446.125
2701.667	444.125
2703.933	451.45833
2706.198	459.45833
2708.461	465.79167
2710.723	457.45833
2712.984	456.45833
2715.243	463.45833
2717.5	462.79167
2719.757	470.125
2722.011	460.79167
2724.264	470.125
2726.516	490.45833
2728.766	474.79167
2731.015	472.125
2733.262	477.79167
2735.508	464.45833
2737.753	473.45833
2739.996	450.45833
2742.237	447.45833
2744.477	459.125
2746.716	462.79167
2748.953	451.125
2751.189	460.79167
2753.423	446.45833
2755.656	441.79167
2757.887	430.79167
2760.117	443.125
2762.346	432.45833
2764.573	429.125
2766.798	437.125
2769.022	443.125
2771.245	447.125
2773.467	437.79167
2775.686	451.125
2777.905	457.125
2780.122	449.45833
2782.337	454.45833
2784.552	450.45833
2786.764	456.125
2788.976	468.125
2791.186	472.45833
2793.394	476.125
2795.601	493.45833
2797.807	492.125
2800.011	495.125
2802.214	511.79167
2804.415	513.45833
2806.615	510.125
2808.814	519.79167
2811.011	519.79167
2813.206	526.45833
2815.401	549.79167
2817.594	556.125
2819.785	562.79167
2821.975	562.45833
2824.164	565.125
2826.351	598.79167
2828.537	611.45833
2830.722	623.45833
2832.905	632.79167
2835.086	654.45833
2837.267	715.45833
2839.445	729.125
2841.623	757.125
2843.799	788.79167
2845.974	822.125
2848.147	868.79167
2850.319	886.79167
2852.489	933.45833
2854.659	928.45833
2856.826	962.45833
2858.993	985.45833
2861.158	966.125
2863.321	960.79167
2865.483	982.45833
2867.644	979.79167
2869.804	976.79167
2871.962	969.45833
2874.118	979.45833
2876.274	975.79167
2878.428	974.125
2880.58	969.79167
2882.731	952.79167
2884.881	949.79167
2887.03	960.45833
2889.177	958.45833
2891.322	993.45833
2893.467	977.125
2895.61	979.79167
2897.751	995.45833
2899.892	996.125
2902.03	999.125
2904.168	1017.125
2906.304	1017.125
2908.439	1033.125
2910.572	1020.125
2912.704	1040.45833
2914.835	1028.45833
2916.965	1016.125
2919.093	1045.125
2921.219	997.125
2923.345	1015.79167
2925.469	1000.125
2927.591	978.79167
2929.712	940.125
2931.832	947.45833
2933.951	914.125
2936.068	885.125
2938.184	863.125
2940.299	831.125
2942.412	813.125
2944.524	764.79167
2946.634	748.79167
2948.744	692.45833
2950.851	722.79167
2952.958	655.125
2955.063	660.79167
2957.167	648.125
2959.269	605.79167
2961.371	616.79167
2963.471	571.125
2965.569	575.45833
2967.666	547.125
2969.762	529.79167
2971.857	508.125
2973.95	498.45833
2976.042	496.79167
2978.133	479.45833
2980.222	467.45833
2982.31	441.45833
2984.396	428.45833
2986.482	420.79167
2988.566	424.125
2990.648	412.125
2992.73	408.79167
2994.81	401.125
2996.889	397.79167
2998.966	387.79167
3001.042	395.125
3003.117	389.125
3005.191	375.79167
3007.263	370.79167
3009.334	365.125
3011.403	364.45833
3013.472	345.125
3015.539	349.45833
3017.604	357.125
3019.669	318.79167
3021.732	329.79167
3023.794	327.125
3025.854	309.125
3027.914	306.79167
3029.971	324.125
3032.028	310.125
3034.083	318.79167
3036.137	312.125
3038.19	294.125
3040.242	285.79167
3042.292	284.79167
3044.341	270.45833
3046.388	295.45833
3048.435	269.45833
3050.48	296.125
3052.524	279.45833
3054.566	254.125
3056.607	273.125
3058.647	258.45833
3060.686	249.79167
3062.723	235.79167
3064.759	241.125
3066.794	-1.20833
3068.828	0.45833
3070.86	-1.875
