-0.839	501.625
3.438	527.95833
7.711	137.625
11.981	52.625
16.247	44.95833
20.509	43.95833
24.768	41.29167
29.024	45.95833
33.276	42.29167
37.524	49.625
41.769	37.625
46.01	38.625
50.247	47.29167
54.481	59.29167
58.712	64.29167
62.939	46.29167
67.162	59.95833
71.382	54.625
75.599	46.29167
79.812	64.625
84.021	83.625
88.227	57.95833
92.429	60.95833
96.628	50.625
100.823	65.29167
105.015	78.95833
109.204	75.95833
113.388	80.29167
117.57	77.29167
121.748	89.29167
125.922	81.625
130.093	103.95833
134.261	111.29167
138.425	102.625
142.585	146.95833
146.742	147.625
150.896	181.29167
155.046	225.95833
159.193	381.625
163.336	669.29167
167.476	1225.29167
171.613	2204.625
175.746	3652.625
179.875	5320.625
184.002	6831.95833
188.124	7737.29167
192.244	7871.29167
196.36	7630.29167
200.472	7275.625
204.581	6978.625
208.687	6659.29167
212.79	6507.29167
216.889	6380.95833
220.984	6317.29167
225.077	6281.95833
229.165	6248.29167
233.251	6236.29167
237.333	6170.625
241.412	6085.29167
245.487	6026.29167
249.559	5962.29167
253.628	5853.29167
257.694	5816.95833
261.756	5733.625
265.814	5586.95833
269.87	5399.29167
273.922	5263.95833
277.97	5182.625
282.016	5148.95833
286.058	5149.95833
290.097	5181.95833
294.132	5201.29167
298.164	5096.625
302.193	4893.625
306.219	4578.95833
310.241	4152.625
314.26	3820.95833
318.276	3515.95833
322.288	3325.625
326.297	3139.625
330.303	2982.95833
334.305	2862.625
338.305	2825.29167
342.301	2786.625
346.294	2738.95833
350.283	2695.625
354.269	2675.95833
358.252	2635.95833
362.232	2624.29167
366.209	2596.29167
370.182	2561.625
374.152	2513.95833
378.119	2518.29167
382.083	2503.95833
386.043	2522.29167
390	2475.625
393.954	2488.625
397.905	2456.29167
401.852	2461.95833
405.797	2398.625
409.738	2398.95833
413.676	2426.95833
417.61	2405.29167
421.542	2355.95833
425.47	2330.95833
429.396	2306.625
433.318	2293.95833
437.236	2273.95833
441.152	2285.95833
445.065	2224.29167
448.974	2232.29167
452.88	2211.625
456.783	2165.29167
460.683	2179.29167
464.58	2173.29167
468.473	2173.29167
472.364	2185.625
476.251	2184.95833
480.135	2199.625
484.016	2216.29167
487.894	2233.29167
491.769	2224.95833
495.641	2237.95833
499.509	2267.95833
503.375	2225.95833
507.237	2248.95833
511.096	2236.29167
514.952	2297.29167
518.805	2394.625
522.655	2410.95833
526.502	2279.29167
530.346	2259.625
534.187	2238.29167
538.024	2242.95833
541.859	2259.625
545.69	2251.625
549.519	2246.29167
553.344	2225.625
557.166	2167.29167
560.985	2167.29167
564.802	2135.625
568.615	2110.625
572.425	2070.95833
576.232	2061.29167
580.036	2067.625
583.836	2079.95833
587.634	2062.95833
591.429	2082.29167
595.221	2112.29167
599.01	2115.95833
602.796	2143.95833
606.578	2166.95833
610.358	2151.95833
614.135	2150.29167
617.909	2152.625
621.679	2122.29167
625.447	2110.625
629.212	2133.95833
632.973	2136.625
636.732	2126.29167
640.488	2123.95833
644.241	2099.95833
647.991	2101.95833
651.737	2117.625
655.481	2075.29167
659.222	2080.29167
662.96	2081.625
666.695	2079.625
670.427	2110.29167
674.156	2120.625
677.882	2113.95833
681.605	2141.29167
685.325	2090.625
689.043	2104.29167
692.757	2074.29167
696.468	2100.29167
700.177	2080.95833
703.882	2093.625
707.585	2092.95833
711.284	2094.95833
714.981	2094.625
718.675	2110.29167
722.366	2110.625
726.054	2091.95833
729.739	2088.29167
733.421	2106.29167
737.1	2094.29167
740.777	2131.29167
744.45	2125.29167
748.121	2147.95833
751.789	2198.95833
755.453	2191.95833
759.115	2202.625
762.774	2216.625
766.431	2239.95833
770.084	2234.625
773.734	2290.29167
777.382	2320.625
781.027	2341.29167
784.669	2360.625
788.308	2364.625
791.944	2381.29167
795.577	2399.29167
799.208	2422.29167
802.835	2435.625
806.46	2442.29167
810.082	2442.625
813.701	2464.95833
817.317	2484.95833
820.931	2488.95833
824.542	2469.95833
828.149	2462.29167
831.754	2449.95833
835.357	2448.95833
838.956	2460.95833
842.553	2415.95833
846.146	2427.29167
849.737	2410.29167
853.326	2406.625
856.911	2419.29167
860.493	2469.29167
864.073	2475.625
867.65	2534.29167
871.225	2535.625
874.796	2545.625
878.365	2543.625
881.931	2562.95833
885.494	2581.95833
889.054	2557.95833
892.612	2587.95833
896.166	2529.29167
899.719	2538.29167
903.268	2480.95833
906.814	2489.625
910.358	2472.95833
913.899	2420.95833
917.438	2467.625
920.973	2444.29167
924.506	2457.625
928.036	2502.625
931.564	2526.29167
935.088	2552.625
938.61	2558.95833
942.129	2568.95833
945.646	2667.95833
949.16	2716.625
952.671	2761.95833
956.179	2786.95833
959.685	2731.95833
963.188	2744.625
966.688	2688.29167
970.185	2632.95833
973.68	2601.29167
977.173	2585.29167
980.662	2557.29167
984.149	2576.29167
987.633	2576.625
991.114	2607.95833
994.593	2701.625
998.069	2779.29167
1001.542	2897.29167
1005.013	2807.95833
1008.481	2632.625
1011.947	2603.95833
1015.409	2555.625
1018.869	2573.625
1022.327	2563.29167
1025.782	2554.29167
1029.234	2566.625
1032.683	2532.95833
1036.13	2424.625
1039.574	2347.625
1043.016	2298.29167
1046.455	2265.95833
1049.891	2228.95833
1053.325	2219.95833
1056.756	2226.625
1060.184	2248.95833
1063.61	2257.625
1067.033	2281.29167
1070.454	2262.95833
1073.872	2321.625
1077.287	2305.29167
1080.7	2313.29167
1084.11	2321.95833
1087.517	2289.29167
1090.922	2262.29167
1094.325	2249.29167
1097.724	2213.625
1101.122	2212.29167
1104.516	2204.29167
1107.908	2228.95833
1111.298	2257.95833
1114.684	2286.95833
1118.069	2311.95833
1121.45	2328.95833
1124.83	2345.95833
1128.206	2353.95833
1131.58	2395.95833
1134.951	2449.29167
1138.32	2542.29167
1141.687	2646.29167
1145.05	2715.625
1148.412	2708.29167
1151.77	2693.625
1155.126	2701.29167
1158.48	2679.95833
1161.831	2688.29167
1165.18	2743.29167
1168.525	2760.29167
1171.869	2805.29167
1175.21	2814.95833
1178.548	2858.95833
1181.884	2864.29167
1185.217	2880.625
1188.548	2947.625
1191.877	2999.29167
1195.202	3059.95833
1198.526	3112.29167
1201.846	3101.29167
1205.165	3098.95833
1208.48	3087.95833
1211.794	3081.95833
1215.104	3070.95833
1218.413	3113.625
1221.719	3097.625
1225.022	3094.95833
1228.323	3053.29167
1231.621	3030.29167
1234.917	3029.95833
1238.21	3057.625
1241.501	3019.625
1244.79	3037.29167
1248.076	3009.29167
1251.359	3093.95833
1254.64	3144.625
1257.919	3189.625
1261.195	3221.95833
1264.468	3301.625
1267.74	3346.625
1271.008	3317.625
1274.275	3297.625
1277.538	3272.29167
1280.8	3265.625
1284.059	3272.95833
1287.315	3276.29167
1290.569	3308.95833
1293.821	3319.29167
1297.07	3337.625
1300.317	3376.625
1303.562	3319.625
1306.803	3280.95833
1310.043	3255.29167
1313.28	3214.29167
1316.515	3166.29167
1319.747	3128.95833
1322.977	3115.625
1326.204	3078.29167
1329.429	3032.625
1332.652	3023.95833
1335.872	3009.29167
1339.09	3002.95833
1342.306	2973.29167
1345.519	2953.95833
1348.729	2939.29167
1351.938	2927.29167
1355.144	2912.95833
1358.347	2855.625
1361.548	2874.29167
1364.747	2854.95833
1367.944	2850.29167
1371.138	2870.625
1374.329	2881.29167
1377.518	2926.29167
1380.705	2953.29167
1383.89	2907.625
1387.072	2807.625
1390.252	2728.95833
1393.429	2632.29167
1396.605	2556.29167
1399.777	2476.95833
1402.948	2484.29167
1406.116	2477.625
1409.282	2479.95833
1412.445	2476.29167
1415.606	2498.95833
1418.765	2539.29167
1421.921	2603.29167
1425.075	2652.95833
1428.227	2750.625
1431.376	2885.625
1434.524	2959.95833
1437.668	3033.95833
1440.811	3055.95833
1443.951	3106.95833
1447.089	3095.625
1450.224	3080.95833
1453.357	3059.29167
1456.488	3034.29167
1459.617	2973.95833
1462.743	2958.625
1465.867	2865.625
1468.989	2863.95833
1472.108	2792.625
1475.225	2744.29167
1478.34	2717.29167
1481.453	2717.625
1484.563	2710.29167
1487.671	2758.95833
1490.776	2821.95833
1493.88	2864.29167
1496.981	2937.29167
1500.08	2980.625
1503.176	3015.95833
1506.271	3042.625
1509.363	3114.29167
1512.452	3085.625
1515.54	3151.29167
1518.625	3231.95833
1521.708	3325.29167
1524.789	3469.95833
1527.867	3652.95833
1530.944	3910.95833
1534.018	4145.95833
1537.089	4277.625
1540.159	4302.29167
1543.226	4232.95833
1546.291	4105.95833
1549.354	3996.625
1552.415	3865.95833
1555.473	3739.95833
1558.529	3645.95833
1561.583	3565.625
1564.634	3548.625
1567.684	3547.625
1570.731	3543.625
1573.776	3556.625
1576.819	3575.95833
1579.859	3595.29167
1582.898	3659.29167
1585.934	3664.95833
1588.968	3678.625
1591.999	3661.625
1595.029	3673.625
1598.056	3682.29167
1601.081	3692.95833
1604.104	3693.95833
1607.125	3637.29167
1610.144	3556.29167
1613.16	3480.95833
1616.174	3411.95833
1619.186	3338.95833
1622.196	3266.29167
1625.203	3169.625
1628.209	3114.29167
1631.212	3136.29167
1634.213	3095.95833
1637.212	3092.29167
1640.209	3021.29167
1643.203	2959.29167
1646.196	2866.95833
1649.186	2769.95833
1652.174	2713.95833
1655.16	2620.95833
1658.144	2545.625
1661.125	2438.625
1664.105	2358.95833
1667.082	2229.29167
1670.057	2119.29167
1673.03	1974.29167
1676.001	1839.625
1678.97	1713.95833
1681.937	1643.625
1684.901	1530.625
1687.863	1504.95833
1690.824	1421.29167
1693.782	1412.29167
1696.738	1351.95833
1699.692	1336.95833
1702.643	1297.625
1705.593	1278.625
1708.54	1264.29167
1711.486	1249.29167
1714.429	1220.29167
1717.37	1210.625
1720.309	1187.625
1723.246	1203.625
1726.181	1153.29167
1729.113	1156.29167
1732.044	1151.95833
1734.972	1138.29167
1737.899	1129.95833
1740.823	1130.29167
1743.745	1138.95833
1746.665	1083.625
1749.583	1073.625
1752.499	1061.625
1755.413	1058.29167
1758.325	1011.625
1761.235	1027.625
1764.142	989.29167
1767.048	978.95833
1769.951	992.29167
1772.852	977.625
1775.752	982.625
1778.649	989.95833
1781.544	965.95833
1784.437	959.29167
1787.328	948.625
1790.217	944.95833
1793.104	924.625
1795.989	913.95833
1798.872	913.625
1801.753	933.29167
1804.631	928.29167
1807.508	929.625
1810.383	922.29167
1813.255	928.625
1816.126	911.29167
1818.994	916.95833
1821.861	895.29167
1824.725	895.625
1827.587	891.625
1830.448	894.95833
1833.306	864.625
1836.162	887.29167
1839.017	881.625
1841.869	887.95833
1844.719	868.29167
1847.567	859.29167
1850.414	842.29167
1853.258	856.95833
1856.1	860.625
1858.94	874.625
1861.778	860.95833
1864.614	851.29167
1867.448	859.95833
1870.28	856.625
1873.111	870.29167
1875.939	858.625
1878.765	868.95833
1881.589	849.29167
1884.411	851.95833
1887.231	851.95833
1890.049	838.29167
1892.865	840.29167
1895.68	838.625
1898.492	846.29167
1901.302	827.95833
1904.11	835.95833
1906.916	821.625
1909.721	806.625
1912.523	824.29167
1915.323	810.29167
1918.122	808.625
1920.918	821.29167
1923.712	795.95833
1926.505	799.95833
1929.295	782.95833
1932.084	810.625
1934.87	798.95833
1937.655	796.29167
1940.438	801.625
1943.218	795.625
1945.997	800.625
1948.774	813.29167
1951.549	799.95833
1954.322	801.625
1957.093	798.625
1959.862	790.95833
1962.629	781.95833
1965.394	772.625
1968.157	768.95833
1970.918	780.625
1973.678	768.29167
1976.435	776.29167
1979.19	775.29167
1981.944	758.29167
1984.696	762.95833
1987.445	759.625
1990.193	757.29167
1992.939	782.625
1995.683	757.29167
1998.425	751.625
2001.165	764.625
2003.903	738.625
2006.639	748.95833
2009.374	751.95833
2012.106	755.625
2014.837	729.29167
2017.566	756.29167
2020.292	751.625
2023.017	760.95833
2025.74	745.625
2028.461	728.29167
2031.18	737.625
2033.898	722.95833
2036.613	743.29167
2039.327	731.95833
2042.038	721.29167
2044.748	727.95833
2047.456	714.625
2050.162	707.29167
2052.866	723.625
2055.568	725.95833
2058.268	713.625
2060.967	730.625
2063.663	703.95833
2066.358	717.95833
2069.051	719.625
2071.742	721.625
2074.431	717.625
2077.118	715.625
2079.804	698.625
2082.487	713.29167
2085.169	724.95833
2087.849	736.29167
2090.527	725.625
2093.203	716.95833
2095.877	730.29167
2098.55	734.625
2101.22	736.95833
2103.889	753.29167
2106.556	744.29167
2109.221	786.625
2111.884	809.625
2114.546	872.625
2117.205	912.95833
2119.863	993.29167
2122.519	1048.29167
2125.173	1106.625
2127.825	1166.29167
2130.475	1168.29167
2133.124	1117.95833
2135.771	1090.95833
2138.416	1036.625
2141.059	990.625
2143.7	937.95833
2146.339	870.95833
2148.977	851.29167
2151.613	816.95833
2154.247	808.29167
2156.879	778.29167
2159.51	767.29167
2162.138	753.95833
2164.765	747.29167
2167.39	740.29167
2170.013	755.95833
2172.634	734.29167
2175.254	727.29167
2177.872	747.95833
2180.488	707.29167
2183.102	703.625
2185.714	703.29167
2188.325	677.95833
2190.934	677.625
2193.541	690.95833
2196.146	667.625
2198.75	660.625
2201.351	661.29167
2203.951	655.625
2206.549	668.29167
2209.146	653.625
2211.74	650.29167
2214.333	656.625
2216.924	636.29167
2219.514	651.625
2222.101	640.95833
2224.687	644.625
2227.271	632.625
2229.853	626.29167
2232.433	628.29167
2235.012	638.95833
2237.589	650.29167
2240.164	639.95833
2242.738	632.625
2245.309	618.29167
2247.879	624.95833
2250.448	628.95833
2253.014	607.29167
2255.579	597.625
2258.142	595.95833
2260.703	586.29167
2263.262	589.29167
2265.82	586.95833
2268.376	594.29167
2270.93	585.95833
2273.483	573.95833
2276.033	589.625
2278.583	569.625
2281.13	568.95833
2283.675	558.625
2286.219	573.29167
2288.761	562.95833
2291.302	573.95833
2293.841	581.95833
2296.377	552.29167
2298.913	560.625
2301.446	576.29167
2303.978	561.29167
2306.508	554.95833
2309.037	556.95833
2311.563	567.29167
2314.088	574.95833
2316.612	550.625
2319.133	554.29167
2321.653	550.95833
2324.171	547.29167
2326.688	564.95833
2329.202	548.29167
2331.715	551.95833
2334.227	545.95833
2336.736	539.625
2339.244	538.95833
2341.751	530.95833
2344.255	549.29167
2346.758	542.95833
2349.259	524.625
2351.759	536.29167
2354.257	527.29167
2356.753	528.95833
2359.247	537.29167
2361.74	535.625
2364.231	535.29167
2366.721	535.625
2369.209	531.625
2371.695	524.29167
2374.179	535.29167
2376.662	515.625
2379.143	548.95833
2381.622	528.95833
2384.1	535.625
2386.576	532.95833
2389.051	548.625
2391.524	548.95833
2393.995	548.29167
2396.464	521.95833
2398.932	531.95833
2401.398	528.95833
2403.863	517.95833
2406.325	529.29167
2408.787	520.95833
2411.246	528.625
2413.704	518.625
2416.16	525.95833
2418.615	519.95833
2421.068	530.29167
2423.519	524.95833
2425.969	512.95833
2428.417	529.29167
2430.863	532.625
2433.308	527.625
2435.751	529.625
2438.193	525.625
2440.633	529.95833
2443.071	528.29167
2445.508	516.95833
2447.943	513.95833
2450.376	508.29167
2452.808	521.29167
2455.238	517.625
2457.667	542.95833
2460.093	513.625
2462.519	514.95833
2464.942	511.95833
2467.365	521.625
2469.785	514.625
2472.204	509.29167
2474.621	505.625
2477.037	531.95833
2479.451	505.95833
2481.863	504.29167
2484.274	499.95833
2486.683	511.625
2489.091	519.95833
2491.497	515.29167
2493.901	509.625
2496.304	499.29167
2498.705	509.95833
2501.105	503.29167
2503.503	531.625
2505.899	501.625
2508.294	521.29167
2510.687	508.625
2513.079	500.95833
2515.469	503.95833
2517.858	508.625
2520.245	520.29167
2522.63	500.95833
2525.014	494.95833
2527.396	509.29167
2529.776	490.625
2532.156	516.29167
2534.533	495.95833
2536.909	499.625
2539.283	485.625
2541.656	499.29167
2544.027	527.95833
2546.397	506.95833
2548.765	501.29167
2551.131	508.625
2553.496	504.95833
2555.86	508.625
2558.221	511.625
2560.582	501.95833
2562.94	494.95833
2565.298	510.29167
2567.653	524.625
2570.007	496.95833
2572.36	508.625
2574.711	502.95833
2577.06	525.29167
2579.408	509.95833
2581.754	509.625
2584.099	507.29167
2586.442	497.95833
2588.784	511.95833
2591.124	501.29167
2593.463	503.625
2595.8	510.95833
2598.135	493.625
2600.469	508.95833
2602.802	522.625
2605.133	518.625
2607.462	493.625
2609.79	506.625
2612.116	512.29167
2614.441	506.625
2616.764	511.95833
2619.086	504.29167
2621.406	495.95833
2623.725	517.95833
2626.042	512.95833
2628.358	504.95833
2630.672	505.95833
2632.985	521.95833
2635.296	513.95833
2637.606	523.625
2639.914	515.29167
2642.22	520.95833
2644.525	519.29167
2646.829	526.625
2649.131	534.95833
2651.432	531.29167
2653.731	530.29167
2656.028	544.625
2658.324	528.95833
2660.619	526.29167
2662.912	541.29167
2665.204	527.29167
2667.494	543.95833
2669.782	535.29167
2672.07	549.95833
2674.355	540.29167
2676.639	537.625
2678.922	522.29167
2681.203	544.29167
2683.483	526.95833
2685.761	528.95833
2688.038	544.625
2690.313	561.95833
2692.587	539.29167
2694.859	541.29167
2697.13	534.625
2699.399	557.625
2701.667	557.625
2703.933	572.625
2706.198	563.625
2708.461	571.625
2710.723	573.29167
2712.984	567.625
2715.243	587.625
2717.5	574.95833
2719.757	590.29167
2722.011	582.625
2724.264	587.625
2726.516	607.95833
2728.766	586.29167
2731.015	598.29167
2733.262	593.29167
2735.508	587.625
2737.753	593.29167
2739.996	569.625
2742.237	585.29167
2744.477	579.29167
2746.716	582.625
2748.953	579.95833
2751.189	589.29167
2753.423	578.95833
2755.656	580.95833
2757.887	574.95833
2760.117	577.29167
2762.346	562.95833
2764.573	570.95833
2766.798	569.29167
2769.022	570.95833
2771.245	580.625
2773.467	581.625
2775.686	578.95833
2777.905	581.625
2780.122	596.95833
2782.337	602.95833
2784.552	580.29167
2786.764	611.29167
2788.976	607.95833
2791.186	622.29167
2793.394	612.625
2795.601	620.625
2797.807	643.95833
2800.011	629.95833
2802.214	648.29167
2804.415	642.625
2806.615	648.625
2808.814	669.29167
2811.011	670.95833
2813.206	666.29167
2815.401	691.29167
2817.594	696.625
2819.785	712.625
2821.975	684.625
2824.164	709.29167
2826.351	720.625
2828.537	735.29167
2830.722	753.29167
2832.905	755.29167
2835.086	779.95833
2837.267	825.29167
2839.445	824.29167
2841.623	846.95833
2843.799	858.29167
2845.974	904.625
2848.147	942.29167
2850.319	960.29167
2852.489	987.95833
2854.659	972.29167
2856.826	1004.625
2858.993	1018.95833
2861.158	1013.625
2863.321	1002.95833
2865.483	1043.29167
2867.644	1047.95833
2869.804	1024.625
2871.962	1028.95833
2874.118	1036.625
2876.274	1073.29167
2878.428	1072.29167
2880.58	1037.625
2882.731	1027.29167
2884.881	1022.29167
2887.03	1018.625
2889.177	1015.95833
2891.322	1030.95833
2893.467	1020.29167
2895.61	1013.29167
2897.751	1044.95833
2899.892	1016.95833
2902.03	1023.29167
2904.168	1050.625
2906.304	1049.95833
2908.439	1065.95833
2910.572	1045.29167
2912.704	1073.625
2914.835	1060.625
2916.965	1051.95833
2919.093	1073.95833
2921.219	1053.625
2923.345	1061.29167
2925.469	1046.29167
2927.591	1030.95833
2929.712	999.95833
2931.832	999.29167
2933.951	970.625
2936.068	950.95833
2938.184	944.29167
2940.299	896.95833
2942.412	883.625
2944.524	865.29167
2946.634	845.29167
2948.744	794.29167
2950.851	821.29167
2952.958	794.625
2955.063	783.29167
2957.167	780.625
2959.269	741.625
2961.371	779.29167
2963.471	733.29167
2965.569	733.29167
2967.666	702.95833
2969.762	706.29167
2971.857	681.29167
2973.95	667.95833
2976.042	673.29167
2978.133	646.29167
2980.222	639.29167
2982.31	612.95833
2984.396	610.625
2986.482	606.625
2988.566	613.29167
2990.648	597.625
2992.73	594.625
2994.81	590.95833
2996.889	593.29167
2998.966	588.95833
3001.042	598.95833
3003.117	584.29167
3005.191	587.625
3007.263	573.625
3009.334	568.29167
3011.403	567.95833
3013.472	546.29167
3015.539	552.625
3017.604	570.29167
3019.669	524.29167
3021.732	526.95833
3023.794	542.95833
3025.854	527.95833
3027.914	515.29167
3029.971	535.95833
3032.028	515.625
3034.083	514.29167
3036.137	517.625
3038.19	491.625
3040.242	479.625
3042.292	472.95833
3044.341	480.95833
3046.388	484.625
3048.435	465.29167
3050.48	485.95833
3052.524	469.625
3054.566	447.29167
3056.607	464.95833
3058.647	454.625
3060.686	425.29167
3062.723	420.625
3064.759	410.625
3066.794	0.95833
3068.828	-0.04167
3070.86	-3.70833
