-0.839	486.58333
3.438	525.58333
7.711	142.91667
11.981	54.25
16.247	45.25
20.509	45.91667
24.768	46.91667
29.024	47.58333
33.276	41.25
37.524	48.25
41.769	40.25
46.01	33.58333
50.247	50.25
54.481	58.91667
58.712	67.91667
62.939	45.25
67.162	66.25
71.382	58.25
75.599	46.91667
79.812	62.25
84.021	82.25
88.227	62.25
92.429	61.91667
96.628	48.25
100.823	69.25
105.015	77.91667
109.204	71.25
113.388	78.58333
117.57	78.91667
121.748	92.25
125.922	82.58333
130.093	106.58333
134.261	108.25
138.425	106.91667
142.585	143.91667
146.742	150.91667
150.896	184.91667
155.046	235.58333
159.193	381.25
163.336	674.58333
167.476	1239.25
171.613	2235.58333
175.746	3659.91667
179.875	5353.58333
184.002	6825.58333
188.124	7813.25
192.244	8009.25
196.36	7788.91667
200.472	7422.91667
204.581	7127.25
208.687	6841.91667
212.79	6652.58333
216.889	6532.91667
220.984	6485.58333
225.077	6461.91667
229.165	6470.58333
233.251	6468.25
237.333	6396.91667
241.412	6368.25
245.487	6258.91667
249.559	6194.58333
253.628	6083.91667
257.694	6033.58333
261.756	5979.25
265.814	5792.58333
269.87	5655.25
273.922	5483.25
277.97	5425.58333
282.016	5334.91667
286.058	5321.58333
290.097	5372.58333
294.132	5367.91667
298.164	5283.25
302.193	5103.58333
306.219	4740.91667
310.241	4335.58333
314.26	3988.25
318.276	3673.91667
322.288	3466.58333
326.297	3291.91667
330.303	3140.91667
334.305	3057.58333
338.305	3002.25
342.301	2963.58333
346.294	2909.25
350.283	2891.58333
354.269	2867.58333
358.252	2824.25
362.232	2815.91667
366.209	2809.91667
370.182	2752.25
374.152	2721.25
378.119	2724.91667
382.083	2690.91667
386.043	2707.91667
390	2654.58333
393.954	2673.91667
397.905	2639.25
401.852	2641.58333
405.797	2607.58333
409.738	2596.25
413.676	2604.91667
417.61	2616.25
421.542	2570.58333
425.47	2527.91667
429.396	2500.91667
433.318	2474.58333
437.236	2452.58333
441.152	2471.25
445.065	2406.25
448.974	2423.91667
452.88	2384.58333
456.783	2390.91667
460.683	2368.91667
464.58	2371.58333
468.473	2353.25
472.364	2383.58333
476.251	2391.25
480.135	2410.91667
484.016	2416.91667
487.894	2424.25
491.769	2445.58333
495.641	2454.58333
499.509	2429.91667
503.375	2451.58333
507.237	2436.91667
511.096	2432.58333
514.952	2500.91667
518.805	2560.91667
522.655	2584.91667
526.502	2462.25
530.346	2408.58333
534.187	2427.91667
538.024	2426.58333
541.859	2412.91667
545.69	2450.58333
549.519	2416.58333
553.344	2400.25
557.166	2348.91667
560.985	2332.58333
564.802	2318.25
568.615	2277.91667
572.425	2252.91667
576.232	2250.58333
580.036	2236.91667
583.836	2256.91667
587.634	2266.25
591.429	2241.25
595.221	2284.91667
599.01	2320.25
602.796	2333.91667
606.578	2342.25
610.358	2347.25
614.135	2330.58333
617.909	2319.91667
621.679	2324.25
625.447	2297.58333
629.212	2304.58333
632.973	2294.25
636.732	2309.91667
640.488	2308.58333
644.241	2272.58333
647.991	2261.91667
651.737	2305.91667
655.481	2285.91667
659.222	2282.25
662.96	2270.25
666.695	2308.91667
670.427	2310.91667
674.156	2315.58333
677.882	2300.58333
681.605	2286.25
685.325	2283.58333
689.043	2290.58333
692.757	2275.25
696.468	2266.25
700.177	2273.25
703.882	2264.91667
707.585	2266.91667
711.284	2266.25
714.981	2268.25
718.675	2293.58333
722.366	2282.91667
726.054	2268.91667
729.739	2263.58333
733.421	2262.25
737.1	2275.25
740.777	2323.25
744.45	2302.91667
748.121	2327.91667
751.789	2374.91667
755.453	2355.91667
759.115	2352.91667
762.774	2399.91667
766.431	2404.58333
770.084	2417.25
773.734	2451.25
777.382	2485.91667
781.027	2519.91667
784.669	2516.91667
788.308	2522.58333
791.944	2542.91667
795.577	2582.91667
799.208	2584.91667
802.835	2605.91667
806.46	2611.58333
810.082	2645.25
813.701	2640.25
817.317	2668.25
820.931	2670.25
824.542	2644.91667
828.149	2621.91667
831.754	2600.58333
835.357	2607.91667
838.956	2594.91667
842.553	2574.91667
846.146	2563.58333
849.737	2542.25
853.326	2567.25
856.911	2552.25
860.493	2586.58333
864.073	2614.91667
867.65	2667.58333
871.225	2682.25
874.796	2682.58333
878.365	2692.58333
881.931	2702.25
885.494	2727.25
889.054	2697.25
892.612	2695.91667
896.166	2690.58333
899.719	2645.58333
903.268	2635.58333
906.814	2605.91667
910.358	2589.91667
913.899	2580.25
917.438	2604.91667
920.973	2581.25
924.506	2603.91667
928.036	2652.91667
931.564	2686.25
935.088	2693.91667
938.61	2700.91667
942.129	2717.91667
945.646	2801.91667
949.16	2849.25
952.671	2925.25
956.179	2913.91667
959.685	2904.58333
963.188	2898.25
966.688	2868.91667
970.185	2815.91667
973.68	2766.25
977.173	2733.25
980.662	2699.58333
984.149	2741.91667
987.633	2750.91667
991.114	2772.25
994.593	2880.91667
998.069	2953.58333
1001.542	3048.25
1005.013	2952.91667
1008.481	2773.25
1011.947	2715.58333
1015.409	2718.58333
1018.869	2711.91667
1022.327	2712.91667
1025.782	2718.91667
1029.234	2707.91667
1032.683	2678.58333
1036.13	2594.25
1039.574	2487.91667
1043.016	2443.58333
1046.455	2380.58333
1049.891	2347.58333
1053.325	2390.91667
1056.756	2376.91667
1060.184	2399.91667
1063.61	2372.58333
1067.033	2406.91667
1070.454	2397.25
1073.872	2433.25
1077.287	2434.25
1080.7	2440.91667
1084.11	2451.91667
1087.517	2438.58333
1090.922	2401.91667
1094.325	2359.58333
1097.724	2357.25
1101.122	2351.91667
1104.516	2338.58333
1107.908	2343.91667
1111.298	2379.91667
1114.684	2393.25
1118.069	2469.58333
1121.45	2468.58333
1124.83	2450.91667
1128.206	2468.25
1131.58	2504.91667
1134.951	2583.91667
1138.32	2663.91667
1141.687	2765.25
1145.05	2849.91667
1148.412	2818.58333
1151.77	2801.58333
1155.126	2815.25
1158.48	2801.91667
1161.831	2789.91667
1165.18	2832.91667
1168.525	2842.25
1171.869	2907.58333
1175.21	2910.25
1178.548	2944.25
1181.884	2975.58333
1185.217	2995.91667
1188.548	3033.58333
1191.877	3089.58333
1195.202	3153.58333
1198.526	3203.91667
1201.846	3227.25
1205.165	3201.91667
1208.48	3217.25
1211.794	3237.91667
1215.104	3230.58333
1218.413	3231.91667
1221.719	3224.25
1225.022	3198.91667
1228.323	3145.25
1231.621	3143.25
1234.917	3134.25
1238.21	3181.91667
1241.501	3147.25
1244.79	3161.25
1248.076	3157.91667
1251.359	3190.58333
1254.64	3278.58333
1257.919	3267.91667
1261.195	3321.58333
1264.468	3426.25
1267.74	3463.91667
1271.008	3460.58333
1274.275	3417.58333
1277.538	3407.58333
1280.8	3362.25
1284.059	3362.91667
1287.315	3406.58333
1290.569	3417.58333
1293.821	3455.58333
1297.07	3443.91667
1300.317	3460.91667
1303.562	3447.25
1306.803	3388.25
1310.043	3377.58333
1313.28	3348.58333
1316.515	3294.91667
1319.747	3300.58333
1322.977	3224.58333
1326.204	3194.25
1329.429	3160.58333
1332.652	3138.25
1335.872	3155.25
1339.09	3105.91667
1342.306	3155.25
1345.519	3119.58333
1348.729	3102.25
1351.938	3085.25
1355.144	3059.91667
1358.347	2995.25
1361.548	2986.25
1364.747	3004.91667
1367.944	2989.25
1371.138	2998.91667
1374.329	3023.25
1377.518	3070.58333
1380.705	3085.25
1383.89	3055.58333
1387.072	2961.91667
1390.252	2845.25
1393.429	2781.58333
1396.605	2671.58333
1399.777	2612.25
1402.948	2597.91667
1406.116	2563.25
1409.282	2582.91667
1412.445	2586.91667
1415.606	2612.58333
1418.765	2661.91667
1421.921	2697.58333
1425.075	2773.58333
1428.227	2872.25
1431.376	3000.58333
1434.524	3074.58333
1437.668	3162.25
1440.811	3199.91667
1443.951	3182.91667
1447.089	3201.25
1450.224	3197.58333
1453.357	3184.91667
1456.488	3136.25
1459.617	3090.25
1462.743	3048.58333
1465.867	2990.58333
1468.989	2974.58333
1472.108	2897.25
1475.225	2840.91667
1478.34	2813.25
1481.453	2817.25
1484.563	2820.91667
1487.671	2848.58333
1490.776	2921.25
1493.88	2950.58333
1496.981	3010.91667
1500.08	3084.58333
1503.176	3084.91667
1506.271	3127.91667
1509.363	3191.91667
1512.452	3179.25
1515.54	3265.91667
1518.625	3320.58333
1521.708	3445.58333
1524.789	3619.58333
1527.867	3794.58333
1530.944	4021.25
1534.018	4226.91667
1537.089	4363.58333
1540.159	4397.91667
1543.226	4338.25
1546.291	4199.58333
1549.354	4076.58333
1552.415	3936.25
1555.473	3800.58333
1558.529	3719.91667
1561.583	3647.91667
1564.634	3598.25
1567.684	3594.25
1570.731	3573.25
1573.776	3615.58333
1576.819	3646.91667
1579.859	3680.91667
1582.898	3730.91667
1585.934	3721.91667
1588.968	3735.58333
1591.999	3751.91667
1595.029	3729.58333
1598.056	3776.25
1601.081	3759.58333
1604.104	3747.25
1607.125	3749.58333
1610.144	3683.91667
1613.16	3569.25
1616.174	3500.58333
1619.186	3435.58333
1622.196	3342.25
1625.203	3281.58333
1628.209	3270.58333
1631.212	3255.58333
1634.213	3276.58333
1637.212	3279.91667
1640.209	3213.58333
1643.203	3146.58333
1646.196	3052.25
1649.186	2943.25
1652.174	2874.91667
1655.16	2786.91667
1658.144	2684.91667
1661.125	2599.25
1664.105	2458.58333
1667.082	2371.25
1670.057	2229.58333
1673.03	2090.91667
1676.001	1956.91667
1678.97	1836.58333
1681.937	1710.91667
1684.901	1634.91667
1687.863	1585.25
1690.824	1510.58333
1693.782	1471.91667
1696.738	1416.58333
1699.692	1385.25
1702.643	1371.91667
1705.593	1344.91667
1708.54	1321.25
1711.486	1339.58333
1714.429	1317.25
1717.37	1283.91667
1720.309	1277.91667
1723.246	1277.25
1726.181	1225.91667
1729.113	1258.25
1732.044	1228.91667
1734.972	1207.58333
1737.899	1219.58333
1740.823	1207.25
1743.745	1217.91667
1746.665	1150.58333
1749.583	1161.58333
1752.499	1135.91667
1755.413	1101.58333
1758.325	1076.91667
1761.235	1099.91667
1764.142	1058.25
1767.048	1062.25
1769.951	1056.58333
1772.852	1054.91667
1775.752	1059.25
1778.649	1062.91667
1781.544	1053.91667
1784.437	1003.25
1787.328	1025.91667
1790.217	1015.25
1793.104	999.25
1795.989	1000.25
1798.872	993.91667
1801.753	1004.58333
1804.631	1003.91667
1807.508	1001.25
1810.383	988.25
1813.255	983.25
1816.126	979.91667
1818.994	972.91667
1821.861	968.58333
1824.725	959.91667
1827.587	964.91667
1830.448	952.91667
1833.306	941.91667
1836.162	953.25
1839.017	934.25
1841.869	930.91667
1844.719	937.25
1847.567	908.25
1850.414	908.58333
1853.258	915.91667
1856.1	935.25
1858.94	920.25
1861.778	927.58333
1864.614	915.91667
1867.448	930.91667
1870.28	906.91667
1873.111	924.25
1875.939	909.58333
1878.765	926.25
1881.589	904.58333
1884.411	901.25
1887.231	922.91667
1890.049	901.91667
1892.865	902.25
1895.68	900.91667
1898.492	894.25
1901.302	879.91667
1904.11	892.91667
1906.916	876.25
1909.721	860.91667
1912.523	877.91667
1915.323	857.91667
1918.122	868.91667
1920.918	874.91667
1923.712	868.91667
1926.505	874.91667
1929.295	850.25
1932.084	865.91667
1934.87	864.91667
1937.655	848.91667
1940.438	843.91667
1943.218	856.91667
1945.997	846.25
1948.774	852.91667
1951.549	855.25
1954.322	839.58333
1957.093	845.91667
1959.862	839.58333
1962.629	841.25
1965.394	835.58333
1968.157	821.91667
1970.918	836.25
1973.678	829.91667
1976.435	821.25
1979.19	817.91667
1981.944	808.91667
1984.696	821.91667
1987.445	812.25
1990.193	815.58333
1992.939	831.91667
1995.683	804.58333
1998.425	779.91667
2001.165	812.58333
2003.903	792.25
2006.639	796.91667
2009.374	798.58333
2012.106	806.25
2014.837	769.91667
2017.566	795.25
2020.292	797.25
2023.017	796.91667
2025.74	776.91667
2028.461	781.25
2031.18	789.91667
2033.898	769.58333
2036.613	780.91667
2039.327	790.25
2042.038	763.91667
2044.748	788.25
2047.456	776.25
2050.162	760.58333
2052.866	763.91667
2055.568	774.58333
2058.268	760.58333
2060.967	774.58333
2063.663	748.25
2066.358	760.58333
2069.051	753.25
2071.742	761.91667
2074.431	767.58333
2077.118	753.91667
2079.804	742.25
2082.487	753.25
2085.169	768.58333
2087.849	788.58333
2090.527	759.91667
2093.203	768.91667
2095.877	774.25
2098.55	771.58333
2101.22	782.25
2103.889	799.25
2106.556	774.25
2109.221	819.91667
2111.884	833.58333
2114.546	884.91667
2117.205	938.25
2119.863	1009.58333
2122.519	1070.58333
2125.173	1135.91667
2127.825	1204.25
2130.475	1200.58333
2133.124	1168.58333
2135.771	1124.58333
2138.416	1080.91667
2141.059	1017.91667
2143.7	987.58333
2146.339	929.58333
2148.977	877.25
2151.613	865.25
2154.247	837.58333
2156.879	823.91667
2159.51	797.25
2162.138	789.25
2164.765	780.91667
2167.39	763.25
2170.013	786.58333
2172.634	778.25
2175.254	760.25
2177.872	783.91667
2180.488	743.91667
2183.102	746.58333
2185.714	732.91667
2188.325	715.25
2190.934	730.25
2193.541	725.25
2196.146	699.25
2198.75	693.91667
2201.351	702.25
2203.951	678.91667
2206.549	698.58333
2209.146	676.58333
2211.74	675.25
2214.333	687.25
2216.924	670.91667
2219.514	675.91667
2222.101	664.58333
2224.687	680.25
2227.271	663.58333
2229.853	648.25
2232.433	647.58333
2235.012	665.91667
2237.589	661.58333
2240.164	673.25
2242.738	663.91667
2245.309	651.25
2247.879	660.58333
2250.448	663.91667
2253.014	638.91667
2255.579	623.58333
2258.142	633.91667
2260.703	612.25
2263.262	623.25
2265.82	614.25
2268.376	614.91667
2270.93	600.91667
2273.483	614.91667
2276.033	610.91667
2278.583	594.58333
2281.13	600.58333
2283.675	586.91667
2286.219	598.91667
2288.761	593.58333
2291.302	598.91667
2293.841	604.91667
2296.377	576.91667
2298.913	596.91667
2301.446	589.58333
2303.978	582.58333
2306.508	578.25
2309.037	588.58333
2311.563	587.91667
2314.088	585.25
2316.612	563.25
2319.133	583.58333
2321.653	574.58333
2324.171	566.58333
2326.688	584.91667
2329.202	569.91667
2331.715	576.58333
2334.227	576.58333
2336.736	564.91667
2339.244	558.58333
2341.751	558.91667
2344.255	561.91667
2346.758	563.25
2349.259	559.58333
2351.759	559.25
2354.257	546.91667
2356.753	548.91667
2359.247	559.25
2361.74	557.58333
2364.231	546.25
2366.721	566.91667
2369.209	548.58333
2371.695	547.58333
2374.179	548.91667
2376.662	545.58333
2379.143	569.25
2381.622	548.58333
2384.1	558.58333
2386.576	551.25
2389.051	556.58333
2391.524	560.25
2393.995	562.58333
2396.464	546.58333
2398.932	531.91667
2401.398	541.91667
2403.863	553.91667
2406.325	544.25
2408.787	543.25
2411.246	546.91667
2413.704	533.91667
2416.16	532.58333
2418.615	537.58333
2421.068	548.91667
2423.519	537.58333
2425.969	532.91667
2428.417	541.25
2430.863	556.25
2433.308	546.91667
2435.751	535.91667
2438.193	540.58333
2440.633	548.25
2443.071	538.91667
2445.508	528.25
2447.943	526.58333
2450.376	529.58333
2452.808	523.91667
2455.238	526.58333
2457.667	554.58333
2460.093	537.25
2462.519	515.91667
2464.942	532.91667
2467.365	537.25
2469.785	537.25
2472.204	537.25
2474.621	511.58333
2477.037	551.58333
2479.451	515.25
2481.863	505.91667
2484.274	517.58333
2486.683	528.58333
2489.091	532.25
2491.497	525.91667
2493.901	525.58333
2496.304	520.25
2498.705	526.58333
2501.105	517.25
2503.503	546.58333
2505.899	511.58333
2508.294	543.25
2510.687	513.25
2513.079	520.25
2515.469	510.91667
2517.858	507.25
2520.245	527.91667
2522.63	517.25
2525.014	512.25
2527.396	511.25
2529.776	509.58333
2532.156	517.58333
2534.533	500.91667
2536.909	513.91667
2539.283	500.58333
2541.656	506.58333
2544.027	534.58333
2546.397	514.25
2548.765	509.25
2551.131	509.91667
2553.496	513.58333
2555.86	519.58333
2558.221	518.58333
2560.582	507.25
2562.94	505.91667
2565.298	505.91667
2567.653	527.58333
2570.007	498.58333
2572.36	523.25
2574.711	502.58333
2577.06	523.91667
2579.408	519.58333
2581.754	518.25
2584.099	514.25
2586.442	518.25
2588.784	519.25
2591.124	530.25
2593.463	508.58333
2595.8	514.25
2598.135	499.58333
2600.469	512.25
2602.802	526.58333
2605.133	526.58333
2607.462	508.25
2609.79	509.91667
2612.116	520.25
2614.441	508.58333
2616.764	519.25
2619.086	531.25
2621.406	503.58333
2623.725	534.91667
2626.042	527.91667
2628.358	520.91667
2630.672	515.91667
2632.985	526.58333
2635.296	534.91667
2637.606	524.25
2639.914	510.25
2642.22	526.58333
2644.525	518.58333
2646.829	536.58333
2649.131	541.25
2651.432	536.58333
2653.731	536.91667
2656.028	547.25
2658.324	539.91667
2660.619	519.91667
2662.912	543.58333
2665.204	530.91667
2667.494	545.25
2669.782	538.91667
2672.07	536.58333
2674.355	555.58333
2676.639	528.58333
2678.922	536.58333
2681.203	551.91667
2683.483	524.58333
2685.761	528.58333
2688.038	550.58333
2690.313	560.58333
2692.587	544.58333
2694.859	537.25
2697.13	549.58333
2699.399	553.91667
2701.667	564.91667
2703.933	566.25
2706.198	564.58333
2708.461	573.58333
2710.723	570.91667
2712.984	560.91667
2715.243	580.58333
2717.5	569.25
2719.757	584.58333
2722.011	577.58333
2724.264	590.91667
2726.516	607.91667
2728.766	595.25
2731.015	598.58333
2733.262	584.25
2735.508	580.91667
2737.753	595.58333
2739.996	573.91667
2742.237	572.58333
2744.477	587.91667
2746.716	598.25
2748.953	582.91667
2751.189	586.25
2753.423	565.25
2755.656	568.25
2757.887	577.25
2760.117	556.25
2762.346	565.25
2764.573	557.91667
2766.798	562.25
2769.022	565.91667
2771.245	569.25
2773.467	569.25
2775.686	572.91667
2777.905	591.58333
2780.122	587.25
2782.337	579.58333
2784.552	589.25
2786.764	597.58333
2788.976	606.25
2791.186	613.58333
2793.394	608.58333
2795.601	625.58333
2797.807	629.91667
2800.011	635.25
2802.214	653.25
2804.415	640.91667
2806.615	641.25
2808.814	663.58333
2811.011	652.58333
2813.206	657.25
2815.401	677.91667
2817.594	679.25
2819.785	693.91667
2821.975	686.91667
2824.164	691.91667
2826.351	707.58333
2828.537	724.91667
2830.722	742.91667
2832.905	743.58333
2835.086	757.91667
2837.267	804.91667
2839.445	837.91667
2841.623	836.58333
2843.799	867.91667
2845.974	899.58333
2848.147	927.25
2850.319	940.91667
2852.489	981.58333
2854.659	976.58333
2856.826	1007.25
2858.993	1008.58333
2861.158	1010.91667
2863.321	1007.25
2865.483	1026.58333
2867.644	1038.58333
2869.804	1030.25
2871.962	1027.91667
2874.118	1043.25
2876.274	1068.58333
2878.428	1061.58333
2880.58	1033.58333
2882.731	1010.58333
2884.881	1005.91667
2887.03	1022.91667
2889.177	1005.25
2891.322	1026.25
2893.467	1016.58333
2895.61	1016.58333
2897.751	1045.91667
2899.892	1031.25
2902.03	1046.25
2904.168	1030.91667
2906.304	1054.58333
2908.439	1075.91667
2910.572	1043.58333
2912.704	1062.91667
2914.835	1070.58333
2916.965	1066.25
2919.093	1081.58333
2921.219	1037.58333
2923.345	1050.25
2925.469	1030.25
2927.591	1018.25
2929.712	990.58333
2931.832	976.25
2933.951	975.25
2936.068	944.91667
2938.184	929.25
2940.299	903.91667
2942.412	890.25
2944.524	848.91667
2946.634	844.91667
2948.744	811.25
2950.851	833.91667
2952.958	782.91667
2955.063	786.25
2957.167	770.58333
2959.269	745.91667
2961.371	763.25
2963.471	724.58333
2965.569	734.25
2967.666	702.91667
2969.762	691.25
2971.857	671.58333
2973.95	656.58333
2976.042	662.25
2978.133	631.25
2980.222	624.25
2982.31	612.58333
2984.396	598.25
2986.482	604.91667
2988.566	603.25
2990.648	584.58333
2992.73	598.25
2994.81	571.91667
2996.889	574.25
2998.966	568.25
3001.042	587.58333
3003.117	573.25
3005.191	573.91667
3007.263	567.25
3009.334	565.58333
3011.403	562.58333
3013.472	539.58333
3015.539	547.58333
3017.604	548.91667
3019.669	517.58333
3021.732	525.25
3023.794	523.25
3025.854	506.58333
3027.914	511.91667
3029.971	512.91667
3032.028	511.58333
3034.083	508.25
3036.137	504.91667
3038.19	486.25
3040.242	471.91667
3042.292	467.25
3044.341	467.25
3046.388	476.91667
3048.435	442.91667
3050.48	473.91667
3052.524	470.58333
3054.566	439.58333
3056.607	459.25
3058.647	439.91667
3060.686	422.91667
3062.723	410.91667
3064.759	400.58333
3066.794	-0.75
3068.828	-1.08333
3070.86	-3.41667
