-0.839	418.20833
3.438	449.20833
7.711	125.875
11.981	54.54167
16.247	46.20833
20.509	39.20833
24.768	43.875
29.024	48.54167
33.276	39.54167
37.524	48.20833
41.769	41.875
46.01	37.20833
50.247	47.54167
54.481	65.20833
58.712	67.54167
62.939	48.54167
67.162	60.20833
71.382	55.875
75.599	49.54167
79.812	60.54167
84.021	80.20833
88.227	58.875
92.429	62.875
96.628	47.20833
100.823	63.20833
105.015	72.54167
109.204	76.875
113.388	81.54167
117.57	70.875
121.748	88.20833
125.922	82.20833
130.093	97.20833
134.261	99.54167
138.425	94.54167
142.585	135.54167
146.742	135.20833
150.896	158.875
155.046	196.20833
159.193	313.54167
163.336	546.54167
167.476	994.875
171.613	1822.875
175.746	2995.875
179.875	4394.875
184.002	5731.54167
188.124	6628.875
192.244	6947.20833
196.36	6892.875
200.472	6686.20833
204.581	6507.54167
208.687	6372.54167
212.79	6341.54167
216.889	6324.875
220.984	6417.20833
225.077	6473.54167
229.165	6594.875
233.251	6654.875
237.333	6717.20833
241.412	6701.20833
245.487	6666.20833
249.559	6612.20833
253.628	6544.875
257.694	6497.54167
261.756	6455.875
265.814	6329.20833
269.87	6155.875
273.922	6010.20833
277.97	5858.875
282.016	5771.20833
286.058	5791.875
290.097	5826.54167
294.132	5830.54167
298.164	5749.20833
302.193	5484.54167
306.219	5091.54167
310.241	4624.20833
314.26	4211.875
318.276	3860.54167
322.288	3617.54167
326.297	3393.875
330.303	3251.20833
334.305	3181.54167
338.305	3096.875
342.301	3039.20833
346.294	3014.20833
350.283	2970.20833
354.269	2940.875
358.252	2925.875
362.232	2893.20833
366.209	2875.875
370.182	2872.54167
374.152	2840.20833
378.119	2831.875
382.083	2846.875
386.043	2877.20833
390	2802.54167
393.954	2792.875
397.905	2761.54167
401.852	2757.875
405.797	2722.20833
409.738	2687.875
413.676	2686.875
417.61	2678.20833
421.542	2651.20833
425.47	2640.54167
429.396	2617.875
433.318	2586.54167
437.236	2570.875
441.152	2583.20833
445.065	2542.875
448.974	2532.20833
452.88	2512.875
456.783	2504.54167
460.683	2490.20833
464.58	2501.875
468.473	2493.20833
472.364	2494.875
476.251	2521.875
480.135	2532.20833
484.016	2573.54167
487.894	2563.54167
491.769	2571.875
495.641	2608.875
499.509	2592.875
503.375	2587.20833
507.237	2568.875
511.096	2562.875
514.952	2589.20833
518.805	2610.875
522.655	2595.875
526.502	2542.20833
530.346	2544.20833
534.187	2531.20833
538.024	2547.20833
541.859	2532.54167
545.69	2562.875
549.519	2540.54167
553.344	2531.20833
557.166	2485.54167
560.985	2450.875
564.802	2434.875
568.615	2403.54167
572.425	2382.54167
576.232	2346.20833
580.036	2376.875
583.836	2353.20833
587.634	2361.54167
591.429	2366.54167
595.221	2419.20833
599.01	2425.54167
602.796	2459.54167
606.578	2483.875
610.358	2475.20833
614.135	2453.54167
617.909	2455.875
621.679	2456.20833
625.447	2434.20833
629.212	2454.54167
632.973	2449.875
636.732	2419.54167
640.488	2451.20833
644.241	2408.875
647.991	2408.20833
651.737	2430.54167
655.481	2412.875
659.222	2435.875
662.96	2421.54167
666.695	2437.875
670.427	2426.54167
674.156	2456.875
677.882	2436.875
681.605	2430.20833
685.325	2414.54167
689.043	2435.54167
692.757	2404.875
696.468	2400.54167
700.177	2406.20833
703.882	2404.54167
707.585	2408.20833
711.284	2431.20833
714.981	2428.20833
718.675	2431.20833
722.366	2446.875
726.054	2412.54167
729.739	2405.54167
733.421	2413.54167
737.1	2425.875
740.777	2431.875
744.45	2449.875
748.121	2466.54167
751.789	2525.875
755.453	2504.20833
759.115	2525.20833
762.774	2546.875
766.431	2553.54167
770.084	2589.20833
773.734	2618.20833
777.382	2649.20833
781.027	2669.20833
784.669	2700.54167
788.308	2695.54167
791.944	2739.20833
795.577	2755.875
799.208	2778.54167
802.835	2818.20833
806.46	2805.20833
810.082	2836.20833
813.701	2859.875
817.317	2876.54167
820.931	2881.54167
824.542	2863.875
828.149	2833.875
831.754	2828.875
835.357	2793.875
838.956	2803.54167
842.553	2765.875
846.146	2738.54167
849.737	2736.875
853.326	2751.20833
856.911	2746.875
860.493	2802.875
864.073	2806.20833
867.65	2855.54167
871.225	2884.875
874.796	2867.54167
878.365	2886.20833
881.931	2926.54167
885.494	2923.875
889.054	2942.54167
892.612	2917.54167
896.166	2876.20833
899.719	2861.54167
903.268	2815.875
906.814	2813.54167
910.358	2806.20833
913.899	2789.20833
917.438	2797.875
920.973	2788.875
924.506	2809.20833
928.036	2864.54167
931.564	2912.54167
935.088	2941.20833
938.61	2925.875
942.129	2967.54167
945.646	3006.54167
949.16	3065.54167
952.671	3121.875
956.179	3175.54167
959.685	3150.875
963.188	3148.54167
966.688	3111.20833
970.185	3020.54167
973.68	2949.54167
977.173	2942.54167
980.662	2918.875
984.149	2932.875
987.633	2933.875
991.114	2969.875
994.593	3059.20833
998.069	3156.20833
1001.542	3274.20833
1005.013	3192.54167
1008.481	3022.20833
1011.947	2971.875
1015.409	2953.875
1018.869	2967.20833
1022.327	2927.20833
1025.782	2934.54167
1029.234	2908.54167
1032.683	2911.20833
1036.13	2813.20833
1039.574	2715.875
1043.016	2666.54167
1046.455	2627.20833
1049.891	2560.54167
1053.325	2580.875
1056.756	2581.54167
1060.184	2609.20833
1063.61	2615.875
1067.033	2621.875
1070.454	2636.20833
1073.872	2677.54167
1077.287	2673.875
1080.7	2672.20833
1084.11	2657.54167
1087.517	2661.875
1090.922	2619.875
1094.325	2607.20833
1097.724	2553.875
1101.122	2545.20833
1104.516	2551.20833
1107.908	2552.20833
1111.298	2595.875
1114.684	2603.54167
1118.069	2634.20833
1121.45	2666.20833
1124.83	2662.875
1128.206	2684.875
1131.58	2715.20833
1134.951	2785.20833
1138.32	2863.875
1141.687	2969.875
1145.05	3033.20833
1148.412	3041.54167
1151.77	3037.54167
1155.126	3054.54167
1158.48	3047.875
1161.831	3075.54167
1165.18	3087.54167
1168.525	3116.54167
1171.869	3161.875
1175.21	3185.54167
1178.548	3209.20833
1181.884	3233.20833
1185.217	3274.20833
1188.548	3340.54167
1191.877	3381.20833
1195.202	3459.54167
1198.526	3487.20833
1201.846	3543.54167
1205.165	3524.875
1208.48	3500.54167
1211.794	3493.875
1215.104	3517.20833
1218.413	3510.875
1221.719	3513.875
1225.022	3490.54167
1228.323	3453.875
1231.621	3457.875
1234.917	3444.875
1238.21	3455.54167
1241.501	3450.54167
1244.79	3445.875
1248.076	3439.875
1251.359	3489.54167
1254.64	3533.54167
1257.919	3548.875
1261.195	3600.54167
1264.468	3653.20833
1267.74	3712.20833
1271.008	3725.54167
1274.275	3702.54167
1277.538	3692.20833
1280.8	3679.20833
1284.059	3634.54167
1287.315	3688.20833
1290.569	3687.54167
1293.821	3741.54167
1297.07	3740.20833
1300.317	3765.20833
1303.562	3745.20833
1306.803	3724.54167
1310.043	3688.20833
1313.28	3640.20833
1316.515	3607.54167
1319.747	3579.20833
1322.977	3530.54167
1326.204	3470.54167
1329.429	3438.54167
1332.652	3395.875
1335.872	3444.54167
1339.09	3392.54167
1342.306	3367.875
1345.519	3359.875
1348.729	3353.875
1351.938	3338.20833
1355.144	3263.20833
1358.347	3258.20833
1361.548	3244.875
1364.747	3263.20833
1367.944	3239.54167
1371.138	3272.54167
1374.329	3266.54167
1377.518	3317.875
1380.705	3334.54167
1383.89	3314.54167
1387.072	3240.875
1390.252	3137.20833
1393.429	3016.875
1396.605	2931.875
1399.777	2858.20833
1402.948	2836.875
1406.116	2792.875
1409.282	2800.875
1412.445	2821.875
1415.606	2825.54167
1418.765	2875.875
1421.921	2940.20833
1425.075	2995.54167
1428.227	3114.20833
1431.376	3244.54167
1434.524	3378.875
1437.668	3464.875
1440.811	3449.875
1443.951	3504.54167
1447.089	3481.875
1450.224	3460.20833
1453.357	3445.20833
1456.488	3424.54167
1459.617	3362.875
1462.743	3317.54167
1465.867	3256.875
1468.989	3240.54167
1472.108	3165.20833
1475.225	3100.54167
1478.34	3064.54167
1481.453	3039.20833
1484.563	3047.54167
1487.671	3088.20833
1490.776	3135.54167
1493.88	3196.20833
1496.981	3236.20833
1500.08	3290.54167
1503.176	3318.20833
1506.271	3368.20833
1509.363	3443.875
1512.452	3502.54167
1515.54	3560.875
1518.625	3640.20833
1521.708	3744.20833
1524.789	3954.20833
1527.867	4205.875
1530.944	4450.20833
1534.018	4670.54167
1537.089	4813.20833
1540.159	4807.875
1543.226	4699.54167
1546.291	4513.54167
1549.354	4351.875
1552.415	4217.875
1555.473	4095.54167
1558.529	4022.875
1561.583	3982.20833
1564.634	3949.54167
1567.684	3970.875
1570.731	3922.875
1573.776	3947.54167
1576.819	3997.875
1579.859	4028.20833
1582.898	4081.20833
1585.934	4106.20833
1588.968	4117.875
1591.999	4110.54167
1595.029	4118.54167
1598.056	4132.875
1601.081	4145.20833
1604.104	4121.20833
1607.125	4106.20833
1610.144	4043.20833
1613.16	3930.875
1616.174	3850.875
1619.186	3758.875
1622.196	3705.875
1625.203	3607.20833
1628.209	3548.875
1631.212	3531.875
1634.213	3519.54167
1637.212	3539.20833
1640.209	3469.875
1643.203	3400.875
1646.196	3288.54167
1649.186	3159.875
1652.174	3069.875
1655.16	2971.875
1658.144	2876.20833
1661.125	2747.20833
1664.105	2605.875
1667.082	2486.54167
1670.057	2361.54167
1673.03	2216.54167
1676.001	2059.54167
1678.97	1919.875
1681.937	1825.875
1684.901	1730.20833
1687.863	1698.54167
1690.824	1610.54167
1693.782	1578.875
1696.738	1525.875
1699.692	1487.875
1702.643	1468.54167
1705.593	1452.875
1708.54	1433.20833
1711.486	1403.875
1714.429	1369.875
1717.37	1380.20833
1720.309	1334.54167
1723.246	1350.875
1726.181	1315.875
1729.113	1328.875
1732.044	1295.875
1734.972	1283.875
1737.899	1299.875
1740.823	1291.20833
1743.745	1293.54167
1746.665	1234.54167
1749.583	1206.20833
1752.499	1185.20833
1755.413	1204.20833
1758.325	1153.875
1761.235	1150.20833
1764.142	1137.54167
1767.048	1128.20833
1769.951	1113.875
1772.852	1097.54167
1775.752	1110.54167
1778.649	1106.20833
1781.544	1103.20833
1784.437	1064.54167
1787.328	1080.875
1790.217	1075.875
1793.104	1048.20833
1795.989	1036.20833
1798.872	1042.20833
1801.753	1067.875
1804.631	1056.54167
1807.508	1056.875
1810.383	1042.54167
1813.255	1029.54167
1816.126	1035.54167
1818.994	1028.875
1821.861	1029.875
1824.725	1003.875
1827.587	1024.54167
1830.448	1010.875
1833.306	970.54167
1836.162	997.875
1839.017	976.54167
1841.869	984.54167
1844.719	990.20833
1847.567	959.20833
1850.414	962.54167
1853.258	963.54167
1856.1	967.54167
1858.94	995.875
1861.778	967.20833
1864.614	959.20833
1867.448	974.875
1870.28	945.54167
1873.111	975.875
1875.939	963.875
1878.765	987.20833
1881.589	949.20833
1884.411	948.54167
1887.231	969.875
1890.049	941.54167
1892.865	949.54167
1895.68	929.20833
1898.492	942.20833
1901.302	929.20833
1904.11	930.20833
1906.916	918.875
1909.721	930.20833
1912.523	930.20833
1915.323	901.875
1918.122	911.20833
1920.918	920.54167
1923.712	905.875
1926.505	898.875
1929.295	888.54167
1932.084	906.875
1934.87	908.875
1937.655	898.54167
1940.438	877.875
1943.218	899.875
1945.997	885.875
1948.774	897.20833
1951.549	901.54167
1954.322	888.54167
1957.093	883.54167
1959.862	875.54167
1962.629	887.875
1965.394	874.20833
1968.157	853.875
1970.918	878.54167
1973.678	850.875
1976.435	864.875
1979.19	862.54167
1981.944	856.54167
1984.696	847.875
1987.445	837.54167
1990.193	857.875
1992.939	862.54167
1995.683	842.54167
1998.425	821.875
2001.165	862.20833
2003.903	833.20833
2006.639	821.54167
2009.374	828.54167
2012.106	828.20833
2014.837	807.54167
2017.566	829.875
2020.292	824.20833
2023.017	831.875
2025.74	821.54167
2028.461	815.875
2031.18	825.875
2033.898	806.20833
2036.613	816.20833
2039.327	821.20833
2042.038	792.875
2044.748	797.54167
2047.456	797.20833
2050.162	790.20833
2052.866	792.54167
2055.568	804.54167
2058.268	799.54167
2060.967	806.54167
2063.663	783.54167
2066.358	786.875
2069.051	775.875
2071.742	790.20833
2074.431	783.54167
2077.118	778.875
2079.804	772.54167
2082.487	774.54167
2085.169	792.20833
2087.849	793.875
2090.527	783.54167
2093.203	797.875
2095.877	808.54167
2098.55	803.875
2101.22	808.875
2103.889	814.54167
2106.556	816.54167
2109.221	835.20833
2111.884	860.54167
2114.546	901.20833
2117.205	978.20833
2119.863	1054.20833
2122.519	1117.54167
2125.173	1177.875
2127.825	1273.20833
2130.475	1291.20833
2133.124	1258.54167
2135.771	1210.875
2138.416	1170.20833
2141.059	1090.875
2143.7	1047.875
2146.339	969.875
2148.977	926.54167
2151.613	915.54167
2154.247	886.875
2156.879	860.875
2159.51	828.875
2162.138	823.875
2164.765	835.54167
2167.39	807.54167
2170.013	826.875
2172.634	820.20833
2175.254	799.20833
2177.872	824.54167
2180.488	776.875
2183.102	772.875
2185.714	763.54167
2188.325	741.875
2190.934	745.54167
2193.541	740.875
2196.146	735.20833
2198.75	716.54167
2201.351	722.875
2203.951	693.875
2206.549	718.20833
2209.146	708.875
2211.74	696.875
2214.333	705.875
2216.924	682.20833
2219.514	686.20833
2222.101	680.875
2224.687	690.54167
2227.271	668.875
2229.853	668.54167
2232.433	668.875
2235.012	669.875
2237.589	676.54167
2240.164	679.875
2242.738	667.875
2245.309	654.20833
2247.879	669.875
2250.448	662.54167
2253.014	636.54167
2255.579	634.875
2258.142	613.54167
2260.703	615.20833
2263.262	605.54167
2265.82	619.20833
2268.376	623.875
2270.93	610.875
2273.483	593.20833
2276.033	604.20833
2278.583	605.875
2281.13	596.875
2283.675	589.875
2286.219	596.54167
2288.761	587.20833
2291.302	597.20833
2293.841	587.20833
2296.377	569.54167
2298.913	578.54167
2301.446	591.54167
2303.978	577.20833
2306.508	574.875
2309.037	582.54167
2311.563	568.20833
2314.088	571.20833
2316.612	562.20833
2319.133	563.54167
2321.653	565.875
2324.171	555.875
2326.688	566.875
2329.202	551.875
2331.715	567.875
2334.227	556.875
2336.736	548.875
2339.244	545.875
2341.751	540.20833
2344.255	554.875
2346.758	537.875
2349.259	538.875
2351.759	544.54167
2354.257	524.54167
2356.753	532.875
2359.247	534.54167
2361.74	530.54167
2364.231	524.875
2366.721	542.54167
2369.209	528.875
2371.695	535.875
2374.179	517.20833
2376.662	520.20833
2379.143	528.875
2381.622	526.875
2384.1	530.875
2386.576	504.875
2389.051	529.54167
2391.524	534.54167
2393.995	527.20833
2396.464	515.54167
2398.932	520.54167
2401.398	519.20833
2403.863	506.875
2406.325	505.875
2408.787	514.20833
2411.246	506.54167
2413.704	508.20833
2416.16	506.20833
2418.615	503.54167
2421.068	504.54167
2423.519	507.54167
2425.969	500.20833
2428.417	508.54167
2430.863	513.20833
2433.308	503.20833
2435.751	504.54167
2438.193	497.875
2440.633	508.54167
2443.071	492.54167
2445.508	480.20833
2447.943	484.54167
2450.376	485.875
2452.808	493.875
2455.238	486.875
2457.667	503.20833
2460.093	472.54167
2462.519	478.875
2464.942	479.54167
2467.365	489.875
2469.785	482.54167
2472.204	483.875
2474.621	473.20833
2477.037	500.54167
2479.451	466.20833
2481.863	465.54167
2484.274	461.54167
2486.683	472.20833
2489.091	474.875
2491.497	467.54167
2493.901	464.20833
2496.304	458.54167
2498.705	474.875
2501.105	459.20833
2503.503	481.54167
2505.899	456.20833
2508.294	478.875
2510.687	452.54167
2513.079	456.54167
2515.469	455.875
2517.858	455.20833
2520.245	474.20833
2522.63	460.875
2525.014	449.875
2527.396	449.54167
2529.776	442.875
2532.156	455.875
2534.533	438.20833
2536.909	440.875
2539.283	440.875
2541.656	442.875
2544.027	463.875
2546.397	439.875
2548.765	440.20833
2551.131	449.54167
2553.496	440.20833
2555.86	449.20833
2558.221	443.875
2560.582	439.20833
2562.94	425.875
2565.298	440.20833
2567.653	451.875
2570.007	431.875
2572.36	442.54167
2574.711	434.20833
2577.06	452.54167
2579.408	435.54167
2581.754	423.20833
2584.099	437.20833
2586.442	433.20833
2588.784	438.20833
2591.124	429.875
2593.463	425.20833
2595.8	425.20833
2598.135	421.20833
2600.469	421.20833
2602.802	443.54167
2605.133	452.20833
2607.462	423.875
2609.79	421.20833
2612.116	428.20833
2614.441	422.875
2616.764	435.875
2619.086	419.875
2621.406	419.20833
2623.725	431.875
2626.042	431.20833
2628.358	421.875
2630.672	424.20833
2632.985	433.875
2635.296	429.20833
2637.606	431.54167
2639.914	414.54167
2642.22	435.20833
2644.525	419.54167
2646.829	426.875
2649.131	438.54167
2651.432	436.54167
2653.731	422.875
2656.028	442.54167
2658.324	432.20833
2660.619	420.54167
2662.912	443.54167
2665.204	420.20833
2667.494	443.875
2669.782	424.20833
2672.07	438.54167
2674.355	440.54167
2676.639	428.20833
2678.922	415.54167
2681.203	438.20833
2683.483	412.54167
2685.761	421.54167
2688.038	441.20833
2690.313	449.875
2692.587	439.875
2694.859	427.54167
2697.13	441.875
2699.399	433.20833
2701.667	453.875
2703.933	446.875
2706.198	441.54167
2708.461	458.875
2710.723	450.875
2712.984	452.20833
2715.243	465.20833
2717.5	451.875
2719.757	471.54167
2722.011	455.54167
2724.264	473.875
2726.516	479.54167
2728.766	463.875
2731.015	460.54167
2733.262	471.20833
2735.508	463.875
2737.753	476.875
2739.996	446.54167
2742.237	452.20833
2744.477	459.875
2746.716	461.20833
2748.953	444.875
2751.189	449.20833
2753.423	431.20833
2755.656	440.875
2757.887	425.54167
2760.117	433.20833
2762.346	425.54167
2764.573	425.54167
2766.798	424.54167
2769.022	433.20833
2771.245	430.54167
2773.467	439.20833
2775.686	439.875
2777.905	445.875
2780.122	447.54167
2782.337	457.54167
2784.552	449.20833
2786.764	460.875
2788.976	458.54167
2791.186	461.875
2793.394	467.54167
2795.601	481.875
2797.807	481.875
2800.011	490.54167
2802.214	502.875
2804.415	498.875
2806.615	503.875
2808.814	520.54167
2811.011	520.54167
2813.206	519.20833
2815.401	543.20833
2817.594	545.54167
2819.785	563.875
2821.975	537.54167
2824.164	555.54167
2826.351	587.875
2828.537	598.875
2830.722	616.875
2832.905	620.875
2835.086	649.875
2837.267	682.20833
2839.445	710.54167
2841.623	727.54167
2843.799	757.875
2845.974	786.20833
2848.147	834.875
2850.319	848.54167
2852.489	888.20833
2854.659	888.875
2856.826	913.54167
2858.993	938.875
2861.158	911.875
2863.321	928.875
2865.483	940.20833
2867.644	944.54167
2869.804	931.875
2871.962	934.54167
2874.118	941.875
2876.274	916.875
2878.428	913.20833
2880.58	919.20833
2882.731	905.875
2884.881	903.54167
2887.03	922.875
2889.177	907.875
2891.322	926.20833
2893.467	921.875
2895.61	917.20833
2897.751	939.875
2899.892	935.20833
2902.03	947.875
2904.168	947.20833
2906.304	950.875
2908.439	970.875
2910.572	954.54167
2912.704	971.54167
2914.835	965.54167
2916.965	959.875
2919.093	984.875
2921.219	946.54167
2923.345	956.54167
2925.469	928.875
2927.591	930.875
2929.712	885.875
2931.832	882.20833
2933.951	872.875
2936.068	836.54167
2938.184	806.20833
2940.299	786.20833
2942.412	771.875
2944.524	731.875
2946.634	714.20833
2948.744	649.20833
2950.851	686.54167
2952.958	637.54167
2955.063	629.54167
2957.167	612.875
2959.269	588.20833
2961.371	591.54167
2963.471	556.20833
2965.569	558.54167
2967.666	527.875
2969.762	515.875
2971.857	499.875
2973.95	489.875
2976.042	477.20833
2978.133	461.875
2980.222	458.54167
2982.31	427.20833
2984.396	418.54167
2986.482	426.875
2988.566	417.875
2990.648	400.875
2992.73	395.20833
2994.81	390.54167
2996.889	398.20833
2998.966	384.54167
3001.042	393.875
3003.117	373.54167
3005.191	382.20833
3007.263	373.20833
3009.334	370.54167
3011.403	364.20833
3013.472	346.54167
3015.539	354.54167
3017.604	360.20833
3019.669	325.20833
3021.732	331.875
3023.794	339.875
3025.854	316.875
3027.914	316.875
3029.971	326.54167
3032.028	323.875
3034.083	315.875
3036.137	310.875
3038.19	297.875
3040.242	290.54167
3042.292	285.875
3044.341	290.54167
3046.388	292.875
3048.435	273.875
3050.48	288.54167
3052.524	281.875
3054.566	267.54167
3056.607	282.54167
3058.647	271.875
3060.686	249.875
3062.723	244.875
3064.759	240.875
3066.794	-1.125
3068.828	-2.79167
3070.86	-2.125
