-0.839	308.54167
3.438	335.875
7.711	101.20833
11.981	47.20833
16.247	45.875
20.509	40.54167
24.768	42.54167
29.024	43.20833
33.276	42.20833
37.524	53.54167
41.769	33.54167
46.01	35.54167
50.247	52.20833
54.481	63.54167
58.712	67.54167
62.939	45.54167
67.162	59.875
71.382	55.20833
75.599	44.20833
79.812	66.20833
84.021	79.20833
88.227	59.875
92.429	62.875
96.628	47.875
100.823	67.20833
105.015	73.20833
109.204	77.20833
113.388	76.54167
117.57	74.875
121.748	89.54167
125.922	75.54167
130.093	98.54167
134.261	100.20833
138.425	91.54167
142.585	137.875
146.742	129.54167
150.896	156.875
155.046	186.54167
159.193	310.875
163.336	520.875
167.476	969.20833
171.613	1758.20833
175.746	2891.20833
179.875	4263.54167
184.002	5521.54167
188.124	6395.20833
192.244	6669.54167
196.36	6612.20833
200.472	6441.20833
204.581	6238.875
208.687	6094.20833
212.79	6050.20833
216.889	6126.54167
220.984	6194.20833
225.077	6262.54167
229.165	6335.54167
233.251	6373.54167
237.333	6433.20833
241.412	6404.20833
245.487	6384.20833
249.559	6356.54167
253.628	6279.54167
257.694	6185.54167
261.756	6146.20833
265.814	5972.20833
269.87	5817.20833
273.922	5640.875
277.97	5554.875
282.016	5511.54167
286.058	5507.875
290.097	5575.20833
294.132	5550.20833
298.164	5456.54167
302.193	5166.20833
306.219	4793.20833
310.241	4363.20833
314.26	3987.54167
318.276	3651.875
322.288	3426.875
326.297	3200.20833
330.303	3095.54167
334.305	3004.54167
338.305	2933.20833
342.301	2870.54167
346.294	2835.875
350.283	2809.54167
354.269	2797.875
358.252	2779.54167
362.232	2752.20833
366.209	2727.875
370.182	2672.875
374.152	2647.875
378.119	2668.875
382.083	2678.875
386.043	2680.54167
390	2619.54167
393.954	2634.20833
397.905	2604.875
401.852	2576.875
405.797	2539.54167
409.738	2526.54167
413.676	2547.20833
417.61	2517.20833
421.542	2470.54167
425.47	2423.54167
429.396	2430.20833
433.318	2418.20833
437.236	2377.54167
441.152	2399.54167
445.065	2334.54167
448.974	2355.875
452.88	2299.20833
456.783	2298.875
460.683	2309.875
464.58	2305.20833
468.473	2320.20833
472.364	2319.54167
476.251	2318.54167
480.135	2340.20833
484.016	2375.875
487.894	2342.54167
491.769	2378.54167
495.641	2383.54167
499.509	2381.875
503.375	2376.20833
507.237	2358.54167
511.096	2361.54167
514.952	2360.875
518.805	2359.54167
522.655	2350.54167
526.502	2319.54167
530.346	2335.20833
534.187	2333.875
538.024	2350.875
541.859	2342.875
545.69	2355.20833
549.519	2340.20833
553.344	2309.54167
557.166	2297.20833
560.985	2269.875
564.802	2239.875
568.615	2213.54167
572.425	2166.875
576.232	2167.875
580.036	2174.875
583.836	2198.20833
587.634	2185.875
591.429	2189.875
595.221	2207.875
599.01	2245.54167
602.796	2268.20833
606.578	2271.875
610.358	2291.20833
614.135	2262.54167
617.909	2241.54167
621.679	2271.875
625.447	2242.875
629.212	2241.875
632.973	2251.20833
636.732	2258.54167
640.488	2241.875
644.241	2216.20833
647.991	2210.54167
651.737	2228.20833
655.481	2175.875
659.222	2203.20833
662.96	2196.54167
666.695	2222.54167
670.427	2238.54167
674.156	2235.54167
677.882	2225.875
681.605	2237.20833
685.325	2213.54167
689.043	2218.20833
692.757	2196.20833
696.468	2207.54167
700.177	2235.20833
703.882	2211.54167
707.585	2211.54167
711.284	2225.54167
714.981	2229.875
718.675	2230.20833
722.366	2245.54167
726.054	2222.20833
729.739	2218.20833
733.421	2244.20833
737.1	2219.875
740.777	2247.20833
744.45	2259.54167
748.121	2277.54167
751.789	2352.875
755.453	2320.54167
759.115	2336.54167
762.774	2363.875
766.431	2378.875
770.084	2412.875
773.734	2436.875
777.382	2457.20833
781.027	2493.20833
784.669	2499.875
788.308	2528.20833
791.944	2548.20833
795.577	2563.875
799.208	2593.54167
802.835	2595.20833
806.46	2605.20833
810.082	2655.875
813.701	2638.20833
817.317	2679.20833
820.931	2664.54167
824.542	2666.875
828.149	2643.54167
831.754	2609.20833
835.357	2604.54167
838.956	2618.875
842.553	2606.875
846.146	2579.20833
849.737	2569.20833
853.326	2580.875
856.911	2592.875
860.493	2657.54167
864.073	2650.54167
867.65	2702.54167
871.225	2736.875
874.796	2730.54167
878.365	2740.54167
881.931	2746.20833
885.494	2754.875
889.054	2757.20833
892.612	2757.20833
896.166	2734.20833
899.719	2708.54167
903.268	2666.54167
906.814	2651.875
910.358	2645.54167
913.899	2649.875
917.438	2626.875
920.973	2648.875
924.506	2660.20833
928.036	2700.20833
931.564	2707.20833
935.088	2769.20833
938.61	2743.54167
942.129	2790.875
945.646	2866.20833
949.16	2910.875
952.671	2982.54167
956.179	2982.54167
959.685	2967.875
963.188	2945.54167
966.688	2886.875
970.185	2828.875
973.68	2789.875
977.173	2777.20833
980.662	2751.20833
984.149	2761.20833
987.633	2765.20833
991.114	2819.875
994.593	2915.54167
998.069	2988.20833
1001.542	3092.54167
1005.013	3012.875
1008.481	2836.20833
1011.947	2787.875
1015.409	2802.875
1018.869	2790.20833
1022.327	2776.875
1025.782	2752.875
1029.234	2765.875
1032.683	2743.875
1036.13	2615.54167
1039.574	2528.54167
1043.016	2497.20833
1046.455	2443.875
1049.891	2412.875
1053.325	2400.54167
1056.756	2409.54167
1060.184	2432.20833
1063.61	2453.875
1067.033	2465.875
1070.454	2441.20833
1073.872	2473.875
1077.287	2492.20833
1080.7	2494.20833
1084.11	2498.875
1087.517	2470.54167
1090.922	2442.54167
1094.325	2404.20833
1097.724	2406.54167
1101.122	2378.20833
1104.516	2375.54167
1107.908	2377.54167
1111.298	2440.54167
1114.684	2442.54167
1118.069	2455.54167
1121.45	2481.875
1124.83	2505.54167
1128.206	2504.875
1131.58	2543.20833
1134.951	2592.20833
1138.32	2677.875
1141.687	2797.54167
1145.05	2859.54167
1148.412	2889.875
1151.77	2853.20833
1155.126	2879.20833
1158.48	2865.20833
1161.831	2881.875
1165.18	2916.20833
1168.525	2961.20833
1171.869	2968.20833
1175.21	3022.54167
1178.548	3052.20833
1181.884	3063.875
1185.217	3100.54167
1188.548	3130.54167
1191.877	3196.20833
1195.202	3271.20833
1198.526	3304.54167
1201.846	3340.54167
1205.165	3309.20833
1208.48	3311.20833
1211.794	3300.54167
1215.104	3319.875
1218.413	3332.875
1221.719	3318.54167
1225.022	3275.20833
1228.323	3229.875
1231.621	3245.20833
1234.917	3242.875
1238.21	3263.875
1241.501	3224.875
1244.79	3273.54167
1248.076	3238.20833
1251.359	3308.54167
1254.64	3360.875
1257.919	3353.875
1261.195	3398.20833
1264.468	3470.20833
1267.74	3515.54167
1271.008	3534.20833
1274.275	3469.20833
1277.538	3437.54167
1280.8	3446.875
1284.059	3443.54167
1287.315	3475.54167
1290.569	3501.875
1293.821	3489.20833
1297.07	3526.20833
1300.317	3534.875
1303.562	3520.54167
1306.803	3467.20833
1310.043	3441.54167
1313.28	3413.20833
1316.515	3365.875
1319.747	3317.875
1322.977	3289.54167
1326.204	3252.20833
1329.429	3191.54167
1332.652	3179.20833
1335.872	3151.54167
1339.09	3112.54167
1342.306	3161.875
1345.519	3129.54167
1348.729	3137.875
1351.938	3096.875
1355.144	3046.875
1358.347	3025.20833
1361.548	3041.54167
1364.747	3027.20833
1367.944	3013.20833
1371.138	3037.875
1374.329	3081.20833
1377.518	3107.54167
1380.705	3124.54167
1383.89	3108.20833
1387.072	2991.875
1390.252	2914.54167
1393.429	2815.875
1396.605	2732.54167
1399.777	2667.54167
1402.948	2642.875
1406.116	2621.875
1409.282	2615.875
1412.445	2613.875
1415.606	2657.875
1418.765	2703.875
1421.921	2758.20833
1425.075	2842.20833
1428.227	2928.875
1431.376	3062.54167
1434.524	3135.875
1437.668	3203.54167
1440.811	3220.54167
1443.951	3243.54167
1447.089	3241.54167
1450.224	3236.54167
1453.357	3210.875
1456.488	3193.54167
1459.617	3147.54167
1462.743	3098.20833
1465.867	3030.20833
1468.989	3004.20833
1472.108	2950.20833
1475.225	2891.875
1478.34	2852.20833
1481.453	2851.20833
1484.563	2861.54167
1487.671	2881.20833
1490.776	2954.54167
1493.88	3000.54167
1496.981	3068.20833
1500.08	3119.875
1503.176	3157.20833
1506.271	3195.20833
1509.363	3265.20833
1512.452	3288.875
1515.54	3358.875
1518.625	3441.20833
1521.708	3577.20833
1524.789	3741.54167
1527.867	3964.875
1530.944	4210.875
1534.018	4421.875
1537.089	4567.54167
1540.159	4558.875
1543.226	4467.875
1546.291	4320.875
1549.354	4159.875
1552.415	4046.20833
1555.473	3916.54167
1558.529	3795.875
1561.583	3759.20833
1564.634	3733.54167
1567.684	3708.875
1570.731	3712.875
1573.776	3740.20833
1576.819	3770.20833
1579.859	3766.20833
1582.898	3836.20833
1585.934	3831.20833
1588.968	3863.20833
1591.999	3815.54167
1595.029	3824.875
1598.056	3873.20833
1601.081	3899.54167
1604.104	3851.875
1607.125	3843.20833
1610.144	3747.20833
1613.16	3631.875
1616.174	3572.875
1619.186	3487.20833
1622.196	3379.20833
1625.203	3305.54167
1628.209	3250.54167
1631.212	3248.54167
1634.213	3178.875
1637.212	3166.54167
1640.209	3108.54167
1643.203	3036.875
1646.196	2949.875
1649.186	2858.54167
1652.174	2765.54167
1655.16	2693.20833
1658.144	2621.54167
1661.125	2514.54167
1664.105	2390.20833
1667.082	2281.875
1670.057	2146.875
1673.03	2035.20833
1676.001	1901.54167
1678.97	1802.875
1681.937	1688.20833
1684.901	1603.20833
1687.863	1558.20833
1690.824	1494.875
1693.782	1467.20833
1696.738	1415.875
1699.692	1369.20833
1702.643	1334.20833
1705.593	1345.20833
1708.54	1330.20833
1711.486	1325.54167
1714.429	1293.20833
1717.37	1277.54167
1720.309	1253.875
1723.246	1264.54167
1726.181	1210.54167
1729.113	1227.875
1732.044	1201.875
1734.972	1203.54167
1737.899	1216.54167
1740.823	1191.20833
1743.745	1191.20833
1746.665	1157.20833
1749.583	1127.20833
1752.499	1106.875
1755.413	1106.875
1758.325	1061.875
1761.235	1077.54167
1764.142	1054.20833
1767.048	1039.20833
1769.951	1029.54167
1772.852	1026.875
1775.752	1035.54167
1778.649	1031.54167
1781.544	1029.54167
1784.437	987.20833
1787.328	1005.20833
1790.217	1006.54167
1793.104	968.20833
1795.989	964.875
1798.872	957.20833
1801.753	984.875
1804.631	976.875
1807.508	977.875
1810.383	959.54167
1813.255	954.54167
1816.126	962.54167
1818.994	944.875
1821.861	946.20833
1824.725	938.875
1827.587	933.875
1830.448	937.875
1833.306	914.875
1836.162	932.875
1839.017	907.20833
1841.869	926.54167
1844.719	911.20833
1847.567	893.875
1850.414	888.875
1853.258	883.875
1856.1	918.20833
1858.94	927.875
1861.778	883.875
1864.614	900.54167
1867.448	910.875
1870.28	883.20833
1873.111	916.20833
1875.939	899.20833
1878.765	902.20833
1881.589	888.54167
1884.411	892.875
1887.231	891.54167
1890.049	882.54167
1892.865	880.875
1895.68	861.54167
1898.492	875.875
1901.302	853.875
1904.11	861.875
1906.916	851.875
1909.721	849.54167
1912.523	854.20833
1915.323	830.20833
1918.122	837.54167
1920.918	857.875
1923.712	845.54167
1926.505	852.20833
1929.295	820.20833
1932.084	838.54167
1934.87	843.875
1937.655	824.20833
1940.438	825.20833
1943.218	829.875
1945.997	825.54167
1948.774	830.54167
1951.549	831.54167
1954.322	812.875
1957.093	828.20833
1959.862	816.875
1962.629	820.54167
1965.394	806.54167
1968.157	783.54167
1970.918	820.54167
1973.678	791.20833
1976.435	807.54167
1979.19	801.54167
1981.944	789.875
1984.696	788.20833
1987.445	782.54167
1990.193	783.875
1992.939	803.20833
1995.683	784.875
1998.425	769.20833
2001.165	800.54167
2003.903	772.20833
2006.639	773.20833
2009.374	771.54167
2012.106	782.54167
2014.837	757.20833
2017.566	770.20833
2020.292	771.20833
2023.017	774.54167
2025.74	758.54167
2028.461	758.875
2031.18	768.54167
2033.898	746.20833
2036.613	765.875
2039.327	762.875
2042.038	738.20833
2044.748	756.875
2047.456	754.875
2050.162	737.875
2052.866	741.875
2055.568	744.54167
2058.268	727.875
2060.967	745.20833
2063.663	721.54167
2066.358	740.20833
2069.051	727.54167
2071.742	732.875
2074.431	743.20833
2077.118	735.20833
2079.804	722.54167
2082.487	736.20833
2085.169	749.20833
2087.849	748.20833
2090.527	747.875
2093.203	746.20833
2095.877	755.54167
2098.55	760.875
2101.22	776.875
2103.889	794.54167
2106.556	802.54167
2109.221	836.54167
2111.884	860.20833
2114.546	947.875
2117.205	1012.54167
2119.863	1111.54167
2122.519	1199.20833
2125.173	1283.20833
2127.825	1350.54167
2130.475	1379.875
2133.124	1334.54167
2135.771	1262.54167
2138.416	1218.54167
2141.059	1144.20833
2143.7	1079.54167
2146.339	997.54167
2148.977	942.20833
2151.613	918.875
2154.247	892.875
2156.879	859.20833
2159.51	846.54167
2162.138	813.54167
2164.765	814.20833
2167.39	793.54167
2170.013	808.54167
2172.634	795.54167
2175.254	782.54167
2177.872	804.54167
2180.488	766.54167
2183.102	772.20833
2185.714	753.54167
2188.325	731.875
2190.934	740.54167
2193.541	726.54167
2196.146	714.875
2198.75	698.20833
2201.351	702.20833
2203.951	678.54167
2206.549	688.20833
2209.146	677.875
2211.74	671.20833
2214.333	673.54167
2216.924	644.54167
2219.514	646.875
2222.101	647.54167
2224.687	651.875
2227.271	636.20833
2229.853	636.20833
2232.433	621.875
2235.012	637.20833
2237.589	630.875
2240.164	630.875
2242.738	633.54167
2245.309	617.54167
2247.879	619.875
2250.448	616.54167
2253.014	594.875
2255.579	583.54167
2258.142	594.54167
2260.703	585.875
2263.262	587.20833
2265.82	575.54167
2268.376	590.875
2270.93	566.875
2273.483	558.875
2276.033	574.20833
2278.583	553.54167
2281.13	559.54167
2283.675	546.875
2286.219	541.875
2288.761	551.54167
2291.302	562.54167
2293.841	563.54167
2296.377	528.54167
2298.913	534.875
2301.446	551.875
2303.978	546.54167
2306.508	522.54167
2309.037	535.54167
2311.563	534.20833
2314.088	552.20833
2316.612	519.54167
2319.133	527.875
2321.653	529.875
2324.171	518.875
2326.688	533.20833
2329.202	512.20833
2331.715	522.54167
2334.227	517.54167
2336.736	519.875
2339.244	511.20833
2341.751	504.20833
2344.255	515.875
2346.758	512.54167
2349.259	497.20833
2351.759	494.875
2354.257	502.54167
2356.753	496.875
2359.247	504.875
2361.74	503.20833
2364.231	494.20833
2366.721	497.20833
2369.209	486.54167
2371.695	481.54167
2374.179	483.875
2376.662	486.875
2379.143	502.20833
2381.622	485.54167
2384.1	500.54167
2386.576	489.54167
2389.051	498.20833
2391.524	500.20833
2393.995	491.875
2396.464	479.875
2398.932	465.875
2401.398	475.54167
2403.863	469.54167
2406.325	474.54167
2408.787	475.54167
2411.246	473.20833
2413.704	467.20833
2416.16	465.875
2418.615	477.20833
2421.068	477.54167
2423.519	467.20833
2425.969	456.54167
2428.417	476.54167
2430.863	485.875
2433.308	473.875
2435.751	466.875
2438.193	454.875
2440.633	465.54167
2443.071	459.20833
2445.508	455.54167
2447.943	443.875
2450.376	439.20833
2452.808	456.54167
2455.238	445.20833
2457.667	483.20833
2460.093	453.875
2462.519	430.875
2464.942	442.875
2467.365	455.875
2469.785	444.875
2472.204	443.875
2474.621	427.20833
2477.037	458.875
2479.451	429.875
2481.863	426.20833
2484.274	436.20833
2486.683	435.20833
2489.091	442.20833
2491.497	434.20833
2493.901	420.875
2496.304	428.875
2498.705	430.54167
2501.105	428.20833
2503.503	447.875
2505.899	419.54167
2508.294	441.20833
2510.687	422.875
2513.079	432.20833
2515.469	417.54167
2517.858	416.54167
2520.245	434.54167
2522.63	420.20833
2525.014	408.875
2527.396	419.20833
2529.776	411.20833
2532.156	422.54167
2534.533	402.54167
2536.909	411.875
2539.283	401.20833
2541.656	406.20833
2544.027	434.875
2546.397	417.54167
2548.765	408.54167
2551.131	410.875
2553.496	402.54167
2555.86	415.54167
2558.221	405.54167
2560.582	404.875
2562.94	394.54167
2565.298	400.875
2567.653	420.875
2570.007	388.54167
2572.36	404.875
2574.711	397.54167
2577.06	412.875
2579.408	407.20833
2581.754	399.875
2584.099	393.54167
2586.442	393.875
2588.784	403.875
2591.124	399.20833
2593.463	393.875
2595.8	396.54167
2598.135	383.875
2600.469	390.54167
2602.802	404.20833
2605.133	402.20833
2607.462	376.875
2609.79	384.20833
2612.116	387.20833
2614.441	397.20833
2616.764	395.875
2619.086	392.54167
2621.406	388.875
2623.725	401.54167
2626.042	390.54167
2628.358	383.875
2630.672	393.54167
2632.985	406.20833
2635.296	390.20833
2637.606	393.20833
2639.914	374.875
2642.22	385.875
2644.525	384.875
2646.829	391.20833
2649.131	396.875
2651.432	395.54167
2653.731	386.875
2656.028	401.875
2658.324	398.20833
2660.619	376.875
2662.912	398.20833
2665.204	382.20833
2667.494	402.20833
2669.782	384.875
2672.07	400.875
2674.355	402.875
2676.639	381.20833
2678.922	391.54167
2681.203	401.20833
2683.483	379.875
2685.761	381.875
2688.038	396.54167
2690.313	412.20833
2692.587	400.54167
2694.859	386.20833
2697.13	396.54167
2699.399	398.54167
2701.667	413.875
2703.933	413.54167
2706.198	418.54167
2708.461	419.54167
2710.723	425.20833
2712.984	412.875
2715.243	432.20833
2717.5	424.20833
2719.757	419.20833
2722.011	415.54167
2724.264	430.54167
2726.516	444.875
2728.766	428.20833
2731.015	429.875
2733.262	416.54167
2735.508	406.20833
2737.753	418.875
2739.996	402.875
2742.237	402.54167
2744.477	410.875
2746.716	418.20833
2748.953	411.875
2751.189	419.54167
2753.423	407.875
2755.656	397.875
2757.887	396.54167
2760.117	400.875
2762.346	389.20833
2764.573	388.54167
2766.798	393.875
2769.022	401.20833
2771.245	398.20833
2773.467	405.54167
2775.686	401.875
2777.905	401.875
2780.122	416.54167
2782.337	414.20833
2784.552	409.54167
2786.764	422.54167
2788.976	427.20833
2791.186	427.54167
2793.394	437.875
2795.601	443.875
2797.807	442.875
2800.011	449.875
2802.214	456.54167
2804.415	466.54167
2806.615	465.20833
2808.814	476.54167
2811.011	485.875
2813.206	483.20833
2815.401	502.54167
2817.594	508.20833
2819.785	511.875
2821.975	511.875
2824.164	518.20833
2826.351	533.54167
2828.537	553.20833
2830.722	569.20833
2832.905	567.20833
2835.086	584.20833
2837.267	629.20833
2839.445	636.54167
2841.623	648.54167
2843.799	682.54167
2845.974	713.54167
2848.147	740.875
2850.319	755.54167
2852.489	796.20833
2854.659	798.54167
2856.826	817.20833
2858.993	841.875
2861.158	815.54167
2863.321	818.20833
2865.483	844.54167
2867.644	840.20833
2869.804	829.54167
2871.962	821.875
2874.118	828.875
2876.274	849.54167
2878.428	841.875
2880.58	819.20833
2882.731	806.54167
2884.881	807.875
2887.03	810.875
2889.177	809.20833
2891.322	829.54167
2893.467	807.54167
2895.61	805.54167
2897.751	835.20833
2899.892	809.20833
2902.03	829.875
2904.168	841.54167
2906.304	832.54167
2908.439	858.20833
2910.572	826.875
2912.704	848.20833
2914.835	841.875
2916.965	839.20833
2919.093	850.54167
2921.219	803.20833
2923.345	843.54167
2925.469	820.875
2927.591	789.54167
2929.712	778.20833
2931.832	766.875
2933.951	743.54167
2936.068	728.875
2938.184	707.875
2940.299	675.20833
2942.412	665.20833
2944.524	616.20833
2946.634	628.875
2948.744	570.875
2950.851	600.54167
2952.958	553.54167
2955.063	549.54167
2957.167	542.20833
2959.269	496.20833
2961.371	517.875
2963.471	474.20833
2965.569	472.875
2967.666	452.875
2969.762	446.20833
2971.857	433.20833
2973.95	418.20833
2976.042	413.54167
2978.133	392.54167
2980.222	387.20833
2982.31	366.20833
2984.396	355.54167
2986.482	356.20833
2988.566	359.20833
2990.648	335.20833
2992.73	338.875
2994.81	329.54167
2996.889	333.875
2998.966	326.20833
3001.042	333.875
3003.117	323.875
3005.191	327.20833
3007.263	315.875
3009.334	305.875
3011.403	312.20833
3013.472	294.20833
3015.539	301.54167
3017.604	314.54167
3019.669	269.54167
3021.732	284.20833
3023.794	283.54167
3025.854	267.20833
3027.914	268.20833
3029.971	272.54167
3032.028	263.875
3034.083	267.54167
3036.137	265.875
3038.19	252.875
3040.242	240.20833
3042.292	235.20833
3044.341	226.54167
3046.388	251.875
3048.435	228.20833
3050.48	241.54167
3052.524	236.875
3054.566	215.54167
3056.607	233.20833
3058.647	218.20833
3060.686	202.20833
3062.723	204.875
3064.759	193.875
3066.794	0.54167
3068.828	0.54167
3070.86	-2.125
