-0.839	398.29167
3.438	417.625
7.711	120.95833
11.981	51.29167
16.247	43.95833
20.509	38.95833
24.768	43.95833
29.024	48.625
33.276	41.29167
37.524	52.625
41.769	40.29167
46.01	35.95833
50.247	49.29167
54.481	68.95833
58.712	61.29167
62.939	45.29167
67.162	58.29167
71.382	57.625
75.599	45.29167
79.812	60.95833
84.021	77.29167
88.227	54.29167
92.429	62.625
96.628	45.95833
100.823	64.29167
105.015	70.625
109.204	71.95833
113.388	74.95833
117.57	69.95833
121.748	88.95833
125.922	73.95833
130.093	92.95833
134.261	101.625
138.425	93.95833
142.585	132.29167
146.742	135.95833
150.896	155.95833
155.046	187.29167
159.193	306.625
163.336	528.95833
167.476	950.95833
171.613	1734.95833
175.746	2884.29167
179.875	4236.95833
184.002	5481.95833
188.124	6363.95833
192.244	6650.29167
196.36	6591.95833
200.472	6416.95833
204.581	6272.625
208.687	6103.625
212.79	6044.29167
216.889	6075.29167
220.984	6167.625
225.077	6208.29167
229.165	6313.95833
233.251	6375.625
237.333	6413.625
241.412	6430.95833
245.487	6413.95833
249.559	6349.95833
253.628	6282.95833
257.694	6223.625
261.756	6201.95833
265.814	6081.625
269.87	5906.29167
273.922	5747.625
277.97	5635.625
282.016	5583.95833
286.058	5554.625
290.097	5604.95833
294.132	5604.95833
298.164	5559.29167
302.193	5280.29167
306.219	4874.625
310.241	4440.625
314.26	4060.625
318.276	3711.29167
322.288	3455.29167
326.297	3280.95833
330.303	3130.29167
334.305	3042.95833
338.305	2941.29167
342.301	2893.625
346.294	2871.95833
350.283	2847.625
354.269	2820.625
358.252	2773.95833
362.232	2773.29167
366.209	2757.29167
370.182	2713.29167
374.152	2713.29167
378.119	2691.29167
382.083	2691.95833
386.043	2699.29167
390	2662.29167
393.954	2651.95833
397.905	2619.29167
401.852	2657.95833
405.797	2576.625
409.738	2570.29167
413.676	2566.95833
417.61	2525.625
421.542	2509.29167
425.47	2496.95833
429.396	2462.29167
433.318	2453.29167
437.236	2440.95833
441.152	2457.29167
445.065	2417.625
448.974	2412.95833
452.88	2365.95833
456.783	2378.625
460.683	2370.29167
464.58	2371.95833
468.473	2386.95833
472.364	2378.625
476.251	2385.625
480.135	2399.29167
484.016	2430.95833
487.894	2421.29167
491.769	2429.625
495.641	2424.95833
499.509	2416.95833
503.375	2439.29167
507.237	2439.95833
511.096	2422.29167
514.952	2447.29167
518.805	2468.29167
522.655	2474.625
526.502	2419.29167
530.346	2407.29167
534.187	2415.625
538.024	2415.95833
541.859	2407.29167
545.69	2440.29167
549.519	2415.95833
553.344	2399.29167
557.166	2376.625
560.985	2358.625
564.802	2315.29167
568.615	2296.29167
572.425	2263.29167
576.232	2246.29167
580.036	2239.95833
583.836	2240.625
587.634	2249.29167
591.429	2230.625
595.221	2298.29167
599.01	2303.29167
602.796	2319.29167
606.578	2327.95833
610.358	2368.95833
614.135	2336.625
617.909	2333.29167
621.679	2311.29167
625.447	2289.95833
629.212	2312.625
632.973	2331.29167
636.732	2324.625
640.488	2333.95833
644.241	2287.625
647.991	2284.29167
651.737	2310.29167
655.481	2285.625
659.222	2278.29167
662.96	2276.625
666.695	2309.29167
670.427	2309.29167
674.156	2319.29167
677.882	2310.29167
681.605	2304.95833
685.325	2290.29167
689.043	2285.95833
692.757	2285.95833
696.468	2289.95833
700.177	2276.95833
703.882	2265.625
707.585	2290.29167
711.284	2283.29167
714.981	2292.95833
718.675	2299.29167
722.366	2317.29167
726.054	2272.625
729.739	2292.29167
733.421	2295.625
737.1	2286.95833
740.777	2322.29167
744.45	2313.95833
748.121	2341.95833
751.789	2379.29167
755.453	2379.625
759.115	2394.29167
762.774	2408.625
766.431	2426.625
770.084	2443.95833
773.734	2469.95833
777.382	2525.95833
781.027	2547.625
784.669	2550.625
788.308	2587.95833
791.944	2607.29167
795.577	2625.29167
799.208	2659.29167
802.835	2652.29167
806.46	2684.29167
810.082	2732.625
813.701	2726.95833
817.317	2738.95833
820.931	2745.29167
824.542	2733.625
828.149	2704.95833
831.754	2676.29167
835.357	2666.625
838.956	2687.95833
842.553	2659.95833
846.146	2622.625
849.737	2613.95833
853.326	2639.95833
856.911	2637.29167
860.493	2679.625
864.073	2667.95833
867.65	2726.95833
871.225	2784.29167
874.796	2768.625
878.365	2777.625
881.931	2776.95833
885.494	2795.29167
889.054	2793.29167
892.612	2787.625
896.166	2755.29167
899.719	2730.625
903.268	2691.29167
906.814	2691.625
910.358	2663.95833
913.899	2680.29167
917.438	2679.95833
920.973	2667.29167
924.506	2718.625
928.036	2728.95833
931.564	2763.29167
935.088	2789.29167
938.61	2780.95833
942.129	2811.29167
945.646	2903.95833
949.16	2958.625
952.671	3015.625
956.179	3016.29167
959.685	2992.29167
963.188	2995.95833
966.688	2956.95833
970.185	2876.625
973.68	2810.95833
977.173	2820.95833
980.662	2751.29167
984.149	2770.625
987.633	2782.95833
991.114	2807.29167
994.593	2930.95833
998.069	3030.95833
1001.542	3084.95833
1005.013	3029.625
1008.481	2854.625
1011.947	2826.95833
1015.409	2814.29167
1018.869	2810.95833
1022.327	2813.95833
1025.782	2799.625
1029.234	2808.29167
1032.683	2788.95833
1036.13	2708.95833
1039.574	2570.29167
1043.016	2517.29167
1046.455	2459.625
1049.891	2455.95833
1053.325	2454.625
1056.756	2463.29167
1060.184	2489.625
1063.61	2488.29167
1067.033	2502.95833
1070.454	2512.95833
1073.872	2539.95833
1077.287	2542.95833
1080.7	2541.625
1084.11	2543.29167
1087.517	2529.625
1090.922	2504.625
1094.325	2455.29167
1097.724	2422.625
1101.122	2433.95833
1104.516	2405.95833
1107.908	2433.29167
1111.298	2471.29167
1114.684	2499.29167
1118.069	2525.29167
1121.45	2540.29167
1124.83	2532.29167
1128.206	2556.29167
1131.58	2602.29167
1134.951	2668.625
1138.32	2711.625
1141.687	2838.625
1145.05	2885.625
1148.412	2928.29167
1151.77	2937.29167
1155.126	2930.29167
1158.48	2932.625
1161.831	2947.625
1165.18	2969.625
1168.525	3013.95833
1171.869	3025.625
1175.21	3078.625
1178.548	3110.29167
1181.884	3121.95833
1185.217	3159.29167
1188.548	3194.625
1191.877	3257.29167
1195.202	3320.95833
1198.526	3359.29167
1201.846	3367.625
1205.165	3388.95833
1208.48	3355.29167
1211.794	3358.29167
1215.104	3369.29167
1218.413	3380.625
1221.719	3376.29167
1225.022	3340.29167
1228.323	3299.29167
1231.621	3318.95833
1234.917	3292.625
1238.21	3312.625
1241.501	3309.625
1244.79	3300.29167
1248.076	3303.29167
1251.359	3324.95833
1254.64	3404.625
1257.919	3427.95833
1261.195	3447.625
1264.468	3520.625
1267.74	3558.95833
1271.008	3547.95833
1274.275	3569.625
1277.538	3538.95833
1280.8	3528.625
1284.059	3509.95833
1287.315	3574.625
1290.569	3580.95833
1293.821	3603.625
1297.07	3611.625
1300.317	3622.625
1303.562	3613.95833
1306.803	3576.29167
1310.043	3557.625
1313.28	3489.29167
1316.515	3477.625
1319.747	3418.95833
1322.977	3398.29167
1326.204	3345.29167
1329.429	3291.95833
1332.652	3269.95833
1335.872	3249.95833
1339.09	3234.625
1342.306	3239.29167
1345.519	3231.95833
1348.729	3190.95833
1351.938	3183.95833
1355.144	3141.625
1358.347	3096.29167
1361.548	3091.625
1364.747	3126.95833
1367.944	3086.625
1371.138	3125.95833
1374.329	3123.95833
1377.518	3157.29167
1380.705	3163.29167
1383.89	3178.29167
1387.072	3081.29167
1390.252	2981.625
1393.429	2898.625
1396.605	2785.625
1399.777	2724.95833
1402.948	2690.29167
1406.116	2672.95833
1409.282	2697.625
1412.445	2688.29167
1415.606	2714.95833
1418.765	2763.29167
1421.921	2840.625
1425.075	2900.625
1428.227	2966.29167
1431.376	3094.95833
1434.524	3233.29167
1437.668	3291.29167
1440.811	3316.95833
1443.951	3342.29167
1447.089	3347.625
1450.224	3324.625
1453.357	3320.625
1456.488	3287.625
1459.617	3237.625
1462.743	3177.29167
1465.867	3118.29167
1468.989	3081.95833
1472.108	3032.29167
1475.225	2972.29167
1478.34	2939.95833
1481.453	2925.29167
1484.563	2898.95833
1487.671	2983.95833
1490.776	3025.95833
1493.88	3051.625
1496.981	3120.95833
1500.08	3171.29167
1503.176	3217.29167
1506.271	3268.29167
1509.363	3335.625
1512.452	3363.95833
1515.54	3420.95833
1518.625	3519.29167
1521.708	3646.625
1524.789	3826.625
1527.867	4065.29167
1530.944	4293.625
1534.018	4490.625
1537.089	4657.625
1540.159	4658.29167
1543.226	4521.29167
1546.291	4346.625
1549.354	4231.95833
1552.415	4084.95833
1555.473	3997.29167
1558.529	3898.29167
1561.583	3830.625
1564.634	3803.95833
1567.684	3808.95833
1570.731	3819.625
1573.776	3841.29167
1576.819	3870.29167
1579.859	3889.625
1582.898	3920.625
1585.934	3979.95833
1588.968	3986.95833
1591.999	3960.29167
1595.029	3971.29167
1598.056	3971.625
1601.081	4011.95833
1604.104	4000.625
1607.125	3975.625
1610.144	3883.625
1613.16	3776.625
1616.174	3702.95833
1619.186	3627.95833
1622.196	3548.625
1625.203	3443.625
1628.209	3400.29167
1631.212	3392.95833
1634.213	3359.95833
1637.212	3345.625
1640.209	3300.625
1643.203	3186.29167
1646.196	3090.625
1649.186	2987.95833
1652.174	2919.29167
1655.16	2793.625
1658.144	2719.625
1661.125	2602.29167
1664.105	2462.29167
1667.082	2370.625
1670.057	2221.95833
1673.03	2084.29167
1676.001	1965.625
1678.97	1833.95833
1681.937	1744.29167
1684.901	1642.95833
1687.863	1599.95833
1690.824	1514.625
1693.782	1509.29167
1696.738	1446.29167
1699.692	1422.29167
1702.643	1376.625
1705.593	1371.95833
1708.54	1331.95833
1711.486	1327.625
1714.429	1308.95833
1717.37	1293.29167
1720.309	1282.625
1723.246	1281.29167
1726.181	1243.625
1729.113	1256.625
1732.044	1235.29167
1734.972	1213.95833
1737.899	1234.95833
1740.823	1215.29167
1743.745	1208.625
1746.665	1172.29167
1749.583	1167.95833
1752.499	1134.625
1755.413	1118.95833
1758.325	1084.29167
1761.235	1092.29167
1764.142	1063.29167
1767.048	1053.29167
1769.951	1045.625
1772.852	1046.95833
1775.752	1033.625
1778.649	1030.625
1781.544	1038.625
1784.437	1018.625
1787.328	1019.625
1790.217	1004.29167
1793.104	986.625
1795.989	982.95833
1798.872	985.625
1801.753	990.625
1804.631	989.29167
1807.508	993.625
1810.383	982.95833
1813.255	982.29167
1816.126	966.95833
1818.994	962.625
1821.861	963.29167
1824.725	950.95833
1827.587	968.95833
1830.448	950.95833
1833.306	920.625
1836.162	940.95833
1839.017	931.29167
1841.869	929.29167
1844.719	920.625
1847.567	905.625
1850.414	914.95833
1853.258	918.625
1856.1	915.625
1858.94	929.625
1861.778	909.625
1864.614	909.29167
1867.448	899.29167
1870.28	902.29167
1873.111	907.29167
1875.939	899.29167
1878.765	915.625
1881.589	891.29167
1884.411	892.95833
1887.231	894.625
1890.049	887.625
1892.865	877.95833
1895.68	877.625
1898.492	877.625
1901.302	870.29167
1904.11	868.95833
1906.916	854.625
1909.721	866.29167
1912.523	876.95833
1915.323	841.625
1918.122	844.625
1920.918	865.625
1923.712	839.95833
1926.505	847.625
1929.295	836.29167
1932.084	843.95833
1934.87	855.625
1937.655	836.29167
1940.438	823.625
1943.218	838.29167
1945.997	837.95833
1948.774	840.29167
1951.549	852.95833
1954.322	836.29167
1957.093	831.95833
1959.862	823.95833
1962.629	824.29167
1965.394	807.625
1968.157	805.29167
1970.918	816.95833
1973.678	805.95833
1976.435	811.625
1979.19	805.29167
1981.944	800.29167
1984.696	796.95833
1987.445	802.625
1990.193	799.95833
1992.939	809.95833
1995.683	796.625
1998.425	776.95833
2001.165	803.29167
2003.903	784.625
2006.639	781.95833
2009.374	777.625
2012.106	794.95833
2014.837	760.625
2017.566	787.95833
2020.292	792.625
2023.017	781.29167
2025.74	774.29167
2028.461	764.95833
2031.18	768.95833
2033.898	761.29167
2036.613	764.625
2039.327	768.95833
2042.038	762.29167
2044.748	762.625
2047.456	755.95833
2050.162	749.95833
2052.866	754.625
2055.568	769.29167
2058.268	753.95833
2060.967	752.29167
2063.663	726.95833
2066.358	752.625
2069.051	738.95833
2071.742	746.29167
2074.431	750.95833
2077.118	744.625
2079.804	721.29167
2082.487	737.95833
2085.169	737.95833
2087.849	760.29167
2090.527	738.29167
2093.203	761.95833
2095.877	751.95833
2098.55	756.625
2101.22	763.625
2103.889	769.29167
2106.556	766.29167
2109.221	799.29167
2111.884	810.95833
2114.546	869.29167
2117.205	927.95833
2119.863	1003.29167
2122.519	1054.29167
2125.173	1145.625
2127.825	1227.625
2130.475	1231.29167
2133.124	1190.29167
2135.771	1152.625
2138.416	1103.625
2141.059	1037.625
2143.7	1007.95833
2146.339	935.625
2148.977	870.625
2151.613	871.95833
2154.247	846.29167
2156.879	811.625
2159.51	797.29167
2162.138	780.29167
2164.765	777.29167
2167.39	763.625
2170.013	776.625
2172.634	765.95833
2175.254	752.29167
2177.872	773.29167
2180.488	729.95833
2183.102	746.95833
2185.714	732.29167
2188.325	695.29167
2190.934	728.29167
2193.541	704.29167
2196.146	691.625
2198.75	672.95833
2201.351	687.29167
2203.951	667.625
2206.549	680.29167
2209.146	655.95833
2211.74	659.29167
2214.333	669.625
2216.924	645.29167
2219.514	655.625
2222.101	644.95833
2224.687	656.625
2227.271	636.95833
2229.853	631.95833
2232.433	628.29167
2235.012	645.29167
2237.589	640.95833
2240.164	644.95833
2242.738	627.29167
2245.309	608.625
2247.879	632.29167
2250.448	623.95833
2253.014	596.29167
2255.579	598.95833
2258.142	597.625
2260.703	574.625
2263.262	580.95833
2265.82	581.29167
2268.376	586.95833
2270.93	570.95833
2273.483	564.95833
2276.033	573.29167
2278.583	567.29167
2281.13	558.625
2283.675	551.625
2286.219	559.625
2288.761	560.29167
2291.302	556.95833
2293.841	568.29167
2296.377	535.95833
2298.913	546.625
2301.446	559.95833
2303.978	549.625
2306.508	532.29167
2309.037	551.625
2311.563	549.29167
2314.088	545.29167
2316.612	522.625
2319.133	539.95833
2321.653	538.625
2324.171	521.29167
2326.688	529.29167
2329.202	524.29167
2331.715	525.29167
2334.227	527.625
2336.736	521.29167
2339.244	512.29167
2341.751	508.95833
2344.255	522.625
2346.758	506.95833
2349.259	509.29167
2351.759	507.95833
2354.257	496.95833
2356.753	507.29167
2359.247	513.95833
2361.74	508.29167
2364.231	507.95833
2366.721	500.625
2369.209	497.95833
2371.695	492.95833
2374.179	493.625
2376.662	499.95833
2379.143	506.625
2381.622	491.625
2384.1	497.625
2386.576	480.625
2389.051	499.29167
2391.524	505.29167
2393.995	496.95833
2396.464	497.29167
2398.932	479.29167
2401.398	484.625
2403.863	477.95833
2406.325	478.625
2408.787	486.95833
2411.246	478.29167
2413.704	483.29167
2416.16	472.95833
2418.615	484.95833
2421.068	487.625
2423.519	486.625
2425.969	471.95833
2428.417	480.625
2430.863	492.625
2433.308	487.625
2435.751	471.29167
2438.193	475.625
2440.633	482.29167
2443.071	472.29167
2445.508	459.95833
2447.943	451.29167
2450.376	448.625
2452.808	462.29167
2455.238	457.29167
2457.667	493.29167
2460.093	468.625
2462.519	446.29167
2464.942	449.29167
2467.365	461.29167
2469.785	457.29167
2472.204	451.625
2474.621	442.29167
2477.037	467.95833
2479.451	448.625
2481.863	433.29167
2484.274	437.29167
2486.683	446.29167
2489.091	452.29167
2491.497	451.95833
2493.901	438.29167
2496.304	441.95833
2498.705	447.625
2501.105	434.625
2503.503	460.29167
2505.899	432.625
2508.294	461.29167
2510.687	429.95833
2513.079	436.95833
2515.469	429.95833
2517.858	429.29167
2520.245	441.625
2522.63	427.95833
2525.014	428.29167
2527.396	422.625
2529.776	422.95833
2532.156	426.95833
2534.533	408.29167
2536.909	426.95833
2539.283	410.625
2541.656	410.95833
2544.027	440.95833
2546.397	421.29167
2548.765	425.625
2551.131	426.625
2553.496	417.95833
2555.86	420.95833
2558.221	424.625
2560.582	419.625
2562.94	405.95833
2565.298	417.29167
2567.653	428.625
2570.007	395.625
2572.36	417.625
2574.711	415.95833
2577.06	427.95833
2579.408	410.625
2581.754	410.29167
2584.099	418.95833
2586.442	400.29167
2588.784	416.29167
2591.124	409.95833
2593.463	402.95833
2595.8	404.95833
2598.135	400.95833
2600.469	399.625
2602.802	423.625
2605.133	414.29167
2607.462	401.95833
2609.79	390.29167
2612.116	401.29167
2614.441	408.95833
2616.764	400.625
2619.086	402.95833
2621.406	393.95833
2623.725	424.625
2626.042	408.625
2628.358	393.29167
2630.672	406.29167
2632.985	411.625
2635.296	402.95833
2637.606	407.29167
2639.914	393.29167
2642.22	407.95833
2644.525	401.29167
2646.829	403.95833
2649.131	419.95833
2651.432	419.625
2653.731	404.29167
2656.028	417.29167
2658.324	410.95833
2660.619	400.29167
2662.912	418.95833
2665.204	401.29167
2667.494	409.95833
2669.782	404.29167
2672.07	415.95833
2674.355	424.95833
2676.639	410.29167
2678.922	407.625
2681.203	422.29167
2683.483	401.625
2685.761	401.625
2688.038	415.29167
2690.313	426.29167
2692.587	420.95833
2694.859	409.29167
2697.13	418.625
2699.399	419.95833
2701.667	424.625
2703.933	433.95833
2706.198	431.95833
2708.461	436.95833
2710.723	443.95833
2712.984	430.95833
2715.243	435.625
2717.5	435.625
2719.757	440.95833
2722.011	443.29167
2724.264	455.625
2726.516	455.625
2728.766	442.625
2731.015	445.95833
2733.262	436.29167
2735.508	441.29167
2737.753	437.29167
2739.996	423.625
2742.237	429.95833
2744.477	432.625
2746.716	430.95833
2748.953	420.625
2751.189	436.29167
2753.423	418.29167
2755.656	420.625
2757.887	420.29167
2760.117	415.625
2762.346	410.29167
2764.573	414.95833
2766.798	414.625
2769.022	425.625
2771.245	417.95833
2773.467	419.29167
2775.686	424.625
2777.905	424.29167
2780.122	425.95833
2782.337	432.625
2784.552	423.625
2786.764	436.95833
2788.976	442.95833
2791.186	455.95833
2793.394	450.29167
2795.601	459.95833
2797.807	473.29167
2800.011	462.625
2802.214	479.625
2804.415	480.95833
2806.615	477.95833
2808.814	502.625
2811.011	501.29167
2813.206	496.29167
2815.401	520.29167
2817.594	527.95833
2819.785	535.625
2821.975	519.625
2824.164	549.29167
2826.351	559.95833
2828.537	565.625
2830.722	597.625
2832.905	596.95833
2835.086	616.95833
2837.267	647.29167
2839.445	689.625
2841.623	690.95833
2843.799	726.625
2845.974	759.29167
2848.147	804.625
2850.319	828.29167
2852.489	858.29167
2854.659	863.29167
2856.826	871.625
2858.993	897.95833
2861.158	886.29167
2863.321	881.29167
2865.483	895.95833
2867.644	914.95833
2869.804	907.95833
2871.962	880.29167
2874.118	887.625
2876.274	897.625
2878.428	875.29167
2880.58	882.29167
2882.731	880.95833
2884.881	853.625
2887.03	865.625
2889.177	859.625
2891.322	907.625
2893.467	890.625
2895.61	888.29167
2897.751	905.29167
2899.892	891.625
2902.03	897.29167
2904.168	911.625
2906.304	927.95833
2908.439	930.95833
2910.572	914.29167
2912.704	944.625
2914.835	930.29167
2916.965	907.95833
2919.093	934.29167
2921.219	900.625
2923.345	912.95833
2925.469	895.29167
2927.591	891.625
2929.712	851.29167
2931.832	845.95833
2933.951	828.625
2936.068	808.29167
2938.184	788.625
2940.299	759.95833
2942.412	732.625
2944.524	700.95833
2946.634	680.625
2948.744	629.29167
2950.851	661.625
2952.958	605.29167
2955.063	589.625
2957.167	595.625
2959.269	558.95833
2961.371	576.29167
2963.471	540.625
2965.569	533.29167
2967.666	501.29167
2969.762	486.29167
2971.857	480.95833
2973.95	461.625
2976.042	465.29167
2978.133	451.29167
2980.222	433.95833
2982.31	422.95833
2984.396	402.95833
2986.482	399.625
2988.566	401.95833
2990.648	380.95833
2992.73	382.29167
2994.81	371.95833
2996.889	380.625
2998.966	368.95833
3001.042	369.29167
3003.117	360.95833
3005.191	361.95833
3007.263	357.29167
3009.334	358.29167
3011.403	353.29167
3013.472	326.625
3015.539	336.29167
3017.604	346.95833
3019.669	313.95833
3021.732	322.95833
3023.794	323.29167
3025.854	303.95833
3027.914	303.625
3029.971	317.625
3032.028	303.95833
3034.083	300.625
3036.137	302.625
3038.19	294.95833
3040.242	280.625
3042.292	281.625
3044.341	271.625
3046.388	285.29167
3048.435	263.29167
3050.48	285.625
3052.524	276.625
3054.566	246.95833
3056.607	265.29167
3058.647	254.29167
3060.686	242.29167
3062.723	230.29167
3064.759	232.625
3066.794	-1.375
3068.828	-2.70833
3070.86	-1.70833
