-0.839	457.95833
3.438	491.29167
7.711	136.625
11.981	57.29167
16.247	47.625
20.509	44.95833
24.768	45.95833
29.024	47.625
33.276	44.625
37.524	51.625
41.769	37.95833
46.01	36.625
50.247	53.95833
54.481	60.29167
58.712	64.29167
62.939	50.95833
67.162	62.29167
71.382	54.625
75.599	48.29167
79.812	69.29167
84.021	84.625
88.227	60.625
92.429	66.625
96.628	55.29167
100.823	71.625
105.015	79.29167
109.204	80.625
113.388	82.625
117.57	79.95833
121.748	94.95833
125.922	88.95833
130.093	108.95833
134.261	116.29167
138.425	110.95833
142.585	158.29167
146.742	158.95833
150.896	193.625
155.046	241.95833
159.193	397.29167
163.336	691.95833
167.476	1289.95833
171.613	2335.95833
175.746	3846.625
179.875	5666.95833
184.002	7331.95833
188.124	8367.95833
192.244	8663.625
196.36	8452.625
200.472	8178.625
204.581	7887.29167
208.687	7606.29167
212.79	7504.625
216.889	7444.29167
220.984	7440.625
225.077	7450.29167
229.165	7509.95833
233.251	7569.625
237.333	7572.625
241.412	7506.625
245.487	7473.29167
249.559	7414.95833
253.628	7358.625
257.694	7201.625
261.756	7174.29167
265.814	7001.95833
269.87	6843.625
273.922	6610.29167
277.97	6457.29167
282.016	6343.625
286.058	6259.29167
290.097	6301.95833
294.132	6313.625
298.164	6200.95833
302.193	5952.29167
306.219	5511.95833
310.241	5015.95833
314.26	4540.625
318.276	4153.29167
322.288	3901.29167
326.297	3677.95833
330.303	3507.95833
334.305	3392.625
338.305	3283.29167
342.301	3270.29167
346.294	3197.95833
350.283	3175.625
354.269	3118.29167
358.252	3104.625
362.232	3050.625
366.209	3031.95833
370.182	2974.29167
374.152	2976.29167
378.119	2967.95833
382.083	2945.95833
386.043	2962.29167
390	2889.95833
393.954	2900.625
397.905	2876.625
401.852	2863.625
405.797	2822.625
409.738	2766.29167
413.676	2754.29167
417.61	2746.95833
421.542	2728.29167
425.47	2691.29167
429.396	2684.625
433.318	2641.625
437.236	2620.29167
441.152	2639.95833
445.065	2572.29167
448.974	2581.95833
452.88	2535.625
456.783	2523.625
460.683	2516.29167
464.58	2534.29167
468.473	2509.625
472.364	2502.95833
476.251	2530.625
480.135	2534.29167
484.016	2562.29167
487.894	2569.95833
491.769	2588.95833
495.641	2579.625
499.509	2567.29167
503.375	2579.95833
507.237	2575.29167
511.096	2568.29167
514.952	2563.625
518.805	2581.625
522.655	2560.29167
526.502	2556.625
530.346	2543.625
534.187	2568.29167
538.024	2565.29167
541.859	2572.95833
545.69	2582.29167
549.519	2554.625
553.344	2545.29167
557.166	2489.95833
560.985	2479.29167
564.802	2472.95833
568.615	2395.29167
572.425	2385.625
576.232	2370.29167
580.036	2342.625
583.836	2382.95833
587.634	2343.29167
591.429	2364.625
595.221	2427.625
599.01	2422.625
602.796	2468.625
606.578	2477.29167
610.358	2492.625
614.135	2461.95833
617.909	2460.29167
621.679	2447.625
625.447	2435.625
629.212	2448.95833
632.973	2448.625
636.732	2438.29167
640.488	2461.29167
644.241	2421.29167
647.991	2411.29167
651.737	2409.625
655.481	2409.29167
659.222	2423.625
662.96	2405.625
666.695	2425.95833
670.427	2430.625
674.156	2466.29167
677.882	2441.625
681.605	2448.625
685.325	2421.95833
689.043	2443.625
692.757	2399.29167
696.468	2418.95833
700.177	2431.625
703.882	2424.95833
707.585	2433.95833
711.284	2414.95833
714.981	2437.29167
718.675	2437.29167
722.366	2448.625
726.054	2433.625
729.739	2393.29167
733.421	2432.95833
737.1	2412.625
740.777	2432.29167
744.45	2448.625
748.121	2476.625
751.789	2550.625
755.453	2526.29167
759.115	2555.29167
762.774	2556.625
766.431	2590.95833
770.084	2632.625
773.734	2654.29167
777.382	2709.29167
781.027	2726.29167
784.669	2766.625
788.308	2754.95833
791.944	2785.95833
795.577	2799.625
799.208	2841.95833
802.835	2854.95833
806.46	2866.95833
810.082	2882.95833
813.701	2906.95833
817.317	2945.29167
820.931	2927.625
824.542	2942.625
828.149	2906.29167
831.754	2874.625
835.357	2886.29167
838.956	2882.95833
842.553	2880.29167
846.146	2871.625
849.737	2843.95833
853.326	2862.29167
856.911	2877.95833
860.493	2917.29167
864.073	2930.95833
867.65	2983.625
871.225	3029.625
874.796	3011.625
878.365	3016.625
881.931	3063.95833
885.494	3069.95833
889.054	3047.29167
892.612	3067.29167
896.166	3046.29167
899.719	3026.625
903.268	2976.625
906.814	2975.95833
910.358	2931.625
913.899	2963.95833
917.438	2967.29167
920.973	2954.95833
924.506	2974.29167
928.036	3026.95833
931.564	3052.29167
935.088	3082.29167
938.61	3081.625
942.129	3109.625
945.646	3169.29167
949.16	3260.29167
952.671	3329.29167
956.179	3370.29167
959.685	3331.29167
963.188	3290.625
966.688	3237.29167
970.185	3150.95833
973.68	3091.625
977.173	3064.95833
980.662	3050.625
984.149	3063.29167
987.633	3060.625
991.114	3145.625
994.593	3223.29167
998.069	3330.95833
1001.542	3460.29167
1005.013	3358.625
1008.481	3179.29167
1011.947	3133.29167
1015.409	3130.29167
1018.869	3127.29167
1022.327	3108.95833
1025.782	3104.95833
1029.234	3079.95833
1032.683	3047.29167
1036.13	2937.29167
1039.574	2836.625
1043.016	2767.625
1046.455	2716.95833
1049.891	2669.95833
1053.325	2672.625
1056.756	2708.625
1060.184	2713.29167
1063.61	2715.95833
1067.033	2739.29167
1070.454	2729.29167
1073.872	2763.29167
1077.287	2768.625
1080.7	2749.95833
1084.11	2761.29167
1087.517	2743.29167
1090.922	2702.95833
1094.325	2704.625
1097.724	2673.625
1101.122	2648.625
1104.516	2663.625
1107.908	2689.625
1111.298	2719.29167
1114.684	2750.95833
1118.069	2786.95833
1121.45	2814.625
1124.83	2815.625
1128.206	2861.29167
1131.58	2919.95833
1134.951	2993.95833
1138.32	3113.625
1141.687	3248.625
1145.05	3341.29167
1148.412	3367.29167
1151.77	3375.29167
1155.126	3381.95833
1158.48	3363.95833
1161.831	3397.95833
1165.18	3434.625
1168.525	3462.625
1171.869	3502.95833
1175.21	3527.95833
1178.548	3572.29167
1181.884	3610.625
1185.217	3626.29167
1188.548	3700.625
1191.877	3712.29167
1195.202	3764.625
1198.526	3833.95833
1201.846	3810.95833
1205.165	3789.29167
1208.48	3778.29167
1211.794	3767.625
1215.104	3758.29167
1218.413	3734.95833
1221.719	3730.625
1225.022	3738.95833
1228.323	3662.29167
1231.621	3666.29167
1234.917	3657.95833
1238.21	3691.625
1241.501	3690.29167
1244.79	3701.625
1248.076	3654.29167
1251.359	3706.95833
1254.64	3780.625
1257.919	3802.625
1261.195	3843.95833
1264.468	3939.29167
1267.74	4001.625
1271.008	4014.625
1274.275	4011.625
1277.538	3969.625
1280.8	3946.625
1284.059	3956.625
1287.315	3977.29167
1290.569	3976.625
1293.821	4010.95833
1297.07	4045.95833
1300.317	4036.625
1303.562	4031.95833
1306.803	4005.29167
1310.043	3961.95833
1313.28	3889.29167
1316.515	3878.95833
1319.747	3810.95833
1322.977	3784.95833
1326.204	3707.625
1329.429	3664.625
1332.652	3642.95833
1335.872	3621.29167
1339.09	3606.95833
1342.306	3596.95833
1345.519	3562.95833
1348.729	3541.95833
1351.938	3505.29167
1355.144	3471.29167
1358.347	3416.95833
1361.548	3411.29167
1364.747	3428.95833
1367.944	3403.29167
1371.138	3451.29167
1374.329	3496.625
1377.518	3526.95833
1380.705	3566.95833
1383.89	3550.625
1387.072	3449.625
1390.252	3318.625
1393.429	3222.29167
1396.605	3116.29167
1399.777	3004.625
1402.948	2997.95833
1406.116	2961.29167
1409.282	2978.29167
1412.445	2960.95833
1415.606	2982.625
1418.765	3047.29167
1421.921	3111.29167
1425.075	3141.625
1428.227	3297.625
1431.376	3402.95833
1434.524	3566.29167
1437.668	3658.95833
1440.811	3671.95833
1443.951	3691.29167
1447.089	3699.95833
1450.224	3718.95833
1453.357	3689.625
1456.488	3670.95833
1459.617	3648.29167
1462.743	3602.95833
1465.867	3504.625
1468.989	3493.95833
1472.108	3429.95833
1475.225	3360.95833
1478.34	3351.29167
1481.453	3350.29167
1484.563	3380.29167
1487.671	3424.625
1490.776	3507.95833
1493.88	3567.29167
1496.981	3665.29167
1500.08	3744.625
1503.176	3793.29167
1506.271	3853.29167
1509.363	3917.29167
1512.452	3943.95833
1515.54	4060.625
1518.625	4116.29167
1521.708	4271.95833
1524.789	4511.95833
1527.867	4769.625
1530.944	5054.95833
1534.018	5293.625
1537.089	5402.29167
1540.159	5421.29167
1543.226	5294.625
1546.291	5100.29167
1549.354	4954.95833
1552.415	4806.625
1555.473	4704.625
1558.529	4581.625
1561.583	4537.95833
1564.634	4497.95833
1567.684	4496.29167
1570.731	4529.29167
1573.776	4558.95833
1576.819	4598.95833
1579.859	4653.29167
1582.898	4722.95833
1585.934	4722.29167
1588.968	4719.29167
1591.999	4732.29167
1595.029	4698.29167
1598.056	4710.625
1601.081	4714.95833
1604.104	4683.29167
1607.125	4655.95833
1610.144	4541.95833
1613.16	4431.95833
1616.174	4313.625
1619.186	4232.29167
1622.196	4115.625
1625.203	4032.29167
1628.209	3924.625
1631.212	3888.625
1634.213	3840.29167
1637.212	3768.95833
1640.209	3682.29167
1643.203	3551.625
1646.196	3451.29167
1649.186	3322.95833
1652.174	3201.625
1655.16	3083.95833
1658.144	2980.29167
1661.125	2827.29167
1664.105	2691.625
1667.082	2575.625
1670.057	2431.29167
1673.03	2276.95833
1676.001	2172.95833
1678.97	2012.29167
1681.937	1917.29167
1684.901	1796.625
1687.863	1758.29167
1690.824	1671.625
1693.782	1645.95833
1696.738	1567.29167
1699.692	1557.95833
1702.643	1517.95833
1705.593	1514.95833
1708.54	1463.95833
1711.486	1473.625
1714.429	1411.95833
1717.37	1429.95833
1720.309	1403.29167
1723.246	1395.29167
1726.181	1374.95833
1729.113	1367.95833
1732.044	1345.625
1734.972	1339.95833
1737.899	1332.29167
1740.823	1310.625
1743.745	1316.95833
1746.665	1262.29167
1749.583	1251.625
1752.499	1221.95833
1755.413	1213.29167
1758.325	1189.29167
1761.235	1183.95833
1764.142	1157.625
1767.048	1167.625
1769.951	1138.95833
1772.852	1130.95833
1775.752	1130.29167
1778.649	1125.29167
1781.544	1120.625
1784.437	1086.625
1787.328	1107.625
1790.217	1095.29167
1793.104	1077.625
1795.989	1072.29167
1798.872	1069.95833
1801.753	1080.625
1804.631	1082.625
1807.508	1081.29167
1810.383	1076.95833
1813.255	1059.625
1816.126	1051.29167
1818.994	1057.625
1821.861	1043.95833
1824.725	1042.625
1827.587	1032.625
1830.448	1036.625
1833.306	997.29167
1836.162	1023.29167
1839.017	997.625
1841.869	1014.95833
1844.719	1005.625
1847.567	989.625
1850.414	983.95833
1853.258	988.29167
1856.1	1007.95833
1858.94	1006.29167
1861.778	1001.625
1864.614	985.29167
1867.448	994.29167
1870.28	978.95833
1873.111	991.625
1875.939	984.95833
1878.765	1001.29167
1881.589	983.625
1884.411	983.625
1887.231	990.29167
1890.049	967.29167
1892.865	974.95833
1895.68	962.95833
1898.492	955.95833
1901.302	954.95833
1904.11	957.29167
1906.916	939.625
1909.721	936.95833
1912.523	941.95833
1915.323	927.625
1918.122	927.29167
1920.918	939.625
1923.712	922.95833
1926.505	938.29167
1929.295	902.95833
1932.084	921.625
1934.87	928.95833
1937.655	914.29167
1940.438	907.625
1943.218	914.29167
1945.997	922.625
1948.774	929.625
1951.549	922.625
1954.322	911.29167
1957.093	915.95833
1959.862	908.95833
1962.629	890.625
1965.394	880.625
1968.157	886.625
1970.918	895.625
1973.678	875.625
1976.435	896.29167
1979.19	890.95833
1981.944	869.625
1984.696	874.625
1987.445	871.29167
1990.193	875.29167
1992.939	880.29167
1995.683	857.95833
1998.425	858.95833
2001.165	882.625
2003.903	848.29167
2006.639	858.625
2009.374	861.29167
2012.106	852.625
2014.837	847.29167
2017.566	851.95833
2020.292	855.95833
2023.017	861.95833
2025.74	841.29167
2028.461	832.625
2031.18	843.29167
2033.898	836.95833
2036.613	845.95833
2039.327	846.625
2042.038	829.95833
2044.748	832.29167
2047.456	836.29167
2050.162	832.95833
2052.866	826.29167
2055.568	816.95833
2058.268	825.625
2060.967	822.29167
2063.663	813.95833
2066.358	818.95833
2069.051	800.95833
2071.742	810.625
2074.431	822.625
2077.118	802.29167
2079.804	799.29167
2082.487	797.95833
2085.169	817.95833
2087.849	829.625
2090.527	820.29167
2093.203	828.29167
2095.877	827.625
2098.55	817.625
2101.22	837.625
2103.889	847.95833
2106.556	842.29167
2109.221	869.625
2111.884	890.95833
2114.546	944.95833
2117.205	996.95833
2119.863	1088.625
2122.519	1168.95833
2125.173	1276.95833
2127.825	1336.29167
2130.475	1379.29167
2133.124	1352.95833
2135.771	1308.95833
2138.416	1274.29167
2141.059	1158.95833
2143.7	1129.95833
2146.339	1051.29167
2148.977	997.95833
2151.613	968.95833
2154.247	951.95833
2156.879	922.29167
2159.51	893.625
2162.138	893.29167
2164.765	883.625
2167.39	873.29167
2170.013	903.95833
2172.634	894.625
2175.254	865.95833
2177.872	890.625
2180.488	850.29167
2183.102	859.625
2185.714	833.95833
2188.325	803.95833
2190.934	827.29167
2193.541	805.29167
2196.146	786.625
2198.75	784.95833
2201.351	770.625
2203.951	754.95833
2206.549	773.95833
2209.146	758.625
2211.74	750.95833
2214.333	759.29167
2216.924	728.95833
2219.514	736.95833
2222.101	732.29167
2224.687	749.625
2227.271	720.29167
2229.853	715.95833
2232.433	690.625
2235.012	713.95833
2237.589	716.625
2240.164	715.625
2242.738	701.625
2245.309	686.95833
2247.879	690.95833
2250.448	692.625
2253.014	675.625
2255.579	655.95833
2258.142	663.625
2260.703	648.29167
2263.262	651.625
2265.82	636.625
2268.376	637.29167
2270.93	627.625
2273.483	626.29167
2276.033	639.625
2278.583	620.625
2281.13	617.29167
2283.675	612.95833
2286.219	621.95833
2288.761	603.625
2291.302	622.29167
2293.841	619.29167
2296.377	600.625
2298.913	614.29167
2301.446	616.95833
2303.978	595.95833
2306.508	598.625
2309.037	596.29167
2311.563	601.29167
2314.088	595.95833
2316.612	583.625
2319.133	586.29167
2321.653	589.625
2324.171	571.29167
2326.688	589.95833
2329.202	581.95833
2331.715	576.95833
2334.227	574.625
2336.736	574.95833
2339.244	572.29167
2341.751	562.95833
2344.255	575.625
2346.758	552.625
2349.259	559.625
2351.759	558.29167
2354.257	554.95833
2356.753	555.625
2359.247	558.625
2361.74	558.625
2364.231	557.29167
2366.721	556.29167
2369.209	545.625
2371.695	550.625
2374.179	541.29167
2376.662	530.29167
2379.143	554.95833
2381.622	538.95833
2384.1	541.625
2386.576	540.29167
2389.051	553.95833
2391.524	561.95833
2393.995	548.625
2396.464	542.29167
2398.932	533.95833
2401.398	538.625
2403.863	530.625
2406.325	522.95833
2408.787	530.95833
2411.246	524.29167
2413.704	519.625
2416.16	519.625
2418.615	529.625
2421.068	528.29167
2423.519	517.95833
2425.969	521.29167
2428.417	524.29167
2430.863	542.95833
2433.308	536.29167
2435.751	521.625
2438.193	515.625
2440.633	511.625
2443.071	525.95833
2445.508	508.625
2447.943	500.95833
2450.376	498.29167
2452.808	507.29167
2455.238	487.29167
2457.667	529.29167
2460.093	493.95833
2462.519	492.29167
2464.942	490.95833
2467.365	502.625
2469.785	504.29167
2472.204	497.29167
2474.621	484.95833
2477.037	503.95833
2479.451	470.95833
2481.863	481.29167
2484.274	477.29167
2486.683	487.29167
2489.091	495.95833
2491.497	485.95833
2493.901	476.95833
2496.304	481.29167
2498.705	488.29167
2501.105	469.95833
2503.503	502.29167
2505.899	466.95833
2508.294	497.29167
2510.687	472.29167
2513.079	472.625
2515.469	462.95833
2517.858	470.95833
2520.245	484.29167
2522.63	470.95833
2525.014	465.625
2527.396	456.29167
2529.776	461.95833
2532.156	467.625
2534.533	453.625
2536.909	466.29167
2539.283	447.29167
2541.656	455.29167
2544.027	480.95833
2546.397	466.95833
2548.765	462.625
2551.131	454.625
2553.496	454.95833
2555.86	463.29167
2558.221	458.95833
2560.582	450.29167
2562.94	437.29167
2565.298	445.95833
2567.653	470.625
2570.007	437.29167
2572.36	456.625
2574.711	443.625
2577.06	468.95833
2579.408	445.29167
2581.754	441.29167
2584.099	439.95833
2586.442	441.625
2588.784	443.95833
2591.124	448.95833
2593.463	441.625
2595.8	441.95833
2598.135	433.29167
2600.469	436.625
2602.802	454.95833
2605.133	449.95833
2607.462	427.95833
2609.79	432.29167
2612.116	435.95833
2614.441	442.29167
2616.764	443.625
2619.086	441.29167
2621.406	430.625
2623.725	438.95833
2626.042	444.29167
2628.358	427.95833
2630.672	425.625
2632.985	446.95833
2635.296	449.29167
2637.606	435.29167
2639.914	427.625
2642.22	434.625
2644.525	435.95833
2646.829	437.29167
2649.131	444.625
2651.432	438.29167
2653.731	434.29167
2656.028	446.625
2658.324	442.29167
2660.619	433.95833
2662.912	452.95833
2665.204	431.29167
2667.494	449.625
2669.782	433.29167
2672.07	442.625
2674.355	445.625
2676.639	440.29167
2678.922	431.29167
2681.203	442.29167
2683.483	418.29167
2685.761	430.29167
2688.038	437.625
2690.313	457.29167
2692.587	442.625
2694.859	433.29167
2697.13	440.95833
2699.399	446.95833
2701.667	461.29167
2703.933	453.95833
2706.198	455.95833
2708.461	465.95833
2710.723	467.29167
2712.984	461.29167
2715.243	479.625
2717.5	467.95833
2719.757	473.625
2722.011	460.95833
2724.264	484.29167
2726.516	486.95833
2728.766	481.625
2731.015	483.29167
2733.262	470.95833
2735.508	474.29167
2737.753	470.625
2739.996	456.625
2742.237	440.625
2744.477	471.625
2746.716	459.29167
2748.953	448.29167
2751.189	458.625
2753.423	443.29167
2755.656	441.29167
2757.887	434.95833
2760.117	449.29167
2762.346	433.29167
2764.573	432.625
2766.798	438.95833
2769.022	449.29167
2771.245	443.29167
2773.467	437.95833
2775.686	440.625
2777.905	456.29167
2780.122	461.95833
2782.337	451.95833
2784.552	446.625
2786.764	465.29167
2788.976	470.29167
2791.186	471.29167
2793.394	472.29167
2795.601	478.625
2797.807	480.29167
2800.011	504.625
2802.214	510.29167
2804.415	513.29167
2806.615	511.625
2808.814	528.29167
2811.011	527.29167
2813.206	536.625
2815.401	556.95833
2817.594	552.29167
2819.785	569.625
2821.975	551.625
2824.164	577.625
2826.351	589.95833
2828.537	612.625
2830.722	631.95833
2832.905	624.95833
2835.086	665.95833
2837.267	711.625
2839.445	733.95833
2841.623	745.95833
2843.799	789.95833
2845.974	825.625
2848.147	872.625
2850.319	887.29167
2852.489	933.625
2854.659	931.625
2856.826	963.625
2858.993	981.29167
2861.158	962.95833
2863.321	971.95833
2865.483	992.625
2867.644	986.625
2869.804	983.625
2871.962	974.29167
2874.118	971.29167
2876.274	964.625
2878.428	971.29167
2880.58	960.95833
2882.731	962.95833
2884.881	964.625
2887.03	964.95833
2889.177	967.625
2891.322	981.95833
2893.467	983.95833
2895.61	975.625
2897.751	1000.625
2899.892	998.95833
2902.03	1011.625
2904.168	1016.95833
2906.304	1015.95833
2908.439	1032.95833
2910.572	1017.29167
2912.704	1037.625
2914.835	1030.625
2916.965	1029.625
2919.093	1038.29167
2921.219	1010.95833
2923.345	1024.95833
2925.469	1000.625
2927.591	992.95833
2929.712	942.29167
2931.832	951.625
2933.951	923.95833
2936.068	897.625
2938.184	875.95833
2940.299	830.95833
2942.412	817.29167
2944.524	768.95833
2946.634	752.95833
2948.744	702.29167
2950.851	715.29167
2952.958	673.95833
2955.063	664.29167
2957.167	637.29167
2959.269	593.95833
2961.371	624.625
2963.471	582.625
2965.569	580.95833
2967.666	544.29167
2969.762	541.625
2971.857	516.29167
2973.95	497.95833
2976.042	489.29167
2978.133	473.625
2980.222	469.95833
2982.31	441.625
2984.396	422.625
2986.482	418.95833
2988.566	425.95833
2990.648	415.625
2992.73	408.95833
2994.81	388.95833
2996.889	397.95833
2998.966	390.95833
3001.042	382.95833
3003.117	379.625
3005.191	383.95833
3007.263	374.29167
3009.334	371.95833
3011.403	365.29167
3013.472	346.29167
3015.539	351.95833
3017.604	364.625
3019.669	324.625
3021.732	331.625
3023.794	327.625
3025.854	312.29167
3027.914	315.95833
3029.971	317.625
3032.028	305.625
3034.083	304.625
3036.137	307.29167
3038.19	288.95833
3040.242	287.625
3042.292	283.625
3044.341	282.95833
3046.388	296.29167
3048.435	268.95833
3050.48	289.29167
3052.524	281.625
3054.566	265.95833
3056.607	269.625
3058.647	263.29167
3060.686	246.95833
3062.723	246.625
3064.759	233.625
3066.794	0.29167
3068.828	-0.70833
3070.86	-3.04167
