-0.839	314.375
3.438	332.375
7.711	97.70833
11.981	50.04167
16.247	40.70833
20.509	43.70833
24.768	41.70833
29.024	48.04167
33.276	41.70833
37.524	49.375
41.769	43.375
46.01	34.70833
50.247	48.70833
54.481	60.04167
58.712	63.375
62.939	47.375
67.162	64.375
71.382	51.04167
75.599	46.70833
79.812	60.70833
84.021	79.375
88.227	54.70833
92.429	59.375
96.628	47.70833
100.823	67.04167
105.015	70.375
109.204	76.70833
113.388	71.04167
117.57	70.375
121.748	89.04167
125.922	79.04167
130.093	96.70833
134.261	100.04167
138.425	94.375
142.585	133.70833
146.742	133.375
150.896	156.70833
155.046	186.375
159.193	312.375
163.336	528.04167
167.476	963.04167
171.613	1754.375
175.746	2916.04167
179.875	4270.70833
184.002	5526.04167
188.124	6359.375
192.244	6648.04167
196.36	6577.70833
200.472	6426.375
204.581	6228.04167
208.687	6069.70833
212.79	6064.04167
216.889	6086.04167
220.984	6170.375
225.077	6210.375
229.165	6292.70833
233.251	6385.04167
237.333	6384.04167
241.412	6397.375
245.487	6368.04167
249.559	6276.375
253.628	6251.375
257.694	6142.04167
261.756	6090.04167
265.814	5942.04167
269.87	5796.70833
273.922	5617.70833
277.97	5531.04167
282.016	5503.70833
286.058	5470.375
290.097	5525.70833
294.132	5510.04167
298.164	5435.70833
302.193	5168.70833
306.219	4750.70833
310.241	4339.04167
314.26	3953.04167
318.276	3650.70833
322.288	3409.375
326.297	3232.70833
330.303	3094.375
334.305	2984.70833
338.305	2878.70833
342.301	2853.375
346.294	2825.70833
350.283	2776.375
354.269	2778.04167
358.252	2739.70833
362.232	2733.04167
366.209	2697.70833
370.182	2678.70833
374.152	2663.70833
378.119	2664.04167
382.083	2637.70833
386.043	2653.70833
390	2613.04167
393.954	2616.70833
397.905	2567.70833
401.852	2554.375
405.797	2527.70833
409.738	2518.04167
413.676	2525.04167
417.61	2502.70833
421.542	2461.70833
425.47	2418.70833
429.396	2403.70833
433.318	2395.375
437.236	2393.70833
441.152	2400.04167
445.065	2345.375
448.974	2308.375
452.88	2309.04167
456.783	2289.04167
460.683	2287.70833
464.58	2289.04167
468.473	2291.04167
472.364	2296.04167
476.251	2309.70833
480.135	2336.70833
484.016	2336.375
487.894	2363.70833
491.769	2356.375
495.641	2359.375
499.509	2354.375
503.375	2365.70833
507.237	2343.375
511.096	2325.375
514.952	2313.375
518.805	2348.375
522.655	2351.375
526.502	2319.04167
530.346	2306.375
534.187	2314.04167
538.024	2308.70833
541.859	2332.04167
545.69	2351.375
549.519	2324.70833
553.344	2292.70833
557.166	2268.04167
560.985	2252.70833
564.802	2232.04167
568.615	2190.70833
572.425	2178.70833
576.232	2160.70833
580.036	2147.375
583.836	2166.375
587.634	2179.70833
591.429	2158.70833
595.221	2206.70833
599.01	2231.70833
602.796	2257.375
606.578	2255.70833
610.358	2290.04167
614.135	2236.375
617.909	2238.375
621.679	2262.04167
625.447	2241.375
629.212	2254.375
632.973	2256.375
636.732	2216.70833
640.488	2234.375
644.241	2201.04167
647.991	2179.70833
651.737	2202.375
655.481	2178.04167
659.222	2183.04167
662.96	2177.70833
666.695	2220.04167
670.427	2207.70833
674.156	2213.70833
677.882	2208.70833
681.605	2202.04167
685.325	2194.04167
689.043	2211.375
692.757	2195.04167
696.468	2198.375
700.177	2216.04167
703.882	2198.375
707.585	2193.375
711.284	2214.04167
714.981	2214.375
718.675	2226.04167
722.366	2225.70833
726.054	2211.04167
729.739	2233.04167
733.421	2215.70833
737.1	2203.375
740.777	2215.70833
744.45	2252.70833
748.121	2272.04167
751.789	2318.04167
755.453	2307.04167
759.115	2330.375
762.774	2350.375
766.431	2380.04167
770.084	2385.04167
773.734	2405.70833
777.382	2451.375
781.027	2491.04167
784.669	2491.70833
788.308	2516.04167
791.944	2520.70833
795.577	2546.04167
799.208	2578.70833
802.835	2570.375
806.46	2588.375
810.082	2613.375
813.701	2607.04167
817.317	2626.04167
820.931	2662.375
824.542	2640.375
828.149	2612.375
831.754	2597.70833
835.357	2571.04167
838.956	2590.375
842.553	2589.04167
846.146	2580.70833
849.737	2583.04167
853.326	2551.70833
856.911	2581.70833
860.493	2641.70833
864.073	2635.04167
867.65	2689.04167
871.225	2735.04167
874.796	2689.04167
878.365	2730.70833
881.931	2732.70833
885.494	2751.70833
889.054	2755.04167
892.612	2738.70833
896.166	2704.70833
899.719	2669.04167
903.268	2657.04167
906.814	2612.375
910.358	2627.70833
913.899	2642.70833
917.438	2627.70833
920.973	2600.70833
924.506	2662.375
928.036	2679.04167
931.564	2719.375
935.088	2725.70833
938.61	2729.70833
942.129	2763.70833
945.646	2827.04167
949.16	2902.70833
952.671	2952.70833
956.179	2982.70833
959.685	2947.70833
963.188	2916.04167
966.688	2890.375
970.185	2797.04167
973.68	2757.70833
977.173	2743.375
980.662	2722.375
984.149	2760.375
987.633	2724.70833
991.114	2825.04167
994.593	2909.70833
998.069	3006.70833
1001.542	3084.04167
1005.013	3011.70833
1008.481	2821.70833
1011.947	2798.04167
1015.409	2754.70833
1018.869	2777.375
1022.327	2758.375
1025.782	2763.375
1029.234	2735.375
1032.683	2717.04167
1036.13	2613.04167
1039.574	2524.375
1043.016	2471.375
1046.455	2430.70833
1049.891	2387.04167
1053.325	2402.04167
1056.756	2391.70833
1060.184	2409.375
1063.61	2422.04167
1067.033	2426.04167
1070.454	2425.375
1073.872	2478.70833
1077.287	2455.375
1080.7	2457.70833
1084.11	2478.04167
1087.517	2473.04167
1090.922	2447.375
1094.325	2404.70833
1097.724	2368.04167
1101.122	2368.70833
1104.516	2374.70833
1107.908	2381.375
1111.298	2397.04167
1114.684	2449.04167
1118.069	2459.375
1121.45	2479.375
1124.83	2485.04167
1128.206	2493.70833
1131.58	2526.04167
1134.951	2595.70833
1138.32	2680.70833
1141.687	2753.375
1145.05	2846.04167
1148.412	2834.375
1151.77	2871.70833
1155.126	2833.375
1158.48	2866.70833
1161.831	2875.04167
1165.18	2905.04167
1168.525	2938.04167
1171.869	2986.04167
1175.21	3024.04167
1178.548	3040.04167
1181.884	3042.375
1185.217	3086.375
1188.548	3131.70833
1191.877	3185.375
1195.202	3258.70833
1198.526	3296.04167
1201.846	3307.04167
1205.165	3308.04167
1208.48	3295.375
1211.794	3265.70833
1215.104	3275.375
1218.413	3293.375
1221.719	3293.70833
1225.022	3254.375
1228.323	3243.375
1231.621	3239.375
1234.917	3214.04167
1238.21	3248.375
1241.501	3244.70833
1244.79	3244.04167
1248.076	3255.04167
1251.359	3316.04167
1254.64	3363.04167
1257.919	3380.04167
1261.195	3405.70833
1264.468	3452.04167
1267.74	3485.375
1271.008	3510.70833
1274.275	3475.04167
1277.538	3443.375
1280.8	3429.375
1284.059	3432.375
1287.315	3471.70833
1290.569	3487.375
1293.821	3501.375
1297.07	3508.70833
1300.317	3525.04167
1303.562	3510.70833
1306.803	3449.04167
1310.043	3416.375
1313.28	3378.375
1316.515	3361.04167
1319.747	3312.375
1322.977	3270.375
1326.204	3218.04167
1329.429	3156.70833
1332.652	3161.04167
1335.872	3140.04167
1339.09	3125.70833
1342.306	3152.375
1345.519	3119.04167
1348.729	3107.04167
1351.938	3092.70833
1355.144	3036.375
1358.347	3009.04167
1361.548	3023.70833
1364.747	3033.70833
1367.944	2995.04167
1371.138	3021.04167
1374.329	3037.70833
1377.518	3080.70833
1380.705	3094.70833
1383.89	3085.04167
1387.072	2999.375
1390.252	2882.375
1393.429	2795.04167
1396.605	2716.375
1399.777	2633.04167
1402.948	2626.375
1406.116	2598.375
1409.282	2608.04167
1412.445	2630.70833
1415.606	2648.70833
1418.765	2689.04167
1421.921	2745.04167
1425.075	2801.375
1428.227	2897.04167
1431.376	3033.70833
1434.524	3136.375
1437.668	3182.70833
1440.811	3208.375
1443.951	3226.70833
1447.089	3212.70833
1450.224	3214.70833
1453.357	3201.375
1456.488	3180.04167
1459.617	3121.04167
1462.743	3104.70833
1465.867	3001.70833
1468.989	2965.375
1472.108	2907.375
1475.225	2869.70833
1478.34	2853.70833
1481.453	2846.375
1484.563	2831.70833
1487.671	2885.04167
1490.776	2934.375
1493.88	2965.375
1496.981	3057.04167
1500.08	3118.04167
1503.176	3128.04167
1506.271	3188.04167
1509.363	3245.375
1512.452	3274.04167
1515.54	3321.375
1518.625	3427.375
1521.708	3550.375
1524.789	3720.375
1527.867	3967.04167
1530.944	4188.04167
1534.018	4441.375
1537.089	4546.04167
1540.159	4542.70833
1543.226	4456.70833
1546.291	4310.70833
1549.354	4160.70833
1552.415	4000.70833
1555.473	3894.375
1558.529	3795.04167
1561.583	3754.70833
1564.634	3731.04167
1567.684	3694.04167
1570.731	3712.375
1573.776	3729.04167
1576.819	3732.04167
1579.859	3771.70833
1582.898	3802.375
1585.934	3818.70833
1588.968	3836.04167
1591.999	3821.04167
1595.029	3809.375
1598.056	3843.70833
1601.081	3866.70833
1604.104	3861.04167
1607.125	3802.04167
1610.144	3725.70833
1613.16	3645.04167
1616.174	3574.70833
1619.186	3444.04167
1622.196	3367.70833
1625.203	3277.04167
1628.209	3246.04167
1631.212	3202.70833
1634.213	3174.375
1637.212	3162.70833
1640.209	3100.375
1643.203	3012.04167
1646.196	2952.04167
1649.186	2826.70833
1652.174	2764.375
1655.16	2665.375
1658.144	2587.70833
1661.125	2470.375
1664.105	2372.04167
1667.082	2261.70833
1670.057	2147.70833
1673.03	2008.70833
1676.001	1908.375
1678.97	1789.375
1681.937	1666.04167
1684.901	1597.04167
1687.863	1554.04167
1690.824	1478.04167
1693.782	1465.375
1696.738	1400.70833
1699.692	1375.375
1702.643	1331.70833
1705.593	1332.375
1708.54	1312.04167
1711.486	1300.375
1714.429	1275.04167
1717.37	1278.70833
1720.309	1239.04167
1723.246	1256.04167
1726.181	1218.375
1729.113	1224.375
1732.044	1209.70833
1734.972	1194.375
1737.899	1208.375
1740.823	1186.70833
1743.745	1176.375
1746.665	1146.70833
1749.583	1113.04167
1752.499	1095.70833
1755.413	1093.375
1758.325	1077.375
1761.235	1064.04167
1764.142	1037.04167
1767.048	1046.04167
1769.951	1018.70833
1772.852	1028.04167
1775.752	1020.375
1778.649	1025.04167
1781.544	1012.04167
1784.437	985.70833
1787.328	1009.375
1790.217	987.04167
1793.104	952.375
1795.989	966.70833
1798.872	950.04167
1801.753	983.375
1804.631	971.70833
1807.508	963.04167
1810.383	963.04167
1813.255	959.70833
1816.126	950.70833
1818.994	946.04167
1821.861	940.04167
1824.725	939.04167
1827.587	932.375
1830.448	934.70833
1833.306	904.04167
1836.162	922.375
1839.017	909.375
1841.869	917.375
1844.719	903.375
1847.567	894.04167
1850.414	888.375
1853.258	879.70833
1856.1	902.375
1858.94	909.04167
1861.778	888.04167
1864.614	881.04167
1867.448	888.375
1870.28	879.70833
1873.111	901.375
1875.939	874.04167
1878.765	901.375
1881.589	871.04167
1884.411	887.375
1887.231	886.375
1890.049	867.70833
1892.865	882.04167
1895.68	858.04167
1898.492	871.375
1901.302	852.04167
1904.11	859.04167
1906.916	839.70833
1909.721	838.04167
1912.523	854.375
1915.323	824.04167
1918.122	830.04167
1920.918	849.04167
1923.712	832.375
1926.505	832.375
1929.295	822.375
1932.084	827.375
1934.87	835.70833
1937.655	827.04167
1940.438	815.70833
1943.218	828.375
1945.997	826.04167
1948.774	832.375
1951.549	832.70833
1954.322	825.375
1957.093	808.04167
1959.862	813.375
1962.629	798.375
1965.394	796.70833
1968.157	788.375
1970.918	791.375
1973.678	784.04167
1976.435	804.70833
1979.19	782.04167
1981.944	769.375
1984.696	795.04167
1987.445	780.375
1990.193	786.04167
1992.939	795.04167
1995.683	781.04167
1998.425	760.04167
2001.165	795.375
2003.903	768.04167
2006.639	767.70833
2009.374	774.70833
2012.106	775.375
2014.837	741.375
2017.566	770.70833
2020.292	765.04167
2023.017	768.70833
2025.74	752.70833
2028.461	760.375
2031.18	758.70833
2033.898	746.375
2036.613	763.375
2039.327	752.375
2042.038	751.04167
2044.748	738.04167
2047.456	754.70833
2050.162	727.375
2052.866	742.375
2055.568	743.70833
2058.268	731.375
2060.967	744.375
2063.663	726.04167
2066.358	727.04167
2069.051	717.04167
2071.742	730.70833
2074.431	732.04167
2077.118	721.04167
2079.804	719.375
2082.487	732.375
2085.169	740.04167
2087.849	742.70833
2090.527	729.04167
2093.203	744.375
2095.877	752.70833
2098.55	758.375
2101.22	764.375
2103.889	787.375
2106.556	786.70833
2109.221	832.70833
2111.884	863.04167
2114.546	931.70833
2117.205	1009.04167
2119.863	1109.375
2122.519	1182.04167
2125.173	1276.70833
2127.825	1358.04167
2130.475	1356.04167
2133.124	1318.375
2135.771	1266.04167
2138.416	1204.04167
2141.059	1124.375
2143.7	1079.04167
2146.339	1001.04167
2148.977	936.375
2151.613	927.70833
2154.247	890.04167
2156.879	859.375
2159.51	835.375
2162.138	819.375
2164.765	813.70833
2167.39	801.375
2170.013	805.375
2172.634	791.04167
2175.254	787.04167
2177.872	803.04167
2180.488	753.375
2183.102	769.375
2185.714	744.04167
2188.325	726.375
2190.934	724.70833
2193.541	724.70833
2196.146	714.375
2198.75	695.04167
2201.351	696.04167
2203.951	666.04167
2206.549	690.70833
2209.146	661.04167
2211.74	653.375
2214.333	673.375
2216.924	655.375
2219.514	656.70833
2222.101	642.375
2224.687	654.375
2227.271	629.04167
2229.853	626.04167
2232.433	615.375
2235.012	646.04167
2237.589	638.04167
2240.164	640.70833
2242.738	618.70833
2245.309	608.70833
2247.879	607.70833
2250.448	619.70833
2253.014	588.70833
2255.579	577.70833
2258.142	580.70833
2260.703	574.04167
2263.262	574.70833
2265.82	580.70833
2268.376	575.04167
2270.93	567.70833
2273.483	562.375
2276.033	564.70833
2278.583	551.70833
2281.13	557.375
2283.675	546.375
2286.219	553.04167
2288.761	543.70833
2291.302	562.04167
2293.841	553.70833
2296.377	529.70833
2298.913	541.70833
2301.446	554.70833
2303.978	545.04167
2306.508	526.04167
2309.037	527.04167
2311.563	546.375
2314.088	528.70833
2316.612	515.375
2319.133	526.04167
2321.653	523.70833
2324.171	517.04167
2326.688	532.375
2329.202	511.70833
2331.715	523.04167
2334.227	517.70833
2336.736	519.375
2339.244	506.04167
2341.751	499.04167
2344.255	514.70833
2346.758	501.70833
2349.259	503.70833
2351.759	503.375
2354.257	492.04167
2356.753	497.375
2359.247	497.70833
2361.74	506.04167
2364.231	489.70833
2366.721	495.70833
2369.209	483.04167
2371.695	479.70833
2374.179	481.375
2376.662	481.375
2379.143	500.375
2381.622	479.04167
2384.1	494.70833
2386.576	484.70833
2389.051	498.70833
2391.524	491.70833
2393.995	491.04167
2396.464	480.70833
2398.932	471.375
2401.398	471.04167
2403.863	477.375
2406.325	472.375
2408.787	472.04167
2411.246	467.70833
2413.704	455.70833
2416.16	459.375
2418.615	472.04167
2421.068	465.04167
2423.519	464.04167
2425.969	460.70833
2428.417	471.375
2430.863	479.04167
2433.308	470.04167
2435.751	459.04167
2438.193	456.04167
2440.633	465.70833
2443.071	469.04167
2445.508	446.375
2447.943	447.375
2450.376	456.70833
2452.808	454.04167
2455.238	440.70833
2457.667	472.04167
2460.093	451.375
2462.519	435.04167
2464.942	443.70833
2467.365	447.70833
2469.785	441.375
2472.204	445.70833
2474.621	427.375
2477.037	454.70833
2479.451	423.70833
2481.863	421.375
2484.274	429.375
2486.683	437.04167
2489.091	433.70833
2491.497	438.375
2493.901	428.70833
2496.304	430.04167
2498.705	430.375
2501.105	428.04167
2503.503	440.375
2505.899	427.70833
2508.294	436.70833
2510.687	409.375
2513.079	413.70833
2515.469	409.04167
2517.858	417.04167
2520.245	429.375
2522.63	417.70833
2525.014	410.04167
2527.396	402.70833
2529.776	412.04167
2532.156	414.04167
2534.533	407.375
2536.909	413.04167
2539.283	398.375
2541.656	406.70833
2544.027	433.04167
2546.397	410.375
2548.765	402.04167
2551.131	402.04167
2553.496	397.70833
2555.86	409.70833
2558.221	404.70833
2560.582	399.375
2562.94	387.70833
2565.298	398.375
2567.653	428.375
2570.007	387.70833
2572.36	398.70833
2574.711	394.70833
2577.06	412.04167
2579.408	396.70833
2581.754	399.375
2584.099	398.70833
2586.442	392.70833
2588.784	394.375
2591.124	391.70833
2593.463	401.375
2595.8	394.375
2598.135	379.375
2600.469	380.70833
2602.802	402.70833
2605.133	410.375
2607.462	386.70833
2609.79	382.375
2612.116	385.70833
2614.441	382.70833
2616.764	390.70833
2619.086	386.70833
2621.406	373.70833
2623.725	397.70833
2626.042	392.04167
2628.358	381.04167
2630.672	386.375
2632.985	403.04167
2635.296	391.70833
2637.606	399.70833
2639.914	374.04167
2642.22	390.70833
2644.525	391.04167
2646.829	390.04167
2649.131	394.375
2651.432	400.70833
2653.731	384.70833
2656.028	408.04167
2658.324	390.04167
2660.619	379.375
2662.912	400.04167
2665.204	379.70833
2667.494	386.04167
2669.782	384.375
2672.07	395.04167
2674.355	402.70833
2676.639	389.70833
2678.922	374.375
2681.203	400.70833
2683.483	375.70833
2685.761	373.70833
2688.038	400.04167
2690.313	420.70833
2692.587	385.70833
2694.859	388.70833
2697.13	396.04167
2699.399	398.375
2701.667	413.70833
2703.933	404.04167
2706.198	408.375
2708.461	417.375
2710.723	424.70833
2712.984	407.70833
2715.243	414.70833
2717.5	410.70833
2719.757	434.04167
2722.011	412.375
2724.264	419.375
2726.516	439.375
2728.766	415.70833
2731.015	426.04167
2733.262	414.70833
2735.508	424.04167
2737.753	413.70833
2739.996	414.04167
2742.237	402.375
2744.477	420.70833
2746.716	420.70833
2748.953	416.375
2751.189	418.375
2753.423	404.375
2755.656	401.375
2757.887	401.04167
2760.117	400.375
2762.346	389.70833
2764.573	387.375
2766.798	397.375
2769.022	402.375
2771.245	396.04167
2773.467	399.70833
2775.686	394.70833
2777.905	406.04167
2780.122	413.375
2782.337	414.70833
2784.552	401.04167
2786.764	419.375
2788.976	416.375
2791.186	421.04167
2793.394	431.04167
2795.601	437.375
2797.807	444.70833
2800.011	453.375
2802.214	460.375
2804.415	463.70833
2806.615	464.04167
2808.814	482.70833
2811.011	487.04167
2813.206	478.04167
2815.401	500.04167
2817.594	507.04167
2819.785	518.70833
2821.975	501.375
2824.164	526.70833
2826.351	529.70833
2828.537	542.04167
2830.722	558.70833
2832.905	570.70833
2835.086	596.375
2837.267	616.375
2839.445	637.04167
2841.623	643.70833
2843.799	678.70833
2845.974	706.04167
2848.147	746.04167
2850.319	755.04167
2852.489	780.375
2854.659	792.04167
2856.826	803.04167
2858.993	818.70833
2861.158	814.375
2863.321	816.70833
2865.483	824.04167
2867.644	827.375
2869.804	837.375
2871.962	822.375
2874.118	824.375
2876.274	847.70833
2878.428	840.04167
2880.58	826.375
2882.731	803.04167
2884.881	804.04167
2887.03	812.375
2889.177	808.375
2891.322	818.04167
2893.467	802.04167
2895.61	805.04167
2897.751	838.375
2899.892	806.375
2902.03	820.70833
2904.168	821.70833
2906.304	843.70833
2908.439	854.04167
2910.572	823.70833
2912.704	839.70833
2914.835	834.70833
2916.965	834.375
2919.093	847.70833
2921.219	815.375
2923.345	840.04167
2925.469	810.375
2927.591	794.375
2929.712	772.04167
2931.832	762.04167
2933.951	749.375
2936.068	726.70833
2938.184	696.70833
2940.299	678.375
2942.412	651.375
2944.524	627.04167
2946.634	619.70833
2948.744	565.70833
2950.851	595.70833
2952.958	547.04167
2955.063	544.375
2957.167	529.04167
2959.269	499.375
2961.371	524.04167
2963.471	470.04167
2965.569	488.70833
2967.666	447.70833
2969.762	445.375
2971.857	423.375
2973.95	416.70833
2976.042	414.375
2978.133	390.70833
2980.222	387.04167
2982.31	366.70833
2984.396	351.375
2986.482	353.375
2988.566	353.04167
2990.648	339.375
2992.73	343.70833
2994.81	331.70833
2996.889	332.70833
2998.966	323.04167
3001.042	331.70833
3003.117	324.04167
3005.191	322.70833
3007.263	311.375
3009.334	306.375
3011.403	305.375
3013.472	284.04167
3015.539	291.04167
3017.604	312.04167
3019.669	272.375
3021.732	275.70833
3023.794	277.70833
3025.854	264.375
3027.914	260.375
3029.971	266.375
3032.028	254.70833
3034.083	262.70833
3036.137	258.70833
3038.19	247.04167
3040.242	244.375
3042.292	236.375
3044.341	233.70833
3046.388	255.70833
3048.435	224.04167
3050.48	243.375
3052.524	238.375
3054.566	215.04167
3056.607	229.04167
3058.647	226.70833
3060.686	202.04167
3062.723	198.375
3064.759	194.04167
3066.794	-0.95833
3068.828	-0.29167
3070.86	-3.625
