-0.839	456.83333
3.438	479.5
7.711	133.5
11.981	54.5
16.247	48.83333
20.509	43.5
24.768	46.16667
29.024	47.83333
33.276	43.16667
37.524	51.83333
41.769	39.5
46.01	38.83333
50.247	53.5
54.481	60.16667
58.712	68.5
62.939	50.16667
67.162	60.83333
71.382	58.16667
75.599	51.83333
79.812	63.83333
84.021	81.16667
88.227	61.83333
92.429	62.5
96.628	53.5
100.823	68.16667
105.015	75.83333
109.204	85.16667
113.388	80.83333
117.57	82.83333
121.748	94.16667
125.922	88.83333
130.093	111.16667
134.261	116.5
138.425	112.5
142.585	161.5
146.742	155.83333
150.896	188.83333
155.046	241.83333
159.193	392.83333
163.336	697.16667
167.476	1283.83333
171.613	2343.16667
175.746	3862.16667
179.875	5719.83333
184.002	7357.5
188.124	8439.5
192.244	8623.16667
196.36	8488.5
200.472	8175.16667
204.581	7846.5
208.687	7613.16667
212.79	7465.83333
216.889	7405.16667
220.984	7412.83333
225.077	7447.83333
229.165	7472.16667
233.251	7547.83333
237.333	7543.16667
241.412	7492.16667
245.487	7420.5
249.559	7369.16667
253.628	7257.5
257.694	7166.16667
261.756	7089.5
265.814	6939.83333
269.87	6766.16667
273.922	6549.83333
277.97	6392.5
282.016	6314.16667
286.058	6257.5
290.097	6297.16667
294.132	6303.5
298.164	6204.16667
302.193	5934.5
306.219	5469.83333
310.241	4981.83333
314.26	4490.5
318.276	4123.16667
322.288	3867.5
326.297	3611.16667
330.303	3461.16667
334.305	3353.16667
338.305	3258.16667
342.301	3183.83333
346.294	3146.16667
350.283	3112.83333
354.269	3079.83333
358.252	3034.5
362.232	3010.5
366.209	2970.5
370.182	2934.5
374.152	2877.16667
378.119	2901.16667
382.083	2880.83333
386.043	2890.5
390	2858.16667
393.954	2805.5
397.905	2797.16667
401.852	2807.83333
405.797	2738.83333
409.738	2730.83333
413.676	2721.83333
417.61	2676.5
421.542	2628.16667
425.47	2619.5
429.396	2595.16667
433.318	2597.83333
437.236	2571.5
441.152	2576.16667
445.065	2517.83333
448.974	2517.5
452.88	2481.16667
456.783	2469.83333
460.683	2435.5
464.58	2460.5
468.473	2464.16667
472.364	2454.16667
476.251	2439.83333
480.135	2486.16667
484.016	2492.5
487.894	2505.83333
491.769	2509.83333
495.641	2527.16667
499.509	2505.16667
503.375	2522.16667
507.237	2525.83333
511.096	2490.5
514.952	2517.16667
518.805	2514.16667
522.655	2528.83333
526.502	2459.83333
530.346	2500.5
534.187	2501.5
538.024	2515.5
541.859	2503.5
545.69	2543.83333
549.519	2517.83333
553.344	2497.16667
557.166	2457.16667
560.985	2426.16667
564.802	2397.5
568.615	2359.5
572.425	2315.5
576.232	2289.83333
580.036	2306.83333
583.836	2307.16667
587.634	2305.5
591.429	2319.83333
595.221	2370.5
599.01	2382.5
602.796	2408.83333
606.578	2425.83333
610.358	2432.5
614.135	2421.5
617.909	2390.83333
621.679	2384.5
625.447	2374.16667
629.212	2373.5
632.973	2376.5
636.732	2392.83333
640.488	2397.5
644.241	2343.16667
647.991	2364.83333
651.737	2370.5
655.481	2344.16667
659.222	2349.5
662.96	2332.5
666.695	2344.5
670.427	2375.5
674.156	2388.83333
677.882	2382.83333
681.605	2364.5
685.325	2340.16667
689.043	2360.83333
692.757	2352.5
696.468	2358.16667
700.177	2368.83333
703.882	2348.83333
707.585	2329.5
711.284	2370.16667
714.981	2345.83333
718.675	2363.16667
722.366	2389.83333
726.054	2350.5
729.739	2377.16667
733.421	2351.16667
737.1	2364.16667
740.777	2377.83333
744.45	2390.5
748.121	2413.16667
751.789	2484.16667
755.453	2460.5
759.115	2472.83333
762.774	2512.5
766.431	2532.5
770.084	2575.16667
773.734	2586.83333
777.382	2671.5
781.027	2671.16667
784.669	2713.16667
788.308	2714.16667
791.944	2735.5
795.577	2765.83333
799.208	2784.16667
802.835	2807.16667
806.46	2795.5
810.082	2832.5
813.701	2839.83333
817.317	2876.5
820.931	2875.16667
824.542	2873.16667
828.149	2857.16667
831.754	2843.83333
835.357	2836.83333
838.956	2841.16667
842.553	2830.16667
846.146	2821.16667
849.737	2804.5
853.326	2832.5
856.911	2846.16667
860.493	2896.83333
864.073	2910.83333
867.65	2948.16667
871.225	2978.5
874.796	2991.5
878.365	3000.83333
881.931	3038.83333
885.494	3058.5
889.054	3037.5
892.612	3036.83333
896.166	3037.16667
899.719	3011.16667
903.268	2971.16667
906.814	2952.5
910.358	2943.83333
913.899	2916.16667
917.438	2941.5
920.973	2917.83333
924.506	2947.5
928.036	2986.5
931.564	3013.16667
935.088	3031.83333
938.61	3058.16667
942.129	3078.83333
945.646	3148.5
949.16	3264.5
952.671	3320.5
956.179	3353.16667
959.685	3311.83333
963.188	3245.5
966.688	3180.16667
970.185	3094.5
973.68	3044.5
977.173	3039.83333
980.662	2994.5
984.149	3022.83333
987.633	3027.16667
991.114	3075.16667
994.593	3178.83333
998.069	3295.83333
1001.542	3391.83333
1005.013	3345.83333
1008.481	3156.16667
1011.947	3102.5
1015.409	3078.16667
1018.869	3079.16667
1022.327	3083.16667
1025.782	3054.83333
1029.234	3047.16667
1032.683	2993.5
1036.13	2898.16667
1039.574	2775.16667
1043.016	2728.83333
1046.455	2657.83333
1049.891	2638.16667
1053.325	2640.16667
1056.756	2643.83333
1060.184	2652.83333
1063.61	2687.16667
1067.033	2711.16667
1070.454	2688.5
1073.872	2740.16667
1077.287	2717.83333
1080.7	2743.16667
1084.11	2738.16667
1087.517	2704.5
1090.922	2689.83333
1094.325	2650.83333
1097.724	2627.83333
1101.122	2636.83333
1104.516	2649.5
1107.908	2634.83333
1111.298	2691.5
1114.684	2727.83333
1118.069	2737.5
1121.45	2803.83333
1124.83	2826.83333
1128.206	2849.5
1131.58	2912.16667
1134.951	3015.5
1138.32	3108.5
1141.687	3238.5
1145.05	3325.5
1148.412	3398.83333
1151.77	3389.5
1155.126	3395.5
1158.48	3393.5
1161.831	3440.16667
1165.18	3460.5
1168.525	3509.16667
1171.869	3555.16667
1175.21	3588.5
1178.548	3610.83333
1181.884	3622.83333
1185.217	3642.5
1188.548	3674.83333
1191.877	3727.83333
1195.202	3802.16667
1198.526	3826.5
1201.846	3808.83333
1205.165	3802.83333
1208.48	3763.83333
1211.794	3745.5
1215.104	3758.16667
1218.413	3737.16667
1221.719	3731.16667
1225.022	3693.16667
1228.323	3661.5
1231.621	3653.5
1234.917	3636.5
1238.21	3652.16667
1241.501	3649.83333
1244.79	3653.83333
1248.076	3675.16667
1251.359	3692.5
1254.64	3769.83333
1257.919	3789.5
1261.195	3868.16667
1264.468	3950.5
1267.74	3982.5
1271.008	4019.5
1274.275	3991.83333
1277.538	3944.83333
1280.8	3926.83333
1284.059	3948.5
1287.315	3969.83333
1290.569	3985.83333
1293.821	3983.83333
1297.07	4019.5
1300.317	4037.5
1303.562	4039.5
1306.803	3978.5
1310.043	3941.16667
1313.28	3872.5
1316.515	3825.83333
1319.747	3786.5
1322.977	3740.16667
1326.204	3684.16667
1329.429	3607.83333
1332.652	3606.5
1335.872	3575.83333
1339.09	3565.83333
1342.306	3550.5
1345.519	3514.16667
1348.729	3494.16667
1351.938	3455.5
1355.144	3395.16667
1358.347	3381.5
1361.548	3380.83333
1364.747	3385.5
1367.944	3368.5
1371.138	3413.83333
1374.329	3446.5
1377.518	3497.83333
1380.705	3529.5
1383.89	3538.83333
1387.072	3385.16667
1390.252	3266.16667
1393.429	3151.83333
1396.605	3074.83333
1399.777	3003.83333
1402.948	2973.83333
1406.116	2921.5
1409.282	2939.83333
1412.445	2926.83333
1415.606	2948.5
1418.765	3005.5
1421.921	3067.16667
1425.075	3161.83333
1428.227	3239.5
1431.376	3394.5
1434.524	3528.5
1437.668	3623.16667
1440.811	3682.83333
1443.951	3684.5
1447.089	3686.5
1450.224	3710.5
1453.357	3677.83333
1456.488	3645.5
1459.617	3621.5
1462.743	3569.16667
1465.867	3509.83333
1468.989	3484.83333
1472.108	3420.83333
1475.225	3375.16667
1478.34	3356.16667
1481.453	3367.16667
1484.563	3380.5
1487.671	3457.5
1490.776	3509.5
1493.88	3625.5
1496.981	3688.83333
1500.08	3748.83333
1503.176	3840.5
1506.271	3900.83333
1509.363	3953.5
1512.452	4003.16667
1515.54	4088.5
1518.625	4157.83333
1521.708	4310.5
1524.789	4518.16667
1527.867	4745.83333
1530.944	5077.83333
1534.018	5300.16667
1537.089	5480.5
1540.159	5441.16667
1543.226	5350.16667
1546.291	5164.83333
1549.354	4997.16667
1552.415	4856.83333
1555.473	4739.5
1558.529	4642.16667
1561.583	4622.83333
1564.634	4563.5
1567.684	4587.5
1570.731	4607.5
1573.776	4620.83333
1576.819	4674.83333
1579.859	4717.5
1582.898	4769.5
1585.934	4781.5
1588.968	4785.5
1591.999	4759.5
1595.029	4741.5
1598.056	4778.5
1601.081	4807.16667
1604.104	4725.16667
1607.125	4655.5
1610.144	4546.5
1613.16	4442.16667
1616.174	4350.5
1619.186	4219.16667
1622.196	4095.83333
1625.203	3993.83333
1628.209	3905.16667
1631.212	3851.83333
1634.213	3774.83333
1637.212	3710.16667
1640.209	3590.16667
1643.203	3467.83333
1646.196	3358.16667
1649.186	3230.5
1652.174	3121.5
1655.16	3009.5
1658.144	2911.83333
1661.125	2769.16667
1664.105	2618.16667
1667.082	2545.5
1670.057	2404.83333
1673.03	2231.5
1676.001	2116.16667
1678.97	1987.5
1681.937	1887.5
1684.901	1777.5
1687.863	1729.5
1690.824	1636.83333
1693.782	1616.83333
1696.738	1553.83333
1699.692	1519.83333
1702.643	1485.5
1705.593	1473.83333
1708.54	1445.83333
1711.486	1436.5
1714.429	1391.5
1717.37	1395.16667
1720.309	1360.5
1723.246	1367.83333
1726.181	1339.5
1729.113	1337.5
1732.044	1339.83333
1734.972	1296.83333
1737.899	1308.83333
1740.823	1291.16667
1743.745	1300.83333
1746.665	1237.16667
1749.583	1230.16667
1752.499	1223.5
1755.413	1188.5
1758.325	1167.5
1761.235	1159.83333
1764.142	1125.16667
1767.048	1129.16667
1769.951	1119.16667
1772.852	1116.5
1775.752	1103.5
1778.649	1109.16667
1781.544	1086.16667
1784.437	1065.16667
1787.328	1094.16667
1790.217	1066.16667
1793.104	1050.16667
1795.989	1030.16667
1798.872	1039.83333
1801.753	1050.16667
1804.631	1045.5
1807.508	1058.16667
1810.383	1044.5
1813.255	1031.5
1816.126	1026.16667
1818.994	1021.5
1821.861	1011.5
1824.725	1012.83333
1827.587	1000.83333
1830.448	1011.16667
1833.306	960.5
1836.162	986.83333
1839.017	987.16667
1841.869	995.83333
1844.719	970.16667
1847.567	965.16667
1850.414	970.16667
1853.258	962.16667
1856.1	967.5
1858.94	971.83333
1861.778	962.5
1864.614	966.5
1867.448	972.16667
1870.28	950.16667
1873.111	966.83333
1875.939	959.16667
1878.765	967.16667
1881.589	945.16667
1884.411	955.16667
1887.231	952.83333
1890.049	938.5
1892.865	943.5
1895.68	927.16667
1898.492	933.83333
1901.302	929.83333
1904.11	927.16667
1906.916	905.16667
1909.721	911.5
1912.523	917.5
1915.323	899.83333
1918.122	906.5
1920.918	905.5
1923.712	895.83333
1926.505	901.5
1929.295	898.83333
1932.084	906.5
1934.87	900.16667
1937.655	896.16667
1940.438	886.16667
1943.218	897.16667
1945.997	892.5
1948.774	914.16667
1951.549	895.16667
1954.322	886.16667
1957.093	882.5
1959.862	859.16667
1962.629	877.5
1965.394	871.83333
1968.157	854.5
1970.918	871.83333
1973.678	856.16667
1976.435	859.16667
1979.19	847.16667
1981.944	850.83333
1984.696	843.83333
1987.445	837.16667
1990.193	844.83333
1992.939	860.83333
1995.683	843.5
1998.425	821.16667
2001.165	860.5
2003.903	833.5
2006.639	835.5
2009.374	842.5
2012.106	849.83333
2014.837	827.83333
2017.566	836.16667
2020.292	832.83333
2023.017	829.5
2025.74	815.5
2028.461	815.5
2031.18	818.5
2033.898	807.16667
2036.613	820.83333
2039.327	828.16667
2042.038	794.16667
2044.748	810.83333
2047.456	815.83333
2050.162	796.16667
2052.866	783.83333
2055.568	806.5
2058.268	792.5
2060.967	809.83333
2063.663	774.83333
2066.358	787.16667
2069.051	784.16667
2071.742	793.5
2074.431	788.16667
2077.118	791.83333
2079.804	780.83333
2082.487	791.16667
2085.169	798.16667
2087.849	812.5
2090.527	796.5
2093.203	804.5
2095.877	811.16667
2098.55	810.83333
2101.22	831.83333
2103.889	826.83333
2106.556	833.5
2109.221	861.83333
2111.884	880.83333
2114.546	952.83333
2117.205	1009.16667
2119.863	1104.16667
2122.519	1177.5
2125.173	1265.16667
2127.825	1369.5
2130.475	1396.5
2133.124	1346.83333
2135.771	1314.83333
2138.416	1264.5
2141.059	1162.5
2143.7	1114.16667
2146.339	1044.16667
2148.977	994.16667
2151.613	963.83333
2154.247	937.5
2156.879	908.83333
2159.51	894.5
2162.138	881.5
2164.765	878.83333
2167.39	865.83333
2170.013	869.83333
2172.634	861.83333
2175.254	848.83333
2177.872	872.83333
2180.488	823.83333
2183.102	841.5
2185.714	822.16667
2188.325	803.16667
2190.934	811.5
2193.541	795.83333
2196.146	786.83333
2198.75	756.5
2201.351	767.5
2203.951	740.16667
2206.549	777.16667
2209.146	738.16667
2211.74	733.83333
2214.333	747.5
2216.924	718.83333
2219.514	736.83333
2222.101	700.5
2224.687	724.16667
2227.271	690.83333
2229.853	711.83333
2232.433	693.16667
2235.012	704.5
2237.589	699.16667
2240.164	699.83333
2242.738	694.83333
2245.309	661.83333
2247.879	676.5
2250.448	686.83333
2253.014	657.5
2255.579	643.83333
2258.142	643.16667
2260.703	633.16667
2263.262	640.16667
2265.82	627.83333
2268.376	637.83333
2270.93	619.16667
2273.483	613.5
2276.033	627.16667
2278.583	609.83333
2281.13	602.16667
2283.675	600.16667
2286.219	597.16667
2288.761	607.16667
2291.302	612.83333
2293.841	612.5
2296.377	583.83333
2298.913	592.16667
2301.446	602.16667
2303.978	588.83333
2306.508	589.16667
2309.037	590.16667
2311.563	588.5
2314.088	593.5
2316.612	573.16667
2319.133	579.83333
2321.653	572.5
2324.171	559.83333
2326.688	581.5
2329.202	569.83333
2331.715	571.5
2334.227	565.5
2336.736	568.16667
2339.244	554.5
2341.751	545.16667
2344.255	564.16667
2346.758	548.16667
2349.259	544.5
2351.759	546.5
2354.257	547.5
2356.753	544.83333
2359.247	545.16667
2361.74	553.83333
2364.231	542.83333
2366.721	553.5
2369.209	536.16667
2371.695	535.83333
2374.179	534.16667
2376.662	537.5
2379.143	550.83333
2381.622	529.5
2384.1	542.83333
2386.576	533.83333
2389.051	543.83333
2391.524	545.83333
2393.995	545.16667
2396.464	525.83333
2398.932	516.16667
2401.398	530.5
2403.863	528.5
2406.325	527.16667
2408.787	516.83333
2411.246	522.16667
2413.704	519.16667
2416.16	512.83333
2418.615	524.83333
2421.068	525.83333
2423.519	516.16667
2425.969	510.16667
2428.417	512.83333
2430.863	527.83333
2433.308	520.16667
2435.751	504.16667
2438.193	503.5
2440.633	521.16667
2443.071	509.5
2445.508	493.5
2447.943	494.5
2450.376	496.83333
2452.808	502.83333
2455.238	494.5
2457.667	517.83333
2460.093	490.5
2462.519	476.5
2464.942	486.83333
2467.365	496.83333
2469.785	487.5
2472.204	484.5
2474.621	474.5
2477.037	507.16667
2479.451	480.5
2481.863	471.5
2484.274	467.83333
2486.683	484.83333
2489.091	480.5
2491.497	479.83333
2493.901	481.83333
2496.304	476.16667
2498.705	474.83333
2501.105	461.83333
2503.503	501.5
2505.899	464.83333
2508.294	484.5
2510.687	464.83333
2513.079	459.16667
2515.469	461.16667
2517.858	471.83333
2520.245	476.83333
2522.63	460.5
2525.014	465.83333
2527.396	457.5
2529.776	452.83333
2532.156	454.16667
2534.533	451.83333
2536.909	456.5
2539.283	440.16667
2541.656	452.5
2544.027	470.83333
2546.397	467.83333
2548.765	442.5
2551.131	443.5
2553.496	447.83333
2555.86	456.83333
2558.221	446.16667
2560.582	444.16667
2562.94	442.5
2565.298	444.5
2567.653	461.5
2570.007	426.16667
2572.36	445.5
2574.711	440.5
2577.06	454.16667
2579.408	443.16667
2581.754	439.5
2584.099	444.83333
2586.442	430.16667
2588.784	444.83333
2591.124	446.5
2593.463	430.5
2595.8	433.83333
2598.135	418.16667
2600.469	432.16667
2602.802	443.16667
2605.133	448.83333
2607.462	427.5
2609.79	432.5
2612.116	426.16667
2614.441	433.5
2616.764	430.5
2619.086	430.83333
2621.406	423.16667
2623.725	438.5
2626.042	438.16667
2628.358	431.5
2630.672	428.5
2632.985	444.16667
2635.296	435.16667
2637.606	440.5
2639.914	419.5
2642.22	426.5
2644.525	420.5
2646.829	442.5
2649.131	445.83333
2651.432	442.83333
2653.731	437.83333
2656.028	445.16667
2658.324	432.5
2660.619	425.5
2662.912	443.83333
2665.204	428.16667
2667.494	454.16667
2669.782	434.83333
2672.07	443.5
2674.355	438.83333
2676.639	438.5
2678.922	423.5
2681.203	444.5
2683.483	420.16667
2685.761	425.16667
2688.038	449.16667
2690.313	456.16667
2692.587	445.83333
2694.859	431.16667
2697.13	434.16667
2699.399	442.16667
2701.667	455.16667
2703.933	462.16667
2706.198	453.83333
2708.461	463.83333
2710.723	471.5
2712.984	453.16667
2715.243	466.16667
2717.5	471.5
2719.757	474.83333
2722.011	470.16667
2724.264	479.16667
2726.516	496.16667
2728.766	478.83333
2731.015	476.16667
2733.262	470.16667
2735.508	469.16667
2737.753	471.5
2739.996	456.16667
2742.237	456.83333
2744.477	455.16667
2746.716	464.16667
2748.953	459.5
2751.189	459.5
2753.423	445.83333
2755.656	452.83333
2757.887	440.5
2760.117	443.16667
2762.346	433.16667
2764.573	430.83333
2766.798	434.83333
2769.022	443.5
2771.245	439.16667
2773.467	437.83333
2775.686	442.5
2777.905	446.5
2780.122	463.5
2782.337	459.16667
2784.552	452.5
2786.764	466.16667
2788.976	465.5
2791.186	483.83333
2793.394	483.83333
2795.601	494.5
2797.807	498.5
2800.011	499.5
2802.214	512.16667
2804.415	513.5
2806.615	513.83333
2808.814	530.83333
2811.011	532.83333
2813.206	534.16667
2815.401	550.5
2817.594	563.16667
2819.785	575.5
2821.975	563.5
2824.164	580.83333
2826.351	608.16667
2828.537	625.5
2830.722	627.16667
2832.905	644.16667
2835.086	674.16667
2837.267	704.5
2839.445	734.5
2841.623	759.16667
2843.799	793.83333
2845.974	843.16667
2848.147	876.5
2850.319	894.16667
2852.489	950.5
2854.659	943.83333
2856.826	967.16667
2858.993	969.5
2861.158	958.5
2863.321	986.5
2865.483	997.16667
2867.644	990.83333
2869.804	988.83333
2871.962	985.16667
2874.118	983.83333
2876.274	982.5
2878.428	988.16667
2880.58	980.5
2882.731	959.5
2884.881	972.83333
2887.03	960.83333
2889.177	973.83333
2891.322	987.5
2893.467	973.5
2895.61	993.5
2897.751	1009.83333
2899.892	988.16667
2902.03	1016.5
2904.168	1020.16667
2906.304	1018.16667
2908.439	1037.83333
2910.572	1022.5
2912.704	1027.16667
2914.835	1029.83333
2916.965	1031.5
2919.093	1043.83333
2921.219	1002.83333
2923.345	1022.16667
2925.469	995.5
2927.591	983.16667
2929.712	957.83333
2931.832	943.16667
2933.951	934.83333
2936.068	895.83333
2938.184	876.83333
2940.299	834.83333
2942.412	818.16667
2944.524	771.83333
2946.634	758.16667
2948.744	703.5
2950.851	722.83333
2952.958	666.83333
2955.063	660.16667
2957.167	636.5
2959.269	604.16667
2961.371	625.16667
2963.471	571.16667
2965.569	579.16667
2967.666	547.5
2969.762	536.16667
2971.857	512.16667
2973.95	501.16667
2976.042	502.5
2978.133	484.16667
2980.222	469.5
2982.31	446.83333
2984.396	435.16667
2986.482	423.83333
2988.566	431.5
2990.648	405.83333
2992.73	403.5
2994.81	388.16667
2996.889	404.83333
2998.966	395.5
3001.042	391.5
3003.117	375.16667
3005.191	386.5
3007.263	372.5
3009.334	366.83333
3011.403	374.16667
3013.472	348.16667
3015.539	345.83333
3017.604	359.16667
3019.669	324.16667
3021.732	332.16667
3023.794	335.16667
3025.854	317.16667
3027.914	314.16667
3029.971	328.16667
3032.028	311.83333
3034.083	313.83333
3036.137	316.83333
3038.19	294.5
3040.242	285.83333
3042.292	276.5
3044.341	285.5
3046.388	289.83333
3048.435	276.83333
3050.48	279.83333
3052.524	280.5
3054.566	262.16667
3056.607	274.5
3058.647	269.5
3060.686	248.5
3062.723	248.83333
3064.759	236.16667
3066.794	-0.83333
3068.828	-2.16667
3070.86	-1.5
