-0.839	411.16667
3.438	436.5
7.711	125.83333
11.981	51.5
16.247	43.83333
20.509	41.83333
24.768	42.16667
29.024	41.5
33.276	43.83333
37.524	51.83333
41.769	40.5
46.01	37.5
50.247	50.5
54.481	61.83333
58.712	64.5
62.939	45.83333
67.162	59.16667
71.382	55.5
75.599	48.83333
79.812	62.83333
84.021	77.83333
88.227	59.16667
92.429	64.83333
96.628	51.16667
100.823	66.16667
105.015	76.5
109.204	76.16667
113.388	73.16667
117.57	76.5
121.748	85.5
125.922	75.5
130.093	96.16667
134.261	94.5
138.425	98.5
142.585	139.83333
146.742	136.5
150.896	161.5
155.046	193.16667
159.193	310.83333
163.336	522.83333
167.476	980.5
171.613	1782.83333
175.746	2955.83333
179.875	4330.16667
184.002	5624.16667
188.124	6538.5
192.244	6812.5
196.36	6735.16667
200.472	6567.83333
204.581	6397.5
208.687	6262.5
212.79	6195.5
216.889	6250.83333
220.984	6340.16667
225.077	6359.83333
229.165	6469.16667
233.251	6554.5
237.333	6574.83333
241.412	6591.83333
245.487	6575.83333
249.559	6489.83333
253.628	6468.16667
257.694	6418.5
261.756	6342.5
265.814	6205.83333
269.87	6030.16667
273.922	5887.5
277.97	5769.16667
282.016	5721.16667
286.058	5688.16667
290.097	5747.83333
294.132	5688.5
298.164	5621.5
302.193	5387.16667
306.219	4973.16667
310.241	4542.5
314.26	4132.16667
318.276	3773.16667
322.288	3546.83333
326.297	3351.5
330.303	3204.83333
334.305	3115.16667
338.305	3040.16667
342.301	2997.5
346.294	2963.16667
350.283	2913.5
354.269	2875.5
358.252	2883.83333
362.232	2856.16667
366.209	2831.5
370.182	2802.16667
374.152	2785.83333
378.119	2791.16667
382.083	2766.16667
386.043	2801.16667
390	2747.83333
393.954	2740.83333
397.905	2711.16667
401.852	2718.83333
405.797	2683.5
409.738	2642.5
413.676	2650.16667
417.61	2636.83333
421.542	2600.5
425.47	2565.83333
429.396	2538.83333
433.318	2529.16667
437.236	2531.83333
441.152	2545.16667
445.065	2495.83333
448.974	2495.16667
452.88	2455.5
456.783	2443.16667
460.683	2416.83333
464.58	2437.83333
468.473	2455.16667
472.364	2441.83333
476.251	2476.83333
480.135	2458.5
484.016	2492.16667
487.894	2518.16667
491.769	2535.16667
495.641	2521.5
499.509	2526.83333
503.375	2517.83333
507.237	2523.16667
511.096	2516.83333
514.952	2557.83333
518.805	2552.16667
522.655	2564.83333
526.502	2501.16667
530.346	2474.5
534.187	2509.5
538.024	2495.16667
541.859	2507.5
545.69	2519.16667
549.519	2499.83333
553.344	2481.16667
557.166	2443.83333
560.985	2417.5
564.802	2389.5
568.615	2364.16667
572.425	2339.16667
576.232	2320.5
580.036	2308.5
583.836	2324.16667
587.634	2328.5
591.429	2310.16667
595.221	2368.16667
599.01	2379.5
602.796	2418.16667
606.578	2428.5
610.358	2432.16667
614.135	2415.16667
617.909	2432.16667
621.679	2398.5
625.447	2384.16667
629.212	2408.83333
632.973	2397.83333
636.732	2402.16667
640.488	2388.83333
644.241	2362.5
647.991	2364.5
651.737	2387.16667
655.481	2354.5
659.222	2360.5
662.96	2360.5
666.695	2392.16667
670.427	2407.5
674.156	2420.83333
677.882	2397.83333
681.605	2385.83333
685.325	2360.5
689.043	2383.83333
692.757	2374.83333
696.468	2363.83333
700.177	2377.83333
703.882	2381.16667
707.585	2353.83333
711.284	2371.83333
714.981	2381.16667
718.675	2393.16667
722.366	2379.5
726.054	2357.5
729.739	2367.83333
733.421	2392.16667
737.1	2374.83333
740.777	2398.16667
744.45	2419.83333
748.121	2427.83333
751.789	2482.5
755.453	2448.83333
759.115	2483.83333
762.774	2496.16667
766.431	2512.16667
770.084	2565.16667
773.734	2558.16667
777.382	2607.5
781.027	2638.5
784.669	2637.16667
788.308	2641.16667
791.944	2690.5
795.577	2711.5
799.208	2719.5
802.835	2736.5
806.46	2774.16667
810.082	2805.5
813.701	2795.83333
817.317	2828.5
820.931	2812.83333
824.542	2814.16667
828.149	2776.5
831.754	2759.83333
835.357	2736.16667
838.956	2730.16667
842.553	2723.5
846.146	2699.16667
849.737	2675.16667
853.326	2693.16667
856.911	2726.16667
860.493	2720.16667
864.073	2764.5
867.65	2770.16667
871.225	2819.5
874.796	2822.5
878.365	2816.16667
881.931	2847.16667
885.494	2880.83333
889.054	2863.83333
892.612	2882.5
896.166	2829.5
899.719	2817.16667
903.268	2796.16667
906.814	2753.16667
910.358	2785.5
913.899	2751.5
917.438	2748.5
920.973	2739.5
924.506	2789.5
928.036	2817.16667
931.564	2854.5
935.088	2890.5
938.61	2871.5
942.129	2911.83333
945.646	2948.16667
949.16	3020.5
952.671	3086.5
956.179	3128.16667
959.685	3084.83333
963.188	3107.5
966.688	3058.5
970.185	2963.5
973.68	2889.83333
977.173	2891.83333
980.662	2867.16667
984.149	2896.83333
987.633	2860.5
991.114	2934.5
994.593	3020.16667
998.069	3119.83333
1001.542	3181.83333
1005.013	3108.5
1008.481	2970.5
1011.947	2913.83333
1015.409	2920.5
1018.869	2885.83333
1022.327	2898.83333
1025.782	2851.16667
1029.234	2873.83333
1032.683	2849.5
1036.13	2762.83333
1039.574	2659.16667
1043.016	2608.5
1046.455	2568.16667
1049.891	2526.83333
1053.325	2535.83333
1056.756	2558.5
1060.184	2548.83333
1063.61	2561.83333
1067.033	2588.16667
1070.454	2576.16667
1073.872	2616.16667
1077.287	2615.5
1080.7	2638.83333
1084.11	2616.5
1087.517	2606.16667
1090.922	2582.83333
1094.325	2515.16667
1097.724	2504.5
1101.122	2503.16667
1104.516	2483.83333
1107.908	2509.16667
1111.298	2554.83333
1114.684	2563.5
1118.069	2585.16667
1121.45	2617.16667
1124.83	2615.5
1128.206	2649.16667
1131.58	2641.83333
1134.951	2733.5
1138.32	2819.83333
1141.687	2903.16667
1145.05	2989.83333
1148.412	3003.16667
1151.77	3024.5
1155.126	3010.83333
1158.48	2985.5
1161.831	3023.16667
1165.18	3039.16667
1168.525	3080.5
1171.869	3127.83333
1175.21	3125.16667
1178.548	3164.5
1181.884	3194.16667
1185.217	3218.16667
1188.548	3256.5
1191.877	3327.16667
1195.202	3391.83333
1198.526	3443.83333
1201.846	3481.83333
1205.165	3483.5
1208.48	3462.83333
1211.794	3439.83333
1215.104	3444.83333
1218.413	3452.5
1221.719	3460.83333
1225.022	3443.16667
1228.323	3391.83333
1231.621	3392.83333
1234.917	3389.16667
1238.21	3430.5
1241.501	3387.16667
1244.79	3393.5
1248.076	3379.16667
1251.359	3430.5
1254.64	3486.5
1257.919	3515.16667
1261.195	3553.83333
1264.468	3606.5
1267.74	3652.16667
1271.008	3692.83333
1274.275	3663.16667
1277.538	3627.5
1280.8	3601.5
1284.059	3594.5
1287.315	3634.5
1290.569	3674.83333
1293.821	3663.83333
1297.07	3687.5
1300.317	3737.5
1303.562	3669.16667
1306.803	3669.5
1310.043	3639.83333
1313.28	3558.5
1316.515	3520.16667
1319.747	3508.16667
1322.977	3462.5
1326.204	3412.83333
1329.429	3393.83333
1332.652	3369.16667
1335.872	3382.83333
1339.09	3325.16667
1342.306	3341.16667
1345.519	3316.16667
1348.729	3299.16667
1351.938	3267.5
1355.144	3237.83333
1358.347	3177.5
1361.548	3174.16667
1364.747	3212.83333
1367.944	3180.83333
1371.138	3217.5
1374.329	3230.83333
1377.518	3235.83333
1380.705	3272.16667
1383.89	3266.16667
1387.072	3169.5
1390.252	3064.16667
1393.429	2987.5
1396.605	2871.16667
1399.777	2781.16667
1402.948	2773.16667
1406.116	2747.5
1409.282	2758.5
1412.445	2768.16667
1415.606	2801.16667
1418.765	2828.16667
1421.921	2905.16667
1425.075	2938.16667
1428.227	3068.16667
1431.376	3182.5
1434.524	3313.5
1437.668	3383.5
1440.811	3394.83333
1443.951	3405.83333
1447.089	3435.5
1450.224	3427.83333
1453.357	3402.5
1456.488	3368.16667
1459.617	3321.16667
1462.743	3284.83333
1465.867	3197.16667
1468.989	3161.5
1472.108	3103.83333
1475.225	3052.83333
1478.34	2987.16667
1481.453	3002.83333
1484.563	2989.5
1487.671	3021.83333
1490.776	3087.83333
1493.88	3116.83333
1496.981	3192.5
1500.08	3231.5
1503.176	3278.5
1506.271	3361.5
1509.363	3402.83333
1512.452	3444.5
1515.54	3495.83333
1518.625	3569.16667
1521.708	3744.83333
1524.789	3917.5
1527.867	4146.5
1530.944	4394.5
1534.018	4620.5
1537.089	4753.5
1540.159	4717.16667
1543.226	4617.5
1546.291	4452.16667
1549.354	4314.16667
1552.415	4137.16667
1555.473	4031.16667
1558.529	3972.5
1561.583	3919.83333
1564.634	3901.16667
1567.684	3896.5
1570.731	3890.16667
1573.776	3912.16667
1576.819	3933.5
1579.859	3976.16667
1582.898	4006.83333
1585.934	4053.5
1588.968	4105.16667
1591.999	4043.5
1595.029	4070.83333
1598.056	4078.16667
1601.081	4061.5
1604.104	4071.16667
1607.125	4079.16667
1610.144	3983.5
1613.16	3902.83333
1616.174	3802.83333
1619.186	3701.5
1622.196	3603.16667
1625.203	3548.83333
1628.209	3511.5
1631.212	3469.83333
1634.213	3475.83333
1637.212	3480.16667
1640.209	3416.16667
1643.203	3306.5
1646.196	3224.83333
1649.186	3085.83333
1652.174	3009.16667
1655.16	2909.83333
1658.144	2835.83333
1661.125	2697.16667
1664.105	2574.5
1667.082	2459.5
1670.057	2312.83333
1673.03	2156.16667
1676.001	2032.5
1678.97	1896.83333
1681.937	1787.5
1684.901	1718.16667
1687.863	1649.5
1690.824	1572.16667
1693.782	1553.16667
1696.738	1482.83333
1699.692	1465.16667
1702.643	1432.16667
1705.593	1419.83333
1708.54	1402.83333
1711.486	1395.5
1714.429	1362.83333
1717.37	1352.16667
1720.309	1323.83333
1723.246	1316.83333
1726.181	1290.16667
1729.113	1311.5
1732.044	1288.83333
1734.972	1268.16667
1737.899	1264.83333
1740.823	1268.5
1743.745	1250.5
1746.665	1205.83333
1749.583	1191.16667
1752.499	1175.16667
1755.413	1164.16667
1758.325	1139.16667
1761.235	1144.5
1764.142	1110.16667
1767.048	1103.5
1769.951	1099.16667
1772.852	1089.5
1775.752	1083.5
1778.649	1080.16667
1781.544	1080.5
1784.437	1041.5
1787.328	1064.5
1790.217	1060.16667
1793.104	1012.83333
1795.989	1027.16667
1798.872	1024.16667
1801.753	1041.5
1804.631	1025.5
1807.508	1024.16667
1810.383	1018.5
1813.255	1019.5
1816.126	1012.5
1818.994	1016.83333
1821.861	1006.5
1824.725	993.83333
1827.587	987.16667
1830.448	981.16667
1833.306	969.5
1836.162	983.5
1839.017	958.16667
1841.869	964.83333
1844.719	968.5
1847.567	937.83333
1850.414	942.5
1853.258	942.83333
1856.1	952.16667
1858.94	954.83333
1861.778	960.16667
1864.614	939.5
1867.448	947.83333
1870.28	935.83333
1873.111	943.16667
1875.939	934.83333
1878.765	956.83333
1881.589	928.5
1884.411	925.5
1887.231	945.83333
1890.049	925.5
1892.865	930.83333
1895.68	918.83333
1898.492	914.83333
1901.302	897.5
1904.11	911.16667
1906.916	906.83333
1909.721	898.83333
1912.523	905.5
1915.323	877.5
1918.122	894.16667
1920.918	888.83333
1923.712	875.83333
1926.505	887.5
1929.295	860.5
1932.084	880.5
1934.87	884.83333
1937.655	864.5
1940.438	872.83333
1943.218	873.16667
1945.997	886.5
1948.774	885.16667
1951.549	880.16667
1954.322	874.83333
1957.093	878.16667
1959.862	860.5
1962.629	862.5
1965.394	846.5
1968.157	854.83333
1970.918	852.5
1973.678	847.83333
1976.435	850.5
1979.19	836.83333
1981.944	845.5
1984.696	824.83333
1987.445	827.83333
1990.193	834.16667
1992.939	837.16667
1995.683	838.5
1998.425	810.16667
2001.165	834.5
2003.903	812.16667
2006.639	815.5
2009.374	823.16667
2012.106	823.83333
2014.837	792.83333
2017.566	812.83333
2020.292	804.83333
2023.017	819.5
2025.74	805.16667
2028.461	801.16667
2031.18	802.83333
2033.898	791.16667
2036.613	807.16667
2039.327	791.83333
2042.038	782.16667
2044.748	791.5
2047.456	786.83333
2050.162	760.5
2052.866	787.83333
2055.568	797.5
2058.268	778.83333
2060.967	779.83333
2063.663	758.5
2066.358	782.5
2069.051	772.5
2071.742	776.16667
2074.431	778.5
2077.118	769.16667
2079.804	750.16667
2082.487	764.83333
2085.169	777.83333
2087.849	798.16667
2090.527	768.16667
2093.203	779.5
2095.877	788.5
2098.55	778.16667
2101.22	795.5
2103.889	802.5
2106.556	794.5
2109.221	815.16667
2111.884	845.16667
2114.546	894.5
2117.205	946.83333
2119.863	1038.83333
2122.519	1100.5
2125.173	1160.83333
2127.825	1275.83333
2130.475	1270.16667
2133.124	1254.5
2135.771	1197.5
2138.416	1155.16667
2141.059	1074.5
2143.7	1040.16667
2146.339	962.83333
2148.977	910.5
2151.613	893.16667
2154.247	865.83333
2156.879	851.5
2159.51	829.83333
2162.138	800.16667
2164.765	807.5
2167.39	782.83333
2170.013	812.83333
2172.634	800.16667
2175.254	779.83333
2177.872	812.83333
2180.488	757.16667
2183.102	768.5
2185.714	750.83333
2188.325	739.5
2190.934	740.83333
2193.541	728.16667
2196.146	720.16667
2198.75	717.5
2201.351	708.16667
2203.951	696.5
2206.549	697.5
2209.146	704.83333
2211.74	684.16667
2214.333	694.5
2216.924	662.83333
2219.514	680.16667
2222.101	664.5
2224.687	687.5
2227.271	663.83333
2229.853	657.5
2232.433	651.16667
2235.012	668.5
2237.589	672.16667
2240.164	662.16667
2242.738	654.83333
2245.309	635.5
2247.879	651.83333
2250.448	651.5
2253.014	626.5
2255.579	603.5
2258.142	600.83333
2260.703	615.16667
2263.262	614.5
2265.82	607.83333
2268.376	606.16667
2270.93	593.83333
2273.483	584.83333
2276.033	604.83333
2278.583	585.83333
2281.13	579.83333
2283.675	576.16667
2286.219	573.83333
2288.761	581.83333
2291.302	589.83333
2293.841	584.5
2296.377	558.83333
2298.913	566.5
2301.446	592.5
2303.978	567.16667
2306.508	564.16667
2309.037	566.5
2311.563	567.83333
2314.088	575.83333
2316.612	548.16667
2319.133	563.16667
2321.653	555.83333
2324.171	548.16667
2326.688	554.83333
2329.202	547.5
2331.715	555.5
2334.227	539.16667
2336.736	541.16667
2339.244	538.5
2341.751	527.5
2344.255	540.83333
2346.758	535.83333
2349.259	520.5
2351.759	517.83333
2354.257	528.16667
2356.753	525.16667
2359.247	531.83333
2361.74	531.5
2364.231	529.5
2366.721	529.16667
2369.209	511.83333
2371.695	512.83333
2374.179	514.5
2376.662	512.83333
2379.143	533.83333
2381.622	511.5
2384.1	502.16667
2386.576	510.16667
2389.051	526.16667
2391.524	531.5
2393.995	519.16667
2396.464	503.16667
2398.932	498.83333
2401.398	502.5
2403.863	498.5
2406.325	497.83333
2408.787	490.5
2411.246	497.5
2413.704	498.16667
2416.16	485.83333
2418.615	495.5
2421.068	491.16667
2423.519	493.16667
2425.969	481.83333
2428.417	494.16667
2430.863	506.83333
2433.308	499.83333
2435.751	495.83333
2438.193	487.5
2440.633	483.83333
2443.071	490.83333
2445.508	475.83333
2447.943	476.83333
2450.376	470.5
2452.808	485.16667
2455.238	471.16667
2457.667	501.16667
2460.093	481.16667
2462.519	455.5
2464.942	466.16667
2467.365	477.16667
2469.785	476.16667
2472.204	465.5
2474.621	467.16667
2477.037	484.83333
2479.451	452.83333
2481.863	449.83333
2484.274	454.83333
2486.683	472.83333
2489.091	459.83333
2491.497	470.83333
2493.901	460.5
2496.304	457.83333
2498.705	457.83333
2501.105	455.83333
2503.503	486.16667
2505.899	449.16667
2508.294	476.83333
2510.687	439.83333
2513.079	454.16667
2515.469	448.16667
2517.858	442.83333
2520.245	459.83333
2522.63	443.5
2525.014	440.5
2527.396	440.83333
2529.776	439.5
2532.156	430.5
2534.533	424.83333
2536.909	434.16667
2539.283	419.83333
2541.656	427.5
2544.027	456.83333
2546.397	442.16667
2548.765	440.5
2551.131	430.5
2553.496	439.5
2555.86	442.83333
2558.221	443.5
2560.582	427.16667
2562.94	427.5
2565.298	421.83333
2567.653	441.5
2570.007	415.83333
2572.36	436.83333
2574.711	421.83333
2577.06	435.16667
2579.408	429.5
2581.754	425.5
2584.099	428.5
2586.442	418.16667
2588.784	430.5
2591.124	428.16667
2593.463	418.16667
2595.8	428.83333
2598.135	404.5
2600.469	412.16667
2602.802	440.16667
2605.133	429.83333
2607.462	419.16667
2609.79	413.83333
2612.116	411.5
2614.441	418.5
2616.764	419.5
2619.086	417.16667
2621.406	409.83333
2623.725	431.5
2626.042	426.83333
2628.358	412.83333
2630.672	407.5
2632.985	426.83333
2635.296	418.83333
2637.606	416.5
2639.914	403.5
2642.22	416.83333
2644.525	416.16667
2646.829	425.5
2649.131	425.83333
2651.432	430.83333
2653.731	419.83333
2656.028	436.16667
2658.324	423.5
2660.619	412.16667
2662.912	425.83333
2665.204	414.16667
2667.494	431.16667
2669.782	414.83333
2672.07	427.5
2674.355	431.83333
2676.639	418.5
2678.922	421.5
2681.203	423.5
2683.483	405.5
2685.761	408.5
2688.038	429.83333
2690.313	449.5
2692.587	425.83333
2694.859	418.16667
2697.13	423.16667
2699.399	420.83333
2701.667	444.5
2703.933	441.5
2706.198	438.5
2708.461	448.16667
2710.723	462.5
2712.984	449.5
2715.243	451.83333
2717.5	448.83333
2719.757	456.5
2722.011	452.5
2724.264	469.83333
2726.516	477.5
2728.766	452.5
2731.015	469.83333
2733.262	460.16667
2735.508	457.16667
2737.753	455.5
2739.996	435.5
2742.237	443.5
2744.477	452.5
2746.716	448.5
2748.953	440.83333
2751.189	442.5
2753.423	442.5
2755.656	435.16667
2757.887	421.5
2760.117	439.5
2762.346	422.83333
2764.573	421.5
2766.798	424.16667
2769.022	425.83333
2771.245	428.16667
2773.467	426.16667
2775.686	426.5
2777.905	437.5
2780.122	444.5
2782.337	446.83333
2784.552	444.16667
2786.764	455.16667
2788.976	445.83333
2791.186	460.16667
2793.394	464.16667
2795.601	472.5
2797.807	485.5
2800.011	484.83333
2802.214	498.5
2804.415	497.16667
2806.615	498.16667
2808.814	504.16667
2811.011	515.83333
2813.206	506.5
2815.401	531.5
2817.594	540.83333
2819.785	547.16667
2821.975	540.16667
2824.164	541.16667
2826.351	576.16667
2828.537	580.83333
2830.722	598.5
2832.905	614.16667
2835.086	647.5
2837.267	663.5
2839.445	697.5
2841.623	704.83333
2843.799	745.83333
2845.974	786.16667
2848.147	821.16667
2850.319	831.83333
2852.489	881.83333
2854.659	861.83333
2856.826	901.83333
2858.993	912.5
2861.158	908.5
2863.321	905.16667
2865.483	921.16667
2867.644	933.83333
2869.804	924.83333
2871.962	920.83333
2874.118	912.16667
2876.274	904.5
2878.428	912.83333
2880.58	897.5
2882.731	896.16667
2884.881	890.5
2887.03	896.83333
2889.177	889.83333
2891.322	915.5
2893.467	896.83333
2895.61	902.5
2897.751	934.16667
2899.892	916.16667
2902.03	935.83333
2904.168	932.16667
2906.304	932.5
2908.439	953.16667
2910.572	942.5
2912.704	952.5
2914.835	968.83333
2916.965	941.83333
2919.093	970.16667
2921.219	920.83333
2923.345	960.5
2925.469	916.16667
2927.591	908.5
2929.712	874.83333
2931.832	859.5
2933.951	849.5
2936.068	835.5
2938.184	807.16667
2940.299	773.5
2942.412	745.83333
2944.524	720.16667
2946.634	699.83333
2948.744	657.5
2950.851	674.5
2952.958	631.83333
2955.063	626.83333
2957.167	606.16667
2959.269	570.5
2961.371	596.83333
2963.471	544.83333
2965.569	552.5
2967.666	524.5
2969.762	507.5
2971.857	486.5
2973.95	481.5
2976.042	471.83333
2978.133	448.83333
2980.222	449.16667
2982.31	422.83333
2984.396	416.83333
2986.482	409.16667
2988.566	414.83333
2990.648	400.16667
2992.73	394.16667
2994.81	372.16667
2996.889	395.5
2998.966	378.16667
3001.042	382.83333
3003.117	380.5
3005.191	375.16667
3007.263	361.16667
3009.334	362.16667
3011.403	362.16667
3013.472	345.83333
3015.539	346.83333
3017.604	358.5
3019.669	318.5
3021.732	326.83333
3023.794	330.5
3025.854	315.16667
3027.914	315.5
3029.971	321.16667
3032.028	311.5
3034.083	320.83333
3036.137	315.16667
3038.19	296.83333
3040.242	290.83333
3042.292	286.16667
3044.341	283.16667
3046.388	293.5
3048.435	264.5
3050.48	297.16667
3052.524	278.83333
3054.566	257.83333
3056.607	274.83333
3058.647	263.16667
3060.686	248.5
3062.723	243.16667
3064.759	233.16667
3066.794	0.83333
3068.828	-1.16667
3070.86	-2.16667
