-0.839	456.625
3.438	491.625
7.711	129.625
11.981	53.95833
16.247	46.29167
20.509	49.29167
24.768	45.95833
29.024	47.625
33.276	41.625
37.524	47.95833
41.769	42.625
46.01	37.625
50.247	50.29167
54.481	60.29167
58.712	65.95833
62.939	47.95833
67.162	62.29167
71.382	60.625
75.599	51.29167
79.812	64.625
84.021	84.625
88.227	61.625
92.429	67.625
96.628	52.625
100.823	70.95833
105.015	79.95833
109.204	83.29167
113.388	80.625
117.57	83.29167
121.748	93.29167
125.922	87.95833
130.093	106.95833
134.261	117.625
138.425	106.95833
142.585	155.95833
146.742	158.29167
150.896	189.29167
155.046	239.95833
159.193	403.625
163.336	692.95833
167.476	1282.95833
171.613	2333.29167
175.746	3880.29167
179.875	5681.95833
184.002	7374.95833
188.124	8380.95833
192.244	8625.95833
196.36	8493.95833
200.472	8153.95833
204.581	7845.95833
208.687	7615.95833
212.79	7430.29167
216.889	7399.625
220.984	7407.625
225.077	7412.29167
229.165	7510.95833
233.251	7532.95833
237.333	7540.625
241.412	7489.95833
245.487	7477.95833
249.559	7379.95833
253.628	7289.29167
257.694	7185.95833
261.756	7094.95833
265.814	6957.29167
269.87	6748.95833
273.922	6536.625
277.97	6410.29167
282.016	6278.95833
286.058	6248.29167
290.097	6280.29167
294.132	6260.29167
298.164	6233.95833
302.193	5920.29167
306.219	5465.29167
310.241	4963.95833
314.26	4516.29167
318.276	4145.625
322.288	3861.29167
326.297	3639.95833
330.303	3467.95833
334.305	3347.625
338.305	3241.29167
342.301	3203.625
346.294	3144.625
350.283	3119.95833
354.269	3056.95833
358.252	3033.29167
362.232	3016.625
366.209	2958.625
370.182	2931.29167
374.152	2893.95833
378.119	2922.29167
382.083	2884.29167
386.043	2879.95833
390	2835.29167
393.954	2826.29167
397.905	2811.95833
401.852	2791.625
405.797	2766.29167
409.738	2720.95833
413.676	2719.625
417.61	2688.95833
421.542	2642.95833
425.47	2637.95833
429.396	2602.625
433.318	2589.29167
437.236	2606.29167
441.152	2597.625
445.065	2508.625
448.974	2526.625
452.88	2485.625
456.783	2483.29167
460.683	2451.29167
464.58	2441.29167
468.473	2437.29167
472.364	2430.95833
476.251	2462.29167
480.135	2453.29167
484.016	2505.625
487.894	2492.95833
491.769	2520.95833
495.641	2533.95833
499.509	2526.95833
503.375	2508.625
507.237	2512.95833
511.096	2513.625
514.952	2496.29167
518.805	2514.625
522.655	2504.95833
526.502	2485.625
530.346	2492.29167
534.187	2514.625
538.024	2520.29167
541.859	2494.29167
545.69	2523.29167
549.519	2531.625
553.344	2500.95833
557.166	2462.95833
560.985	2432.29167
564.802	2407.95833
568.615	2349.625
572.425	2301.625
576.232	2321.29167
580.036	2293.625
583.836	2306.29167
587.634	2312.95833
591.429	2298.95833
595.221	2351.625
599.01	2379.625
602.796	2397.625
606.578	2422.625
610.358	2437.29167
614.135	2403.625
617.909	2415.95833
621.679	2384.29167
625.447	2394.625
629.212	2398.625
632.973	2388.95833
636.732	2388.29167
640.488	2400.29167
644.241	2347.625
647.991	2348.29167
651.737	2363.29167
655.481	2350.625
659.222	2328.95833
662.96	2347.625
666.695	2354.29167
670.427	2342.625
674.156	2363.29167
677.882	2390.29167
681.605	2374.625
685.325	2352.29167
689.043	2385.625
692.757	2359.29167
696.468	2374.95833
700.177	2367.625
703.882	2355.95833
707.585	2352.625
711.284	2366.29167
714.981	2348.95833
718.675	2378.29167
722.366	2374.625
726.054	2347.625
729.739	2371.625
733.421	2373.95833
737.1	2366.29167
740.777	2398.625
744.45	2402.95833
748.121	2420.95833
751.789	2501.625
755.453	2489.29167
759.115	2499.29167
762.774	2510.625
766.431	2534.625
770.084	2578.29167
773.734	2596.29167
777.382	2656.29167
781.027	2682.29167
784.669	2687.625
788.308	2711.95833
791.944	2714.625
795.577	2744.95833
799.208	2782.29167
802.835	2794.29167
806.46	2803.29167
810.082	2860.95833
813.701	2872.95833
817.317	2867.29167
820.931	2872.95833
824.542	2883.95833
828.149	2875.625
831.754	2831.625
835.357	2840.625
838.956	2819.625
842.553	2839.95833
846.146	2806.29167
849.737	2807.29167
853.326	2800.625
856.911	2836.625
860.493	2888.29167
864.073	2912.95833
867.65	2967.29167
871.225	3003.625
874.796	2984.29167
878.365	2999.95833
881.931	3049.95833
885.494	3042.29167
889.054	3050.29167
892.612	3079.95833
896.166	3016.625
899.719	2976.29167
903.268	2959.95833
906.814	2952.95833
910.358	2933.625
913.899	2921.29167
917.438	2917.29167
920.973	2905.95833
924.506	2956.95833
928.036	2978.29167
931.564	2993.95833
935.088	3029.625
938.61	3049.625
942.129	3084.29167
945.646	3143.29167
949.16	3240.625
952.671	3298.95833
956.179	3351.95833
959.685	3310.95833
963.188	3254.625
966.688	3189.29167
970.185	3115.95833
973.68	3060.95833
977.173	3042.95833
980.662	3021.95833
984.149	3021.625
987.633	3044.29167
991.114	3087.29167
994.593	3190.625
998.069	3293.95833
1001.542	3397.29167
1005.013	3283.625
1008.481	3169.625
1011.947	3098.95833
1015.409	3066.625
1018.869	3087.625
1022.327	3060.625
1025.782	3029.625
1029.234	3027.29167
1032.683	2984.29167
1036.13	2883.625
1039.574	2797.95833
1043.016	2706.95833
1046.455	2688.29167
1049.891	2633.95833
1053.325	2630.29167
1056.756	2639.625
1060.184	2658.625
1063.61	2675.29167
1067.033	2698.625
1070.454	2680.625
1073.872	2735.29167
1077.287	2715.29167
1080.7	2727.29167
1084.11	2733.625
1087.517	2717.625
1090.922	2684.95833
1094.325	2655.95833
1097.724	2665.625
1101.122	2641.95833
1104.516	2634.625
1107.908	2645.625
1111.298	2702.625
1114.684	2725.95833
1118.069	2764.29167
1121.45	2794.95833
1124.83	2792.29167
1128.206	2841.29167
1131.58	2890.29167
1134.951	2995.95833
1138.32	3092.625
1141.687	3238.29167
1145.05	3355.625
1148.412	3400.29167
1151.77	3361.95833
1155.126	3378.29167
1158.48	3400.95833
1161.831	3417.625
1165.18	3418.625
1168.525	3483.95833
1171.869	3537.29167
1175.21	3582.625
1178.548	3602.95833
1181.884	3618.625
1185.217	3619.95833
1188.548	3676.29167
1191.877	3720.29167
1195.202	3788.625
1198.526	3821.625
1201.846	3802.29167
1205.165	3796.95833
1208.48	3778.29167
1211.794	3743.29167
1215.104	3744.625
1218.413	3740.625
1221.719	3754.29167
1225.022	3682.625
1228.323	3630.625
1231.621	3641.625
1234.917	3616.625
1238.21	3666.95833
1241.501	3637.29167
1244.79	3648.95833
1248.076	3689.625
1251.359	3713.625
1254.64	3765.29167
1257.919	3791.29167
1261.195	3848.625
1264.468	3959.29167
1267.74	4013.625
1271.008	4026.29167
1274.275	3996.29167
1277.538	3936.625
1280.8	3937.625
1284.059	3931.29167
1287.315	3972.29167
1290.569	3993.625
1293.821	4015.95833
1297.07	4018.625
1300.317	4030.95833
1303.562	4018.625
1306.803	3961.625
1310.043	3959.95833
1313.28	3897.625
1316.515	3825.625
1319.747	3806.95833
1322.977	3742.625
1326.204	3658.95833
1329.429	3612.29167
1332.652	3588.95833
1335.872	3614.625
1339.09	3537.95833
1342.306	3564.625
1345.519	3522.29167
1348.729	3501.625
1351.938	3490.95833
1355.144	3395.95833
1358.347	3408.625
1361.548	3374.29167
1364.747	3392.29167
1367.944	3399.29167
1371.138	3420.29167
1374.329	3456.29167
1377.518	3497.625
1380.705	3546.625
1383.89	3513.29167
1387.072	3419.625
1390.252	3288.29167
1393.429	3174.95833
1396.605	3069.625
1399.777	2974.29167
1402.948	2961.95833
1406.116	2933.29167
1409.282	2939.625
1412.445	2934.95833
1415.606	2975.29167
1418.765	3018.95833
1421.921	3057.625
1425.075	3131.625
1428.227	3251.29167
1431.376	3405.95833
1434.524	3538.95833
1437.668	3614.95833
1440.811	3627.625
1443.951	3693.29167
1447.089	3680.625
1450.224	3699.95833
1453.357	3700.29167
1456.488	3643.625
1459.617	3598.625
1462.743	3603.625
1465.867	3488.625
1468.989	3490.29167
1472.108	3441.95833
1475.225	3395.29167
1478.34	3371.95833
1481.453	3353.625
1484.563	3385.625
1487.671	3417.625
1490.776	3534.95833
1493.88	3607.29167
1496.981	3661.29167
1500.08	3723.95833
1503.176	3794.29167
1506.271	3903.29167
1509.363	3943.29167
1512.452	3974.95833
1515.54	4073.29167
1518.625	4163.29167
1521.708	4300.95833
1524.789	4522.625
1527.867	4788.29167
1530.944	5067.29167
1534.018	5323.29167
1537.089	5460.95833
1540.159	5408.95833
1543.226	5321.95833
1546.291	5145.625
1549.354	5002.29167
1552.415	4842.625
1555.473	4703.625
1558.529	4649.625
1561.583	4589.625
1564.634	4557.95833
1567.684	4550.625
1570.731	4550.29167
1573.776	4582.95833
1576.819	4625.95833
1579.859	4707.29167
1582.898	4722.95833
1585.934	4781.29167
1588.968	4801.29167
1591.999	4740.29167
1595.029	4733.95833
1598.056	4737.625
1601.081	4732.95833
1604.104	4699.625
1607.125	4657.95833
1610.144	4540.625
1613.16	4438.625
1616.174	4332.29167
1619.186	4197.95833
1622.196	4112.29167
1625.203	4000.95833
1628.209	3878.95833
1631.212	3845.29167
1634.213	3772.625
1637.212	3730.95833
1640.209	3645.29167
1643.203	3494.625
1646.196	3372.625
1649.186	3245.625
1652.174	3156.625
1655.16	3020.29167
1658.144	2910.95833
1661.125	2761.95833
1664.105	2651.625
1667.082	2537.95833
1670.057	2381.29167
1673.03	2268.95833
1676.001	2134.95833
1678.97	1992.625
1681.937	1869.29167
1684.901	1785.29167
1687.863	1722.625
1690.824	1647.29167
1693.782	1627.95833
1696.738	1556.625
1699.692	1518.625
1702.643	1472.29167
1705.593	1473.625
1708.54	1458.29167
1711.486	1449.95833
1714.429	1413.29167
1717.37	1380.29167
1720.309	1369.625
1723.246	1383.95833
1726.181	1338.29167
1729.113	1330.625
1732.044	1321.95833
1734.972	1309.29167
1737.899	1306.29167
1740.823	1294.625
1743.745	1295.625
1746.665	1261.625
1749.583	1224.625
1752.499	1203.95833
1755.413	1199.29167
1758.325	1165.29167
1761.235	1159.29167
1764.142	1135.625
1767.048	1122.29167
1769.951	1124.95833
1772.852	1105.29167
1775.752	1095.625
1778.649	1106.625
1781.544	1105.29167
1784.437	1059.95833
1787.328	1084.95833
1790.217	1070.95833
1793.104	1049.29167
1795.989	1056.29167
1798.872	1038.95833
1801.753	1069.625
1804.631	1050.95833
1807.508	1044.625
1810.383	1048.29167
1813.255	1034.625
1816.126	1018.625
1818.994	1029.625
1821.861	1015.95833
1824.725	1020.29167
1827.587	1009.625
1830.448	1002.625
1833.306	984.625
1836.162	997.625
1839.017	978.95833
1841.869	984.29167
1844.719	974.625
1847.567	961.95833
1850.414	962.625
1853.258	950.625
1856.1	963.29167
1858.94	982.29167
1861.778	951.625
1864.614	950.95833
1867.448	955.95833
1870.28	955.625
1873.111	961.625
1875.939	964.95833
1878.765	971.625
1881.589	955.625
1884.411	945.29167
1887.231	962.625
1890.049	960.95833
1892.865	951.29167
1895.68	939.625
1898.492	940.95833
1901.302	930.29167
1904.11	912.625
1906.916	908.95833
1909.721	915.95833
1912.523	918.29167
1915.323	899.625
1918.122	912.29167
1920.918	906.95833
1923.712	909.29167
1926.505	906.95833
1929.295	880.625
1932.084	905.29167
1934.87	906.625
1937.655	893.29167
1940.438	882.29167
1943.218	890.625
1945.997	895.625
1948.774	899.95833
1951.549	895.29167
1954.322	887.95833
1957.093	895.625
1959.862	869.95833
1962.629	877.29167
1965.394	872.625
1968.157	857.29167
1970.918	874.29167
1973.678	843.29167
1976.435	871.625
1979.19	857.29167
1981.944	857.95833
1984.696	860.625
1987.445	855.29167
1990.193	845.29167
1992.939	866.95833
1995.683	851.95833
1998.425	827.625
2001.165	864.29167
2003.903	847.95833
2006.639	829.29167
2009.374	833.29167
2012.106	846.29167
2014.837	814.95833
2017.566	834.625
2020.292	833.625
2023.017	832.625
2025.74	829.29167
2028.461	828.95833
2031.18	811.625
2033.898	821.29167
2036.613	820.95833
2039.327	812.95833
2042.038	807.625
2044.748	840.625
2047.456	1380.625
2050.162	824.625
2052.866	845.95833
2055.568	894.625
2058.268	797.95833
2060.967	805.29167
2063.663	789.29167
2066.358	790.29167
2069.051	785.95833
2071.742	794.29167
2074.431	801.29167
2077.118	778.29167
2079.804	781.95833
2082.487	784.29167
2085.169	804.29167
2087.849	802.95833
2090.527	792.29167
2093.203	808.625
2095.877	816.95833
2098.55	819.625
2101.22	823.625
2103.889	839.29167
2106.556	839.95833
2109.221	869.29167
2111.884	877.95833
2114.546	948.29167
2117.205	999.29167
2119.863	1098.29167
2122.519	1163.95833
2125.173	1250.95833
2127.825	1350.625
2130.475	1370.95833
2133.124	1359.625
2135.771	1301.625
2138.416	1243.29167
2141.059	1176.29167
2143.7	1125.95833
2146.339	1054.625
2148.977	987.625
2151.613	972.625
2154.247	938.625
2156.879	911.625
2159.51	892.95833
2162.138	887.625
2164.765	871.95833
2167.39	854.95833
2170.013	876.625
2172.634	861.29167
2175.254	841.625
2177.872	873.29167
2180.488	826.29167
2183.102	833.625
2185.714	816.95833
2188.325	800.29167
2190.934	799.95833
2193.541	798.95833
2196.146	788.625
2198.75	764.625
2201.351	761.95833
2203.951	737.29167
2206.549	761.625
2209.146	756.625
2211.74	739.625
2214.333	743.29167
2216.924	727.29167
2219.514	734.29167
2222.101	702.95833
2224.687	719.95833
2227.271	711.29167
2229.853	692.95833
2232.433	694.95833
2235.012	714.625
2237.589	692.95833
2240.164	702.29167
2242.738	689.29167
2245.309	674.95833
2247.879	680.95833
2250.448	687.95833
2253.014	664.625
2255.579	640.29167
2258.142	636.95833
2260.703	631.29167
2263.262	632.95833
2265.82	629.95833
2268.376	641.625
2270.93	617.625
2273.483	623.95833
2276.033	626.625
2278.583	613.95833
2281.13	606.29167
2283.675	603.29167
2286.219	609.29167
2288.761	606.29167
2291.302	598.95833
2293.841	604.29167
2296.377	578.95833
2298.913	576.625
2301.446	604.95833
2303.978	593.625
2306.508	586.29167
2309.037	598.29167
2311.563	590.29167
2314.088	588.625
2316.612	569.625
2319.133	584.625
2321.653	578.625
2324.171	565.29167
2326.688	575.625
2329.202	565.625
2331.715	572.95833
2334.227	564.29167
2336.736	568.29167
2339.244	561.29167
2341.751	546.29167
2344.255	561.95833
2346.758	557.29167
2349.259	549.625
2351.759	558.95833
2354.257	554.29167
2356.753	539.625
2359.247	540.95833
2361.74	552.95833
2364.231	544.29167
2366.721	545.95833
2369.209	538.95833
2371.695	538.625
2374.179	534.625
2376.662	530.95833
2379.143	544.95833
2381.622	543.95833
2384.1	528.95833
2386.576	526.625
2389.051	547.625
2391.524	548.29167
2393.995	543.625
2396.464	525.625
2398.932	516.29167
2401.398	526.625
2403.863	513.95833
2406.325	514.95833
2408.787	522.29167
2411.246	513.625
2413.704	513.625
2416.16	505.95833
2418.615	516.625
2421.068	517.29167
2423.519	521.625
2425.969	499.95833
2428.417	515.29167
2430.863	525.29167
2433.308	519.95833
2435.751	510.95833
2438.193	503.625
2440.633	515.625
2443.071	504.29167
2445.508	490.29167
2447.943	498.95833
2450.376	488.625
2452.808	501.95833
2455.238	494.95833
2457.667	516.625
2460.093	490.29167
2462.519	479.95833
2464.942	489.95833
2467.365	501.625
2469.785	495.95833
2472.204	485.29167
2474.621	476.95833
2477.037	498.95833
2479.451	473.29167
2481.863	470.625
2484.274	473.29167
2486.683	482.29167
2489.091	482.625
2491.497	476.95833
2493.901	472.95833
2496.304	471.625
2498.705	483.95833
2501.105	466.29167
2503.503	494.625
2505.899	459.29167
2508.294	483.95833
2510.687	466.29167
2513.079	461.625
2515.469	466.95833
2517.858	458.625
2520.245	486.29167
2522.63	465.29167
2525.014	451.625
2527.396	458.95833
2529.776	457.625
2532.156	460.625
2534.533	441.625
2536.909	453.625
2539.283	436.29167
2541.656	444.29167
2544.027	474.95833
2546.397	461.29167
2548.765	449.29167
2551.131	449.625
2553.496	446.29167
2555.86	455.29167
2558.221	448.29167
2560.582	448.29167
2562.94	436.95833
2565.298	445.29167
2567.653	461.95833
2570.007	429.29167
2572.36	446.29167
2574.711	441.625
2577.06	454.29167
2579.408	438.625
2581.754	445.29167
2584.099	438.29167
2586.442	435.625
2588.784	442.29167
2591.124	435.29167
2593.463	436.95833
2595.8	434.625
2598.135	421.95833
2600.469	432.29167
2602.802	443.29167
2605.133	448.95833
2607.462	427.625
2609.79	426.95833
2612.116	437.29167
2614.441	434.625
2616.764	441.29167
2619.086	427.625
2621.406	438.29167
2623.725	449.95833
2626.042	432.625
2628.358	424.95833
2630.672	427.625
2632.985	434.95833
2635.296	435.29167
2637.606	443.95833
2639.914	431.95833
2642.22	430.29167
2644.525	430.29167
2646.829	432.95833
2649.131	444.625
2651.432	442.625
2653.731	430.95833
2656.028	448.95833
2658.324	434.29167
2660.619	427.625
2662.912	447.95833
2665.204	432.625
2667.494	440.95833
2669.782	428.29167
2672.07	442.95833
2674.355	447.625
2676.639	427.625
2678.922	437.29167
2681.203	434.95833
2683.483	425.95833
2685.761	424.625
2688.038	443.625
2690.313	460.95833
2692.587	443.625
2694.859	441.29167
2697.13	431.95833
2699.399	449.625
2701.667	453.625
2703.933	456.29167
2706.198	459.625
2708.461	462.29167
2710.723	461.625
2712.984	459.625
2715.243	467.29167
2717.5	459.625
2719.757	479.625
2722.011	460.29167
2724.264	475.95833
2726.516	496.625
2728.766	466.95833
2731.015	476.29167
2733.262	470.625
2735.508	462.625
2737.753	456.95833
2739.996	450.625
2742.237	461.625
2744.477	460.29167
2746.716	460.625
2748.953	457.29167
2751.189	459.29167
2753.423	447.29167
2755.656	439.29167
2757.887	440.29167
2760.117	442.625
2762.346	430.95833
2764.573	430.29167
2766.798	431.95833
2769.022	442.95833
2771.245	445.95833
2773.467	441.625
2775.686	447.95833
2777.905	451.29167
2780.122	447.95833
2782.337	457.29167
2784.552	447.95833
2786.764	464.625
2788.976	461.29167
2791.186	466.625
2793.394	474.625
2795.601	491.625
2797.807	496.625
2800.011	492.29167
2802.214	515.625
2804.415	513.625
2806.615	503.95833
2808.814	530.625
2811.011	522.625
2813.206	527.29167
2815.401	543.29167
2817.594	552.625
2819.785	582.95833
2821.975	567.625
2824.164	573.95833
2826.351	604.95833
2828.537	620.29167
2830.722	630.625
2832.905	640.29167
2835.086	671.95833
2837.267	720.95833
2839.445	734.29167
2841.623	763.29167
2843.799	792.95833
2845.974	836.625
2848.147	878.95833
2850.319	898.29167
2852.489	939.29167
2854.659	940.95833
2856.826	966.95833
2858.993	967.95833
2861.158	973.29167
2863.321	965.625
2865.483	989.95833
2867.644	986.625
2869.804	991.29167
2871.962	990.625
2874.118	988.29167
2876.274	982.29167
2878.428	972.95833
2880.58	971.625
2882.731	951.625
2884.881	962.625
2887.03	963.29167
2889.177	965.95833
2891.322	973.95833
2893.467	965.625
2895.61	983.95833
2897.751	1004.29167
2899.892	995.95833
2902.03	1002.95833
2904.168	1021.29167
2906.304	1016.29167
2908.439	1023.95833
2910.572	1030.625
2912.704	1026.625
2914.835	1036.625
2916.965	1025.29167
2919.093	1051.95833
2921.219	999.625
2923.345	1015.625
2925.469	994.625
2927.591	999.95833
2929.712	952.29167
2931.832	956.29167
2933.951	928.29167
2936.068	889.29167
2938.184	870.95833
2940.299	827.95833
2942.412	812.29167
2944.524	781.95833
2946.634	762.95833
2948.744	701.95833
2950.851	729.29167
2952.958	670.625
2955.063	659.29167
2957.167	647.625
2959.269	604.29167
2961.371	628.95833
2963.471	583.29167
2965.569	582.625
2967.666	550.29167
2969.762	527.95833
2971.857	518.95833
2973.95	503.29167
2976.042	496.625
2978.133	485.29167
2980.222	466.625
2982.31	437.29167
2984.396	432.95833
2986.482	417.625
2988.566	422.29167
2990.648	409.95833
2992.73	410.95833
2994.81	396.625
2996.889	397.95833
2998.966	389.29167
3001.042	395.29167
3003.117	375.625
3005.191	375.29167
3007.263	368.625
3009.334	368.95833
3011.403	369.95833
3013.472	350.625
3015.539	351.29167
3017.604	362.625
3019.669	327.625
3021.732	328.29167
3023.794	336.29167
3025.854	314.625
3027.914	307.625
3029.971	321.29167
3032.028	314.625
3034.083	317.29167
3036.137	315.29167
3038.19	289.625
3040.242	292.29167
3042.292	279.625
3044.341	282.95833
3046.388	296.625
3048.435	267.95833
3050.48	281.29167
3052.524	281.29167
3054.566	253.95833
3056.607	281.29167
3058.647	259.29167
3060.686	244.29167
3062.723	244.95833
3064.759	235.29167
3066.794	-0.04167
3068.828	-2.70833
3070.86	-1.04167
