-0.839	155
3.438	176
7.711	70
11.981	46.33333
16.247	35.66667
20.509	37.66667
24.768	34
29.024	44
33.276	34
37.524	39.66667
41.769	28.33333
46.01	26.33333
50.247	44.33333
54.481	50.66667
58.712	57.66667
62.939	39.33333
67.162	57.66667
71.382	40.66667
75.599	38
79.812	46.33333
84.021	64
88.227	41
92.429	53
96.628	35.33333
100.823	50.33333
105.015	51.66667
109.204	46.33333
113.388	57.66667
117.57	48
121.748	64.33333
125.922	50.66667
130.093	66
134.261	65.33333
138.425	56
142.585	88
146.742	65.66667
150.896	83
155.046	81
159.193	120
163.336	175.66667
167.476	301
171.613	547
175.746	887.66667
179.875	1288.33333
184.002	1684.66667
188.124	1983
192.244	2076.66667
196.36	2082.33333
200.472	2068.33333
204.581	2039
208.687	1952.66667
212.79	1975.33333
216.889	1971
220.984	2016.33333
225.077	2019
229.165	2010.66667
233.251	2032.66667
237.333	2036.66667
241.412	2012
245.487	1975.33333
249.559	1966.33333
253.628	1970.33333
257.694	1939.66667
261.756	1933.66667
265.814	1885.33333
269.87	1844.66667
273.922	1780
277.97	1759.66667
282.016	1731.33333
286.058	1716.33333
290.097	1733
294.132	1737.66667
298.164	1737.33333
302.193	1663.66667
306.219	1596.66667
310.241	1496.33333
314.26	1399.33333
318.276	1331.66667
322.288	1301.33333
326.297	1252.66667
330.303	1228
334.305	1226.33333
338.305	1211
342.301	1189.33333
346.294	1183.33333
350.283	1187.33333
354.269	1177.66667
358.252	1173
362.232	1171.66667
366.209	1196
370.182	1159.33333
374.152	1155
378.119	1157.66667
382.083	1156.66667
386.043	1170
390	1146.66667
393.954	1145.66667
397.905	1155.66667
401.852	1188
405.797	1152.33333
409.738	1161.66667
413.676	1170.33333
417.61	1172.33333
421.542	1169
425.47	1138.66667
429.396	1134
433.318	1126.33333
437.236	1128.66667
441.152	1164
445.065	1112.33333
448.974	1128.33333
452.88	1104.33333
456.783	1104.66667
460.683	1108
464.58	1108
468.473	1117.33333
472.364	1106.33333
476.251	1114.33333
480.135	1108
484.016	1126
487.894	1134.33333
491.769	1133
495.641	1135.33333
499.509	1141.33333
503.375	1133.66667
507.237	1121.66667
511.096	1128
514.952	1123.33333
518.805	1137
522.655	1123.66667
526.502	1123.66667
530.346	1121.33333
534.187	1128.66667
538.024	1127
541.859	1112.66667
545.69	1130.66667
549.519	1107
553.344	1105.33333
557.166	1096
560.985	1087.66667
564.802	1098.33333
568.615	1079.33333
572.425	1045.66667
576.232	1053.33333
580.036	1050.66667
583.836	1062.66667
587.634	1070
591.429	1063.33333
595.221	1090.33333
599.01	1094
602.796	1080.33333
606.578	1091
610.358	1103.33333
614.135	1085.33333
617.909	1103
621.679	1083.66667
625.447	1071.33333
629.212	1082.33333
632.973	1092
636.732	1063.33333
640.488	1085.66667
644.241	1043.66667
647.991	1060
651.737	1093.66667
655.481	1054
659.222	1063
662.96	1084.33333
666.695	1080.66667
670.427	1069
674.156	1083.33333
677.882	1075
681.605	1063.33333
685.325	1053.66667
689.043	1079.66667
692.757	1048.66667
696.468	1057.33333
700.177	1046.66667
703.882	1027
707.585	1034.66667
711.284	1029
714.981	1010.66667
718.675	1020
722.366	1045.66667
726.054	1018.66667
729.739	1020.33333
733.421	1022
737.1	1014.33333
740.777	1041.66667
744.45	1036.33333
748.121	1027.66667
751.789	1059
755.453	1039.33333
759.115	1045.66667
762.774	1044.33333
766.431	1052.66667
770.084	1063
773.734	1042
777.382	1094.66667
781.027	1068.66667
784.669	1069
788.308	1056.66667
791.944	1084.33333
795.577	1087.66667
799.208	1081.66667
802.835	1095
806.46	1104
810.082	1109.66667
813.701	1112
817.317	1122
820.931	1124.33333
824.542	1134.66667
828.149	1095.66667
831.754	1080.33333
835.357	1072
838.956	1083
842.553	1072.33333
846.146	1057.33333
849.737	1038
853.326	1048.66667
856.911	1033.33333
860.493	1068.33333
864.073	1057.33333
867.65	1069.66667
871.225	1089.66667
874.796	1067.66667
878.365	1057
881.931	1076.33333
885.494	1093
889.054	1085.66667
892.612	1084
896.166	1062.33333
899.719	1038.33333
903.268	1040.33333
906.814	1056
910.358	1038
913.899	1038
917.438	1025.33333
920.973	1015
924.506	1026
928.036	1047.33333
931.564	1071.66667
935.088	1078.33333
938.61	1061.33333
942.129	1065.33333
945.646	1075.66667
949.16	1069.33333
952.671	1102.33333
956.179	1110
959.685	1118.66667
963.188	1134
966.688	1124
970.185	1081
973.68	1040.33333
977.173	1029
980.662	1015.66667
984.149	1024.33333
987.633	1009
991.114	1015.33333
994.593	1041.66667
998.069	1041.66667
1001.542	1073.66667
1005.013	1079.66667
1008.481	1007.33333
1011.947	1006
1015.409	994.33333
1018.869	980.33333
1022.327	1000.33333
1025.782	975
1029.234	962.33333
1032.683	963.33333
1036.13	934.33333
1039.574	899
1043.016	885.33333
1046.455	883.66667
1049.891	875.33333
1053.325	876
1056.756	858
1060.184	885
1063.61	862
1067.033	883
1070.454	878
1073.872	901
1077.287	872.66667
1080.7	874.33333
1084.11	873
1087.517	877.66667
1090.922	859.33333
1094.325	860
1097.724	835.66667
1101.122	846.33333
1104.516	840.33333
1107.908	827.33333
1111.298	845.33333
1114.684	848
1118.069	850.66667
1121.45	884.33333
1124.83	861
1128.206	872
1131.58	876
1134.951	889
1138.32	902.66667
1141.687	941.66667
1145.05	947.66667
1148.412	956.66667
1151.77	955.33333
1155.126	943.66667
1158.48	940.33333
1161.831	938.66667
1165.18	940.33333
1168.525	957
1171.869	971.66667
1175.21	960
1178.548	968.66667
1181.884	983.66667
1185.217	986.33333
1188.548	1006
1191.877	1026.33333
1195.202	1060.33333
1198.526	1092.66667
1201.846	1092.66667
1205.165	1081.66667
1208.48	1089.33333
1211.794	1088.66667
1215.104	1093
1218.413	1072.66667
1221.719	1084.66667
1225.022	1060.66667
1228.323	1037.66667
1231.621	1049.66667
1234.917	1041.66667
1238.21	1061
1241.501	1038
1244.79	1020
1248.076	1008
1251.359	1024.33333
1254.64	1077.33333
1257.919	1042
1261.195	1071.33333
1264.468	1065.33333
1267.74	1090.33333
1271.008	1080.33333
1274.275	1097.66667
1277.538	1092.66667
1280.8	1081.66667
1284.059	1070.33333
1287.315	1079.33333
1290.569	1086.33333
1293.821	1100.66667
1297.07	1103
1300.317	1093.33333
1303.562	1105.66667
1306.803	1092.33333
1310.043	1085
1313.28	1092.33333
1316.515	1090
1319.747	1086.66667
1322.977	1085
1326.204	1065.33333
1329.429	1054.33333
1332.652	1069.33333
1335.872	1060
1339.09	1050.66667
1342.306	1038
1345.519	1042.66667
1348.729	1040.33333
1351.938	1045
1355.144	1031.33333
1358.347	1031
1361.548	1018
1364.747	1010.66667
1367.944	992
1371.138	1004.33333
1374.329	997
1377.518	994.66667
1380.705	997.66667
1383.89	989.33333
1387.072	964.33333
1390.252	943
1393.429	917
1396.605	886.33333
1399.777	849.66667
1402.948	852.33333
1406.116	837
1409.282	844.33333
1412.445	837.33333
1415.606	848.33333
1418.765	852.33333
1421.921	880.33333
1425.075	877
1428.227	892.66667
1431.376	931.66667
1434.524	951
1437.668	989.33333
1440.811	983.66667
1443.951	1005
1447.089	993.33333
1450.224	995.66667
1453.357	1000.66667
1456.488	986.33333
1459.617	980
1462.743	970.33333
1465.867	937.66667
1468.989	943.66667
1472.108	922
1475.225	913.66667
1478.34	901.66667
1481.453	900
1484.563	888.66667
1487.671	906.33333
1490.776	911.66667
1493.88	915
1496.981	931.66667
1500.08	940.66667
1503.176	937.33333
1506.271	953
1509.363	969.66667
1512.452	966.66667
1515.54	982.66667
1518.625	988
1521.708	1023.66667
1524.789	1044.66667
1527.867	1064.33333
1530.944	1132
1534.018	1137.66667
1537.089	1206.66667
1540.159	1206.66667
1543.226	1208
1546.291	1169
1549.354	1158.66667
1552.415	1127
1555.473	1113.33333
1558.529	1088.66667
1561.583	1085.66667
1564.634	1078.33333
1567.684	1089.66667
1570.731	1081
1573.776	1094.33333
1576.819	1117.66667
1579.859	1119
1582.898	1128.66667
1585.934	1157
1588.968	1146.33333
1591.999	1134.66667
1595.029	1130.33333
1598.056	1137.33333
1601.081	1145.66667
1604.104	1157.33333
1607.125	1136
1610.144	1127.66667
1613.16	1084
1616.174	1074.33333
1619.186	1065.66667
1622.196	1036
1625.203	1007.33333
1628.209	1019
1631.212	1009.33333
1634.213	1022.33333
1637.212	1057.66667
1640.209	1053
1643.203	1029.33333
1646.196	980.66667
1649.186	940.66667
1652.174	906.66667
1655.16	881
1658.144	857.33333
1661.125	814.66667
1664.105	790.33333
1667.082	754
1670.057	706.33333
1673.03	660.33333
1676.001	639
1678.97	606.33333
1681.937	588
1684.901	532.33333
1687.863	545
1690.824	504.33333
1693.782	521
1696.738	488.33333
1699.692	487.66667
1702.643	466.66667
1705.593	482
1708.54	465.33333
1711.486	467
1714.429	440
1717.37	458.33333
1720.309	440.33333
1723.246	452.66667
1726.181	430.33333
1729.113	423
1732.044	444.66667
1734.972	425.66667
1737.899	436.66667
1740.823	447.33333
1743.745	457
1746.665	418.66667
1749.583	408.66667
1752.499	415
1755.413	402
1758.325	386.66667
1761.235	397
1764.142	379
1767.048	391.33333
1769.951	388.33333
1772.852	389.33333
1775.752	395.66667
1778.649	393.66667
1781.544	400.33333
1784.437	362.66667
1787.328	386.33333
1790.217	373
1793.104	352
1795.989	356.66667
1798.872	355
1801.753	371.33333
1804.631	359.66667
1807.508	366.33333
1810.383	360.66667
1813.255	365
1816.126	351
1818.994	364
1821.861	354
1824.725	361.66667
1827.587	359.66667
1830.448	354.66667
1833.306	340
1836.162	361
1839.017	341.66667
1841.869	345.33333
1844.719	342.66667
1847.567	333.33333
1850.414	328.66667
1853.258	328
1856.1	339.66667
1858.94	353.33333
1861.778	339.66667
1864.614	330.66667
1867.448	339.66667
1870.28	317.33333
1873.111	343
1875.939	338.66667
1878.765	345.33333
1881.589	328
1884.411	338
1887.231	340
1890.049	327.33333
1892.865	338.33333
1895.68	318.66667
1898.492	324.33333
1901.302	322.33333
1904.11	317
1906.916	326
1909.721	316.33333
1912.523	326.66667
1915.323	314.33333
1918.122	305
1920.918	326.33333
1923.712	299.33333
1926.505	308.66667
1929.295	308
1932.084	329.66667
1934.87	305.66667
1937.655	306.66667
1940.438	304
1943.218	310.33333
1945.997	307.66667
1948.774	316.33333
1951.549	308.33333
1954.322	298.66667
1957.093	306.33333
1959.862	295.33333
1962.629	298.66667
1965.394	299.66667
1968.157	284.33333
1970.918	306.33333
1973.678	293.66667
1976.435	301.33333
1979.19	288
1981.944	284.33333
1984.696	290.33333
1987.445	288.33333
1990.193	288.33333
1992.939	303.66667
1995.683	293.33333
1998.425	274.33333
2001.165	308.66667
2003.903	265.66667
2006.639	284.33333
2009.374	284.33333
2012.106	287.33333
2014.837	261.66667
2017.566	291
2020.292	279
2023.017	272.66667
2025.74	272
2028.461	270.33333
2031.18	273.66667
2033.898	264.33333
2036.613	272.33333
2039.327	275.33333
2042.038	267
2044.748	270.66667
2047.456	273.33333
2050.162	265.66667
2052.866	264.33333
2055.568	278.66667
2058.268	261
2060.967	272.66667
2063.663	255.66667
2066.358	261
2069.051	255.66667
2071.742	260
2074.431	267.66667
2077.118	252.33333
2079.804	249
2082.487	258.33333
2085.169	270
2087.849	282.33333
2090.527	252.66667
2093.203	254
2095.877	264.66667
2098.55	260.66667
2101.22	266.66667
2103.889	264.33333
2106.556	256.33333
2109.221	276.33333
2111.884	259.66667
2114.546	285
2117.205	290.33333
2119.863	326
2122.519	311.33333
2125.173	334.66667
2127.825	359.66667
2130.475	365
2133.124	336.66667
2135.771	328.33333
2138.416	345
2141.059	303.66667
2143.7	312.33333
2146.339	283
2148.977	266
2151.613	271
2154.247	267.66667
2156.879	265.66667
2159.51	252.33333
2162.138	254.33333
2164.765	254
2167.39	241.66667
2170.013	263.66667
2172.634	249
2175.254	247.66667
2177.872	281.33333
2180.488	236.33333
2183.102	244
2185.714	237.33333
2188.325	230.66667
2190.934	236
2193.541	242
2196.146	234
2198.75	224
2201.351	224
2203.951	215.33333
2206.549	234
2209.146	231.33333
2211.74	212.66667
2214.333	225
2216.924	215.66667
2219.514	216
2222.101	217
2224.687	227.33333
2227.271	207
2229.853	210
2232.433	203
2235.012	226
2237.589	215.33333
2240.164	231.66667
2242.738	210.66667
2245.309	202.66667
2247.879	228
2250.448	213.33333
2253.014	198
2255.579	200.66667
2258.142	207.33333
2260.703	198.66667
2263.262	197
2265.82	197.33333
2268.376	211.33333
2270.93	195.33333
2273.483	190.33333
2276.033	199.66667
2278.583	195.66667
2281.13	189.66667
2283.675	182
2286.219	187
2288.761	201.66667
2291.302	203.66667
2293.841	205.33333
2296.377	181
2298.913	195.33333
2301.446	205
2303.978	189
2306.508	189
2309.037	192.66667
2311.563	189.66667
2314.088	193.33333
2316.612	177
2319.133	188.66667
2321.653	193
2324.171	182.33333
2326.688	192.66667
2329.202	189.33333
2331.715	188.33333
2334.227	186.33333
2336.736	187
2339.244	182
2341.751	171
2344.255	194
2346.758	187.66667
2349.259	175.33333
2351.759	182.66667
2354.257	167.66667
2356.753	173
2359.247	168.33333
2361.74	178
2364.231	175.33333
2366.721	182.33333
2369.209	174.66667
2371.695	178
2374.179	167.33333
2376.662	162
2379.143	186.66667
2381.622	171.66667
2384.1	181.33333
2386.576	170.33333
2389.051	182.66667
2391.524	181.33333
2393.995	176.66667
2396.464	166.33333
2398.932	166.66667
2401.398	172.66667
2403.863	162.66667
2406.325	167
2408.787	168
2411.246	169.66667
2413.704	166
2416.16	167.66667
2418.615	164.66667
2421.068	167
2423.519	164.33333
2425.969	158
2428.417	176.66667
2430.863	183.33333
2433.308	172.33333
2435.751	168.66667
2438.193	167
2440.633	170
2443.071	169
2445.508	161
2447.943	158.66667
2450.376	156
2452.808	169.33333
2455.238	151.66667
2457.667	185
2460.093	155
2462.519	147
2464.942	154
2467.365	158
2469.785	163
2472.204	157.33333
2474.621	152
2477.037	173.33333
2479.451	147.33333
2481.863	145.66667
2484.274	150
2486.683	157
2489.091	168
2491.497	166
2493.901	161.33333
2496.304	156.66667
2498.705	161
2501.105	154.66667
2503.503	175.66667
2505.899	148.33333
2508.294	170
2510.687	148.66667
2513.079	151.33333
2515.469	142.66667
2517.858	147
2520.245	166.33333
2522.63	151.33333
2525.014	148
2527.396	135
2529.776	148.66667
2532.156	154.66667
2534.533	142.33333
2536.909	139
2539.283	129.66667
2541.656	142.66667
2544.027	153.33333
2546.397	149.66667
2548.765	144
2551.131	146.66667
2553.496	150.66667
2555.86	148.66667
2558.221	151.66667
2560.582	139.33333
2562.94	136.66667
2565.298	143.33333
2567.653	159.66667
2570.007	130.33333
2572.36	147.66667
2574.711	136
2577.06	154.66667
2579.408	144.66667
2581.754	143.66667
2584.099	140
2586.442	139.33333
2588.784	146
2591.124	146
2593.463	140.66667
2595.8	150.33333
2598.135	125.33333
2600.469	132.66667
2602.802	147.66667
2605.133	147.66667
2607.462	133.33333
2609.79	129.66667
2612.116	147.66667
2614.441	141
2616.764	139.66667
2619.086	136
2621.406	134
2623.725	144.33333
2626.042	140
2628.358	135.66667
2630.672	141.33333
2632.985	148
2635.296	136.66667
2637.606	138.33333
2639.914	136
2642.22	131.33333
2644.525	136.66667
2646.829	138.33333
2649.131	148.66667
2651.432	139.33333
2653.731	134.66667
2656.028	146.66667
2658.324	141
2660.619	127.33333
2662.912	145
2665.204	129
2667.494	143.33333
2669.782	127.66667
2672.07	148.66667
2674.355	149.66667
2676.639	141.33333
2678.922	132
2681.203	143.33333
2683.483	135
2685.761	127.66667
2688.038	138.33333
2690.313	149
2692.587	134
2694.859	135.66667
2697.13	139.66667
2699.399	138.33333
2701.667	144
2703.933	145.33333
2706.198	149
2708.461	150.66667
2710.723	148.33333
2712.984	137
2715.243	153.33333
2717.5	143.66667
2719.757	149.66667
2722.011	145.33333
2724.264	154.66667
2726.516	155
2728.766	137.66667
2731.015	144.66667
2733.262	140
2735.508	138.33333
2737.753	151.66667
2739.996	128
2742.237	131
2744.477	148
2746.716	151.66667
2748.953	151.66667
2751.189	151
2753.423	144.66667
2755.656	136.33333
2757.887	128.66667
2760.117	134.33333
2762.346	133
2764.573	120.66667
2766.798	128
2769.022	132.66667
2771.245	127.66667
2773.467	136.66667
2775.686	129.33333
2777.905	133.33333
2780.122	136
2782.337	136
2784.552	131.33333
2786.764	135
2788.976	133.66667
2791.186	137.33333
2793.394	136.66667
2795.601	143
2797.807	136.66667
2800.011	135.33333
2802.214	143.66667
2804.415	141
2806.615	143.66667
2808.814	143.66667
2811.011	142.33333
2813.206	145.33333
2815.401	155.33333
2817.594	160.33333
2819.785	160.66667
2821.975	142
2824.164	149.66667
2826.351	147.33333
2828.537	167
2830.722	156.66667
2832.905	157
2835.086	164.66667
2837.267	181
2839.445	176.33333
2841.623	180.66667
2843.799	184
2845.974	189.66667
2848.147	195.66667
2850.319	207.66667
2852.489	212.66667
2854.659	216
2856.826	211.33333
2858.993	240
2861.158	210
2863.321	217
2865.483	232.66667
2867.644	233.33333
2869.804	232.66667
2871.962	226
2874.118	227.33333
2876.274	237.33333
2878.428	233.33333
2880.58	239
2882.731	225
2884.881	233
2887.03	228.66667
2889.177	229
2891.322	248.33333
2893.467	233.66667
2895.61	221.33333
2897.751	241.33333
2899.892	228
2902.03	235
2904.168	236.66667
2906.304	237.66667
2908.439	253.66667
2910.572	233.66667
2912.704	239.33333
2914.835	248
2916.965	240.33333
2919.093	263.33333
2921.219	221.66667
2923.345	256.66667
2925.469	238.33333
2927.591	236
2929.712	219.33333
2931.832	235.66667
2933.951	230
2936.068	226.33333
2938.184	219.66667
2940.299	208
2942.412	207.33333
2944.524	192.33333
2946.634	203
2948.744	174
2950.851	209.66667
2952.958	180.66667
2955.063	185.66667
2957.167	175.33333
2959.269	165.33333
2961.371	193.33333
2963.471	157.66667
2965.569	178.66667
2967.666	154.66667
2969.762	156.33333
2971.857	148.33333
2973.95	138.66667
2976.042	153.33333
2978.133	141.66667
2980.222	141.33333
2982.31	129
2984.396	122
2986.482	123.66667
2988.566	126.33333
2990.648	133.33333
2992.73	131
2994.81	120
2996.889	129.66667
2998.966	125
3001.042	136.33333
3003.117	113
3005.191	128.33333
3007.263	129.33333
3009.334	122.33333
3011.403	126.33333
3013.472	121.33333
3015.539	132.33333
3017.604	141.66667
3019.669	106.33333
3021.732	115.66667
3023.794	119.66667
3025.854	106.33333
3027.914	106.33333
3029.971	106.33333
3032.028	112.33333
3034.083	120.66667
3036.137	108.33333
3038.19	100
3040.242	97
3042.292	95.33333
3044.341	104
3046.388	118
3048.435	95.66667
3050.48	113.66667
3052.524	104
3054.566	87.66667
3056.607	103.33333
3058.647	95.66667
3060.686	86
3062.723	81.66667
3064.759	82
3066.794	0
3068.828	0.66667
3070.86	2.66667
