-0.839	142.16667
3.438	158.83333
7.711	65.5
11.981	44.83333
16.247	33.16667
20.509	37.83333
24.768	34.16667
29.024	45.5
33.276	30.16667
37.524	42.5
41.769	29.83333
46.01	25.5
50.247	42.83333
54.481	46.16667
58.712	53.5
62.939	34.83333
67.162	57.83333
71.382	45.5
75.599	36.83333
79.812	42.16667
84.021	60.16667
88.227	39.5
92.429	50.83333
96.628	37.5
100.823	51.5
105.015	52.83333
109.204	45.83333
113.388	61.5
117.57	41.83333
121.748	53.5
125.922	48.83333
130.093	61.16667
134.261	62.5
138.425	52.16667
142.585	86.5
146.742	62.5
150.896	77.16667
155.046	71.5
159.193	103.5
163.336	159.5
167.476	269.83333
171.613	476.5
175.746	779.5
179.875	1120.16667
184.002	1454.83333
188.124	1723.16667
192.244	1815.16667
196.36	1817.83333
200.472	1797.83333
204.581	1787.16667
208.687	1731.5
212.79	1719.16667
216.889	1745.16667
220.984	1762.16667
225.077	1773.83333
229.165	1785.83333
233.251	1786.5
237.333	1798.16667
241.412	1783.83333
245.487	1761.5
249.559	1746.83333
253.628	1761.5
257.694	1729.83333
261.756	1734.83333
265.814	1682.5
269.87	1651.83333
273.922	1602.5
277.97	1578.16667
282.016	1585.83333
286.058	1560.83333
290.097	1603.16667
294.132	1604.16667
298.164	1595.83333
302.193	1561.5
306.219	1456.16667
310.241	1377.16667
314.26	1272.16667
318.276	1215.16667
322.288	1186.5
326.297	1139.5
330.303	1117.83333
334.305	1108.83333
338.305	1093.16667
342.301	1076.83333
346.294	1085.16667
350.283	1066.16667
354.269	1050.5
358.252	1053.5
362.232	1051.5
366.209	1056.5
370.182	1046.83333
374.152	1047.5
378.119	1042.16667
382.083	1043.5
386.043	1044.5
390	1047.16667
393.954	1052.16667
397.905	1058.5
401.852	1068.16667
405.797	1051.83333
409.738	1059.5
413.676	1091.83333
417.61	1088.83333
421.542	1067.5
425.47	1034.83333
429.396	1023.83333
433.318	1011.5
437.236	1017.5
441.152	1052.83333
445.065	1001.5
448.974	1006.5
452.88	1005.5
456.783	1005.5
460.683	997.16667
464.58	1000.16667
468.473	1007.83333
472.364	1007.5
476.251	1007.16667
480.135	1012.5
484.016	1030.5
487.894	1024.16667
491.769	1030.5
495.641	1017.16667
499.509	1026.83333
503.375	1021.16667
507.237	1021.83333
511.096	1013.16667
514.952	1022.5
518.805	1037.83333
522.655	1038.83333
526.502	1023.16667
530.346	1027.83333
534.187	1032.5
538.024	1011.83333
541.859	1013.83333
545.69	1042.5
549.519	1028.83333
553.344	1007.5
557.166	994.5
560.985	994.83333
564.802	1001.83333
568.615	979.16667
572.425	971.5
576.232	961.83333
580.036	965.83333
583.836	976.5
587.634	977.16667
591.429	967.5
595.221	999.5
599.01	989.5
602.796	984.83333
606.578	1003.5
610.358	1005.16667
614.135	985.16667
617.909	993.16667
621.679	979.83333
625.447	981.16667
629.212	984.5
632.973	963.5
636.732	980.5
640.488	991.16667
644.241	956.5
647.991	964.83333
651.737	993.16667
655.481	960.5
659.222	955.83333
662.96	948.83333
666.695	962.83333
670.427	969.5
674.156	981.5
677.882	971.16667
681.605	973.83333
685.325	955.83333
689.043	987.83333
692.757	952.16667
696.468	965.5
700.177	948.83333
703.882	940.5
707.585	937.83333
711.284	940.16667
714.981	932.5
718.675	933.5
722.366	954.5
726.054	926.16667
729.739	922.5
733.421	939.5
737.1	925.5
740.777	946.5
744.45	934.83333
748.121	945.5
751.789	965.5
755.453	954.16667
759.115	957.16667
762.774	963.16667
766.431	976.83333
770.084	963.83333
773.734	959.83333
777.382	975.83333
781.027	977.83333
784.669	960.5
788.308	963.16667
791.944	979.5
795.577	982.16667
799.208	995.5
802.835	1000.16667
806.46	998.83333
810.082	1003.16667
813.701	1001.16667
817.317	1015.16667
820.931	1001.16667
824.542	1009.16667
828.149	1006.5
831.754	992.83333
835.357	983.16667
838.956	1000.83333
842.553	991.16667
846.146	968.16667
849.737	967.5
853.326	961.83333
856.911	950.83333
860.493	974.5
864.073	979.83333
867.65	1012.5
871.225	1011.16667
874.796	977.16667
878.365	976.16667
881.931	989.83333
885.494	1000.5
889.054	987.5
892.612	992.16667
896.166	982.5
899.719	963.83333
903.268	952.83333
906.814	947.16667
910.358	942.5
913.899	925.16667
917.438	942.83333
920.973	909.83333
924.506	937.5
928.036	962.83333
931.564	958.83333
935.088	981.16667
938.61	962.16667
942.129	955.16667
945.646	981.16667
949.16	994.83333
952.671	1000.5
956.179	1012.83333
959.685	995.5
963.188	1016.83333
966.688	999.16667
970.185	957.5
973.68	954.16667
977.173	939.83333
980.662	913.83333
984.149	929.16667
987.633	909.5
991.114	929.83333
994.593	953.83333
998.069	951.5
1001.542	975.83333
1005.013	978.83333
1008.481	923.16667
1011.947	913.16667
1015.409	895.16667
1018.869	903.16667
1022.327	907.16667
1025.782	887.16667
1029.234	883.5
1032.683	879.83333
1036.13	846.5
1039.574	834.16667
1043.016	801.83333
1046.455	801.83333
1049.891	782.5
1053.325	806.5
1056.756	798.16667
1060.184	792.16667
1063.61	788.16667
1067.033	802.83333
1070.454	789.16667
1073.872	820.16667
1077.287	786.16667
1080.7	789.83333
1084.11	792.5
1087.517	796.16667
1090.922	783.83333
1094.325	757.83333
1097.724	766.83333
1101.122	761.83333
1104.516	765.16667
1107.908	756.5
1111.298	768.83333
1114.684	783.83333
1118.069	777.16667
1121.45	793.16667
1124.83	774.5
1128.206	789.5
1131.58	804.83333
1134.951	816.16667
1138.32	834.83333
1141.687	861.5
1145.05	857.83333
1148.412	867.16667
1151.77	858.5
1155.126	861.16667
1158.48	838.5
1161.831	849.5
1165.18	848.16667
1168.525	875.16667
1171.869	890.16667
1175.21	882.5
1178.548	883.5
1181.884	889.16667
1185.217	898.83333
1188.548	925.16667
1191.877	927.83333
1195.202	979.83333
1198.526	975.83333
1201.846	982.83333
1205.165	991.83333
1208.48	988.5
1211.794	980.16667
1215.104	991.83333
1218.413	985.16667
1221.719	974.16667
1225.022	968.5
1228.323	951.16667
1231.621	959.83333
1234.917	930.5
1238.21	967.5
1241.501	941.83333
1244.79	927.83333
1248.076	907.83333
1251.359	938.16667
1254.64	981.83333
1257.919	947.5
1261.195	967.16667
1264.468	975.83333
1267.74	996.5
1271.008	987.83333
1274.275	999.5
1277.538	976.83333
1280.8	987.83333
1284.059	983.16667
1287.315	989.83333
1290.569	996.16667
1293.821	1003.83333
1297.07	998.5
1300.317	1000.16667
1303.562	1013.83333
1306.803	999.5
1310.043	990.83333
1313.28	987.5
1316.515	978.16667
1319.747	987.16667
1322.977	969.16667
1326.204	964.16667
1329.429	951.16667
1332.652	934.83333
1335.872	950.16667
1339.09	946.5
1342.306	943.5
1345.519	917.83333
1348.729	919.16667
1351.938	936.83333
1355.144	920.5
1358.347	906.5
1361.548	913.16667
1364.747	901.5
1367.944	898.16667
1371.138	891.5
1374.329	909.5
1377.518	888.83333
1380.705	883.83333
1383.89	890.5
1387.072	871.5
1390.252	855.5
1393.429	832.16667
1396.605	801.16667
1399.777	777.5
1402.948	774.83333
1406.116	764.83333
1409.282	767.16667
1412.445	768.16667
1415.606	763.5
1418.765	775.5
1421.921	790.5
1425.075	800.5
1428.227	812.83333
1431.376	838.83333
1434.524	857.16667
1437.668	894.5
1440.811	891.5
1443.951	888.16667
1447.089	910.5
1450.224	903.83333
1453.357	886.16667
1456.488	890.83333
1459.617	899.83333
1462.743	891.16667
1465.867	840.16667
1468.989	843.5
1472.108	824.16667
1475.225	814.5
1478.34	807.16667
1481.453	796.5
1484.563	802.5
1487.671	806.5
1490.776	831.16667
1493.88	827.16667
1496.981	845.83333
1500.08	836.83333
1503.176	854.16667
1506.271	862.16667
1509.363	877.16667
1512.452	867.5
1515.54	879.16667
1518.625	890.83333
1521.708	919.5
1524.789	951.5
1527.867	970.5
1530.944	1008.83333
1534.018	1018.83333
1537.089	1091.16667
1540.159	1089.16667
1543.226	1099.83333
1546.291	1076.5
1549.354	1057.16667
1552.415	1039.16667
1555.473	1012.5
1558.529	1007.16667
1561.583	999.83333
1564.634	979.83333
1567.684	990.83333
1570.731	982.83333
1573.776	985.16667
1576.819	986.83333
1579.859	996.83333
1582.898	1014.83333
1585.934	1026.5
1588.968	1024.5
1591.999	1012.5
1595.029	1014.16667
1598.056	1021.16667
1601.081	1033.16667
1604.104	1027.16667
1607.125	1001.16667
1610.144	991.83333
1613.16	978.16667
1616.174	957.5
1619.186	950.83333
1622.196	920.5
1625.203	891.5
1628.209	893.83333
1631.212	873.83333
1634.213	880.5
1637.212	897.5
1640.209	884.5
1643.203	851.16667
1646.196	837.83333
1649.186	808.83333
1652.174	803.5
1655.16	764.83333
1658.144	766.83333
1661.125	727.5
1664.105	700.83333
1667.082	684.83333
1670.057	637.83333
1673.03	605.83333
1676.001	586.5
1678.97	547.16667
1681.937	520.16667
1684.901	499.83333
1687.863	490.83333
1690.824	455.83333
1693.782	470.83333
1696.738	435.16667
1699.692	441.16667
1702.643	417.5
1705.593	418.16667
1708.54	415.5
1711.486	421.5
1714.429	403.5
1717.37	411.83333
1720.309	396.16667
1723.246	405.16667
1726.181	387.5
1729.113	387.83333
1732.044	391.5
1734.972	384.83333
1737.899	401.5
1740.823	399.16667
1743.745	418.16667
1746.665	375.83333
1749.583	359.83333
1752.499	365.83333
1755.413	359.5
1758.325	352.16667
1761.235	362.83333
1764.142	341.16667
1767.048	347.16667
1769.951	347.5
1772.852	343.16667
1775.752	355.5
1778.649	356.16667
1781.544	367.83333
1784.437	335.16667
1787.328	340.83333
1790.217	337.83333
1793.104	323.5
1795.989	324.5
1798.872	324.83333
1801.753	341.16667
1804.631	324.16667
1807.508	334.16667
1810.383	322.83333
1813.255	322.83333
1816.126	314.5
1818.994	313.83333
1821.861	319.5
1824.725	318.5
1827.587	329.16667
1830.448	316.83333
1833.306	311.16667
1836.162	325.83333
1839.017	323.83333
1841.869	308.83333
1844.719	308.16667
1847.567	289.83333
1850.414	299.83333
1853.258	301.5
1856.1	310.5
1858.94	323.5
1861.778	314.5
1864.614	297.16667
1867.448	299.83333
1870.28	287.16667
1873.111	310.16667
1875.939	300.16667
1878.765	320.5
1881.589	296.5
1884.411	301.5
1887.231	309.16667
1890.049	304.5
1892.865	307.83333
1895.68	292.5
1898.492	303.16667
1901.302	292.83333
1904.11	291.16667
1906.916	288.83333
1909.721	284.16667
1912.523	301.5
1915.323	280.16667
1918.122	278.5
1920.918	294.83333
1923.712	280.83333
1926.505	288.5
1929.295	271.16667
1932.084	290.16667
1934.87	285.5
1937.655	279.16667
1940.438	274.16667
1943.218	271.83333
1945.997	283.5
1948.774	284.16667
1951.549	282.16667
1954.322	277.5
1957.093	275.5
1959.862	263.16667
1962.629	277.5
1965.394	266.5
1968.157	264.16667
1970.918	280.16667
1973.678	266.16667
1976.435	272.83333
1979.19	262.83333
1981.944	248.5
1984.696	261.16667
1987.445	261.83333
1990.193	257.83333
1992.939	275.5
1995.683	260.16667
1998.425	242.16667
2001.165	278.16667
2003.903	250.16667
2006.639	259.16667
2009.374	262.5
2012.106	256.16667
2014.837	242.83333
2017.566	263.5
2020.292	249.16667
2023.017	247.83333
2025.74	250.5
2028.461	240.83333
2031.18	249.83333
2033.898	245.16667
2036.613	246.16667
2039.327	254.5
2042.038	237.5
2044.748	242.16667
2047.456	248.83333
2050.162	234.5
2052.866	235.5
2055.568	251.83333
2058.268	238.16667
2060.967	245.16667
2063.663	232.83333
2066.358	234.16667
2069.051	230.83333
2071.742	241.5
2074.431	246.16667
2077.118	233.5
2079.804	225.5
2082.487	237.16667
2085.169	246.83333
2087.849	256.16667
2090.527	235.5
2093.203	239.16667
2095.877	237.5
2098.55	242.83333
2101.22	246.5
2103.889	251.5
2106.556	234.5
2109.221	253.5
2111.884	251.16667
2114.546	267.16667
2117.205	268.5
2119.863	303.5
2122.519	307.5
2125.173	316.5
2127.825	350.83333
2130.475	351.16667
2133.124	330.83333
2135.771	318.5
2138.416	327.83333
2141.059	291.5
2143.7	295.16667
2146.339	276.5
2148.977	246.16667
2151.613	266.83333
2154.247	253.83333
2156.879	250.16667
2159.51	230.5
2162.138	234.83333
2164.765	230.83333
2167.39	225.83333
2170.013	242.5
2172.634	241.83333
2175.254	222.16667
2177.872	266.16667
2180.488	213.5
2183.102	221.16667
2185.714	224.83333
2188.325	215.83333
2190.934	215.5
2193.541	221.5
2196.146	217.16667
2198.75	203.83333
2201.351	207.83333
2203.951	194.83333
2206.549	211.5
2209.146	206.5
2211.74	193.5
2214.333	208.16667
2216.924	191.5
2219.514	199.83333
2222.101	201.5
2224.687	210.16667
2227.271	188.83333
2229.853	193.5
2232.433	176.83333
2235.012	204.83333
2237.589	200.16667
2240.164	213.83333
2242.738	191.83333
2245.309	184.16667
2247.879	205.83333
2250.448	204.16667
2253.014	184.83333
2255.579	178.5
2258.142	188.83333
2260.703	189.5
2263.262	182.16667
2265.82	178.5
2268.376	191.16667
2270.93	183.5
2273.483	177.83333
2276.033	186.5
2278.583	176.5
2281.13	175.5
2283.675	168.83333
2286.219	170.5
2288.761	183.5
2291.302	185.16667
2293.841	192.83333
2296.377	169.16667
2298.913	178.83333
2301.446	186.5
2303.978	180.5
2306.508	171.5
2309.037	182.5
2311.563	182.83333
2314.088	181.16667
2316.612	165.5
2319.133	175.16667
2321.653	173.83333
2324.171	170.5
2326.688	177.83333
2329.202	174.83333
2331.715	171.16667
2334.227	173.83333
2336.736	172.83333
2339.244	167.83333
2341.751	163.5
2344.255	172.83333
2346.758	171.83333
2349.259	159.5
2351.759	173.5
2354.257	159.83333
2356.753	155.16667
2359.247	160.83333
2361.74	161.5
2364.231	158.5
2366.721	176.83333
2369.209	161.5
2371.695	164.16667
2374.179	155.83333
2376.662	151.5
2379.143	170.5
2381.622	160.16667
2384.1	166.5
2386.576	160.83333
2389.051	171.16667
2391.524	172.16667
2393.995	164.83333
2396.464	155.83333
2398.932	156.16667
2401.398	161.83333
2403.863	149.5
2406.325	153.16667
2408.787	162.16667
2411.246	158.5
2413.704	152.83333
2416.16	151.83333
2418.615	150.83333
2421.068	160.83333
2423.519	150.16667
2425.969	148.5
2428.417	164.83333
2430.863	173.5
2433.308	161.5
2435.751	155.16667
2438.193	155.83333
2440.633	165.5
2443.071	161.83333
2445.508	152.83333
2447.943	156.16667
2450.376	145.83333
2452.808	156.5
2455.238	145.16667
2457.667	173.83333
2460.093	148.16667
2462.519	139.5
2464.942	142.83333
2467.365	149.83333
2469.785	153.16667
2472.204	145.5
2474.621	141.83333
2477.037	167.83333
2479.451	136.83333
2481.863	138.16667
2484.274	140.16667
2486.683	145.5
2489.091	158.16667
2491.497	150.83333
2493.901	146.16667
2496.304	143.16667
2498.705	152.5
2501.105	146.5
2503.503	166.83333
2505.899	140.83333
2508.294	159.16667
2510.687	134.83333
2513.079	145.5
2515.469	132.83333
2517.858	140.5
2520.245	157.16667
2522.63	143.83333
2525.014	138.5
2527.396	137.16667
2529.776	137.83333
2532.156	148.16667
2534.533	129.5
2536.909	137.5
2539.283	117.83333
2541.656	135.5
2544.027	153.83333
2546.397	141.83333
2548.765	136.5
2551.131	140.16667
2553.496	140.83333
2555.86	144.5
2558.221	143.5
2560.582	136.16667
2562.94	131.83333
2565.298	139.5
2567.653	145.83333
2570.007	131.83333
2572.36	146.16667
2574.711	131.5
2577.06	147.5
2579.408	136.83333
2581.754	135.16667
2584.099	134.16667
2586.442	132.5
2588.784	137.16667
2591.124	132.83333
2593.463	133.16667
2595.8	142.16667
2598.135	126.16667
2600.469	124.5
2602.802	139.16667
2605.133	145.16667
2607.462	126.16667
2609.79	117.5
2612.116	142.5
2614.441	128.83333
2616.764	134.5
2619.086	134.5
2621.406	127.5
2623.725	141.16667
2626.042	128.83333
2628.358	122.83333
2630.672	136.83333
2632.985	139.83333
2635.296	137.16667
2637.606	135.5
2639.914	128.16667
2642.22	128.16667
2644.525	137.5
2646.829	133.83333
2649.131	146.83333
2651.432	136.5
2653.731	130.5
2656.028	138.16667
2658.324	135.16667
2660.619	120.83333
2662.912	137.83333
2665.204	119.5
2667.494	136.16667
2669.782	125.83333
2672.07	142.83333
2674.355	147.16667
2676.639	134.5
2678.922	126.83333
2681.203	140.5
2683.483	132.5
2685.761	126.5
2688.038	135.83333
2690.313	145.5
2692.587	131.83333
2694.859	130.5
2697.13	135.16667
2699.399	135.5
2701.667	138.5
2703.933	133.16667
2706.198	140.5
2708.461	142.83333
2710.723	144.83333
2712.984	136.83333
2715.243	148.5
2717.5	135.5
2719.757	148.5
2722.011	137.16667
2724.264	144.5
2726.516	154.5
2728.766	139.16667
2731.015	140.5
2733.262	137.5
2735.508	135.83333
2737.753	139.83333
2739.996	126.16667
2742.237	129.5
2744.477	146.83333
2746.716	154.5
2748.953	142.83333
2751.189	149.16667
2753.423	147.5
2755.656	130.83333
2757.887	123.83333
2760.117	130.16667
2762.346	123.83333
2764.573	117.16667
2766.798	131.16667
2769.022	132.16667
2771.245	128.16667
2773.467	126.16667
2775.686	129.83333
2777.905	138.5
2780.122	131.5
2782.337	137.16667
2784.552	126.16667
2786.764	132.83333
2788.976	131.16667
2791.186	131.16667
2793.394	134.83333
2795.601	144.83333
2797.807	142.16667
2800.011	140.16667
2802.214	156.83333
2804.415	142.16667
2806.615	143.5
2808.814	141.16667
2811.011	147.83333
2813.206	150.5
2815.401	156.83333
2817.594	160.16667
2819.785	155.83333
2821.975	144.16667
2824.164	152.16667
2826.351	146.16667
2828.537	163.16667
2830.722	165.83333
2832.905	163.5
2835.086	165.83333
2837.267	176.83333
2839.445	176.83333
2841.623	178.5
2843.799	180.5
2845.974	187.16667
2848.147	185.5
2850.319	200.16667
2852.489	206.5
2854.659	212.16667
2856.826	209.5
2858.993	223.83333
2861.158	204.16667
2863.321	209.16667
2865.483	229.5
2867.644	215.83333
2869.804	219.16667
2871.962	215.16667
2874.118	215.5
2876.274	233.16667
2878.428	224.5
2880.58	223.16667
2882.731	212.83333
2884.881	221.5
2887.03	224.5
2889.177	226.16667
2891.322	226.16667
2893.467	215.5
2895.61	215.83333
2897.751	233.16667
2899.892	219.16667
2902.03	225.83333
2904.168	219.16667
2906.304	224.83333
2908.439	238.83333
2910.572	213.5
2912.704	226.83333
2914.835	228.16667
2916.965	231.83333
2919.093	247.83333
2921.219	217.16667
2923.345	241.83333
2925.469	231.16667
2927.591	220.16667
2929.712	208.5
2931.832	229.16667
2933.951	216.5
2936.068	203.5
2938.184	210.16667
2940.299	194.16667
2942.412	198.83333
2944.524	182.5
2946.634	192.16667
2948.744	169.16667
2950.851	201.83333
2952.958	166.5
2955.063	180.16667
2957.167	171.16667
2959.269	157.16667
2961.371	182.5
2963.471	159.5
2965.569	177.83333
2967.666	150.83333
2969.762	151.83333
2971.857	142.5
2973.95	145.83333
2976.042	155.16667
2978.133	136.5
2980.222	144.83333
2982.31	129.5
2984.396	121.5
2986.482	122.83333
2988.566	130.83333
2990.648	126.16667
2992.73	129.83333
2994.81	114.5
2996.889	128.83333
2998.966	126.16667
3001.042	131.16667
3003.117	121.16667
3005.191	124.83333
3007.263	129.16667
3009.334	125.16667
3011.403	124.5
3013.472	120.16667
3015.539	130.83333
3017.604	143.16667
3019.669	106.83333
3021.732	112.83333
3023.794	120.83333
3025.854	107.83333
3027.914	104.5
3029.971	116.5
3032.028	117.16667
3034.083	118.16667
3036.137	115.16667
3038.19	100.83333
3040.242	97.83333
3042.292	97.83333
3044.341	100.16667
3046.388	116.5
3048.435	97.83333
3050.48	114.83333
3052.524	99.5
3054.566	90.16667
3056.607	100.83333
3058.647	98.5
3060.686	86.5
3062.723	83.5
3064.759	80.83333
3066.794	2.5
3068.828	2.83333
3070.86	1.16667
