-0.839	149.41667
3.438	170.41667
7.711	69.08333
11.981	46.75
16.247	29.08333
20.509	39.75
24.768	36.08333
29.024	47.75
33.276	31.75
37.524	44.41667
41.769	29.41667
46.01	27.41667
50.247	44.75
54.481	52.75
58.712	53.41667
62.939	34.75
67.162	54.08333
71.382	46.08333
75.599	38.08333
79.812	47.75
84.021	65.75
88.227	43.41667
92.429	50.41667
96.628	40.75
100.823	56.08333
105.015	56.41667
109.204	49.41667
113.388	59.41667
117.57	43.41667
121.748	61.08333
125.922	48.75
130.093	66.08333
134.261	69.75
138.425	57.41667
142.585	86.08333
146.742	72.08333
150.896	82.75
155.046	81.41667
159.193	122.08333
163.336	177.41667
167.476	304.75
171.613	561.08333
175.746	917.41667
179.875	1341.08333
184.002	1729.75
188.124	2057.75
192.244	2176.41667
196.36	2180.08333
200.472	2170.41667
204.581	2138.75
208.687	2099.75
212.79	2103.08333
216.889	2128.75
220.984	2160.08333
225.077	2144.08333
229.165	2191.08333
233.251	2178.08333
237.333	2178.08333
241.412	2160.75
245.487	2147.08333
249.559	2112.41667
253.628	2112.08333
257.694	2079.41667
261.756	2084.41667
265.814	2065.41667
269.87	2002.08333
273.922	1946.75
277.97	1922.41667
282.016	1890.08333
286.058	1868.41667
290.097	1896.41667
294.132	1912.75
298.164	1903.75
302.193	1846.75
306.219	1748.41667
310.241	1637.41667
314.26	1557.08333
318.276	1499.75
322.288	1455.75
326.297	1421.75
330.303	1379.08333
334.305	1373.41667
338.305	1365.75
342.301	1349.75
346.294	1359.75
350.283	1339.41667
354.269	1343.08333
358.252	1327.75
362.232	1341.08333
366.209	1350.08333
370.182	1328.75
374.152	1316.75
378.119	1317.08333
382.083	1320.75
386.043	1331.08333
390	1324.08333
393.954	1320.75
397.905	1335.75
401.852	1339.75
405.797	1332.41667
409.738	1324.75
413.676	1333.08333
417.61	1341.41667
421.542	1314.75
425.47	1311.08333
429.396	1308.75
433.318	1300.08333
437.236	1286.08333
441.152	1326.75
445.065	1276.41667
448.974	1288.41667
452.88	1265.41667
456.783	1273.08333
460.683	1258.41667
464.58	1280.75
468.473	1295.75
472.364	1279.08333
476.251	1288.75
480.135	1288.08333
484.016	1304.08333
487.894	1304.08333
491.769	1297.41667
495.641	1295.08333
499.509	1314.08333
503.375	1310.41667
507.237	1293.41667
511.096	1296.75
514.952	1292.08333
518.805	1303.08333
522.655	1284.08333
526.502	1272.41667
530.346	1301.41667
534.187	1311.75
538.024	1296.75
541.859	1276.41667
545.69	1301.75
549.519	1297.75
553.344	1275.08333
557.166	1256.41667
560.985	1249.75
564.802	1258.08333
568.615	1266.08333
572.425	1219.75
576.232	1235.08333
580.036	1227.08333
583.836	1230.41667
587.634	1227.08333
591.429	1227.08333
595.221	1268.08333
599.01	1258.75
602.796	1259.75
606.578	1266.08333
610.358	1272.41667
614.135	1254.08333
617.909	1275.08333
621.679	1251.75
625.447	1232.41667
629.212	1239.08333
632.973	1247.75
636.732	1238.41667
640.488	1249.08333
644.241	1221.75
647.991	1211.75
651.737	1236.41667
655.481	1198.75
659.222	1222.08333
662.96	1218.41667
666.695	1234.75
670.427	1234.41667
674.156	1237.41667
677.882	1236.41667
681.605	1230.08333
685.325	1219.41667
689.043	1222.41667
692.757	1211.08333
696.468	1209.75
700.177	1200.08333
703.882	1196.08333
707.585	1185.08333
711.284	1190.41667
714.981	1161.75
718.675	1172.08333
722.366	1187.41667
726.054	1169.75
729.739	1164.41667
733.421	1179.41667
737.1	1175.41667
740.777	1188.41667
744.45	1178.08333
748.121	1187.75
751.789	1223.41667
755.453	1197.75
759.115	1211.41667
762.774	1193.41667
766.431	1197.75
770.084	1204.08333
773.734	1202.41667
777.382	1220.08333
781.027	1234.75
784.669	1220.41667
788.308	1223.08333
791.944	1235.75
795.577	1222.75
799.208	1233.08333
802.835	1227.41667
806.46	1248.75
810.082	1252.75
813.701	1244.41667
817.317	1257.41667
820.931	1257.75
824.542	1258.75
828.149	1233.75
831.754	1222.75
835.357	1222.75
838.956	1240.08333
842.553	1220.75
846.146	1225.08333
849.737	1184.75
853.326	1196.41667
856.911	1181.41667
860.493	1203.75
864.073	1219.08333
867.65	1216.08333
871.225	1231.08333
874.796	1213.08333
878.365	1209.08333
881.931	1218.08333
885.494	1238.08333
889.054	1224.75
892.612	1217.08333
896.166	1205.41667
899.719	1168.41667
903.268	1165.08333
906.814	1171.08333
910.358	1169.75
913.899	1152.41667
917.438	1159.41667
920.973	1132.41667
924.506	1149.08333
928.036	1173.08333
931.564	1200.75
935.088	1200.75
938.61	1184.41667
942.129	1182.08333
945.646	1206.75
949.16	1216.41667
952.671	1235.75
956.179	1243.41667
959.685	1232.08333
963.188	1248.75
966.688	1209.41667
970.185	1192.41667
973.68	1159.41667
977.173	1165.75
980.662	1146.41667
984.149	1153.08333
987.633	1128.41667
991.114	1151.75
994.593	1174.75
998.069	1180.08333
1001.542	1208.41667
1005.013	1195.75
1008.481	1126.75
1011.947	1122.08333
1015.409	1105.08333
1018.869	1109.41667
1022.327	1120.75
1025.782	1086.41667
1029.234	1093.08333
1032.683	1090.08333
1036.13	1051.08333
1039.574	1018.41667
1043.016	1006.08333
1046.455	980.41667
1049.891	978.75
1053.325	994.75
1056.756	974.75
1060.184	1009.41667
1063.61	973.75
1067.033	980.75
1070.454	969.08333
1073.872	999.08333
1077.287	987.08333
1080.7	991.75
1084.11	982.41667
1087.517	979.41667
1090.922	972.08333
1094.325	949.41667
1097.724	945.75
1101.122	938.75
1104.516	944.41667
1107.908	920.41667
1111.298	949.41667
1114.684	950.08333
1118.069	962.75
1121.45	964.41667
1124.83	954.75
1128.206	969.75
1131.58	962.08333
1134.951	1002.08333
1138.32	996.75
1141.687	1040.08333
1145.05	1042.75
1148.412	1040.75
1151.77	1053.08333
1155.126	1035.08333
1158.48	1023.08333
1161.831	1047.41667
1165.18	1050.08333
1168.525	1059.41667
1171.869	1067.41667
1175.21	1056.75
1178.548	1063.08333
1181.884	1076.75
1185.217	1078.41667
1188.548	1113.41667
1191.877	1113.75
1195.202	1171.08333
1198.526	1180.75
1201.846	1186.75
1205.165	1186.75
1208.48	1189.08333
1211.794	1182.75
1215.104	1178.75
1218.413	1173.08333
1221.719	1170.08333
1225.022	1157.08333
1228.323	1135.75
1231.621	1151.75
1234.917	1137.75
1238.21	1143.75
1241.501	1125.75
1244.79	1123.75
1248.076	1121.75
1251.359	1126.75
1254.64	1166.08333
1257.919	1148.08333
1261.195	1160.75
1264.468	1186.41667
1267.74	1188.41667
1271.008	1186.75
1274.275	1197.41667
1277.538	1172.41667
1280.8	1164.75
1284.059	1176.41667
1287.315	1191.75
1290.569	1177.08333
1293.821	1191.41667
1297.07	1190.75
1300.317	1205.41667
1303.562	1196.08333
1306.803	1191.08333
1310.043	1193.08333
1313.28	1180.75
1316.515	1182.75
1319.747	1182.75
1322.977	1150.08333
1326.204	1154.41667
1329.429	1161.08333
1332.652	1151.41667
1335.872	1135.08333
1339.09	1115.75
1342.306	1129.08333
1345.519	1134.75
1348.729	1120.41667
1351.938	1121.75
1355.144	1100.41667
1358.347	1098.08333
1361.548	1090.41667
1364.747	1093.75
1367.944	1071.08333
1371.138	1072.75
1374.329	1070.41667
1377.518	1071.75
1380.705	1084.75
1383.89	1083.75
1387.072	1036.41667
1390.252	1020.41667
1393.429	987.75
1396.605	963.41667
1399.777	938.41667
1402.948	927.08333
1406.116	921.08333
1409.282	928.08333
1412.445	912.75
1415.606	925.08333
1418.765	916.75
1421.921	938.08333
1425.075	952.75
1428.227	983.41667
1431.376	1008.75
1434.524	1046.41667
1437.668	1055.75
1440.811	1068.75
1443.951	1082.41667
1447.089	1075.75
1450.224	1069.41667
1453.357	1061.75
1456.488	1066.08333
1459.617	1059.08333
1462.743	1036.41667
1465.867	1014.41667
1468.989	1003.41667
1472.108	988.75
1475.225	961.75
1478.34	954.75
1481.453	959.75
1484.563	954.08333
1487.671	961.08333
1490.776	973.41667
1493.88	981.08333
1496.981	999.75
1500.08	1000.75
1503.176	1016.08333
1506.271	1008.08333
1509.363	1024.08333
1512.452	1033.08333
1515.54	1046.08333
1518.625	1062.75
1521.708	1084.75
1524.789	1121.41667
1527.867	1143.41667
1530.944	1195.75
1534.018	1236.41667
1537.089	1299.08333
1540.159	1293.08333
1543.226	1292.41667
1546.291	1272.41667
1549.354	1242.75
1552.415	1231.08333
1555.473	1204.08333
1558.529	1176.75
1561.583	1160.08333
1564.634	1154.75
1567.684	1150.41667
1570.731	1150.41667
1573.776	1165.75
1576.819	1172.08333
1579.859	1161.75
1582.898	1199.41667
1585.934	1209.75
1588.968	1215.41667
1591.999	1197.75
1595.029	1196.08333
1598.056	1213.41667
1601.081	1221.08333
1604.104	1216.08333
1607.125	1194.41667
1610.144	1178.08333
1613.16	1153.08333
1616.174	1123.41667
1619.186	1117.75
1622.196	1087.75
1625.203	1066.75
1628.209	1054.41667
1631.212	1052.75
1634.213	1067.75
1637.212	1060.41667
1640.209	1074.75
1643.203	1041.08333
1646.196	1012.41667
1649.186	967.08333
1652.174	960.75
1655.16	924.75
1658.144	907.75
1661.125	872.41667
1664.105	847.75
1667.082	799.75
1670.057	769.75
1673.03	716.75
1676.001	699.41667
1678.97	642.08333
1681.937	615.75
1684.901	590.41667
1687.863	581.08333
1690.824	550.75
1693.782	563.75
1696.738	520.08333
1699.692	526.41667
1702.643	513.41667
1705.593	513.75
1708.54	515.75
1711.486	513.75
1714.429	491.75
1717.37	492.08333
1720.309	477.75
1723.246	498.08333
1726.181	470.41667
1729.113	476.75
1732.044	473.75
1734.972	460.41667
1737.899	476.08333
1740.823	488.41667
1743.745	498.41667
1746.665	444.41667
1749.583	457.08333
1752.499	450.75
1755.413	443.75
1758.325	428.75
1761.235	439.08333
1764.142	426.75
1767.048	421.08333
1769.951	432.75
1772.852	426.08333
1775.752	425.08333
1778.649	425.08333
1781.544	433.08333
1784.437	406.41667
1787.328	418.41667
1790.217	412.08333
1793.104	392.41667
1795.989	395.08333
1798.872	391.75
1801.753	406.75
1804.631	408.75
1807.508	402.75
1810.383	400.41667
1813.255	402.75
1816.126	390.75
1818.994	389.41667
1821.861	390.41667
1824.725	393.75
1827.587	394.08333
1830.448	382.08333
1833.306	379.41667
1836.162	390.75
1839.017	373.41667
1841.869	372.75
1844.719	374.75
1847.567	360.08333
1850.414	356.75
1853.258	364.75
1856.1	377.41667
1858.94	381.08333
1861.778	372.08333
1864.614	354.75
1867.448	359.75
1870.28	357.08333
1873.111	375.41667
1875.939	358.41667
1878.765	378.08333
1881.589	361.75
1884.411	361.75
1887.231	371.75
1890.049	364.08333
1892.865	365.75
1895.68	352.08333
1898.492	361.41667
1901.302	353.41667
1904.11	356.41667
1906.916	357.08333
1909.721	342.75
1912.523	362.75
1915.323	342.75
1918.122	343.41667
1920.918	349.75
1923.712	337.41667
1926.505	342.41667
1929.295	328.08333
1932.084	339.41667
1934.87	339.08333
1937.655	334.08333
1940.438	328.41667
1943.218	335.08333
1945.997	339.75
1948.774	348.41667
1951.549	344.41667
1954.322	330.08333
1957.093	327.75
1959.862	326.08333
1962.629	320.41667
1965.394	323.75
1968.157	311.08333
1970.918	338.41667
1973.678	317.41667
1976.435	325.41667
1979.19	320.75
1981.944	308.41667
1984.696	314.75
1987.445	309.08333
1990.193	325.08333
1992.939	324.75
1995.683	321.41667
1998.425	297.08333
2001.165	326.75
2003.903	304.41667
2006.639	306.75
2009.374	317.41667
2012.106	313.08333
2014.837	289.41667
2017.566	317.41667
2020.292	303.08333
2023.017	303.08333
2025.74	301.41667
2028.461	292.41667
2031.18	298.08333
2033.898	289.41667
2036.613	298.08333
2039.327	298.75
2042.038	293.75
2044.748	298.75
2047.456	297.41667
2050.162	277.08333
2052.866	292.41667
2055.568	297.41667
2058.268	279.41667
2060.967	297.75
2063.663	283.08333
2066.358	279.41667
2069.051	278.75
2071.742	286.41667
2074.431	290.08333
2077.118	286.08333
2079.804	267.41667
2082.487	279.41667
2085.169	293.08333
2087.849	306.08333
2090.527	272.75
2093.203	281.75
2095.877	277.75
2098.55	290.08333
2101.22	289.41667
2103.889	300.75
2106.556	291.75
2109.221	299.08333
2111.884	294.41667
2114.546	316.08333
2117.205	334.75
2119.863	363.75
2122.519	346.08333
2125.173	376.41667
2127.825	408.41667
2130.475	416.75
2133.124	395.08333
2135.771	378.08333
2138.416	382.41667
2141.059	363.41667
2143.7	353.41667
2146.339	327.75
2148.977	300.41667
2151.613	316.41667
2154.247	303.75
2156.879	295.41667
2159.51	285.75
2162.138	286.41667
2164.765	277.41667
2167.39	265.41667
2170.013	291.75
2172.634	277.08333
2175.254	272.75
2177.872	304.41667
2180.488	267.41667
2183.102	269.41667
2185.714	264.75
2188.325	249.41667
2190.934	259.41667
2193.541	270.08333
2196.146	248.41667
2198.75	239.08333
2201.351	246.08333
2203.951	226.08333
2206.549	248.75
2209.146	241.08333
2211.74	238.41667
2214.333	245.41667
2216.924	228.41667
2219.514	233.08333
2222.101	236.08333
2224.687	243.41667
2227.271	230.41667
2229.853	229.75
2232.433	216.41667
2235.012	238.41667
2237.589	233.75
2240.164	246.75
2242.738	231.08333
2245.309	215.41667
2247.879	237.41667
2250.448	233.75
2253.014	217.75
2255.579	210.75
2258.142	222.75
2260.703	211.41667
2263.262	216.08333
2265.82	204.41667
2268.376	220.75
2270.93	213.41667
2273.483	202.08333
2276.033	220.75
2278.583	204.41667
2281.13	203.75
2283.675	200.41667
2286.219	206.08333
2288.761	212.41667
2291.302	216.75
2293.841	220.75
2296.377	203.08333
2298.913	215.41667
2301.446	220.41667
2303.978	211.08333
2306.508	207.75
2309.037	201.41667
2311.563	207.08333
2314.088	203.41667
2316.612	193.41667
2319.133	205.75
2321.653	205.75
2324.171	193.75
2326.688	199.75
2329.202	200.75
2331.715	205.75
2334.227	196.41667
2336.736	197.41667
2339.244	190.75
2341.751	186.41667
2344.255	200.75
2346.758	196.41667
2349.259	187.08333
2351.759	199.41667
2354.257	182.08333
2356.753	179.75
2359.247	186.08333
2361.74	188.41667
2364.231	192.08333
2366.721	195.41667
2369.209	184.08333
2371.695	183.41667
2374.179	179.08333
2376.662	170.41667
2379.143	192.08333
2381.622	187.41667
2384.1	194.08333
2386.576	182.08333
2389.051	192.75
2391.524	193.75
2393.995	186.41667
2396.464	174.41667
2398.932	178.41667
2401.398	178.75
2403.863	172.41667
2406.325	175.41667
2408.787	184.75
2411.246	181.41667
2413.704	177.75
2416.16	172.08333
2418.615	174.75
2421.068	188.75
2423.519	171.75
2425.969	167.41667
2428.417	181.08333
2430.863	194.75
2433.308	182.08333
2435.751	179.75
2438.193	172.41667
2440.633	175.75
2443.071	177.75
2445.508	170.41667
2447.943	170.41667
2450.376	173.08333
2452.808	176.08333
2455.238	162.08333
2457.667	201.41667
2460.093	166.75
2462.519	157.75
2464.942	160.75
2467.365	170.41667
2469.785	168.75
2472.204	168.41667
2474.621	166.41667
2477.037	174.41667
2479.451	155.08333
2481.863	152.41667
2484.274	158.41667
2486.683	161.08333
2489.091	175.41667
2491.497	166.08333
2493.901	164.41667
2496.304	159.08333
2498.705	171.41667
2501.105	166.08333
2503.503	183.08333
2505.899	158.41667
2508.294	169.08333
2510.687	155.08333
2513.079	160.41667
2515.469	154.75
2517.858	153.08333
2520.245	172.08333
2522.63	154.75
2525.014	150.75
2527.396	151.08333
2529.776	150.75
2532.156	158.75
2534.533	148.41667
2536.909	152.75
2539.283	136.75
2541.656	146.08333
2544.027	157.75
2546.397	160.41667
2548.765	149.08333
2551.131	149.08333
2553.496	152.41667
2555.86	161.41667
2558.221	158.41667
2560.582	145.08333
2562.94	138.75
2565.298	152.08333
2567.653	162.75
2570.007	134.41667
2572.36	160.08333
2574.711	138.41667
2577.06	161.08333
2579.408	147.75
2581.754	145.41667
2584.099	145.75
2586.442	142.08333
2588.784	148.75
2591.124	146.41667
2593.463	148.41667
2595.8	149.08333
2598.135	137.41667
2600.469	141.41667
2602.802	154.08333
2605.133	156.41667
2607.462	136.75
2609.79	131.75
2612.116	148.75
2614.441	138.08333
2616.764	147.08333
2619.086	145.41667
2621.406	139.75
2623.725	150.08333
2626.042	143.75
2628.358	133.41667
2630.672	141.75
2632.985	153.08333
2635.296	144.41667
2637.606	135.75
2639.914	139.08333
2642.22	136.08333
2644.525	145.75
2646.829	141.75
2649.131	158.75
2651.432	144.75
2653.731	139.08333
2656.028	148.41667
2658.324	150.75
2660.619	128.08333
2662.912	149.41667
2665.204	127.08333
2667.494	142.41667
2669.782	135.08333
2672.07	154.08333
2674.355	148.08333
2676.639	146.41667
2678.922	137.41667
2681.203	145.08333
2683.483	134.41667
2685.761	122.75
2688.038	146.75
2690.313	155.41667
2692.587	142.08333
2694.859	139.41667
2697.13	137.08333
2699.399	143.75
2701.667	142.75
2703.933	140.75
2706.198	154.75
2708.461	153.41667
2710.723	147.41667
2712.984	150.41667
2715.243	152.08333
2717.5	146.75
2719.757	155.75
2722.011	147.08333
2724.264	152.08333
2726.516	157.41667
2728.766	134.75
2731.015	145.41667
2733.262	146.41667
2735.508	145.41667
2737.753	150.41667
2739.996	135.75
2742.237	137.08333
2744.477	144.75
2746.716	155.41667
2748.953	152.08333
2751.189	153.75
2753.423	148.75
2755.656	142.08333
2757.887	134.41667
2760.117	139.41667
2762.346	131.08333
2764.573	125.75
2766.798	133.08333
2769.022	139.75
2771.245	132.41667
2773.467	135.75
2775.686	132.08333
2777.905	142.41667
2780.122	138.75
2782.337	140.08333
2784.552	134.75
2786.764	136.08333
2788.976	133.08333
2791.186	135.75
2793.394	137.08333
2795.601	143.08333
2797.807	147.75
2800.011	145.08333
2802.214	154.08333
2804.415	144.08333
2806.615	150.08333
2808.814	146.75
2811.011	154.41667
2813.206	150.41667
2815.401	159.08333
2817.594	159.08333
2819.785	171.08333
2821.975	152.41667
2824.164	153.41667
2826.351	153.41667
2828.537	171.08333
2830.722	165.08333
2832.905	160.41667
2835.086	171.41667
2837.267	192.41667
2839.445	188.08333
2841.623	181.41667
2843.799	193.08333
2845.974	189.75
2848.147	201.75
2850.319	211.75
2852.489	221.75
2854.659	221.41667
2856.826	224.75
2858.993	236.75
2861.158	219.08333
2863.321	227.75
2865.483	245.08333
2867.644	238.08333
2869.804	234.41667
2871.962	224.75
2874.118	230.41667
2876.274	233.08333
2878.428	229.41667
2880.58	243.08333
2882.731	226.08333
2884.881	231.75
2887.03	241.08333
2889.177	239.08333
2891.322	244.75
2893.467	232.41667
2895.61	234.08333
2897.751	246.75
2899.892	228.75
2902.03	245.41667
2904.168	240.41667
2906.304	231.41667
2908.439	253.75
2910.572	233.75
2912.704	239.75
2914.835	248.08333
2916.965	246.75
2919.093	261.75
2921.219	228.75
2923.345	258.08333
2925.469	242.75
2927.591	232.08333
2929.712	224.41667
2931.832	234.08333
2933.951	226.08333
2936.068	218.41667
2938.184	214.08333
2940.299	208.08333
2942.412	203.75
2944.524	189.08333
2946.634	200.08333
2948.744	178.08333
2950.851	207.08333
2952.958	173.75
2955.063	182.08333
2957.167	171.75
2959.269	162.41667
2961.371	189.75
2963.471	167.08333
2965.569	176.75
2967.666	151.08333
2969.762	153.75
2971.857	145.75
2973.95	138.75
2976.042	149.41667
2978.133	139.08333
2980.222	138.75
2982.31	128.41667
2984.396	111.08333
2986.482	125.08333
2988.566	126.08333
2990.648	123.41667
2992.73	129.08333
2994.81	115.75
2996.889	125.41667
2998.966	118.75
3001.042	133.75
3003.117	115.75
3005.191	119.75
3007.263	126.41667
3009.334	120.08333
3011.403	119.08333
3013.472	112.75
3015.539	126.75
3017.604	133.08333
3019.669	98.41667
3021.732	110.08333
3023.794	114.41667
3025.854	102.08333
3027.914	99.41667
3029.971	102.75
3032.028	106.08333
3034.083	113.75
3036.137	112.08333
3038.19	96.41667
3040.242	91.75
3042.292	92.08333
3044.341	97.08333
3046.388	113.41667
3048.435	92.08333
3050.48	109.08333
3052.524	92.41667
3054.566	87.08333
3056.607	97.41667
3058.647	89.08333
3060.686	82.41667
3062.723	72.41667
3064.759	77.41667
3066.794	-0.25
3068.828	1.08333
3070.86	3.41667
