-0.839	139.79167
3.438	159.79167
7.711	66.79167
11.981	47.45833
16.247	32.125
20.509	41.125
24.768	38.45833
29.024	45.45833
33.276	31.125
37.524	44.45833
41.769	31.45833
46.01	24.125
50.247	45.45833
54.481	55.125
58.712	57.79167
62.939	38.45833
67.162	55.79167
71.382	48.125
75.599	36.125
79.812	43.125
84.021	60.125
88.227	44.125
92.429	55.79167
96.628	40.79167
100.823	55.125
105.015	53.45833
109.204	45.45833
113.388	63.79167
117.57	43.79167
121.748	61.79167
125.922	48.125
130.093	67.79167
134.261	68.125
138.425	59.125
142.585	91.125
146.742	72.45833
150.896	83.45833
155.046	80.79167
159.193	123.79167
163.336	186.125
167.476	324.79167
171.613	581.45833
175.746	941.45833
179.875	1395.125
184.002	1834.125
188.124	2173.79167
192.244	2296.45833
196.36	2320.125
200.472	2301.45833
204.581	2292.79167
208.687	2233.79167
212.79	2247.79167
216.889	2264.125
220.984	2326.79167
225.077	2327.125
229.165	2325.45833
233.251	2357.45833
237.333	2362.79167
241.412	2355.79167
245.487	2337.125
249.559	2312.45833
253.628	2305.125
257.694	2289.125
261.756	2294.45833
265.814	2256.79167
269.87	2197.79167
273.922	2159.125
277.97	2117.125
282.016	2104.45833
286.058	2078.79167
290.097	2095.45833
294.132	2103.79167
298.164	2095.125
302.193	2046.125
306.219	1914.45833
310.241	1818.79167
314.26	1696.45833
318.276	1640.79167
322.288	1587.45833
326.297	1549.79167
330.303	1511.79167
334.305	1498.125
338.305	1492.79167
342.301	1478.45833
346.294	1483.79167
350.283	1473.79167
354.269	1457.79167
358.252	1448.45833
362.232	1459.45833
366.209	1454.125
370.182	1431.79167
374.152	1448.125
378.119	1436.45833
382.083	1432.79167
386.043	1466.79167
390	1440.125
393.954	1469.45833
397.905	1452.125
401.852	1467.79167
405.797	1463.79167
409.738	1451.45833
413.676	1479.79167
417.61	1490.125
421.542	1465.79167
425.47	1434.45833
429.396	1423.79167
433.318	1418.45833
437.236	1414.125
441.152	1448.45833
445.065	1391.45833
448.974	1417.125
452.88	1401.45833
456.783	1397.79167
460.683	1387.79167
464.58	1399.125
468.473	1405.79167
472.364	1402.45833
476.251	1405.125
480.135	1422.125
484.016	1423.79167
487.894	1418.79167
491.769	1434.79167
495.641	1428.125
499.509	1427.125
503.375	1431.79167
507.237	1423.79167
511.096	1424.45833
514.952	1421.79167
518.805	1417.125
522.655	1425.79167
526.502	1420.125
530.346	1418.45833
534.187	1415.45833
538.024	1423.125
541.859	1406.45833
545.69	1432.79167
549.519	1425.125
553.344	1408.45833
557.166	1394.125
560.985	1391.125
564.802	1374.125
568.615	1367.125
572.425	1330.45833
576.232	1332.79167
580.036	1337.79167
583.836	1345.45833
587.634	1364.125
591.429	1345.125
595.221	1385.125
599.01	1364.45833
602.796	1374.125
606.578	1382.79167
610.358	1380.45833
614.135	1377.79167
617.909	1360.45833
621.679	1383.45833
625.447	1354.45833
629.212	1376.125
632.973	1366.79167
636.732	1343.125
640.488	1369.45833
644.241	1324.79167
647.991	1345.45833
651.737	1358.79167
655.481	1327.45833
659.222	1353.79167
662.96	1330.45833
666.695	1348.79167
670.427	1354.125
674.156	1365.45833
677.882	1352.45833
681.605	1344.79167
685.325	1344.125
689.043	1360.79167
692.757	1337.125
696.468	1334.79167
700.177	1326.79167
703.882	1304.45833
707.585	1305.125
711.284	1291.45833
714.981	1286.79167
718.675	1298.79167
722.366	1298.79167
726.054	1278.45833
729.739	1285.45833
733.421	1296.125
737.1	1280.125
740.777	1293.79167
744.45	1292.79167
748.121	1306.79167
751.789	1321.79167
755.453	1304.45833
759.115	1316.79167
762.774	1313.45833
766.431	1329.125
770.084	1320.45833
773.734	1325.125
777.382	1329.125
781.027	1343.125
784.669	1317.125
788.308	1335.125
791.944	1352.125
795.577	1344.125
799.208	1350.79167
802.835	1347.45833
806.46	1357.45833
810.082	1371.79167
813.701	1370.79167
817.317	1380.125
820.931	1395.45833
824.542	1383.45833
828.149	1344.79167
831.754	1332.79167
835.357	1323.45833
838.956	1331.125
842.553	1344.45833
846.146	1312.125
849.737	1280.45833
853.326	1292.125
856.911	1288.79167
860.493	1319.45833
864.073	1315.79167
867.65	1343.45833
871.225	1338.125
874.796	1326.79167
878.365	1319.45833
881.931	1342.125
885.494	1337.79167
889.054	1317.125
892.612	1336.125
896.166	1317.79167
899.719	1297.45833
903.268	1282.45833
906.814	1276.125
910.358	1270.45833
913.899	1276.45833
917.438	1272.125
920.973	1243.125
924.506	1267.79167
928.036	1290.79167
931.564	1291.79167
935.088	1304.125
938.61	1300.45833
942.129	1295.125
945.646	1310.45833
949.16	1318.79167
952.671	1332.79167
956.179	1359.45833
959.685	1349.45833
963.188	1376.79167
966.688	1348.79167
970.185	1308.125
973.68	1275.125
977.173	1257.125
980.662	1246.125
984.149	1270.79167
987.633	1227.79167
991.114	1269.45833
994.593	1281.79167
998.069	1284.79167
1001.542	1323.79167
1005.013	1310.125
1008.481	1226.79167
1011.947	1230.125
1015.409	1206.79167
1018.869	1212.125
1022.327	1221.45833
1025.782	1204.79167
1029.234	1205.79167
1032.683	1186.79167
1036.13	1154.45833
1039.574	1134.125
1043.016	1098.45833
1046.455	1087.125
1049.891	1075.125
1053.325	1075.45833
1056.756	1070.45833
1060.184	1077.79167
1063.61	1064.79167
1067.033	1078.79167
1070.454	1066.79167
1073.872	1112.125
1077.287	1081.79167
1080.7	1082.125
1084.11	1083.79167
1087.517	1075.125
1090.922	1063.45833
1094.325	1045.45833
1097.724	1051.125
1101.122	1037.45833
1104.516	1031.79167
1107.908	1015.79167
1111.298	1035.79167
1114.684	1035.125
1118.069	1051.45833
1121.45	1060.125
1124.83	1041.45833
1128.206	1043.45833
1131.58	1072.45833
1134.951	1091.125
1138.32	1103.125
1141.687	1145.45833
1145.05	1148.79167
1148.412	1162.45833
1151.77	1145.45833
1155.126	1135.79167
1158.48	1137.79167
1161.831	1136.79167
1165.18	1143.45833
1168.525	1162.79167
1171.869	1163.79167
1175.21	1157.45833
1178.548	1171.79167
1181.884	1181.45833
1185.217	1187.125
1188.548	1212.125
1191.877	1231.125
1195.202	1274.79167
1198.526	1295.125
1201.846	1283.45833
1205.165	1295.45833
1208.48	1289.45833
1211.794	1298.45833
1215.104	1290.45833
1218.413	1289.125
1221.719	1281.79167
1225.022	1256.45833
1228.323	1235.125
1231.621	1246.125
1234.917	1226.79167
1238.21	1253.125
1241.501	1238.79167
1244.79	1213.125
1248.076	1210.125
1251.359	1234.125
1254.64	1261.79167
1257.919	1249.125
1261.195	1262.79167
1264.468	1274.79167
1267.74	1285.79167
1271.008	1288.45833
1274.275	1284.79167
1277.538	1286.125
1280.8	1280.125
1284.059	1280.79167
1287.315	1296.45833
1290.569	1271.79167
1293.821	1282.125
1297.07	1300.79167
1300.317	1302.45833
1303.562	1299.79167
1306.803	1286.125
1310.043	1287.45833
1313.28	1271.125
1316.515	1257.79167
1319.747	1271.45833
1322.977	1250.45833
1326.204	1256.45833
1329.429	1246.45833
1332.652	1238.45833
1335.872	1251.45833
1339.09	1226.79167
1342.306	1228.79167
1345.519	1221.45833
1348.729	1208.125
1351.938	1209.79167
1355.144	1198.45833
1358.347	1185.79167
1361.548	1192.79167
1364.747	1175.45833
1367.944	1161.125
1371.138	1167.79167
1374.329	1158.79167
1377.518	1158.79167
1380.705	1169.79167
1383.89	1156.45833
1387.072	1129.125
1390.252	1108.125
1393.429	1076.125
1396.605	1053.125
1399.777	1017.125
1402.948	1009.45833
1406.116	996.79167
1409.282	996.79167
1412.445	998.125
1415.606	1002.125
1418.765	1011.125
1421.921	1025.79167
1425.075	1029.45833
1428.227	1050.79167
1431.376	1097.45833
1434.524	1125.79167
1437.668	1140.125
1440.811	1158.125
1443.951	1161.79167
1447.089	1172.125
1450.224	1180.125
1453.357	1160.45833
1456.488	1166.45833
1459.617	1135.79167
1462.743	1139.125
1465.867	1087.79167
1468.989	1093.79167
1472.108	1087.79167
1475.225	1075.45833
1478.34	1055.45833
1481.453	1052.125
1484.563	1039.45833
1487.671	1046.79167
1490.776	1059.45833
1493.88	1082.45833
1496.981	1097.79167
1500.08	1096.45833
1503.176	1109.45833
1506.271	1118.125
1509.363	1108.45833
1512.452	1115.125
1515.54	1139.125
1518.625	1149.125
1521.708	1195.125
1524.789	1199.125
1527.867	1237.79167
1530.944	1288.125
1534.018	1342.125
1537.089	1396.125
1540.159	1389.45833
1543.226	1388.45833
1546.291	1337.125
1549.354	1327.125
1552.415	1315.125
1555.473	1279.45833
1558.529	1270.45833
1561.583	1247.45833
1564.634	1244.125
1567.684	1233.125
1570.731	1242.79167
1573.776	1239.45833
1576.819	1267.45833
1579.859	1277.79167
1582.898	1303.125
1585.934	1311.125
1588.968	1312.79167
1591.999	1287.45833
1595.029	1284.79167
1598.056	1303.45833
1601.081	1313.79167
1604.104	1305.125
1607.125	1295.125
1610.144	1284.125
1613.16	1252.79167
1616.174	1230.79167
1619.186	1223.125
1622.196	1183.79167
1625.203	1166.79167
1628.209	1145.45833
1631.212	1156.79167
1634.213	1156.45833
1637.212	1189.125
1640.209	1169.79167
1643.203	1141.125
1646.196	1106.45833
1649.186	1066.45833
1652.174	1040.125
1655.16	1003.79167
1658.144	983.45833
1661.125	943.79167
1664.105	906.79167
1667.082	875.79167
1670.057	824.79167
1673.03	784.45833
1676.001	759.79167
1678.97	696.45833
1681.937	679.79167
1684.901	635.79167
1687.863	644.79167
1690.824	604.125
1693.782	613.125
1696.738	566.125
1699.692	584.125
1702.643	557.45833
1705.593	554.79167
1708.54	546.125
1711.486	560.79167
1714.429	528.45833
1717.37	543.79167
1720.309	524.125
1723.246	524.79167
1726.181	512.125
1729.113	514.45833
1732.044	519.79167
1734.972	507.45833
1737.899	527.79167
1740.823	527.45833
1743.745	542.45833
1746.665	496.125
1749.583	481.45833
1752.499	486.125
1755.413	484.79167
1758.325	480.125
1761.235	481.45833
1764.142	473.79167
1767.048	473.45833
1769.951	467.45833
1772.852	467.79167
1775.752	473.45833
1778.649	478.45833
1781.544	481.45833
1784.437	441.125
1787.328	464.125
1790.217	458.79167
1793.104	436.45833
1795.989	441.79167
1798.872	435.79167
1801.753	455.45833
1804.631	443.125
1807.508	445.125
1810.383	448.125
1813.255	442.45833
1816.126	435.79167
1818.994	437.125
1821.861	420.45833
1824.725	429.79167
1827.587	433.45833
1830.448	428.79167
1833.306	417.45833
1836.162	422.45833
1839.017	425.79167
1841.869	418.79167
1844.719	414.45833
1847.567	395.45833
1850.414	394.45833
1853.258	391.79167
1856.1	417.125
1858.94	424.79167
1861.778	410.79167
1864.614	401.79167
1867.448	403.125
1870.28	396.125
1873.111	413.125
1875.939	407.45833
1878.765	415.79167
1881.589	392.45833
1884.411	402.79167
1887.231	399.45833
1890.049	403.45833
1892.865	400.45833
1895.68	392.79167
1898.492	401.45833
1901.302	378.125
1904.11	400.45833
1906.916	382.79167
1909.721	381.45833
1912.523	380.125
1915.323	380.45833
1918.122	371.45833
1920.918	396.79167
1923.712	369.125
1926.505	390.125
1929.295	361.125
1932.084	381.125
1934.87	375.79167
1937.655	373.45833
1940.438	363.125
1943.218	365.45833
1945.997	370.125
1948.774	376.125
1951.549	376.125
1954.322	360.79167
1957.093	361.79167
1959.862	354.79167
1962.629	352.125
1965.394	355.125
1968.157	348.125
1970.918	370.125
1973.678	348.45833
1976.435	357.125
1979.19	349.79167
1981.944	338.79167
1984.696	347.79167
1987.445	341.45833
1990.193	348.45833
1992.939	357.125
1995.683	340.79167
1998.425	331.125
2001.165	365.45833
2003.903	331.45833
2006.639	334.79167
2009.374	342.79167
2012.106	344.45833
2014.837	316.45833
2017.566	342.45833
2020.292	331.125
2023.017	327.79167
2025.74	327.79167
2028.461	328.79167
2031.18	327.125
2033.898	323.45833
2036.613	329.45833
2039.327	325.45833
2042.038	314.125
2044.748	315.79167
2047.456	324.45833
2050.162	307.79167
2052.866	319.125
2055.568	328.79167
2058.268	313.45833
2060.967	322.45833
2063.663	308.79167
2066.358	309.45833
2069.051	305.125
2071.742	310.125
2074.431	318.45833
2077.118	302.45833
2079.804	298.45833
2082.487	313.125
2085.169	321.125
2087.849	337.79167
2090.527	301.79167
2093.203	307.79167
2095.877	308.125
2098.55	305.45833
2101.22	316.79167
2103.889	315.45833
2106.556	311.45833
2109.221	325.79167
2111.884	311.125
2114.546	334.79167
2117.205	338.45833
2119.863	370.79167
2122.519	359.45833
2125.173	376.79167
2127.825	410.79167
2130.475	415.45833
2133.124	399.125
2135.771	381.79167
2138.416	397.125
2141.059	361.125
2143.7	364.45833
2146.339	343.45833
2148.977	309.125
2151.613	323.45833
2154.247	323.79167
2156.879	308.79167
2159.51	298.125
2162.138	295.79167
2164.765	296.79167
2167.39	283.45833
2170.013	308.45833
2172.634	306.79167
2175.254	291.125
2177.872	321.125
2180.488	279.79167
2183.102	285.79167
2185.714	281.79167
2188.325	269.125
2190.934	276.79167
2193.541	293.125
2196.146	275.79167
2198.75	262.125
2201.351	267.45833
2203.951	256.45833
2206.549	266.45833
2209.146	264.45833
2211.74	258.125
2214.333	269.125
2216.924	253.125
2219.514	257.79167
2222.101	246.45833
2224.687	269.45833
2227.271	252.45833
2229.853	246.125
2232.433	235.79167
2235.012	260.125
2237.589	255.125
2240.164	261.125
2242.738	243.79167
2245.309	241.45833
2247.879	260.79167
2250.448	257.125
2253.014	234.45833
2255.579	229.125
2258.142	238.79167
2260.703	237.125
2263.262	232.79167
2265.82	231.45833
2268.376	247.79167
2270.93	230.79167
2273.483	224.125
2276.033	238.125
2278.583	227.79167
2281.13	223.45833
2283.675	220.45833
2286.219	226.125
2288.761	228.79167
2291.302	230.45833
2293.841	238.125
2296.377	212.125
2298.913	231.45833
2301.446	235.45833
2303.978	223.125
2306.508	227.125
2309.037	223.125
2311.563	223.79167
2314.088	230.79167
2316.612	206.125
2319.133	219.79167
2321.653	220.125
2324.171	214.79167
2326.688	224.45833
2329.202	219.125
2331.715	217.79167
2334.227	217.45833
2336.736	217.79167
2339.244	213.125
2341.751	199.45833
2344.255	217.45833
2346.758	213.79167
2349.259	204.45833
2351.759	215.125
2354.257	205.45833
2356.753	197.45833
2359.247	198.125
2361.74	210.125
2364.231	206.45833
2366.721	211.45833
2369.209	199.79167
2371.695	207.79167
2374.179	200.45833
2376.662	193.45833
2379.143	211.79167
2381.622	202.45833
2384.1	207.45833
2386.576	196.79167
2389.051	209.79167
2391.524	213.45833
2393.995	203.45833
2396.464	199.125
2398.932	190.45833
2401.398	200.79167
2403.863	195.79167
2406.325	192.45833
2408.787	197.125
2411.246	200.79167
2413.704	194.45833
2416.16	195.45833
2418.615	188.45833
2421.068	194.79167
2423.519	197.125
2425.969	187.45833
2428.417	206.79167
2430.863	209.79167
2433.308	198.125
2435.751	188.79167
2438.193	191.125
2440.633	197.79167
2443.071	195.79167
2445.508	184.45833
2447.943	189.45833
2450.376	178.79167
2452.808	190.125
2455.238	170.45833
2457.667	206.125
2460.093	184.45833
2462.519	178.45833
2464.942	174.45833
2467.365	182.125
2469.785	190.125
2472.204	177.79167
2474.621	177.125
2477.037	200.125
2479.451	176.79167
2481.863	168.79167
2484.274	173.45833
2486.683	179.45833
2489.091	191.45833
2491.497	176.79167
2493.901	181.125
2496.304	174.125
2498.705	188.45833
2501.105	180.125
2503.503	193.79167
2505.899	169.125
2508.294	193.125
2510.687	170.79167
2513.079	173.45833
2515.469	164.79167
2517.858	169.45833
2520.245	183.125
2522.63	166.125
2525.014	170.45833
2527.396	162.125
2529.776	164.125
2532.156	174.79167
2534.533	162.125
2536.909	157.125
2539.283	152.45833
2541.656	166.45833
2544.027	174.79167
2546.397	169.125
2548.765	167.45833
2551.131	166.125
2553.496	171.79167
2555.86	164.125
2558.221	174.125
2560.582	159.125
2562.94	158.79167
2565.298	167.125
2567.653	176.79167
2570.007	157.125
2572.36	174.125
2574.711	154.79167
2577.06	171.45833
2579.408	169.125
2581.754	162.79167
2584.099	162.125
2586.442	164.125
2588.784	169.125
2591.124	162.79167
2593.463	161.79167
2595.8	162.45833
2598.135	153.79167
2600.469	151.45833
2602.802	166.45833
2605.133	175.45833
2607.462	152.125
2609.79	144.79167
2612.116	168.45833
2614.441	154.79167
2616.764	163.45833
2619.086	159.125
2621.406	154.79167
2623.725	163.45833
2626.042	158.125
2628.358	145.79167
2630.672	152.79167
2632.985	163.79167
2635.296	158.45833
2637.606	155.125
2639.914	148.125
2642.22	150.125
2644.525	151.79167
2646.829	153.125
2649.131	166.125
2651.432	162.79167
2653.731	152.79167
2656.028	166.79167
2658.324	163.125
2660.619	143.125
2662.912	166.125
2665.204	145.79167
2667.494	165.45833
2669.782	150.125
2672.07	164.79167
2674.355	161.125
2676.639	159.79167
2678.922	149.45833
2681.203	153.45833
2683.483	151.125
2685.761	141.45833
2688.038	164.45833
2690.313	166.45833
2692.587	158.125
2694.859	152.79167
2697.13	154.125
2699.399	152.45833
2701.667	165.125
2703.933	155.45833
2706.198	167.79167
2708.461	162.125
2710.723	164.125
2712.984	163.125
2715.243	173.125
2717.5	162.125
2719.757	166.79167
2722.011	158.45833
2724.264	165.79167
2726.516	174.125
2728.766	156.45833
2731.015	163.45833
2733.262	163.79167
2735.508	161.45833
2737.753	167.125
2739.996	150.79167
2742.237	148.125
2744.477	165.125
2746.716	170.45833
2748.953	163.125
2751.189	172.45833
2753.423	158.45833
2755.656	154.79167
2757.887	146.79167
2760.117	152.125
2762.346	147.79167
2764.573	137.125
2766.798	144.79167
2769.022	150.45833
2771.245	146.125
2773.467	150.125
2775.686	144.79167
2777.905	154.125
2780.122	149.45833
2782.337	151.79167
2784.552	146.45833
2786.764	152.45833
2788.976	146.125
2791.186	154.45833
2793.394	154.45833
2795.601	156.79167
2797.807	157.125
2800.011	160.45833
2802.214	161.45833
2804.415	160.79167
2806.615	158.125
2808.814	160.79167
2811.011	168.79167
2813.206	165.125
2815.401	173.125
2817.594	169.79167
2819.785	174.79167
2821.975	163.79167
2824.164	165.79167
2826.351	167.79167
2828.537	183.45833
2830.722	183.125
2832.905	176.45833
2835.086	185.79167
2837.267	206.79167
2839.445	204.45833
2841.623	205.45833
2843.799	200.79167
2845.974	209.79167
2848.147	218.45833
2850.319	232.45833
2852.489	236.79167
2854.659	240.45833
2856.826	241.125
2858.993	255.125
2861.158	236.79167
2863.321	246.125
2865.483	257.79167
2867.644	256.79167
2869.804	252.79167
2871.962	245.79167
2874.118	247.125
2876.274	262.45833
2878.428	259.125
2880.58	259.125
2882.731	240.79167
2884.881	254.125
2887.03	259.45833
2889.177	251.125
2891.322	258.45833
2893.467	248.79167
2895.61	248.125
2897.751	263.79167
2899.892	251.125
2902.03	262.125
2904.168	252.79167
2906.304	259.125
2908.439	280.45833
2910.572	255.125
2912.704	263.45833
2914.835	270.125
2916.965	267.45833
2919.093	275.45833
2921.219	254.125
2923.345	282.45833
2925.469	265.125
2927.591	263.79167
2929.712	238.125
2931.832	262.45833
2933.951	247.45833
2936.068	238.45833
2938.184	230.45833
2940.299	233.125
2942.412	226.79167
2944.524	210.79167
2946.634	221.125
2948.744	192.125
2950.851	230.125
2952.958	191.45833
2955.063	205.45833
2957.167	190.125
2959.269	179.79167
2961.371	212.79167
2963.471	180.79167
2965.569	199.79167
2967.666	167.79167
2969.762	164.79167
2971.857	164.45833
2973.95	158.45833
2976.042	166.45833
2978.133	155.45833
2980.222	158.125
2982.31	149.125
2984.396	130.79167
2986.482	134.125
2988.566	144.45833
2990.648	142.45833
2992.73	136.79167
2994.81	125.45833
2996.889	143.45833
2998.966	140.125
3001.042	148.79167
3003.117	129.79167
3005.191	134.79167
3007.263	145.125
3009.334	132.79167
3011.403	134.125
3013.472	128.45833
3015.539	142.79167
3017.604	149.79167
3019.669	120.45833
3021.732	120.125
3023.794	129.125
3025.854	117.125
3027.914	116.79167
3029.971	115.79167
3032.028	118.79167
3034.083	130.79167
3036.137	125.125
3038.19	114.45833
3040.242	109.125
3042.292	106.79167
3044.341	112.79167
3046.388	124.125
3048.435	106.79167
3050.48	124.79167
3052.524	112.79167
3054.566	96.79167
3056.607	112.45833
3058.647	101.125
3060.686	92.125
3062.723	90.45833
3064.759	88.45833
3066.794	0.125
3068.828	1.45833
3070.86	1.45833
