-0.839	145.25
3.438	162.91667
7.711	66.25
11.981	45.91667
16.247	32.91667
20.509	39.58333
24.768	35.25
29.024	42.25
33.276	33.91667
37.524	42.58333
41.769	29.91667
46.01	27.58333
50.247	42.91667
54.481	53.58333
58.712	55.25
62.939	34.25
67.162	54.25
71.382	48.25
75.599	35.58333
79.812	46.91667
84.021	67.91667
88.227	42.91667
92.429	54.91667
96.628	40.25
100.823	53.25
105.015	51.25
109.204	49.25
113.388	60.91667
117.57	44.91667
121.748	63.91667
125.922	50.58333
130.093	70.58333
134.261	66.58333
138.425	56.25
142.585	88.25
146.742	67.91667
150.896	89.25
155.046	81.25
159.193	127.91667
163.336	185.58333
167.476	329.58333
171.613	596.58333
175.746	971.25
179.875	1435.25
184.002	1867.25
188.124	2208.58333
192.244	2320.25
196.36	2346.58333
200.472	2327.58333
204.581	2297.58333
208.687	2258.91667
212.79	2274.58333
216.889	2288.91667
220.984	2324.91667
225.077	2341.25
229.165	2364.91667
233.251	2374.25
237.333	2379.25
241.412	2370.58333
245.487	2379.58333
249.559	2368.91667
253.628	2341.25
257.694	2317.25
261.756	2322.91667
265.814	2269.91667
269.87	2192.91667
273.922	2133.58333
277.97	2091.58333
282.016	2070.25
286.058	2062.91667
290.097	2075.91667
294.132	2096.91667
298.164	2100.91667
302.193	2022.91667
306.219	1914.91667
310.241	1783.58333
314.26	1676.58333
318.276	1606.58333
322.288	1562.91667
326.297	1495.58333
330.303	1486.58333
334.305	1459.91667
338.305	1441.58333
342.301	1449.25
346.294	1438.25
350.283	1431.58333
354.269	1406.91667
358.252	1399.25
362.232	1416.25
366.209	1405.91667
370.182	1394.25
374.152	1383.25
378.119	1398.58333
382.083	1386.58333
386.043	1418.91667
390	1399.25
393.954	1417.91667
397.905	1444.91667
401.852	1453.58333
405.797	1417.91667
409.738	1486.58333
413.676	1538.25
417.61	1579.58333
421.542	1450.91667
425.47	1388.58333
429.396	1384.25
433.318	1358.91667
437.236	1379.91667
441.152	1387.91667
445.065	1354.91667
448.974	1352.58333
452.88	1346.91667
456.783	1343.91667
460.683	1343.25
464.58	1335.58333
468.473	1339.25
472.364	1328.58333
476.251	1360.25
480.135	1339.58333
484.016	1369.25
487.894	1381.25
491.769	1374.58333
495.641	1373.91667
499.509	1368.58333
503.375	1373.25
507.237	1373.25
511.096	1348.25
514.952	1358.25
518.805	1373.58333
522.655	1361.25
526.502	1365.91667
530.346	1368.58333
534.187	1370.58333
538.024	1383.58333
541.859	1354.58333
545.69	1383.91667
549.519	1363.91667
553.344	1367.25
557.166	1348.91667
560.985	1353.91667
564.802	1345.58333
568.615	1322.91667
572.425	1295.25
576.232	1294.58333
580.036	1296.25
583.836	1315.25
587.634	1300.25
591.429	1301.25
595.221	1337.91667
599.01	1339.58333
602.796	1323.58333
606.578	1344.91667
610.358	1345.58333
614.135	1340.25
617.909	1338.91667
621.679	1342.58333
625.447	1310.25
629.212	1323.91667
632.973	1333.58333
636.732	1332.91667
640.488	1336.91667
644.241	1292.91667
647.991	1296.91667
651.737	1317.91667
655.481	1293.25
659.222	1295.91667
662.96	1280.58333
666.695	1301.25
670.427	1300.91667
674.156	1315.58333
677.882	1305.91667
681.605	1306.91667
685.325	1302.25
689.043	1300.91667
692.757	1286.25
696.468	1279.58333
700.177	1276.58333
703.882	1267.25
707.585	1257.58333
711.284	1256.25
714.981	1242.25
718.675	1241.91667
722.366	1258.91667
726.054	1251.58333
729.739	1241.91667
733.421	1245.58333
737.1	1232.25
740.777	1253.58333
744.45	1262.25
748.121	1251.25
751.789	1297.25
755.453	1264.58333
759.115	1275.58333
762.774	1281.58333
766.431	1276.91667
770.084	1295.58333
773.734	1269.58333
777.382	1303.91667
781.027	1300.91667
784.669	1297.25
788.308	1301.58333
791.944	1316.91667
795.577	1324.58333
799.208	1324.91667
802.835	1325.25
806.46	1321.58333
810.082	1343.91667
813.701	1328.91667
817.317	1336.25
820.931	1336.25
824.542	1335.25
828.149	1323.58333
831.754	1300.91667
835.357	1308.58333
838.956	1316.25
842.553	1341.25
846.146	1331.91667
849.737	1293.58333
853.326	1292.25
856.911	1254.58333
860.493	1293.58333
864.073	1327.25
867.65	1380.91667
871.225	1389.25
874.796	1330.91667
878.365	1306.25
881.931	1323.58333
885.494	1335.91667
889.054	1308.58333
892.612	1317.25
896.166	1297.25
899.719	1296.58333
903.268	1258.58333
906.814	1269.58333
910.358	1261.91667
913.899	1250.91667
917.438	1248.58333
920.973	1218.91667
924.506	1239.91667
928.036	1257.58333
931.564	1280.91667
935.088	1286.58333
938.61	1292.91667
942.129	1287.58333
945.646	1304.91667
949.16	1304.58333
952.671	1318.91667
956.179	1338.58333
959.685	1320.58333
963.188	1330.91667
966.688	1324.25
970.185	1279.91667
973.68	1256.25
977.173	1240.91667
980.662	1237.58333
984.149	1248.91667
987.633	1210.58333
991.114	1240.25
994.593	1263.91667
998.069	1279.58333
1001.542	1320.91667
1005.013	1302.91667
1008.481	1224.25
1011.947	1206.91667
1015.409	1198.25
1018.869	1214.58333
1022.327	1201.58333
1025.782	1171.25
1029.234	1173.58333
1032.683	1157.25
1036.13	1122.91667
1039.574	1098.91667
1043.016	1084.25
1046.455	1051.58333
1049.891	1047.25
1053.325	1073.58333
1056.756	1051.91667
1060.184	1053.25
1063.61	1047.25
1067.033	1068.25
1070.454	1046.25
1073.872	1085.91667
1077.287	1061.58333
1080.7	1056.58333
1084.11	1051.91667
1087.517	1056.91667
1090.922	1028.91667
1094.325	1031.25
1097.724	1024.91667
1101.122	1020.25
1104.516	1022.58333
1107.908	1003.91667
1111.298	1027.58333
1114.684	1017.58333
1118.069	1036.25
1121.45	1050.58333
1124.83	1033.91667
1128.206	1041.91667
1131.58	1044.25
1134.951	1090.58333
1138.32	1098.25
1141.687	1137.91667
1145.05	1163.91667
1148.412	1158.91667
1151.77	1151.91667
1155.126	1137.91667
1158.48	1129.91667
1161.831	1130.91667
1165.18	1131.91667
1168.525	1152.25
1171.869	1172.25
1175.21	1165.58333
1178.548	1171.25
1181.884	1191.58333
1185.217	1201.91667
1188.548	1224.25
1191.877	1233.58333
1195.202	1289.25
1198.526	1320.91667
1201.846	1299.58333
1205.165	1315.91667
1208.48	1304.91667
1211.794	1287.58333
1215.104	1305.91667
1218.413	1295.91667
1221.719	1292.91667
1225.022	1267.25
1228.323	1241.25
1231.621	1259.25
1234.917	1236.25
1238.21	1251.25
1241.501	1224.25
1244.79	1228.25
1248.076	1210.58333
1251.359	1234.25
1254.64	1275.91667
1257.919	1249.58333
1261.195	1271.58333
1264.468	1297.25
1267.74	1309.58333
1271.008	1316.58333
1274.275	1303.58333
1277.538	1286.91667
1280.8	1302.25
1284.059	1264.25
1287.315	1303.25
1290.569	1297.25
1293.821	1310.25
1297.07	1313.58333
1300.317	1304.91667
1303.562	1299.25
1306.803	1297.91667
1310.043	1293.25
1313.28	1296.58333
1316.515	1285.58333
1319.747	1280.25
1322.977	1270.25
1326.204	1246.25
1329.429	1236.91667
1332.652	1242.91667
1335.872	1228.25
1339.09	1200.58333
1342.306	1203.25
1345.519	1193.25
1348.729	1201.25
1351.938	1194.91667
1355.144	1189.58333
1358.347	1159.91667
1361.548	1175.91667
1364.747	1170.58333
1367.944	1149.25
1371.138	1167.25
1374.329	1152.91667
1377.518	1164.58333
1380.705	1174.25
1383.89	1168.25
1387.072	1133.91667
1390.252	1101.25
1393.429	1079.58333
1396.605	1042.58333
1399.777	1001.25
1402.948	1005.25
1406.116	985.25
1409.282	994.91667
1412.445	979.58333
1415.606	984.25
1418.765	997.91667
1421.921	1017.58333
1425.075	1024.25
1428.227	1045.91667
1431.376	1090.25
1434.524	1112.25
1437.668	1143.58333
1440.811	1158.58333
1443.951	1162.58333
1447.089	1167.58333
1450.224	1160.25
1453.357	1168.25
1456.488	1154.58333
1459.617	1149.91667
1462.743	1132.58333
1465.867	1108.58333
1468.989	1099.91667
1472.108	1072.25
1475.225	1048.25
1478.34	1041.25
1481.453	1049.58333
1484.563	1043.91667
1487.671	1053.91667
1490.776	1082.58333
1493.88	1067.91667
1496.981	1102.91667
1500.08	1111.58333
1503.176	1108.25
1506.271	1108.25
1509.363	1153.25
1512.452	1153.91667
1515.54	1146.91667
1518.625	1159.25
1521.708	1208.91667
1524.789	1224.25
1527.867	1264.25
1530.944	1334.58333
1534.018	1349.91667
1537.089	1423.91667
1540.159	1430.25
1543.226	1421.58333
1546.291	1383.58333
1549.354	1370.58333
1552.415	1339.58333
1555.473	1302.58333
1558.529	1297.25
1561.583	1289.91667
1564.634	1259.25
1567.684	1269.58333
1570.731	1288.58333
1573.776	1277.91667
1576.819	1300.58333
1579.859	1311.58333
1582.898	1331.91667
1585.934	1349.91667
1588.968	1348.25
1591.999	1324.58333
1595.029	1316.58333
1598.056	1336.58333
1601.081	1362.91667
1604.104	1350.25
1607.125	1334.25
1610.144	1302.58333
1613.16	1261.91667
1616.174	1243.25
1619.186	1228.25
1622.196	1192.91667
1625.203	1172.58333
1628.209	1147.91667
1631.212	1142.25
1634.213	1141.91667
1637.212	1135.91667
1640.209	1143.91667
1643.203	1112.58333
1646.196	1065.91667
1649.186	1038.25
1652.174	1018.25
1655.16	972.91667
1658.144	964.58333
1661.125	930.58333
1664.105	882.58333
1667.082	861.25
1670.057	806.25
1673.03	772.58333
1676.001	750.25
1678.97	693.25
1681.937	664.91667
1684.901	624.58333
1687.863	621.25
1690.824	587.25
1693.782	589.25
1696.738	560.25
1699.692	560.58333
1702.643	545.91667
1705.593	538.25
1708.54	532.91667
1711.486	542.58333
1714.429	518.25
1717.37	531.58333
1720.309	503.91667
1723.246	523.25
1726.181	497.91667
1729.113	499.25
1732.044	505.25
1734.972	484.25
1737.899	520.25
1740.823	505.58333
1743.745	518.25
1746.665	475.25
1749.583	469.58333
1752.499	473.58333
1755.413	472.91667
1758.325	446.58333
1761.235	470.91667
1764.142	445.58333
1767.048	446.91667
1769.951	448.91667
1772.852	448.91667
1775.752	492.25
1778.649	521.58333
1781.544	480.91667
1784.437	432.58333
1787.328	441.58333
1790.217	436.25
1793.104	412.58333
1795.989	416.58333
1798.872	404.58333
1801.753	435.91667
1804.631	418.58333
1807.508	428.91667
1810.383	418.91667
1813.255	414.91667
1816.126	417.25
1818.994	406.25
1821.861	401.58333
1824.725	410.58333
1827.587	410.25
1830.448	413.25
1833.306	394.25
1836.162	414.91667
1839.017	398.25
1841.869	400.91667
1844.719	401.91667
1847.567	379.91667
1850.414	377.58333
1853.258	380.25
1856.1	397.25
1858.94	398.91667
1861.778	388.91667
1864.614	374.25
1867.448	386.25
1870.28	383.58333
1873.111	388.91667
1875.939	376.91667
1878.765	403.25
1881.589	367.25
1884.411	383.91667
1887.231	382.91667
1890.049	382.58333
1892.865	385.58333
1895.68	369.58333
1898.492	389.91667
1901.302	376.25
1904.11	371.25
1906.916	368.91667
1909.721	365.25
1912.523	376.91667
1915.323	354.58333
1918.122	356.58333
1920.918	370.91667
1923.712	352.25
1926.505	364.25
1929.295	344.25
1932.084	364.25
1934.87	363.25
1937.655	357.25
1940.438	345.58333
1943.218	344.58333
1945.997	352.58333
1948.774	361.58333
1951.549	361.25
1954.322	340.58333
1957.093	349.58333
1959.862	342.91667
1962.629	346.25
1965.394	336.91667
1968.157	328.25
1970.918	346.58333
1973.678	329.25
1976.435	339.25
1979.19	332.58333
1981.944	328.25
1984.696	341.91667
1987.445	327.91667
1990.193	331.25
1992.939	336.91667
1995.683	331.91667
1998.425	308.91667
2001.165	346.25
2003.903	314.25
2006.639	325.25
2009.374	325.58333
2012.106	325.25
2014.837	297.91667
2017.566	329.58333
2020.292	323.91667
2023.017	312.58333
2025.74	310.58333
2028.461	316.25
2031.18	313.25
2033.898	309.58333
2036.613	314.91667
2039.327	313.25
2042.038	304.25
2044.748	308.91667
2047.456	318.58333
2050.162	304.91667
2052.866	299.91667
2055.568	314.25
2058.268	297.91667
2060.967	320.25
2063.663	285.91667
2066.358	292.58333
2069.051	288.58333
2071.742	298.58333
2074.431	303.58333
2077.118	297.25
2079.804	284.91667
2082.487	290.58333
2085.169	305.58333
2087.849	323.25
2090.527	286.91667
2093.203	303.91667
2095.877	303.25
2098.55	299.91667
2101.22	303.25
2103.889	310.25
2106.556	291.58333
2109.221	312.91667
2111.884	309.25
2114.546	332.58333
2117.205	332.25
2119.863	371.25
2122.519	370.91667
2125.173	393.25
2127.825	427.58333
2130.475	430.91667
2133.124	415.58333
2135.771	398.91667
2138.416	410.58333
2141.059	381.58333
2143.7	373.58333
2146.339	346.58333
2148.977	317.91667
2151.613	332.25
2154.247	317.25
2156.879	304.91667
2159.51	304.25
2162.138	299.58333
2164.765	288.58333
2167.39	276.58333
2170.013	301.91667
2172.634	294.91667
2175.254	280.25
2177.872	315.25
2180.488	271.91667
2183.102	278.25
2185.714	274.25
2188.325	266.91667
2190.934	269.91667
2193.541	276.25
2196.146	266.91667
2198.75	251.91667
2201.351	256.91667
2203.951	249.91667
2206.549	265.25
2209.146	258.58333
2211.74	246.91667
2214.333	259.25
2216.924	243.58333
2219.514	253.25
2222.101	242.91667
2224.687	257.58333
2227.271	238.58333
2229.853	240.58333
2232.433	226.91667
2235.012	254.91667
2237.589	243.58333
2240.164	258.58333
2242.738	235.25
2245.309	226.25
2247.879	246.58333
2250.448	245.25
2253.014	225.91667
2255.579	216.58333
2258.142	224.91667
2260.703	230.25
2263.262	224.58333
2265.82	217.25
2268.376	235.91667
2270.93	220.58333
2273.483	211.58333
2276.033	223.91667
2278.583	219.58333
2281.13	216.58333
2283.675	206.58333
2286.219	212.91667
2288.761	220.91667
2291.302	224.58333
2293.841	229.58333
2296.377	203.25
2298.913	216.25
2301.446	230.25
2303.978	219.91667
2306.508	214.58333
2309.037	217.25
2311.563	210.25
2314.088	209.25
2316.612	197.91667
2319.133	213.25
2321.653	212.58333
2324.171	209.91667
2326.688	214.58333
2329.202	208.25
2331.715	211.58333
2334.227	205.58333
2336.736	205.91667
2339.244	202.58333
2341.751	195.25
2344.255	211.58333
2346.758	209.25
2349.259	195.91667
2351.759	207.91667
2354.257	191.91667
2356.753	190.58333
2359.247	195.25
2361.74	194.25
2364.231	198.91667
2366.721	204.91667
2369.209	183.25
2371.695	193.25
2374.179	191.91667
2376.662	184.58333
2379.143	200.58333
2381.622	195.25
2384.1	206.25
2386.576	191.91667
2389.051	205.58333
2391.524	204.58333
2393.995	197.25
2396.464	189.58333
2398.932	183.58333
2401.398	189.25
2403.863	180.58333
2406.325	183.91667
2408.787	185.91667
2411.246	189.25
2413.704	185.25
2416.16	177.91667
2418.615	185.25
2421.068	187.91667
2423.519	181.58333
2425.969	174.91667
2428.417	187.91667
2430.863	204.91667
2433.308	187.91667
2435.751	186.91667
2438.193	185.91667
2440.633	183.58333
2443.071	189.25
2445.508	178.91667
2447.943	180.25
2450.376	177.25
2452.808	184.91667
2455.238	175.58333
2457.667	206.58333
2460.093	166.25
2462.519	165.58333
2464.942	166.58333
2467.365	177.58333
2469.785	179.58333
2472.204	167.91667
2474.621	163.91667
2477.037	191.25
2479.451	166.91667
2481.863	157.91667
2484.274	171.58333
2486.683	168.91667
2489.091	184.25
2491.497	176.58333
2493.901	174.91667
2496.304	176.25
2498.705	179.25
2501.105	173.58333
2503.503	188.91667
2505.899	165.25
2508.294	195.58333
2510.687	163.25
2513.079	169.25
2515.469	154.25
2517.858	167.91667
2520.245	180.25
2522.63	158.25
2525.014	164.58333
2527.396	157.25
2529.776	159.58333
2532.156	166.58333
2534.533	155.91667
2536.909	153.25
2539.283	146.91667
2541.656	159.91667
2544.027	169.58333
2546.397	159.91667
2548.765	158.25
2551.131	158.58333
2553.496	157.91667
2555.86	165.25
2558.221	167.91667
2560.582	155.25
2562.94	150.25
2565.298	157.25
2567.653	167.91667
2570.007	143.58333
2572.36	154.58333
2574.711	153.25
2577.06	169.25
2579.408	160.58333
2581.754	152.91667
2584.099	155.25
2586.442	152.25
2588.784	162.58333
2591.124	156.25
2593.463	146.58333
2595.8	160.91667
2598.135	143.25
2600.469	143.25
2602.802	158.91667
2605.133	164.25
2607.462	147.91667
2609.79	142.91667
2612.116	154.58333
2614.441	146.25
2616.764	152.91667
2619.086	151.25
2621.406	147.25
2623.725	161.58333
2626.042	146.91667
2628.358	142.91667
2630.672	153.25
2632.985	151.58333
2635.296	146.58333
2637.606	146.91667
2639.914	140.91667
2642.22	146.58333
2644.525	152.25
2646.829	153.91667
2649.131	157.58333
2651.432	152.58333
2653.731	143.58333
2656.028	155.58333
2658.324	151.25
2660.619	137.58333
2662.912	154.91667
2665.204	137.91667
2667.494	155.25
2669.782	141.58333
2672.07	156.25
2674.355	159.25
2676.639	148.91667
2678.922	141.58333
2681.203	157.25
2683.483	146.58333
2685.761	134.25
2688.038	152.58333
2690.313	164.25
2692.587	146.91667
2694.859	144.25
2697.13	145.58333
2699.399	143.58333
2701.667	154.91667
2703.933	150.58333
2706.198	154.58333
2708.461	163.25
2710.723	157.91667
2712.984	155.91667
2715.243	157.25
2717.5	153.25
2719.757	160.58333
2722.011	145.58333
2724.264	160.58333
2726.516	166.58333
2728.766	147.58333
2731.015	155.58333
2733.262	152.91667
2735.508	151.58333
2737.753	149.58333
2739.996	138.91667
2742.237	144.58333
2744.477	158.91667
2746.716	156.58333
2748.953	155.58333
2751.189	152.58333
2753.423	153.91667
2755.656	143.25
2757.887	143.91667
2760.117	143.91667
2762.346	140.91667
2764.573	135.91667
2766.798	141.58333
2769.022	140.58333
2771.245	134.91667
2773.467	141.58333
2775.686	141.25
2777.905	147.58333
2780.122	141.58333
2782.337	149.91667
2784.552	146.58333
2786.764	143.58333
2788.976	140.58333
2791.186	146.91667
2793.394	143.58333
2795.601	149.58333
2797.807	159.25
2800.011	151.25
2802.214	160.58333
2804.415	151.25
2806.615	156.91667
2808.814	153.25
2811.011	161.58333
2813.206	159.25
2815.401	167.91667
2817.594	167.58333
2819.785	173.91667
2821.975	153.25
2824.164	160.25
2826.351	165.25
2828.537	179.91667
2830.722	177.58333
2832.905	175.58333
2835.086	177.58333
2837.267	199.25
2839.445	197.25
2841.623	195.58333
2843.799	202.91667
2845.974	214.58333
2848.147	212.25
2850.319	226.25
2852.489	232.25
2854.659	238.58333
2856.826	240.91667
2858.993	255.25
2861.158	229.25
2863.321	246.58333
2865.483	262.58333
2867.644	252.25
2869.804	254.25
2871.962	255.25
2874.118	263.58333
2876.274	287.25
2878.428	284.91667
2880.58	268.91667
2882.731	252.25
2884.881	264.25
2887.03	263.25
2889.177	255.91667
2891.322	260.25
2893.467	250.58333
2895.61	244.58333
2897.751	266.25
2899.892	247.91667
2902.03	265.25
2904.168	255.91667
2906.304	253.58333
2908.439	275.91667
2910.572	256.25
2912.704	255.25
2914.835	263.58333
2916.965	267.25
2919.093	275.58333
2921.219	246.58333
2923.345	276.25
2925.469	265.25
2927.591	253.25
2929.712	240.58333
2931.832	246.91667
2933.951	247.25
2936.068	233.25
2938.184	228.58333
2940.299	228.25
2942.412	219.25
2944.524	198.58333
2946.634	215.58333
2948.744	181.91667
2950.851	217.25
2952.958	184.25
2955.063	192.25
2957.167	185.58333
2959.269	166.91667
2961.371	206.25
2963.471	169.58333
2965.569	185.91667
2967.666	157.58333
2969.762	164.58333
2971.857	151.25
2973.95	153.58333
2976.042	160.25
2978.133	154.91667
2980.222	148.58333
2982.31	133.91667
2984.396	122.58333
2986.482	130.25
2988.566	134.25
2990.648	130.25
2992.73	132.91667
2994.81	116.91667
2996.889	134.91667
2998.966	122.91667
3001.042	128.58333
3003.117	122.58333
3005.191	127.58333
3007.263	135.91667
3009.334	119.25
3011.403	124.91667
3013.472	118.58333
3015.539	128.58333
3017.604	139.58333
3019.669	109.25
3021.732	114.58333
3023.794	110.91667
3025.854	108.91667
3027.914	105.91667
3029.971	110.25
3032.028	110.91667
3034.083	116.58333
3036.137	113.58333
3038.19	98.58333
3040.242	92.91667
3042.292	96.25
3044.341	102.91667
3046.388	112.25
3048.435	92.91667
3050.48	115.58333
3052.524	100.25
3054.566	86.25
3056.607	100.91667
3058.647	94.91667
3060.686	84.25
3062.723	82.25
3064.759	78.91667
3066.794	-1.41667
3068.828	0.25
3070.86	1.58333
