-0.839	140.75
3.438	160.41667
7.711	63.41667
11.981	42.41667
16.247	33.08333
20.509	37.08333
24.768	36.41667
29.024	41.08333
33.276	30.41667
37.524	40.08333
41.769	32.75
46.01	28.41667
50.247	41.41667
54.481	52.41667
58.712	52.08333
62.939	36.41667
67.162	53.41667
71.382	45.41667
75.599	34.08333
79.812	42.75
84.021	64.75
88.227	38.75
92.429	50.08333
96.628	37.08333
100.823	53.41667
105.015	50.41667
109.204	47.08333
113.388	57.08333
117.57	41.08333
121.748	58.41667
125.922	48.75
130.093	69.08333
134.261	64.41667
138.425	55.41667
142.585	84.08333
146.742	65.08333
150.896	78.41667
155.046	74.75
159.193	108.75
163.336	159.75
167.476	271.75
171.613	489.75
175.746	779.41667
179.875	1139.08333
184.002	1474.75
188.124	1738.41667
192.244	1826.41667
196.36	1831.08333
200.472	1826.75
204.581	1786.75
208.687	1741.08333
212.79	1742.41667
216.889	1756.75
220.984	1780.08333
225.077	1794.08333
229.165	1781.41667
233.251	1792.75
237.333	1795.08333
241.412	1785.41667
245.487	1771.08333
249.559	1748.41667
253.628	1742.41667
257.694	1736.41667
261.756	1737.75
265.814	1698.75
269.87	1637.08333
273.922	1623.41667
277.97	1589.08333
282.016	1607.08333
286.058	1569.41667
290.097	1613.08333
294.132	1618.41667
298.164	1622.41667
302.193	1552.75
306.219	1452.41667
310.241	1349.75
314.26	1281.08333
318.276	1226.75
322.288	1178.08333
326.297	1153.41667
330.303	1111.41667
334.305	1098.08333
338.305	1094.08333
342.301	1076.08333
346.294	1092.75
350.283	1079.41667
354.269	1066.41667
358.252	1059.75
362.232	1072.41667
366.209	1067.41667
370.182	1065.75
374.152	1043.75
378.119	1061.41667
382.083	1039.08333
386.043	1056.75
390	1056.75
393.954	1055.75
397.905	1059.08333
401.852	1077.08333
405.797	1061.75
409.738	1063.08333
413.676	1092.08333
417.61	1101.75
421.542	1058.41667
425.47	1054.08333
429.396	1043.08333
433.318	1005.08333
437.236	1027.08333
441.152	1063.41667
445.065	1008.75
448.974	1014.75
452.88	1015.41667
456.783	997.41667
460.683	1002.41667
464.58	1006.08333
468.473	1007.75
472.364	1017.75
476.251	1020.08333
480.135	1024.41667
484.016	1026.41667
487.894	1037.08333
491.769	1027.08333
495.641	1032.75
499.509	1028.75
503.375	1037.08333
507.237	1027.75
511.096	1023.41667
514.952	1030.08333
518.805	1040.08333
522.655	1040.41667
526.502	1022.41667
530.346	1041.41667
534.187	1042.41667
538.024	1030.41667
541.859	1025.08333
545.69	1047.08333
549.519	1028.75
553.344	1036.75
557.166	1018.08333
560.985	1011.41667
564.802	1000.41667
568.615	999.75
572.425	967.75
576.232	964.08333
580.036	980.41667
583.836	992.75
587.634	993.08333
591.429	986.41667
595.221	998.75
599.01	1001.75
602.796	999.08333
606.578	1008.08333
610.358	1009.75
614.135	1002.08333
617.909	1011.75
621.679	986.75
625.447	971.75
629.212	991.08333
632.973	993.41667
636.732	985.75
640.488	998.41667
644.241	966.75
647.991	957.41667
651.737	1000.08333
655.481	950.41667
659.222	967.08333
662.96	977.08333
666.695	989.75
670.427	974.08333
674.156	982.75
677.882	978.08333
681.605	977.75
685.325	960.08333
689.043	997.41667
692.757	963.41667
696.468	974.75
700.177	961.08333
703.882	958.08333
707.585	951.75
711.284	959.75
714.981	946.75
718.675	934.08333
722.366	963.41667
726.054	930.75
729.739	959.08333
733.421	945.41667
737.1	940.08333
740.777	952.75
744.45	948.75
748.121	947.08333
751.789	979.08333
755.453	962.08333
759.115	969.08333
762.774	973.75
766.431	971.08333
770.084	989.75
773.734	965.08333
777.382	987.08333
781.027	993.08333
784.669	983.08333
788.308	973.41667
791.944	1008.41667
795.577	995.41667
799.208	1000.08333
802.835	1003.75
806.46	999.41667
810.082	1009.41667
813.701	1012.75
817.317	1027.41667
820.931	1010.08333
824.542	1005.08333
828.149	990.41667
831.754	988.75
835.357	980.75
838.956	1001.75
842.553	999.08333
846.146	989.41667
849.737	968.41667
853.326	976.41667
856.911	963.41667
860.493	986.41667
864.073	993.75
867.65	1019.08333
871.225	1016.75
874.796	992.75
878.365	983.75
881.931	1007.75
885.494	1027.08333
889.054	994.08333
892.612	1005.41667
896.166	981.41667
899.719	965.41667
903.268	950.08333
906.814	961.41667
910.358	935.08333
913.899	928.75
917.438	945.41667
920.973	929.75
924.506	944.41667
928.036	967.08333
931.564	966.08333
935.088	990.75
938.61	969.08333
942.129	964.75
945.646	982.41667
949.16	987.41667
952.671	1000.08333
956.179	1013.41667
959.685	999.75
963.188	1008.08333
966.688	997.41667
970.185	968.75
973.68	945.75
977.173	937.08333
980.662	931.75
984.149	944.41667
987.633	914.41667
991.114	939.75
994.593	965.08333
998.069	969.08333
1001.542	980.75
1005.013	982.08333
1008.481	922.75
1011.947	911.75
1015.409	892.08333
1018.869	904.08333
1022.327	915.08333
1025.782	883.75
1029.234	877.08333
1032.683	882.41667
1036.13	855.41667
1039.574	828.75
1043.016	811.08333
1046.455	795.08333
1049.891	799.75
1053.325	803.41667
1056.756	799.08333
1060.184	809.75
1063.61	797.08333
1067.033	807.08333
1070.454	790.41667
1073.872	824.08333
1077.287	799.08333
1080.7	798.08333
1084.11	800.08333
1087.517	807.08333
1090.922	791.08333
1094.325	783.75
1097.724	768.75
1101.122	782.08333
1104.516	764.08333
1107.908	756.41667
1111.298	770.75
1114.684	780.08333
1118.069	772.75
1121.45	802.75
1124.83	774.41667
1128.206	790.75
1131.58	797.41667
1134.951	811.41667
1138.32	819.41667
1141.687	852.08333
1145.05	869.08333
1148.412	873.08333
1151.77	868.41667
1155.126	864.75
1158.48	847.08333
1161.831	852.41667
1165.18	862.75
1168.525	879.41667
1171.869	885.41667
1175.21	879.41667
1178.548	884.75
1181.884	893.75
1185.217	897.08333
1188.548	925.08333
1191.877	934.08333
1195.202	977.75
1198.526	993.08333
1201.846	989.08333
1205.165	976.08333
1208.48	999.08333
1211.794	983.75
1215.104	991.08333
1218.413	980.41667
1221.719	975.41667
1225.022	957.75
1228.323	947.41667
1231.621	961.08333
1234.917	957.08333
1238.21	973.41667
1241.501	937.75
1244.79	923.08333
1248.076	918.08333
1251.359	945.75
1254.64	981.08333
1257.919	964.41667
1261.195	972.75
1264.468	988.08333
1267.74	992.75
1271.008	993.41667
1274.275	992.75
1277.538	988.41667
1280.8	986.08333
1284.059	985.41667
1287.315	999.08333
1290.569	991.08333
1293.821	1007.75
1297.07	1006.08333
1300.317	1011.41667
1303.562	1012.75
1306.803	1006.41667
1310.043	989.75
1313.28	987.75
1316.515	984.08333
1319.747	989.41667
1322.977	972.41667
1326.204	960.41667
1329.429	959.08333
1332.652	958.75
1335.872	967.08333
1339.09	942.08333
1342.306	932.08333
1345.519	937.75
1348.729	930.08333
1351.938	932.08333
1355.144	931.75
1358.347	904.41667
1361.548	916.41667
1364.747	914.75
1367.944	894.41667
1371.138	898.75
1374.329	904.41667
1377.518	904.41667
1380.705	906.75
1383.89	911.41667
1387.072	884.41667
1390.252	852.08333
1393.429	831.41667
1396.605	813.08333
1399.777	782.41667
1402.948	777.41667
1406.116	769.75
1409.282	766.75
1412.445	762.08333
1415.606	770.75
1418.765	782.41667
1421.921	797.41667
1425.075	798.41667
1428.227	804.75
1431.376	844.08333
1434.524	883.08333
1437.668	898.08333
1440.811	908.75
1443.951	904.08333
1447.089	914.41667
1450.224	903.75
1453.357	891.75
1456.488	895.41667
1459.617	896.75
1462.743	870.08333
1465.867	840.75
1468.989	848.41667
1472.108	837.75
1475.225	816.41667
1478.34	810.75
1481.453	803.41667
1484.563	805.41667
1487.671	828.41667
1490.776	824.75
1493.88	830.75
1496.981	848.41667
1500.08	861.41667
1503.176	848.41667
1506.271	855.41667
1509.363	885.08333
1512.452	872.75
1515.54	884.41667
1518.625	894.08333
1521.708	928.41667
1524.789	950.75
1527.867	970.75
1530.944	999.41667
1534.018	1045.08333
1537.089	1080.75
1540.159	1096.08333
1543.226	1092.75
1546.291	1070.75
1549.354	1061.41667
1552.415	1038.75
1555.473	1025.08333
1558.529	1004.75
1561.583	1006.41667
1564.634	978.75
1567.684	985.75
1570.731	983.75
1573.776	982.41667
1576.819	990.75
1579.859	998.41667
1582.898	1021.41667
1585.934	1034.41667
1588.968	1021.08333
1591.999	1006.41667
1595.029	1011.41667
1598.056	1019.08333
1601.081	1049.08333
1604.104	1037.75
1607.125	1026.08333
1610.144	1004.41667
1613.16	972.75
1616.174	949.75
1619.186	944.75
1622.196	922.08333
1625.203	900.75
1628.209	907.08333
1631.212	891.08333
1634.213	894.08333
1637.212	893.08333
1640.209	887.08333
1643.203	853.41667
1646.196	828.41667
1649.186	806.41667
1652.174	814.75
1655.16	771.75
1658.144	757.41667
1661.125	736.41667
1664.105	703.08333
1667.082	675.75
1670.057	634.75
1673.03	607.75
1676.001	588.41667
1678.97	547.41667
1681.937	527.08333
1684.901	497.75
1687.863	499.75
1690.824	463.08333
1693.782	472.41667
1696.738	438.08333
1699.692	432.41667
1702.643	425.41667
1705.593	429.08333
1708.54	419.08333
1711.486	437.75
1714.429	406.41667
1717.37	418.41667
1720.309	401.75
1723.246	405.41667
1726.181	385.75
1729.113	396.41667
1732.044	401.75
1734.972	388.08333
1737.899	407.75
1740.823	398.41667
1743.745	424.41667
1746.665	380.41667
1749.583	375.75
1752.499	363.75
1755.413	363.41667
1758.325	352.08333
1761.235	360.41667
1764.142	351.41667
1767.048	347.08333
1769.951	360.08333
1772.852	348.75
1775.752	359.08333
1778.649	363.41667
1781.544	372.41667
1784.437	346.41667
1787.328	355.75
1790.217	337.75
1793.104	317.75
1795.989	328.41667
1798.872	327.08333
1801.753	334.75
1804.631	329.41667
1807.508	335.41667
1810.383	328.41667
1813.255	341.75
1816.126	325.75
1818.994	323.08333
1821.861	324.08333
1824.725	326.08333
1827.587	324.41667
1830.448	324.75
1833.306	314.41667
1836.162	330.41667
1839.017	320.41667
1841.869	326.08333
1844.719	310.75
1847.567	304.08333
1850.414	303.41667
1853.258	297.75
1856.1	312.41667
1858.94	316.75
1861.778	312.75
1864.614	299.41667
1867.448	307.75
1870.28	290.75
1873.111	317.75
1875.939	302.75
1878.765	326.41667
1881.589	296.41667
1884.411	300.08333
1887.231	313.08333
1890.049	307.41667
1892.865	306.75
1895.68	295.41667
1898.492	307.41667
1901.302	292.75
1904.11	296.75
1906.916	296.08333
1909.721	286.41667
1912.523	292.75
1915.323	277.08333
1918.122	278.41667
1920.918	299.08333
1923.712	279.41667
1926.505	294.08333
1929.295	268.75
1932.084	281.41667
1934.87	287.08333
1937.655	278.41667
1940.438	270.08333
1943.218	285.75
1945.997	285.08333
1948.774	289.75
1951.549	291.75
1954.322	278.41667
1957.093	281.75
1959.862	273.08333
1962.629	271.41667
1965.394	280.08333
1968.157	269.41667
1970.918	277.41667
1973.678	270.08333
1976.435	280.08333
1979.19	268.75
1981.944	255.75
1984.696	263.08333
1987.445	256.08333
1990.193	258.75
1992.939	282.08333
1995.683	271.41667
1998.425	250.08333
2001.165	282.75
2003.903	254.75
2006.639	259.75
2009.374	265.08333
2012.106	261.08333
2014.837	241.75
2017.566	259.75
2020.292	256.08333
2023.017	253.08333
2025.74	244.75
2028.461	242.75
2031.18	252.75
2033.898	243.75
2036.613	256.41667
2039.327	253.75
2042.038	240.08333
2044.748	251.75
2047.456	255.75
2050.162	235.08333
2052.866	240.08333
2055.568	252.41667
2058.268	232.41667
2060.967	255.75
2063.663	233.75
2066.358	238.41667
2069.051	236.08333
2071.742	236.75
2074.431	249.41667
2077.118	240.08333
2079.804	232.08333
2082.487	230.41667
2085.169	251.75
2087.849	253.41667
2090.527	228.08333
2093.203	235.08333
2095.877	242.75
2098.55	237.75
2101.22	246.75
2103.889	253.41667
2106.556	247.41667
2109.221	258.08333
2111.884	244.41667
2114.546	268.75
2117.205	279.75
2119.863	304.75
2122.519	301.75
2125.173	316.41667
2127.825	356.75
2130.475	355.08333
2133.124	323.75
2135.771	315.75
2138.416	329.41667
2141.059	294.08333
2143.7	294.75
2146.339	276.41667
2148.977	253.08333
2151.613	265.41667
2154.247	257.08333
2156.879	250.41667
2159.51	238.41667
2162.138	235.75
2164.765	238.41667
2167.39	224.41667
2170.013	250.41667
2172.634	247.41667
2175.254	227.08333
2177.872	261.41667
2180.488	218.41667
2183.102	227.41667
2185.714	224.75
2188.325	216.41667
2190.934	224.75
2193.541	225.75
2196.146	219.08333
2198.75	208.75
2201.351	211.41667
2203.951	199.41667
2206.549	218.08333
2209.146	204.41667
2211.74	200.41667
2214.333	213.41667
2216.924	196.75
2219.514	196.41667
2222.101	197.75
2224.687	217.75
2227.271	193.75
2229.853	203.08333
2232.433	183.75
2235.012	205.08333
2237.589	203.75
2240.164	219.75
2242.738	190.75
2245.309	185.08333
2247.879	209.41667
2250.448	199.75
2253.014	184.75
2255.579	183.75
2258.142	184.75
2260.703	191.08333
2263.262	186.41667
2265.82	175.08333
2268.376	202.41667
2270.93	183.41667
2273.483	178.08333
2276.033	190.08333
2278.583	175.08333
2281.13	176.75
2283.675	170.75
2286.219	184.75
2288.761	188.08333
2291.302	186.08333
2293.841	190.75
2296.377	176.75
2298.913	181.75
2301.446	189.08333
2303.978	183.08333
2306.508	179.41667
2309.037	180.75
2311.563	177.75
2314.088	174.08333
2316.612	166.41667
2319.133	179.75
2321.653	183.08333
2324.171	171.75
2326.688	184.41667
2329.202	171.41667
2331.715	175.08333
2334.227	177.75
2336.736	171.41667
2339.244	170.08333
2341.751	162.08333
2344.255	180.08333
2346.758	177.08333
2349.259	161.08333
2351.759	175.41667
2354.257	162.08333
2356.753	162.41667
2359.247	162.75
2361.74	161.41667
2364.231	163.41667
2366.721	171.41667
2369.209	165.41667
2371.695	166.08333
2374.179	163.41667
2376.662	155.08333
2379.143	172.41667
2381.622	164.41667
2384.1	172.08333
2386.576	155.08333
2389.051	172.41667
2391.524	175.08333
2393.995	167.41667
2396.464	158.08333
2398.932	154.75
2401.398	162.08333
2403.863	155.75
2406.325	151.75
2408.787	168.75
2411.246	159.75
2413.704	160.41667
2416.16	152.75
2418.615	154.41667
2421.068	160.75
2423.519	155.08333
2425.969	145.41667
2428.417	173.08333
2430.863	173.75
2433.308	161.08333
2435.751	161.08333
2438.193	152.08333
2440.633	160.41667
2443.071	162.08333
2445.508	148.08333
2447.943	152.08333
2450.376	146.08333
2452.808	160.08333
2455.238	141.41667
2457.667	168.41667
2460.093	144.41667
2462.519	138.75
2464.942	145.08333
2467.365	156.41667
2469.785	156.75
2472.204	142.75
2474.621	148.08333
2477.037	167.41667
2479.451	143.08333
2481.863	138.41667
2484.274	141.41667
2486.683	145.08333
2489.091	160.41667
2491.497	156.75
2493.901	150.75
2496.304	144.41667
2498.705	154.08333
2501.105	147.08333
2503.503	163.08333
2505.899	140.75
2508.294	160.75
2510.687	141.08333
2513.079	145.75
2515.469	141.75
2517.858	142.08333
2520.245	155.75
2522.63	143.41667
2525.014	141.75
2527.396	135.08333
2529.776	142.08333
2532.156	143.41667
2534.533	133.75
2536.909	135.41667
2539.283	124.41667
2541.656	141.41667
2544.027	151.41667
2546.397	141.75
2548.765	135.08333
2551.131	139.41667
2553.496	140.08333
2555.86	142.08333
2558.221	144.41667
2560.582	136.41667
2562.94	130.08333
2565.298	139.75
2567.653	146.75
2570.007	124.75
2572.36	151.08333
2574.711	127.08333
2577.06	150.41667
2579.408	137.75
2581.754	137.08333
2584.099	137.08333
2586.442	137.41667
2588.784	141.75
2591.124	130.75
2593.463	133.41667
2595.8	141.08333
2598.135	122.08333
2600.469	127.08333
2602.802	144.08333
2605.133	144.75
2607.462	131.75
2609.79	120.41667
2612.116	138.75
2614.441	134.41667
2616.764	138.41667
2619.086	135.41667
2621.406	132.08333
2623.725	140.75
2626.042	130.08333
2628.358	131.08333
2630.672	130.08333
2632.985	137.08333
2635.296	140.41667
2637.606	131.08333
2639.914	128.75
2642.22	127.41667
2644.525	134.08333
2646.829	136.08333
2649.131	145.08333
2651.432	139.41667
2653.731	129.75
2656.028	146.41667
2658.324	136.41667
2660.619	122.75
2662.912	140.75
2665.204	125.75
2667.494	136.41667
2669.782	128.75
2672.07	144.75
2674.355	144.08333
2676.639	139.41667
2678.922	127.75
2681.203	139.41667
2683.483	128.08333
2685.761	122.08333
2688.038	144.41667
2690.313	144.75
2692.587	129.41667
2694.859	130.75
2697.13	131.08333
2699.399	138.75
2701.667	140.41667
2703.933	135.41667
2706.198	146.75
2708.461	142.75
2710.723	145.75
2712.984	135.75
2715.243	148.41667
2717.5	137.41667
2719.757	142.08333
2722.011	139.08333
2724.264	144.08333
2726.516	152.75
2728.766	137.75
2731.015	140.75
2733.262	140.08333
2735.508	143.08333
2737.753	142.41667
2739.996	130.41667
2742.237	135.75
2744.477	142.08333
2746.716	152.08333
2748.953	144.41667
2751.189	146.75
2753.423	141.08333
2755.656	134.75
2757.887	128.08333
2760.117	132.75
2762.346	129.08333
2764.573	123.75
2766.798	132.41667
2769.022	132.41667
2771.245	124.08333
2773.467	135.41667
2775.686	130.41667
2777.905	134.75
2780.122	135.41667
2782.337	139.75
2784.552	127.75
2786.764	130.08333
2788.976	125.75
2791.186	135.75
2793.394	130.41667
2795.601	143.08333
2797.807	149.75
2800.011	138.08333
2802.214	140.08333
2804.415	140.75
2806.615	140.41667
2808.814	147.75
2811.011	153.75
2813.206	154.75
2815.401	156.08333
2817.594	155.75
2819.785	166.08333
2821.975	140.75
2824.164	152.41667
2826.351	151.08333
2828.537	169.08333
2830.722	164.41667
2832.905	163.08333
2835.086	164.75
2837.267	182.41667
2839.445	181.75
2841.623	182.08333
2843.799	180.75
2845.974	190.41667
2848.147	185.75
2850.319	199.08333
2852.489	208.75
2854.659	204.41667
2856.826	209.41667
2858.993	228.41667
2861.158	203.41667
2863.321	213.75
2865.483	225.41667
2867.644	221.41667
2869.804	222.75
2871.962	216.41667
2874.118	220.08333
2876.274	227.08333
2878.428	225.41667
2880.58	229.75
2882.731	213.75
2884.881	218.41667
2887.03	226.08333
2889.177	219.75
2891.322	229.08333
2893.467	223.75
2895.61	223.08333
2897.751	227.75
2899.892	224.41667
2902.03	226.75
2904.168	227.41667
2906.304	221.41667
2908.439	239.75
2910.572	225.75
2912.704	226.41667
2914.835	230.08333
2916.965	235.75
2919.093	245.41667
2921.219	219.41667
2923.345	243.75
2925.469	228.41667
2927.591	220.75
2929.712	212.75
2931.832	222.08333
2933.951	217.41667
2936.068	205.41667
2938.184	210.75
2940.299	201.75
2942.412	197.41667
2944.524	179.41667
2946.634	198.08333
2948.744	170.41667
2950.851	202.41667
2952.958	168.75
2955.063	178.75
2957.167	166.08333
2959.269	163.75
2961.371	189.41667
2963.471	158.75
2965.569	179.41667
2967.666	151.41667
2969.762	150.41667
2971.857	145.08333
2973.95	137.75
2976.042	148.75
2978.133	143.75
2980.222	140.41667
2982.31	135.75
2984.396	117.08333
2986.482	123.41667
2988.566	129.75
2990.648	125.08333
2992.73	132.75
2994.81	117.41667
2996.889	130.75
2998.966	127.08333
3001.042	133.75
3003.117	120.75
3005.191	125.41667
3007.263	131.75
3009.334	121.75
3011.403	127.75
3013.472	118.08333
3015.539	131.08333
3017.604	142.41667
3019.669	114.41667
3021.732	120.75
3023.794	116.08333
3025.854	107.41667
3027.914	107.41667
3029.971	107.08333
3032.028	117.08333
3034.083	120.75
3036.137	117.41667
3038.19	101.41667
3040.242	98.08333
3042.292	98.08333
3044.341	102.41667
3046.388	117.75
3048.435	97.41667
3050.48	114.08333
3052.524	104.75
3054.566	91.75
3056.607	102.75
3058.647	99.41667
3060.686	86.75
3062.723	82.41667
3064.759	84.75
3066.794	1.41667
3068.828	2.08333
3070.86	1.08333
