-0.839	147.5
3.438	173.83333
7.711	67.5
11.981	41.16667
16.247	31.5
20.509	35.5
24.768	33.16667
29.024	41.5
33.276	29.83333
37.524	40.5
41.769	31.16667
46.01	27.5
50.247	43.83333
54.481	51.5
58.712	52.83333
62.939	30.5
67.162	52.16667
71.382	45.83333
75.599	37.83333
79.812	42.83333
84.021	60.83333
88.227	38.5
92.429	50.83333
96.628	36.16667
100.823	48.16667
105.015	48.16667
109.204	46.83333
113.388	55.83333
117.57	42.83333
121.748	60.83333
125.922	48.83333
130.093	65.83333
134.261	62.83333
138.425	53.83333
142.585	83.5
146.742	67.16667
150.896	83.16667
155.046	80.16667
159.193	115.83333
163.336	171.16667
167.476	302.83333
171.613	533.83333
175.746	885.16667
179.875	1269.16667
184.002	1649.5
188.124	1954.83333
192.244	2052.5
196.36	2052.5
200.472	2035.5
204.581	2004.5
208.687	1951.16667
212.79	1932.83333
216.889	1955.16667
220.984	1978.5
225.077	1975.83333
229.165	1976.5
233.251	1997.16667
237.333	1987.83333
241.412	1958.5
245.487	1950.16667
249.559	1937.16667
253.628	1930.5
257.694	1910.5
261.756	1909.5
265.814	1869.16667
269.87	1811.5
273.922	1752.5
277.97	1753.16667
282.016	1717.83333
286.058	1686.83333
290.097	1720.16667
294.132	1726.83333
298.164	1705.83333
302.193	1651.5
306.219	1560.5
310.241	1486.5
314.26	1370.83333
318.276	1312.16667
322.288	1270.5
326.297	1235.16667
330.303	1192.5
334.305	1191.16667
338.305	1173.16667
342.301	1169.83333
346.294	1169.16667
350.283	1162.83333
354.269	1157.5
358.252	1157.5
362.232	1146.16667
366.209	1143.5
370.182	1126.5
374.152	1123.83333
378.119	1143.83333
382.083	1137.16667
386.043	1135.16667
390	1126.5
393.954	1137.16667
397.905	1136.5
401.852	1140.83333
405.797	1134.83333
409.738	1131.83333
413.676	1142.5
417.61	1138.16667
421.542	1132.16667
425.47	1108.5
429.396	1109.5
433.318	1083.16667
437.236	1083.16667
441.152	1127.5
445.065	1079.16667
448.974	1094.5
452.88	1081.83333
456.783	1075.16667
460.683	1082.5
464.58	1084.16667
468.473	1090.83333
472.364	1085.83333
476.251	1071.16667
480.135	1074.16667
484.016	1104.5
487.894	1126.83333
491.769	1104.5
495.641	1097.83333
499.509	1097.16667
503.375	1098.5
507.237	1089.83333
511.096	1094.5
514.952	1092.83333
518.805	1095.83333
522.655	1109.83333
526.502	1096.5
530.346	1097.16667
534.187	1108.16667
538.024	1085.16667
541.859	1068.16667
545.69	1096.83333
549.519	1097.83333
553.344	1080.83333
557.166	1068.83333
560.985	1070.83333
564.802	1065.83333
568.615	1046.16667
572.425	1035.83333
576.232	1027.83333
580.036	1038.83333
583.836	1035.5
587.634	1028.83333
591.429	1041.83333
595.221	1065.16667
599.01	1050.83333
602.796	1053.16667
606.578	1063.16667
610.358	1078.83333
614.135	1057.5
617.909	1068.16667
621.679	1057.83333
625.447	1036.5
629.212	1030.16667
632.973	1042.83333
636.732	1047.5
640.488	1044.83333
644.241	1036.16667
647.991	1019.5
651.737	1056.16667
655.481	1037.83333
659.222	1035.16667
662.96	1028.16667
666.695	1058.16667
670.427	1053.5
674.156	1040.5
677.882	1037.83333
681.605	1044.16667
685.325	1027.5
689.043	1044.5
692.757	1016.5
696.468	1026.16667
700.177	1031.83333
703.882	1011.83333
707.585	997.16667
711.284	1004.5
714.981	996.5
718.675	1004.83333
722.366	1006.16667
726.054	990.16667
729.739	1004.5
733.421	988.5
737.1	995.5
740.777	1018.5
744.45	1008.16667
748.121	1011.5
751.789	1036.5
755.453	1009.5
759.115	1025.83333
762.774	1014.16667
766.431	1018.83333
770.084	1034.16667
773.734	1020.83333
777.382	1059.5
781.027	1057.83333
784.669	1032.5
788.308	1048.5
791.944	1064.83333
795.577	1067.5
799.208	1060.83333
802.835	1072.83333
806.46	1078.5
810.082	1081.5
813.701	1093.16667
817.317	1104.83333
820.931	1093.5
824.542	1094.16667
828.149	1078.16667
831.754	1051.16667
835.357	1035.83333
838.956	1062.5
842.553	1038.5
846.146	1019.83333
849.737	1026.5
853.326	1032.16667
856.911	1015.83333
860.493	1037.16667
864.073	1029.16667
867.65	1063.83333
871.225	1056.83333
874.796	1045.16667
878.365	1045.83333
881.931	1069.16667
885.494	1070.83333
889.054	1060.5
892.612	1062.5
896.166	1054.16667
899.719	1030.5
903.268	1002.16667
906.814	1027.16667
910.358	1010.16667
913.899	1002.16667
917.438	1011.5
920.973	990.5
924.506	1014.16667
928.036	1020.83333
931.564	1043.16667
935.088	1060.83333
938.61	1043.5
942.129	1036.16667
945.646	1041.83333
949.16	1052.83333
952.671	1080.83333
956.179	1090.5
959.685	1089.5
963.188	1116.83333
966.688	1089.16667
970.185	1063.5
973.68	1015.83333
977.173	1019.16667
980.662	1001.16667
984.149	1005.16667
987.633	983.83333
991.114	991.83333
994.593	1033.83333
998.069	1036.16667
1001.542	1058.5
1005.013	1056.5
1008.481	987.16667
1011.947	966.5
1015.409	973.16667
1018.869	962.5
1022.327	987.5
1025.782	949.5
1029.234	962.5
1032.683	946.5
1036.13	915.5
1039.574	895.83333
1043.016	867.83333
1046.455	856.16667
1049.891	852.5
1053.325	863.16667
1056.756	843.16667
1060.184	863.16667
1063.61	853.16667
1067.033	867.5
1070.454	865.83333
1073.872	881.5
1077.287	859.5
1080.7	854.83333
1084.11	853.83333
1087.517	858.5
1090.922	856.83333
1094.325	834.16667
1097.724	834.5
1101.122	830.5
1104.516	824.83333
1107.908	815.16667
1111.298	826.5
1114.684	823.83333
1118.069	838.5
1121.45	845.16667
1124.83	835.83333
1128.206	832.16667
1131.58	859.16667
1134.951	872.16667
1138.32	891.83333
1141.687	937.5
1145.05	936.83333
1148.412	937.16667
1151.77	930.5
1155.126	920.5
1158.48	920.5
1161.831	933.16667
1165.18	927.5
1168.525	943.83333
1171.869	951.16667
1175.21	937.16667
1178.548	956.16667
1181.884	968.5
1185.217	971.5
1188.548	1003.16667
1191.877	1004.5
1195.202	1046.5
1198.526	1085.5
1201.846	1070.5
1205.165	1062.16667
1208.48	1076.83333
1211.794	1074.16667
1215.104	1072.16667
1218.413	1063.83333
1221.719	1056.5
1225.022	1048.83333
1228.323	1027.16667
1231.621	1028.83333
1234.917	1029.5
1238.21	1032.5
1241.501	1022.83333
1244.79	1015.83333
1248.076	1003.5
1251.359	1018.83333
1254.64	1063.16667
1257.919	1043.83333
1261.195	1048.16667
1264.468	1067.5
1267.74	1073.83333
1271.008	1077.83333
1274.275	1078.83333
1277.538	1058.16667
1280.8	1059.83333
1284.059	1069.5
1287.315	1085.16667
1290.569	1081.16667
1293.821	1080.16667
1297.07	1081.16667
1300.317	1085.5
1303.562	1093.83333
1306.803	1080.83333
1310.043	1073.5
1313.28	1073.5
1316.515	1080.16667
1319.747	1085.5
1322.977	1065.16667
1326.204	1057.16667
1329.429	1052.5
1332.652	1054.16667
1335.872	1051.83333
1339.09	1027.16667
1342.306	1040.83333
1345.519	1031.16667
1348.729	1007.5
1351.938	1019.83333
1355.144	1011.5
1358.347	999.5
1361.548	1003.83333
1364.747	995.83333
1367.944	980.16667
1371.138	980.5
1374.329	967.83333
1377.518	966.16667
1380.705	974.5
1383.89	990.16667
1387.072	939.5
1390.252	925.83333
1393.429	901.83333
1396.605	866.5
1399.777	840.5
1402.948	835.83333
1406.116	824.16667
1409.282	833.5
1412.445	826.16667
1415.606	836.5
1418.765	831.83333
1421.921	871.83333
1425.075	853.16667
1428.227	876.16667
1431.376	922.83333
1434.524	938.5
1437.668	970.5
1440.811	971.16667
1443.951	963.5
1447.089	983.5
1450.224	996.5
1453.357	981.83333
1456.488	983.83333
1459.617	962.16667
1462.743	947.5
1465.867	929.5
1468.989	924.5
1472.108	897.83333
1475.225	876.5
1478.34	889.83333
1481.453	868.16667
1484.563	865.83333
1487.671	896.83333
1490.776	907.83333
1493.88	906.16667
1496.981	924.5
1500.08	917.5
1503.176	930.83333
1506.271	946.83333
1509.363	963.83333
1512.452	957.16667
1515.54	947.5
1518.625	976.16667
1521.708	1008.5
1524.789	1038.83333
1527.867	1055.83333
1530.944	1111.16667
1534.018	1145.5
1537.089	1181.83333
1540.159	1177.5
1543.226	1190.16667
1546.291	1163.5
1549.354	1133.5
1552.415	1134.5
1555.473	1101.16667
1558.529	1079.5
1561.583	1080.16667
1564.634	1074.5
1567.684	1072.16667
1570.731	1061.5
1573.776	1079.83333
1576.819	1074.83333
1579.859	1101.5
1582.898	1120.16667
1585.934	1141.5
1588.968	1132.83333
1591.999	1109.83333
1595.029	1124.5
1598.056	1128.5
1601.081	1144.16667
1604.104	1139.5
1607.125	1114.83333
1610.144	1099.16667
1613.16	1089.83333
1616.174	1058.5
1619.186	1061.83333
1622.196	1020.5
1625.203	999.83333
1628.209	992.16667
1631.212	997.5
1634.213	1010.16667
1637.212	1028.5
1640.209	1020.5
1643.203	998.5
1646.196	965.83333
1649.186	931.5
1652.174	895.83333
1655.16	862.83333
1658.144	856.16667
1661.125	807.5
1664.105	769.16667
1667.082	739.83333
1670.057	694.83333
1673.03	658.83333
1676.001	635.83333
1678.97	586.5
1681.937	566.83333
1684.901	531.83333
1687.863	527.5
1690.824	504.16667
1693.782	504.83333
1696.738	466.5
1699.692	475.83333
1702.643	451.5
1705.593	461.16667
1708.54	450.83333
1711.486	463.16667
1714.429	434.16667
1717.37	441.5
1720.309	428.16667
1723.246	433.83333
1726.181	421.16667
1729.113	424.83333
1732.044	422.16667
1734.972	425.16667
1737.899	432.5
1740.823	435.5
1743.745	452.83333
1746.665	398.16667
1749.583	399.83333
1752.499	391.83333
1755.413	397.16667
1758.325	384.16667
1761.235	385.5
1764.142	378.83333
1767.048	375.16667
1769.951	379.5
1772.852	378.5
1775.752	379.83333
1778.649	378.5
1781.544	381.5
1784.437	362.83333
1787.328	379.16667
1790.217	366.16667
1793.104	346.16667
1795.989	356.83333
1798.872	345.16667
1801.753	360.16667
1804.631	356.5
1807.508	362.83333
1810.383	355.16667
1813.255	345.16667
1816.126	348.16667
1818.994	341.16667
1821.861	340.83333
1824.725	352.16667
1827.587	358.83333
1830.448	341.5
1833.306	334.16667
1836.162	343.5
1839.017	333.16667
1841.869	329.83333
1844.719	332.83333
1847.567	318.5
1850.414	320.83333
1853.258	317.5
1856.1	335.16667
1858.94	340.83333
1861.778	330.83333
1864.614	315.16667
1867.448	331.83333
1870.28	314.5
1873.111	336.83333
1875.939	327.5
1878.765	341.5
1881.589	323.16667
1884.411	325.83333
1887.231	321.83333
1890.049	322.16667
1892.865	323.83333
1895.68	311.16667
1898.492	321.16667
1901.302	314.16667
1904.11	311.16667
1906.916	310.5
1909.721	309.5
1912.523	323.5
1915.323	298.5
1918.122	308.83333
1920.918	317.83333
1923.712	296.5
1926.505	310.83333
1929.295	281.83333
1932.084	311.83333
1934.87	310.16667
1937.655	296.83333
1940.438	295.16667
1943.218	295.5
1945.997	304.83333
1948.774	303.16667
1951.549	304.16667
1954.322	294.83333
1957.093	295.16667
1959.862	292.5
1962.629	291.83333
1965.394	290.83333
1968.157	277.83333
1970.918	299.16667
1973.678	275.83333
1976.435	291.83333
1979.19	282.16667
1981.944	274.5
1984.696	279.5
1987.445	276.83333
1990.193	281.5
1992.939	294.16667
1995.683	297.83333
1998.425	261.5
2001.165	301.16667
2003.903	266.83333
2006.639	271.16667
2009.374	284.5
2012.106	278.5
2014.837	263.16667
2017.566	286.5
2020.292	273.5
2023.017	271.83333
2025.74	259.5
2028.461	259.16667
2031.18	267.5
2033.898	262.5
2036.613	272.16667
2039.327	274.83333
2042.038	263.5
2044.748	267.5
2047.456	263.5
2050.162	252.16667
2052.866	259.16667
2055.568	275.16667
2058.268	254.16667
2060.967	265.83333
2063.663	248.16667
2066.358	247.16667
2069.051	248.5
2071.742	256.5
2074.431	265.5
2077.118	253.5
2079.804	239.5
2082.487	251.16667
2085.169	263.83333
2087.849	272.5
2090.527	241.83333
2093.203	253.83333
2095.877	255.5
2098.55	251.5
2101.22	259.5
2103.889	261.83333
2106.556	244.83333
2109.221	268.16667
2111.884	260.83333
2114.546	279.83333
2117.205	279.5
2119.863	315.83333
2122.519	306.16667
2125.173	320.5
2127.825	361.83333
2130.475	356.5
2133.124	340.16667
2135.771	330.5
2138.416	342.83333
2141.059	304.16667
2143.7	308.16667
2146.339	282.5
2148.977	253.83333
2151.613	268.5
2154.247	265.83333
2156.879	261.16667
2159.51	240.16667
2162.138	243.5
2164.765	248.5
2167.39	231.16667
2170.013	253.16667
2172.634	258.5
2175.254	237.16667
2177.872	278.5
2180.488	229.5
2183.102	234.83333
2185.714	231.5
2188.325	230.5
2190.934	240.83333
2193.541	236.16667
2196.146	231.5
2198.75	214.5
2201.351	208.16667
2203.951	207.83333
2206.549	228.83333
2209.146	222.5
2211.74	207.16667
2214.333	228.16667
2216.924	206.83333
2219.514	212.5
2222.101	212.16667
2224.687	221.16667
2227.271	199.16667
2229.853	206.5
2232.433	192.83333
2235.012	214.16667
2237.589	210.16667
2240.164	224.83333
2242.738	203.83333
2245.309	197.5
2247.879	217.83333
2250.448	219.16667
2253.014	194.5
2255.579	185.16667
2258.142	197.83333
2260.703	199.83333
2263.262	193.5
2265.82	183.16667
2268.376	205.83333
2270.93	192.83333
2273.483	183.83333
2276.033	202.5
2278.583	189.16667
2281.13	185.16667
2283.675	179.5
2286.219	180.5
2288.761	194.83333
2291.302	198.83333
2293.841	202.5
2296.377	179.83333
2298.913	193.5
2301.446	195.5
2303.978	186.83333
2306.508	188.83333
2309.037	190.83333
2311.563	188.83333
2314.088	184.5
2316.612	172.83333
2319.133	188.5
2321.653	188.16667
2324.171	183.16667
2326.688	189.5
2329.202	182.16667
2331.715	178.83333
2334.227	178.5
2336.736	180.16667
2339.244	176.5
2341.751	162.16667
2344.255	179.5
2346.758	178.16667
2349.259	162.16667
2351.759	183.83333
2354.257	169.16667
2356.753	171.16667
2359.247	170.83333
2361.74	170.83333
2364.231	178.5
2366.721	179.83333
2369.209	171.5
2371.695	172.5
2374.179	165.5
2376.662	160.16667
2379.143	179.16667
2381.622	170.16667
2384.1	173.83333
2386.576	163.5
2389.051	174.16667
2391.524	176.5
2393.995	173.83333
2396.464	168.83333
2398.932	165.5
2401.398	168.16667
2403.863	160.83333
2406.325	156.5
2408.787	169.16667
2411.246	163.16667
2413.704	161.83333
2416.16	162.5
2418.615	160.83333
2421.068	160.16667
2423.519	159.5
2425.969	154.5
2428.417	173.5
2430.863	179.5
2433.308	165.5
2435.751	166.16667
2438.193	170.83333
2440.633	165.83333
2443.071	172.83333
2445.508	152.83333
2447.943	160.16667
2450.376	156.83333
2452.808	169.16667
2455.238	153.5
2457.667	174.5
2460.093	152.5
2462.519	140.16667
2464.942	156.5
2467.365	152.83333
2469.785	159.16667
2472.204	149.16667
2474.621	150.16667
2477.037	172.5
2479.451	142.5
2481.863	139.16667
2484.274	148.16667
2486.683	153.5
2489.091	163.5
2491.497	156.16667
2493.901	152.5
2496.304	152.16667
2498.705	161.83333
2501.105	157.5
2503.503	170.5
2505.899	142.16667
2508.294	168.16667
2510.687	142.16667
2513.079	145.83333
2515.469	140.83333
2517.858	147.5
2520.245	162.16667
2522.63	150.16667
2525.014	142.16667
2527.396	143.16667
2529.776	140.5
2532.156	154.83333
2534.533	143.5
2536.909	134.5
2539.283	130.16667
2541.656	135.83333
2544.027	153.83333
2546.397	143.16667
2548.765	144.16667
2551.131	142.5
2553.496	142.83333
2555.86	148.16667
2558.221	150.83333
2560.582	136.16667
2562.94	130.5
2565.298	142.83333
2567.653	151.16667
2570.007	128.16667
2572.36	145.83333
2574.711	135.83333
2577.06	153.5
2579.408	142.16667
2581.754	135.5
2584.099	138.5
2586.442	139.83333
2588.784	141.5
2591.124	143.16667
2593.463	139.16667
2595.8	139.16667
2598.135	128.83333
2600.469	134.5
2602.802	148.5
2605.133	145.83333
2607.462	130.83333
2609.79	131.16667
2612.116	145.16667
2614.441	129.5
2616.764	144.16667
2619.086	138.16667
2621.406	131.83333
2623.725	146.83333
2626.042	135.5
2628.358	130.5
2630.672	132.5
2632.985	144.83333
2635.296	137.5
2637.606	136.16667
2639.914	131.5
2642.22	132.83333
2644.525	131.83333
2646.829	136.5
2649.131	147.83333
2651.432	146.16667
2653.731	135.83333
2656.028	147.5
2658.324	136.83333
2660.619	122.83333
2662.912	141.5
2665.204	123.83333
2667.494	141.16667
2669.782	127.83333
2672.07	145.83333
2674.355	148.16667
2676.639	137.16667
2678.922	133.83333
2681.203	138.5
2683.483	126.83333
2685.761	120.16667
2688.038	137.5
2690.313	146.16667
2692.587	138.5
2694.859	132.83333
2697.13	131.5
2699.399	134.5
2701.667	144.83333
2703.933	135.83333
2706.198	144.5
2708.461	147.83333
2710.723	141.16667
2712.984	137.16667
2715.243	145.83333
2717.5	138.83333
2719.757	148.5
2722.011	137.83333
2724.264	141.83333
2726.516	153.83333
2728.766	135.5
2731.015	138.5
2733.262	140.83333
2735.508	136.16667
2737.753	147.83333
2739.996	125.83333
2742.237	128.16667
2744.477	145.5
2746.716	151.83333
2748.953	148.83333
2751.189	143.16667
2753.423	140.5
2755.656	137.5
2757.887	134.16667
2760.117	138.16667
2762.346	129.16667
2764.573	118.5
2766.798	124.16667
2769.022	132.83333
2771.245	126.5
2773.467	131.83333
2775.686	121.83333
2777.905	132.5
2780.122	134.16667
2782.337	141.5
2784.552	131.5
2786.764	130.5
2788.976	124.83333
2791.186	129.16667
2793.394	134.83333
2795.601	144.16667
2797.807	141.5
2800.011	141.16667
2802.214	147.16667
2804.415	134.5
2806.615	147.5
2808.814	141.5
2811.011	151.16667
2813.206	146.5
2815.401	150.5
2817.594	151.5
2819.785	162.5
2821.975	139.83333
2824.164	147.83333
2826.351	144.83333
2828.537	163.16667
2830.722	162.16667
2832.905	158.83333
2835.086	162.5
2837.267	178.16667
2839.445	178.5
2841.623	182.16667
2843.799	175.5
2845.974	193.83333
2848.147	190.5
2850.319	204.83333
2852.489	211.5
2854.659	215.83333
2856.826	214.5
2858.993	236.16667
2861.158	211.83333
2863.321	217.83333
2865.483	238.5
2867.644	228.16667
2869.804	232.83333
2871.962	222.5
2874.118	226.16667
2876.274	227.16667
2878.428	225.5
2880.58	235.16667
2882.731	213.16667
2884.881	222.5
2887.03	231.16667
2889.177	229.16667
2891.322	228.16667
2893.467	223.5
2895.61	227.5
2897.751	242.83333
2899.892	225.83333
2902.03	237.16667
2904.168	235.16667
2906.304	234.83333
2908.439	253.83333
2910.572	228.5
2912.704	239.5
2914.835	248.5
2916.965	246.16667
2919.093	255.83333
2921.219	222.16667
2923.345	247.83333
2925.469	241.5
2927.591	236.83333
2929.712	216.83333
2931.832	232.83333
2933.951	220.83333
2936.068	215.83333
2938.184	213.83333
2940.299	205.83333
2942.412	207.83333
2944.524	187.83333
2946.634	203.83333
2948.744	174.5
2950.851	212.16667
2952.958	175.83333
2955.063	180.5
2957.167	176.16667
2959.269	166.83333
2961.371	198.5
2963.471	164.5
2965.569	177.5
2967.666	153.83333
2969.762	150.83333
2971.857	152.5
2973.95	142.5
2976.042	149.16667
2978.133	146.5
2980.222	139.16667
2982.31	129.5
2984.396	118.5
2986.482	120.5
2988.566	127.5
2990.648	127.16667
2992.73	124.5
2994.81	114.83333
2996.889	128.16667
2998.966	120.16667
3001.042	130.16667
3003.117	118.5
3005.191	123.5
3007.263	132.16667
3009.334	125.5
3011.403	121.83333
3013.472	113.83333
3015.539	136.16667
3017.604	137.16667
3019.669	108.5
3021.732	115.5
3023.794	113.16667
3025.854	108.16667
3027.914	104.5
3029.971	105.83333
3032.028	113.16667
3034.083	118.5
3036.137	113.5
3038.19	102.5
3040.242	95.16667
3042.292	93.83333
3044.341	100.5
3046.388	110.83333
3048.435	93.16667
3050.48	114.83333
3052.524	99.16667
3054.566	84.5
3056.607	103.16667
3058.647	97.83333
3060.686	89.5
3062.723	78.16667
3064.759	80.5
3066.794	0.5
3068.828	1.16667
3070.86	0.83333
