-0.839	147.79167
3.438	177.45833
7.711	70.125
11.981	47.79167
16.247	33.125
20.509	40.125
24.768	35.45833
29.024	46.125
33.276	31.125
37.524	42.125
41.769	31.45833
46.01	29.79167
50.247	44.125
54.481	47.79167
58.712	51.45833
62.939	35.79167
67.162	54.45833
71.382	45.125
75.599	36.125
79.812	45.45833
84.021	65.45833
88.227	46.45833
92.429	53.125
96.628	39.79167
100.823	51.79167
105.015	49.45833
109.204	51.125
113.388	60.79167
117.57	45.125
121.748	60.79167
125.922	50.45833
130.093	67.125
134.261	63.45833
138.425	56.125
142.585	85.45833
146.742	65.45833
150.896	81.45833
155.046	82.79167
159.193	121.45833
163.336	180.125
167.476	309.45833
171.613	554.45833
175.746	905.45833
179.875	1306.79167
184.002	1696.79167
188.124	2034.45833
192.244	2127.79167
196.36	2150.79167
200.472	2141.45833
204.581	2136.125
208.687	2044.45833
212.79	2063.45833
216.889	2103.79167
220.984	2108.79167
225.077	2118.79167
229.165	2128.79167
233.251	2143.79167
237.333	2137.125
241.412	2130.79167
245.487	2108.125
249.559	2066.125
253.628	2079.125
257.694	2057.125
261.756	2033.79167
265.814	1985.125
269.87	1950.45833
273.922	1895.79167
277.97	1887.45833
282.016	1867.45833
286.058	1845.125
290.097	1870.45833
294.132	1905.79167
298.164	1866.125
302.193	1798.125
306.219	1709.125
310.241	1602.79167
314.26	1521.125
318.276	1466.125
322.288	1434.125
326.297	1386.125
330.303	1350.125
334.305	1347.125
338.305	1313.125
342.301	1315.45833
346.294	1320.45833
350.283	1296.45833
354.269	1298.45833
358.252	1296.45833
362.232	1304.79167
366.209	1304.79167
370.182	1290.79167
374.152	1297.45833
378.119	1305.79167
382.083	1291.125
386.043	1307.125
390	1291.45833
393.954	1307.45833
397.905	1305.125
401.852	1310.125
405.797	1283.79167
409.738	1297.125
413.676	1304.125
417.61	1303.45833
421.542	1301.125
425.47	1275.125
429.396	1263.79167
433.318	1258.45833
437.236	1252.79167
441.152	1308.125
445.065	1237.45833
448.974	1256.45833
452.88	1241.45833
456.783	1246.125
460.683	1233.79167
464.58	1249.45833
468.473	1246.125
472.364	1249.45833
476.251	1251.79167
480.135	1261.45833
484.016	1282.45833
487.894	1276.125
491.769	1273.125
495.641	1275.125
499.509	1272.125
503.375	1276.125
507.237	1257.125
511.096	1252.45833
514.952	1268.45833
518.805	1251.45833
522.655	1247.79167
526.502	1251.45833
530.346	1269.79167
534.187	1264.79167
538.024	1263.125
541.859	1268.79167
545.69	1261.125
549.519	1252.45833
553.344	1252.125
557.166	1247.125
560.985	1238.79167
564.802	1228.79167
568.615	1223.125
572.425	1200.45833
576.232	1200.125
580.036	1205.125
583.836	1190.79167
587.634	1217.125
591.429	1198.45833
595.221	1229.79167
599.01	1219.125
602.796	1237.45833
606.578	1231.125
610.358	1226.79167
614.135	1221.45833
617.909	1233.45833
621.679	1215.79167
625.447	1210.45833
629.212	1223.79167
632.973	1213.125
636.732	1201.125
640.488	1208.45833
644.241	1197.125
647.991	1185.45833
651.737	1225.45833
655.481	1180.45833
659.222	1199.79167
662.96	1184.45833
666.695	1204.45833
670.427	1195.45833
674.156	1213.45833
677.882	1196.125
681.605	1187.45833
685.325	1185.79167
689.043	1215.125
692.757	1183.79167
696.468	1184.45833
700.177	1194.125
703.882	1155.45833
707.585	1149.45833
711.284	1159.45833
714.981	1146.125
718.675	1147.79167
722.366	1169.125
726.054	1133.45833
729.739	1140.45833
733.421	1150.79167
737.1	1155.45833
740.777	1158.45833
744.45	1152.125
748.121	1168.125
751.789	1179.125
755.453	1173.45833
759.115	1165.79167
762.774	1163.79167
766.431	1186.45833
770.084	1183.79167
773.734	1170.45833
777.382	1184.79167
781.027	1194.45833
784.669	1200.125
788.308	1197.79167
791.944	1195.125
795.577	1206.125
799.208	1198.79167
802.835	1192.125
806.46	1212.45833
810.082	1221.125
813.701	1221.79167
817.317	1243.79167
820.931	1226.45833
824.542	1227.125
828.149	1209.79167
831.754	1201.79167
835.357	1190.125
838.956	1197.45833
842.553	1201.79167
846.146	1161.79167
849.737	1149.45833
853.326	1171.125
856.911	1137.45833
860.493	1170.125
864.073	1171.125
867.65	1193.45833
871.225	1217.45833
874.796	1197.79167
878.365	1185.125
881.931	1200.79167
885.494	1211.125
889.054	1198.45833
892.612	1183.125
896.166	1176.125
899.719	1153.125
903.268	1142.125
906.814	1146.125
910.358	1134.79167
913.899	1127.45833
917.438	1111.45833
920.973	1109.45833
924.506	1117.125
928.036	1151.125
931.564	1160.79167
935.088	1155.125
938.61	1171.79167
942.129	1164.45833
945.646	1176.79167
949.16	1195.45833
952.671	1206.79167
956.179	1209.45833
959.685	1205.125
963.188	1223.125
966.688	1201.45833
970.185	1163.79167
973.68	1138.125
977.173	1143.125
980.662	1118.45833
984.149	1126.45833
987.633	1106.125
991.114	1122.79167
994.593	1146.125
998.069	1162.125
1001.542	1184.79167
1005.013	1165.79167
1008.481	1110.125
1011.947	1099.45833
1015.409	1085.45833
1018.869	1074.45833
1022.327	1094.79167
1025.782	1061.125
1029.234	1054.79167
1032.683	1064.45833
1036.13	1029.125
1039.574	997.79167
1043.016	975.45833
1046.455	962.79167
1049.891	963.79167
1053.325	958.79167
1056.756	956.79167
1060.184	967.79167
1063.61	946.79167
1067.033	967.45833
1070.454	963.79167
1073.872	973.79167
1077.287	959.79167
1080.7	966.45833
1084.11	961.45833
1087.517	951.79167
1090.922	956.79167
1094.325	932.45833
1097.724	925.45833
1101.122	921.125
1104.516	922.79167
1107.908	905.45833
1111.298	920.45833
1114.684	932.45833
1118.069	935.125
1121.45	950.125
1124.83	928.79167
1128.206	961.45833
1131.58	954.79167
1134.951	980.45833
1138.32	990.45833
1141.687	1021.79167
1145.05	1030.45833
1148.412	1039.125
1151.77	1018.45833
1155.126	1017.125
1158.48	1022.79167
1161.831	1014.125
1165.18	1016.45833
1168.525	1027.45833
1171.869	1041.125
1175.21	1044.45833
1178.548	1039.45833
1181.884	1068.125
1185.217	1061.79167
1188.548	1076.79167
1191.877	1107.79167
1195.202	1156.125
1198.526	1165.45833
1201.846	1164.79167
1205.165	1165.45833
1208.48	1155.125
1211.794	1159.45833
1215.104	1152.79167
1218.413	1147.45833
1221.719	1139.79167
1225.022	1143.125
1228.323	1124.79167
1231.621	1119.125
1234.917	1125.79167
1238.21	1133.125
1241.501	1111.79167
1244.79	1101.125
1248.076	1091.125
1251.359	1106.45833
1254.64	1156.79167
1257.919	1127.125
1261.195	1146.79167
1264.468	1156.45833
1267.74	1168.125
1271.008	1169.79167
1274.275	1167.125
1277.538	1161.79167
1280.8	1168.45833
1284.059	1169.79167
1287.315	1173.45833
1290.569	1154.79167
1293.821	1180.45833
1297.07	1195.45833
1300.317	1196.45833
1303.562	1182.125
1306.803	1164.45833
1310.043	1166.125
1313.28	1174.45833
1316.515	1155.125
1319.747	1155.125
1322.977	1155.79167
1326.204	1124.79167
1329.429	1133.79167
1332.652	1139.79167
1335.872	1128.125
1339.09	1094.79167
1342.306	1119.79167
1345.519	1107.79167
1348.729	1096.125
1351.938	1097.125
1355.144	1094.125
1358.347	1078.45833
1361.548	1074.45833
1364.747	1061.79167
1367.944	1062.125
1371.138	1060.125
1374.329	1061.125
1377.518	1051.125
1380.705	1056.125
1383.89	1069.125
1387.072	1025.79167
1390.252	1008.45833
1393.429	966.79167
1396.605	960.125
1399.777	926.125
1402.948	926.79167
1406.116	894.125
1409.282	908.125
1412.445	902.79167
1415.606	920.79167
1418.765	917.45833
1421.921	927.79167
1425.075	945.79167
1428.227	956.125
1431.376	997.79167
1434.524	1022.79167
1437.668	1047.45833
1440.811	1044.125
1443.951	1049.45833
1447.089	1067.45833
1450.224	1048.125
1453.357	1053.125
1456.488	1050.45833
1459.617	1039.125
1462.743	1024.79167
1465.867	991.79167
1468.989	994.125
1472.108	984.125
1475.225	956.79167
1478.34	948.125
1481.453	941.79167
1484.563	944.79167
1487.671	960.45833
1490.776	954.45833
1493.88	963.79167
1496.981	976.45833
1500.08	998.125
1503.176	988.45833
1506.271	998.45833
1509.363	1024.125
1512.452	1019.79167
1515.54	1022.79167
1518.625	1038.45833
1521.708	1076.79167
1524.789	1095.45833
1527.867	1129.125
1530.944	1184.79167
1534.018	1222.125
1537.089	1268.45833
1540.159	1288.125
1543.226	1271.79167
1546.291	1250.79167
1549.354	1225.125
1552.415	1203.45833
1555.473	1179.45833
1558.529	1178.79167
1561.583	1156.125
1564.634	1125.45833
1567.684	1135.45833
1570.731	1146.125
1573.776	1135.79167
1576.819	1160.79167
1579.859	1152.79167
1582.898	1175.45833
1585.934	1192.79167
1588.968	1201.45833
1591.999	1174.79167
1595.029	1174.125
1598.056	1198.125
1601.081	1208.45833
1604.104	1201.45833
1607.125	1187.125
1610.144	1179.125
1613.16	1129.79167
1616.174	1095.79167
1619.186	1105.45833
1622.196	1082.125
1625.203	1050.125
1628.209	1064.79167
1631.212	1041.125
1634.213	1039.45833
1637.212	1059.45833
1640.209	1042.45833
1643.203	1024.45833
1646.196	994.79167
1649.186	947.45833
1652.174	934.79167
1655.16	906.125
1658.144	893.125
1661.125	859.79167
1664.105	826.125
1667.082	803.45833
1670.057	742.125
1673.03	727.45833
1676.001	689.125
1678.97	639.45833
1681.937	609.45833
1684.901	584.79167
1687.863	571.45833
1690.824	548.79167
1693.782	539.45833
1696.738	520.45833
1699.692	518.79167
1702.643	507.79167
1705.593	510.125
1708.54	491.125
1711.486	519.79167
1714.429	481.125
1717.37	488.125
1720.309	476.79167
1723.246	483.45833
1726.181	464.125
1729.113	462.45833
1732.044	467.125
1734.972	458.125
1737.899	474.125
1740.823	468.79167
1743.745	482.45833
1746.665	451.45833
1749.583	438.45833
1752.499	446.125
1755.413	430.125
1758.325	418.45833
1761.235	432.45833
1764.142	419.125
1767.048	406.45833
1769.951	427.79167
1772.852	406.45833
1775.752	419.125
1778.649	419.45833
1781.544	422.79167
1784.437	397.45833
1787.328	402.125
1790.217	403.125
1793.104	379.79167
1795.989	391.125
1798.872	384.125
1801.753	408.79167
1804.631	390.125
1807.508	390.45833
1810.383	391.79167
1813.255	389.125
1816.126	381.45833
1818.994	386.125
1821.861	377.45833
1824.725	389.45833
1827.587	387.125
1830.448	376.45833
1833.306	367.45833
1836.162	375.125
1839.017	371.125
1841.869	374.79167
1844.719	357.125
1847.567	352.125
1850.414	348.125
1853.258	356.125
1856.1	369.45833
1858.94	368.45833
1861.778	356.45833
1864.614	355.79167
1867.448	366.125
1870.28	342.45833
1873.111	370.79167
1875.939	352.45833
1878.765	368.79167
1881.589	352.79167
1884.411	353.79167
1887.231	364.125
1890.049	358.125
1892.865	362.125
1895.68	346.79167
1898.492	354.45833
1901.302	339.45833
1904.11	341.125
1906.916	347.45833
1909.721	343.125
1912.523	353.125
1915.323	335.45833
1918.122	334.125
1920.918	346.125
1923.712	336.79167
1926.505	341.45833
1929.295	313.45833
1932.084	340.125
1934.87	341.125
1937.655	325.125
1940.438	322.79167
1943.218	329.45833
1945.997	327.45833
1948.774	334.125
1951.549	340.125
1954.322	325.45833
1957.093	324.79167
1959.862	316.79167
1962.629	323.79167
1965.394	319.45833
1968.157	307.45833
1970.918	325.125
1973.678	312.45833
1976.435	322.125
1979.19	313.125
1981.944	300.45833
1984.696	306.79167
1987.445	306.79167
1990.193	311.45833
1992.939	318.79167
1995.683	310.45833
1998.425	284.125
2001.165	327.45833
2003.903	291.45833
2006.639	304.79167
2009.374	301.45833
2012.106	302.125
2014.837	282.79167
2017.566	305.79167
2020.292	294.79167
2023.017	297.45833
2025.74	295.125
2028.461	290.79167
2031.18	296.125
2033.898	277.79167
2036.613	298.125
2039.327	296.125
2042.038	285.79167
2044.748	289.45833
2047.456	296.45833
2050.162	273.79167
2052.866	284.79167
2055.568	297.45833
2058.268	287.125
2060.967	284.45833
2063.663	276.79167
2066.358	276.79167
2069.051	272.125
2071.742	279.45833
2074.431	294.45833
2077.118	279.125
2079.804	270.125
2082.487	273.125
2085.169	286.125
2087.849	295.125
2090.527	268.79167
2093.203	276.79167
2095.877	278.125
2098.55	279.79167
2101.22	288.45833
2103.889	294.125
2106.556	282.79167
2109.221	299.45833
2111.884	287.45833
2114.546	313.79167
2117.205	317.79167
2119.863	352.45833
2122.519	353.79167
2125.173	375.45833
2127.825	410.45833
2130.475	409.79167
2133.124	399.45833
2135.771	377.45833
2138.416	382.79167
2141.059	356.125
2143.7	356.45833
2146.339	321.79167
2148.977	296.45833
2151.613	309.125
2154.247	305.45833
2156.879	290.125
2159.51	285.79167
2162.138	278.79167
2164.765	273.79167
2167.39	268.79167
2170.013	289.125
2172.634	275.79167
2175.254	261.79167
2177.872	299.125
2180.488	257.45833
2183.102	260.125
2185.714	255.79167
2188.325	242.125
2190.934	250.79167
2193.541	261.45833
2196.146	251.79167
2198.75	239.125
2201.351	235.45833
2203.951	232.125
2206.549	244.79167
2209.146	241.125
2211.74	239.79167
2214.333	243.45833
2216.924	224.125
2219.514	233.125
2222.101	226.45833
2224.687	239.79167
2227.271	226.79167
2229.853	220.125
2232.433	212.45833
2235.012	240.125
2237.589	220.125
2240.164	239.79167
2242.738	224.45833
2245.309	215.45833
2247.879	228.45833
2250.448	229.79167
2253.014	210.79167
2255.579	208.79167
2258.142	216.79167
2260.703	210.79167
2263.262	209.45833
2265.82	210.79167
2268.376	220.125
2270.93	211.45833
2273.483	198.79167
2276.033	213.125
2278.583	205.79167
2281.13	202.45833
2283.675	194.125
2286.219	200.45833
2288.761	211.125
2291.302	211.125
2293.841	217.125
2296.377	195.45833
2298.913	204.79167
2301.446	210.45833
2303.978	198.125
2306.508	199.45833
2309.037	196.125
2311.563	196.79167
2314.088	198.79167
2316.612	189.45833
2319.133	205.45833
2321.653	206.125
2324.171	189.79167
2326.688	204.125
2329.202	193.125
2331.715	198.125
2334.227	189.45833
2336.736	194.79167
2339.244	187.79167
2341.751	182.125
2344.255	202.125
2346.758	195.45833
2349.259	182.45833
2351.759	194.45833
2354.257	179.45833
2356.753	183.79167
2359.247	182.125
2361.74	188.45833
2364.231	185.45833
2366.721	192.125
2369.209	183.125
2371.695	185.125
2374.179	178.45833
2376.662	169.125
2379.143	191.125
2381.622	181.125
2384.1	186.79167
2386.576	173.79167
2389.051	185.125
2391.524	186.45833
2393.995	187.79167
2396.464	176.125
2398.932	175.45833
2401.398	184.125
2403.863	170.79167
2406.325	168.79167
2408.787	179.125
2411.246	171.79167
2413.704	172.45833
2416.16	173.45833
2418.615	170.79167
2421.068	175.79167
2423.519	166.45833
2425.969	165.125
2428.417	184.125
2430.863	189.79167
2433.308	181.125
2435.751	177.79167
2438.193	172.79167
2440.633	178.45833
2443.071	183.125
2445.508	165.125
2447.943	168.45833
2450.376	172.125
2452.808	173.45833
2455.238	157.79167
2457.667	190.79167
2460.093	158.125
2462.519	158.45833
2464.942	159.125
2467.365	171.125
2469.785	164.79167
2472.204	161.45833
2474.621	159.79167
2477.037	178.79167
2479.451	153.45833
2481.863	148.125
2484.274	154.79167
2486.683	163.45833
2489.091	170.125
2491.497	162.125
2493.901	164.125
2496.304	160.79167
2498.705	168.125
2501.105	156.125
2503.503	177.79167
2505.899	155.125
2508.294	170.45833
2510.687	151.125
2513.079	150.45833
2515.469	153.125
2517.858	151.79167
2520.245	167.45833
2522.63	157.125
2525.014	150.45833
2527.396	145.45833
2529.776	153.79167
2532.156	160.125
2534.533	143.79167
2536.909	148.125
2539.283	135.125
2541.656	153.45833
2544.027	162.79167
2546.397	146.79167
2548.765	148.125
2551.131	148.45833
2553.496	148.79167
2555.86	155.45833
2558.221	151.45833
2560.582	147.79167
2562.94	140.125
2565.298	145.79167
2567.653	155.79167
2570.007	135.45833
2572.36	156.79167
2574.711	143.125
2577.06	159.79167
2579.408	149.79167
2581.754	139.79167
2584.099	146.45833
2586.442	146.125
2588.784	150.45833
2591.124	145.79167
2593.463	144.45833
2595.8	146.79167
2598.135	131.79167
2600.469	133.125
2602.802	145.45833
2605.133	156.79167
2607.462	138.79167
2609.79	132.45833
2612.116	145.79167
2614.441	142.45833
2616.764	147.125
2619.086	146.125
2621.406	136.125
2623.725	148.125
2626.042	141.79167
2628.358	130.125
2630.672	143.45833
2632.985	146.125
2635.296	141.79167
2637.606	139.45833
2639.914	133.125
2642.22	137.125
2644.525	143.125
2646.829	140.45833
2649.131	148.79167
2651.432	145.79167
2653.731	139.79167
2656.028	150.79167
2658.324	149.125
2660.619	129.125
2662.912	151.79167
2665.204	127.125
2667.494	140.125
2669.782	130.125
2672.07	143.79167
2674.355	145.79167
2676.639	144.45833
2678.922	132.79167
2681.203	138.79167
2683.483	134.45833
2685.761	126.125
2688.038	145.79167
2690.313	155.125
2692.587	139.45833
2694.859	132.45833
2697.13	138.45833
2699.399	141.79167
2701.667	143.79167
2703.933	143.79167
2706.198	149.125
2708.461	149.125
2710.723	146.79167
2712.984	143.125
2715.243	151.79167
2717.5	143.79167
2719.757	147.45833
2722.011	139.45833
2724.264	151.45833
2726.516	154.125
2728.766	139.125
2731.015	141.45833
2733.262	145.79167
2735.508	141.125
2737.753	153.125
2739.996	128.79167
2742.237	134.79167
2744.477	146.125
2746.716	150.45833
2748.953	144.79167
2751.189	153.45833
2753.423	148.45833
2755.656	129.125
2757.887	129.79167
2760.117	135.125
2762.346	129.125
2764.573	120.45833
2766.798	128.125
2769.022	130.45833
2771.245	130.79167
2773.467	140.45833
2775.686	132.125
2777.905	138.125
2780.122	134.125
2782.337	140.125
2784.552	134.125
2786.764	133.45833
2788.976	129.79167
2791.186	136.79167
2793.394	133.79167
2795.601	140.45833
2797.807	148.45833
2800.011	145.45833
2802.214	148.79167
2804.415	141.45833
2806.615	143.79167
2808.814	149.125
2811.011	151.45833
2813.206	154.125
2815.401	157.125
2817.594	153.125
2819.785	158.45833
2821.975	145.79167
2824.164	154.79167
2826.351	152.125
2828.537	169.45833
2830.722	165.79167
2832.905	159.125
2835.086	165.79167
2837.267	190.45833
2839.445	182.125
2841.623	184.79167
2843.799	185.79167
2845.974	196.79167
2848.147	196.45833
2850.319	209.45833
2852.489	217.45833
2854.659	224.79167
2856.826	225.79167
2858.993	238.125
2861.158	220.45833
2863.321	227.79167
2865.483	244.45833
2867.644	234.45833
2869.804	233.45833
2871.962	228.45833
2874.118	229.45833
2876.274	237.79167
2878.428	232.79167
2880.58	231.79167
2882.731	221.45833
2884.881	225.125
2887.03	239.125
2889.177	229.45833
2891.322	235.79167
2893.467	231.125
2895.61	231.125
2897.751	248.45833
2899.892	234.79167
2902.03	232.79167
2904.168	226.79167
2906.304	236.45833
2908.439	258.125
2910.572	234.125
2912.704	236.45833
2914.835	247.45833
2916.965	245.45833
2919.093	259.45833
2921.219	223.45833
2923.345	257.125
2925.469	242.45833
2927.591	233.79167
2929.712	218.45833
2931.832	230.45833
2933.951	235.79167
2936.068	224.125
2938.184	216.79167
2940.299	207.45833
2942.412	205.79167
2944.524	187.79167
2946.634	201.125
2948.744	170.79167
2950.851	207.45833
2952.958	175.125
2955.063	182.79167
2957.167	173.125
2959.269	163.79167
2961.371	188.79167
2963.471	158.45833
2965.569	177.79167
2967.666	148.79167
2969.762	144.79167
2971.857	141.125
2973.95	138.79167
2976.042	148.125
2978.133	139.79167
2980.222	141.45833
2982.31	132.125
2984.396	118.45833
2986.482	123.125
2988.566	120.125
2990.648	124.79167
2992.73	121.125
2994.81	110.45833
2996.889	126.45833
2998.966	114.125
3001.042	129.125
3003.117	113.125
3005.191	120.45833
3007.263	125.45833
3009.334	118.45833
3011.403	124.79167
3013.472	113.125
3015.539	126.79167
3017.604	134.45833
3019.669	103.79167
3021.732	104.45833
3023.794	114.45833
3025.854	102.45833
3027.914	104.45833
3029.971	101.125
3032.028	104.45833
3034.083	111.79167
3036.137	108.79167
3038.19	93.79167
3040.242	89.125
3042.292	91.45833
3044.341	101.125
3046.388	111.45833
3048.435	86.79167
3050.48	108.45833
3052.524	97.45833
3054.566	82.79167
3056.607	93.125
3058.647	88.79167
3060.686	75.125
3062.723	78.45833
3064.759	79.125
3066.794	1.45833
3068.828	1.125
3070.86	2.125
