-0.839	140.79167
3.438	160.79167
7.711	65.45833
11.981	43.125
16.247	33.125
20.509	43.79167
24.768	35.79167
29.024	42.79167
33.276	34.125
37.524	41.79167
41.769	32.45833
46.01	32.125
50.247	44.79167
54.481	49.125
58.712	58.45833
62.939	36.45833
67.162	50.79167
71.382	48.125
75.599	39.125
79.812	45.125
84.021	66.125
88.227	42.125
92.429	52.79167
96.628	41.125
100.823	53.125
105.015	52.79167
109.204	50.79167
113.388	59.79167
117.57	45.79167
121.748	59.125
125.922	48.45833
130.093	64.45833
134.261	69.79167
138.425	60.125
142.585	88.79167
146.742	73.45833
150.896	86.79167
155.046	83.79167
159.193	121.125
163.336	181.79167
167.476	314.125
171.613	571.45833
175.746	926.125
179.875	1365.125
184.002	1779.45833
188.124	2118.125
192.244	2239.79167
196.36	2271.125
200.472	2267.125
204.581	2217.79167
208.687	2188.45833
212.79	2185.79167
216.889	2206.45833
220.984	2229.79167
225.077	2247.45833
229.165	2279.79167
233.251	2277.45833
237.333	2308.79167
241.412	2291.125
245.487	2267.45833
249.559	2233.79167
253.628	2254.125
257.694	2224.125
261.756	2223.45833
265.814	2184.125
269.87	2119.45833
273.922	2076.45833
277.97	2062.79167
282.016	2026.45833
286.058	2003.79167
290.097	2030.45833
294.132	2081.79167
298.164	2047.125
302.193	1978.125
306.219	1861.125
310.241	1757.45833
314.26	1644.125
318.276	1564.45833
322.288	1538.45833
326.297	1503.125
330.303	1474.125
334.305	1423.125
338.305	1427.45833
342.301	1419.79167
346.294	1413.79167
350.283	1411.79167
354.269	1396.79167
358.252	1396.125
362.232	1400.125
366.209	1394.45833
370.182	1385.45833
374.152	1387.125
378.119	1367.79167
382.083	1370.125
386.043	1397.45833
390	1379.45833
393.954	1411.125
397.905	1397.125
401.852	1398.125
405.797	1382.45833
409.738	1410.125
413.676	1393.45833
417.61	1420.125
421.542	1400.45833
425.47	1366.79167
429.396	1360.125
433.318	1349.79167
437.236	1355.79167
441.152	1388.45833
445.065	1334.125
448.974	1348.79167
452.88	1324.125
456.783	1335.79167
460.683	1332.79167
464.58	1335.45833
468.473	1339.125
472.364	1346.125
476.251	1342.45833
480.135	1346.125
484.016	1372.45833
487.894	1369.79167
491.769	1369.45833
495.641	1376.45833
499.509	1361.125
503.375	1365.125
507.237	1360.125
511.096	1359.125
514.952	1354.79167
518.805	1353.125
522.655	1370.79167
526.502	1348.79167
530.346	1346.125
534.187	1344.79167
538.024	1358.125
541.859	1349.79167
545.69	1361.125
549.519	1367.125
553.344	1357.125
557.166	1327.125
560.985	1324.45833
564.802	1311.79167
568.615	1301.125
572.425	1287.45833
576.232	1277.125
580.036	1291.79167
583.836	1292.45833
587.634	1297.125
591.429	1286.45833
595.221	1328.45833
599.01	1327.79167
602.796	1305.45833
606.578	1312.125
610.358	1351.125
614.135	1324.45833
617.909	1337.79167
621.679	1308.125
625.447	1307.125
629.212	1302.125
632.973	1310.125
636.732	1291.79167
640.488	1292.125
644.241	1286.45833
647.991	1271.125
651.737	1327.79167
655.481	1264.79167
659.222	1292.125
662.96	1276.79167
666.695	1298.125
670.427	1284.125
674.156	1301.125
677.882	1280.125
681.605	1290.45833
685.325	1292.45833
689.043	1299.79167
692.757	1261.125
696.468	1270.79167
700.177	1262.125
703.882	1256.79167
707.585	1241.45833
711.284	1256.45833
714.981	1233.125
718.675	1235.125
722.366	1252.79167
726.054	1240.45833
729.739	1235.125
733.421	1236.45833
737.1	1225.79167
740.777	1247.79167
744.45	1241.125
748.121	1237.125
751.789	1265.45833
755.453	1257.45833
759.115	1253.125
762.774	1255.45833
766.431	1271.45833
770.084	1273.45833
773.734	1275.45833
777.382	1286.79167
781.027	1284.45833
784.669	1273.125
788.308	1270.125
791.944	1287.79167
795.577	1300.125
799.208	1306.79167
802.835	1296.125
806.46	1316.125
810.082	1330.45833
813.701	1316.125
817.317	1340.45833
820.931	1334.79167
824.542	1344.79167
828.149	1299.125
831.754	1292.125
835.357	1273.45833
838.956	1315.125
842.553	1285.125
846.146	1280.79167
849.737	1246.125
853.326	1253.125
856.911	1237.79167
860.493	1265.45833
864.073	1270.45833
867.65	1276.79167
871.225	1296.125
874.796	1280.45833
878.365	1265.45833
881.931	1275.79167
885.494	1289.45833
889.054	1286.125
892.612	1277.125
896.166	1258.79167
899.719	1240.125
903.268	1238.79167
906.814	1230.79167
910.358	1222.45833
913.899	1210.125
917.438	1217.79167
920.973	1182.45833
924.506	1226.45833
928.036	1242.45833
931.564	1256.79167
935.088	1255.45833
938.61	1260.79167
942.129	1268.79167
945.646	1270.79167
949.16	1286.45833
952.671	1296.45833
956.179	1322.125
959.685	1310.45833
963.188	1330.45833
966.688	1306.79167
970.185	1279.45833
973.68	1235.79167
977.173	1232.45833
980.662	1209.125
984.149	1215.45833
987.633	1207.45833
991.114	1216.125
994.593	1245.125
998.069	1250.125
1001.542	1279.79167
1005.013	1254.45833
1008.481	1202.45833
1011.947	1188.79167
1015.409	1170.125
1018.869	1178.79167
1022.327	1173.125
1025.782	1189.79167
1029.234	1167.125
1032.683	1136.45833
1036.13	1109.79167
1039.574	1075.79167
1043.016	1054.45833
1046.455	1044.45833
1049.891	1040.125
1053.325	1039.79167
1056.756	1037.125
1060.184	1032.125
1063.61	1028.125
1067.033	1054.125
1070.454	1044.79167
1073.872	1062.79167
1077.287	1036.79167
1080.7	1047.79167
1084.11	1042.45833
1087.517	1046.45833
1090.922	1026.45833
1094.325	1010.79167
1097.724	989.79167
1101.122	1005.125
1104.516	999.79167
1107.908	975.79167
1111.298	1006.79167
1114.684	1007.79167
1118.069	1008.79167
1121.45	1031.45833
1124.83	1011.79167
1128.206	1033.125
1131.58	1041.79167
1134.951	1054.125
1138.32	1074.79167
1141.687	1107.45833
1145.05	1122.79167
1148.412	1118.79167
1151.77	1124.125
1155.126	1105.79167
1158.48	1103.125
1161.831	1111.45833
1165.18	1110.125
1168.525	1115.45833
1171.869	1125.79167
1175.21	1124.45833
1178.548	1145.45833
1181.884	1153.125
1185.217	1165.125
1188.548	1183.45833
1191.877	1197.79167
1195.202	1236.79167
1198.526	1264.79167
1201.846	1260.125
1205.165	1248.79167
1208.48	1261.125
1211.794	1266.79167
1215.104	1266.79167
1218.413	1245.45833
1221.719	1254.79167
1225.022	1222.45833
1228.323	1208.125
1231.621	1207.125
1234.917	1190.125
1238.21	1219.125
1241.501	1186.79167
1244.79	1179.79167
1248.076	1163.79167
1251.359	1191.79167
1254.64	1246.125
1257.919	1230.79167
1261.195	1226.45833
1264.468	1256.125
1267.74	1255.79167
1271.008	1257.45833
1274.275	1246.79167
1277.538	1257.79167
1280.8	1256.45833
1284.059	1244.125
1287.315	1271.45833
1290.569	1261.79167
1293.821	1266.125
1297.07	1263.45833
1300.317	1268.45833
1303.562	1265.79167
1306.803	1262.45833
1310.043	1233.125
1313.28	1248.79167
1316.515	1234.125
1319.747	1248.45833
1322.977	1237.125
1326.204	1228.79167
1329.429	1199.45833
1332.652	1221.125
1335.872	1211.79167
1339.09	1202.125
1342.306	1206.125
1345.519	1188.125
1348.729	1179.45833
1351.938	1199.45833
1355.144	1159.79167
1358.347	1137.45833
1361.548	1166.79167
1364.747	1160.125
1367.944	1128.79167
1371.138	1131.125
1374.329	1138.125
1377.518	1132.125
1380.705	1141.45833
1383.89	1128.79167
1387.072	1110.79167
1390.252	1078.79167
1393.429	1053.45833
1396.605	1003.79167
1399.777	990.79167
1402.948	993.79167
1406.116	969.125
1409.282	963.125
1412.445	970.79167
1415.606	975.125
1418.765	970.45833
1421.921	992.45833
1425.075	994.125
1428.227	1019.45833
1431.376	1059.125
1434.524	1088.45833
1437.668	1117.45833
1440.811	1132.79167
1443.951	1139.79167
1447.089	1149.125
1450.224	1144.45833
1453.357	1145.45833
1456.488	1141.45833
1459.617	1115.125
1462.743	1104.125
1465.867	1072.45833
1468.989	1085.45833
1472.108	1053.125
1475.225	1044.45833
1478.34	1022.79167
1481.453	1025.79167
1484.563	1006.79167
1487.671	1050.125
1490.776	1052.125
1493.88	1048.45833
1496.981	1060.125
1500.08	1067.79167
1503.176	1061.79167
1506.271	1084.79167
1509.363	1098.125
1512.452	1093.45833
1515.54	1113.45833
1518.625	1127.79167
1521.708	1161.45833
1524.789	1177.125
1527.867	1206.45833
1530.944	1274.125
1534.018	1301.125
1537.089	1355.125
1540.159	1359.125
1543.226	1349.45833
1546.291	1337.45833
1549.354	1312.125
1552.415	1291.125
1555.473	1273.79167
1558.529	1250.45833
1561.583	1224.45833
1564.634	1226.45833
1567.684	1218.45833
1570.731	1212.125
1573.776	1223.45833
1576.819	1243.125
1579.859	1245.125
1582.898	1257.125
1585.934	1268.45833
1588.968	1296.45833
1591.999	1256.79167
1595.029	1257.125
1598.056	1273.125
1601.081	1280.79167
1604.104	1286.79167
1607.125	1268.79167
1610.144	1256.125
1613.16	1229.125
1616.174	1205.45833
1619.186	1186.45833
1622.196	1168.45833
1625.203	1129.45833
1628.209	1132.79167
1631.212	1135.79167
1634.213	1132.125
1637.212	1149.45833
1640.209	1162.79167
1643.203	1110.45833
1646.196	1078.125
1649.186	1021.45833
1652.174	1017.45833
1655.16	980.79167
1658.144	959.125
1661.125	908.79167
1664.105	882.125
1667.082	858.79167
1670.057	804.125
1673.03	761.125
1676.001	739.79167
1678.97	691.125
1681.937	654.125
1684.901	623.79167
1687.863	621.125
1690.824	588.45833
1693.782	590.45833
1696.738	551.79167
1699.692	550.79167
1702.643	544.45833
1705.593	536.45833
1708.54	539.79167
1711.486	538.125
1714.429	517.125
1717.37	526.125
1720.309	515.45833
1723.246	521.45833
1726.181	496.79167
1729.113	507.79167
1732.044	511.45833
1734.972	482.79167
1737.899	510.45833
1740.823	509.45833
1743.745	525.125
1746.665	486.45833
1749.583	471.79167
1752.499	475.79167
1755.413	471.45833
1758.325	459.79167
1761.235	466.79167
1764.142	444.125
1767.048	455.45833
1769.951	455.45833
1772.852	444.79167
1775.752	456.79167
1778.649	458.45833
1781.544	464.125
1784.437	437.79167
1787.328	451.45833
1790.217	439.125
1793.104	410.79167
1795.989	423.79167
1798.872	418.79167
1801.753	433.79167
1804.631	419.125
1807.508	434.125
1810.383	423.79167
1813.255	421.125
1816.126	417.45833
1818.994	418.79167
1821.861	417.79167
1824.725	419.125
1827.587	416.45833
1830.448	407.45833
1833.306	410.125
1836.162	414.125
1839.017	406.79167
1841.869	402.79167
1844.719	397.125
1847.567	387.45833
1850.414	385.79167
1853.258	381.45833
1856.1	399.45833
1858.94	409.79167
1861.778	399.45833
1864.614	382.79167
1867.448	400.125
1870.28	371.125
1873.111	406.79167
1875.939	388.125
1878.765	409.45833
1881.589	388.125
1884.411	393.125
1887.231	390.125
1890.049	376.79167
1892.865	396.125
1895.68	378.45833
1898.492	383.79167
1901.302	373.125
1904.11	368.125
1906.916	379.79167
1909.721	369.45833
1912.523	378.79167
1915.323	366.79167
1918.122	355.79167
1920.918	376.79167
1923.712	359.79167
1926.505	364.45833
1929.295	342.45833
1932.084	365.45833
1934.87	369.79167
1937.655	353.45833
1940.438	352.45833
1943.218	351.79167
1945.997	361.125
1948.774	365.79167
1951.549	364.45833
1954.322	351.125
1957.093	360.45833
1959.862	344.79167
1962.629	353.125
1965.394	344.125
1968.157	337.79167
1970.918	356.125
1973.678	342.79167
1976.435	348.125
1979.19	340.79167
1981.944	328.79167
1984.696	334.45833
1987.445	328.125
1990.193	331.79167
1992.939	348.125
1995.683	344.79167
1998.425	322.79167
2001.165	357.125
2003.903	318.45833
2006.639	327.125
2009.374	330.45833
2012.106	339.45833
2014.837	310.125
2017.566	344.45833
2020.292	322.45833
2023.017	320.45833
2025.74	316.125
2028.461	308.79167
2031.18	330.45833
2033.898	312.45833
2036.613	325.125
2039.327	320.125
2042.038	305.125
2044.748	311.125
2047.456	319.79167
2050.162	300.125
2052.866	305.45833
2055.568	323.79167
2058.268	303.45833
2060.967	315.79167
2063.663	294.79167
2066.358	300.125
2069.051	290.45833
2071.742	305.45833
2074.431	308.125
2077.118	295.79167
2079.804	286.79167
2082.487	298.125
2085.169	308.79167
2087.849	318.45833
2090.527	287.79167
2093.203	298.45833
2095.877	296.79167
2098.55	298.79167
2101.22	297.79167
2103.889	314.79167
2106.556	296.79167
2109.221	316.125
2111.884	300.125
2114.546	325.45833
2117.205	328.79167
2119.863	360.79167
2122.519	352.125
2125.173	383.125
2127.825	411.125
2130.475	400.45833
2133.124	383.125
2135.771	368.125
2138.416	385.79167
2141.059	351.125
2143.7	353.79167
2146.339	332.79167
2148.977	299.45833
2151.613	313.79167
2154.247	305.125
2156.879	300.79167
2159.51	297.125
2162.138	291.79167
2164.765	293.79167
2167.39	279.79167
2170.013	305.125
2172.634	295.45833
2175.254	278.79167
2177.872	319.45833
2180.488	268.79167
2183.102	273.79167
2185.714	276.79167
2188.325	264.45833
2190.934	273.125
2193.541	273.79167
2196.146	270.79167
2198.75	254.45833
2201.351	258.45833
2203.951	243.45833
2206.549	271.125
2209.146	253.79167
2211.74	241.125
2214.333	257.125
2216.924	246.125
2219.514	255.79167
2222.101	250.125
2224.687	266.125
2227.271	242.45833
2229.853	243.79167
2232.433	227.79167
2235.012	253.79167
2237.589	248.79167
2240.164	257.79167
2242.738	241.79167
2245.309	232.79167
2247.879	246.125
2250.448	247.125
2253.014	231.79167
2255.579	228.45833
2258.142	233.45833
2260.703	235.79167
2263.262	229.79167
2265.82	215.45833
2268.376	236.79167
2270.93	223.45833
2273.483	219.79167
2276.033	233.79167
2278.583	219.125
2281.13	223.45833
2283.675	209.79167
2286.219	218.45833
2288.761	228.125
2291.302	233.125
2293.841	231.125
2296.377	210.45833
2298.913	223.125
2301.446	233.45833
2303.978	218.45833
2306.508	221.45833
2309.037	220.79167
2311.563	218.45833
2314.088	213.79167
2316.612	201.125
2319.133	221.125
2321.653	217.125
2324.171	208.125
2326.688	222.79167
2329.202	211.125
2331.715	206.79167
2334.227	209.125
2336.736	209.125
2339.244	200.79167
2341.751	193.45833
2344.255	210.79167
2346.758	209.45833
2349.259	197.79167
2351.759	206.125
2354.257	197.45833
2356.753	193.45833
2359.247	197.125
2361.74	194.125
2364.231	201.79167
2366.721	208.125
2369.209	194.125
2371.695	199.125
2374.179	191.45833
2376.662	186.45833
2379.143	201.79167
2381.622	190.79167
2384.1	200.45833
2386.576	190.79167
2389.051	208.45833
2391.524	209.79167
2393.995	200.79167
2396.464	182.45833
2398.932	187.125
2401.398	192.79167
2403.863	185.45833
2406.325	188.45833
2408.787	195.125
2411.246	189.79167
2413.704	187.125
2416.16	185.125
2418.615	185.79167
2421.068	191.45833
2423.519	187.45833
2425.969	179.125
2428.417	193.79167
2430.863	203.79167
2433.308	199.125
2435.751	196.79167
2438.193	191.125
2440.633	188.79167
2443.071	193.125
2445.508	184.79167
2447.943	184.125
2450.376	175.79167
2452.808	187.125
2455.238	176.125
2457.667	213.45833
2460.093	172.125
2462.519	173.79167
2464.942	173.125
2467.365	182.125
2469.785	183.45833
2472.204	180.125
2474.621	181.45833
2477.037	195.125
2479.451	168.125
2481.863	163.45833
2484.274	170.125
2486.683	170.125
2489.091	185.79167
2491.497	176.79167
2493.901	182.125
2496.304	167.79167
2498.705	184.45833
2501.105	172.79167
2503.503	193.79167
2505.899	166.45833
2508.294	191.45833
2510.687	165.125
2513.079	172.125
2515.469	165.125
2517.858	162.45833
2520.245	184.45833
2522.63	168.79167
2525.014	162.45833
2527.396	164.45833
2529.776	169.79167
2532.156	176.125
2534.533	159.125
2536.909	154.79167
2539.283	149.79167
2541.656	160.125
2544.027	174.79167
2546.397	167.45833
2548.765	159.45833
2551.131	167.125
2553.496	166.45833
2555.86	167.45833
2558.221	167.79167
2560.582	155.125
2562.94	153.125
2565.298	166.79167
2567.653	171.45833
2570.007	148.79167
2572.36	166.79167
2574.711	152.125
2577.06	173.79167
2579.408	163.125
2581.754	157.45833
2584.099	152.125
2586.442	154.125
2588.784	160.125
2591.124	160.45833
2593.463	154.79167
2595.8	156.45833
2598.135	149.79167
2600.469	147.125
2602.802	169.79167
2605.133	167.45833
2607.462	150.79167
2609.79	147.125
2612.116	160.45833
2614.441	154.45833
2616.764	156.79167
2619.086	161.45833
2621.406	153.125
2623.725	166.45833
2626.042	154.45833
2628.358	147.79167
2630.672	161.45833
2632.985	163.45833
2635.296	155.45833
2637.606	157.79167
2639.914	150.45833
2642.22	149.45833
2644.525	155.79167
2646.829	156.79167
2649.131	166.45833
2651.432	157.125
2653.731	150.79167
2656.028	160.79167
2658.324	163.125
2660.619	141.79167
2662.912	161.79167
2665.204	146.45833
2667.494	158.125
2669.782	146.79167
2672.07	162.45833
2674.355	165.79167
2676.639	156.45833
2678.922	146.125
2681.203	157.45833
2683.483	141.45833
2685.761	141.125
2688.038	164.125
2690.313	163.79167
2692.587	155.79167
2694.859	149.45833
2697.13	158.125
2699.399	155.79167
2701.667	160.125
2703.933	149.79167
2706.198	165.45833
2708.461	162.125
2710.723	163.125
2712.984	153.79167
2715.243	162.79167
2717.5	150.125
2719.757	163.125
2722.011	155.45833
2724.264	169.45833
2726.516	173.45833
2728.766	153.125
2731.015	162.79167
2733.262	158.79167
2735.508	160.125
2737.753	161.79167
2739.996	145.79167
2742.237	151.45833
2744.477	162.125
2746.716	169.45833
2748.953	166.125
2751.189	166.79167
2753.423	158.79167
2755.656	154.79167
2757.887	150.79167
2760.117	152.45833
2762.346	145.125
2764.573	134.45833
2766.798	142.79167
2769.022	147.45833
2771.245	148.45833
2773.467	148.45833
2775.686	146.45833
2777.905	151.45833
2780.122	147.79167
2782.337	154.45833
2784.552	148.45833
2786.764	150.45833
2788.976	144.79167
2791.186	151.125
2793.394	151.125
2795.601	161.45833
2797.807	161.79167
2800.011	156.79167
2802.214	163.45833
2804.415	160.125
2806.615	154.45833
2808.814	164.125
2811.011	157.79167
2813.206	161.45833
2815.401	171.125
2817.594	166.79167
2819.785	173.45833
2821.975	163.45833
2824.164	176.79167
2826.351	165.45833
2828.537	187.125
2830.722	184.125
2832.905	175.45833
2835.086	182.125
2837.267	203.125
2839.445	201.125
2841.623	198.79167
2843.799	205.79167
2845.974	215.125
2848.147	209.79167
2850.319	224.125
2852.489	235.79167
2854.659	237.125
2856.826	239.45833
2858.993	260.45833
2861.158	240.45833
2863.321	243.79167
2865.483	260.45833
2867.644	253.45833
2869.804	257.79167
2871.962	247.45833
2874.118	253.125
2876.274	256.125
2878.428	252.45833
2880.58	257.79167
2882.731	242.45833
2884.881	249.79167
2887.03	250.79167
2889.177	251.125
2891.322	262.125
2893.467	246.79167
2895.61	251.125
2897.751	268.45833
2899.892	243.79167
2902.03	254.79167
2904.168	252.79167
2906.304	259.125
2908.439	277.125
2910.572	251.125
2912.704	261.45833
2914.835	266.45833
2916.965	261.45833
2919.093	280.79167
2921.219	248.79167
2923.345	275.45833
2925.469	263.45833
2927.591	256.79167
2929.712	243.125
2931.832	252.79167
2933.951	246.125
2936.068	239.45833
2938.184	235.125
2940.299	231.45833
2942.412	222.45833
2944.524	211.125
2946.634	220.45833
2948.744	191.125
2950.851	228.79167
2952.958	191.125
2955.063	202.125
2957.167	187.45833
2959.269	178.79167
2961.371	204.79167
2963.471	181.45833
2965.569	196.45833
2967.666	164.79167
2969.762	171.79167
2971.857	162.79167
2973.95	159.45833
2976.042	167.45833
2978.133	156.79167
2980.222	154.45833
2982.31	146.125
2984.396	131.79167
2986.482	134.45833
2988.566	144.79167
2990.648	140.45833
2992.73	136.125
2994.81	127.79167
2996.889	143.45833
2998.966	139.125
3001.042	146.125
3003.117	134.45833
3005.191	130.79167
3007.263	139.125
3009.334	135.79167
3011.403	135.45833
3013.472	128.79167
3015.539	142.45833
3017.604	153.125
3019.669	120.45833
3021.732	123.125
3023.794	126.125
3025.854	122.125
3027.914	110.125
3029.971	117.45833
3032.028	123.125
3034.083	131.79167
3036.137	123.45833
3038.19	110.45833
3040.242	107.125
3042.292	108.79167
3044.341	108.79167
3046.388	122.125
3048.435	102.125
3050.48	125.45833
3052.524	111.79167
3054.566	95.45833
3056.607	114.125
3058.647	104.125
3060.686	89.79167
3062.723	90.79167
3064.759	86.45833
3066.794	1.45833
3068.828	-0.875
3070.86	2.79167
