-0.839	150.25
3.438	167.91667
7.711	69.91667
11.981	43.91667
16.247	35.91667
20.509	39.25
24.768	37.91667
29.024	44.91667
33.276	31.58333
37.524	42.58333
41.769	31.25
46.01	26.58333
50.247	43.58333
54.481	48.91667
58.712	54.25
62.939	37.91667
67.162	54.91667
71.382	47.25
75.599	39.25
79.812	43.91667
84.021	66.25
88.227	44.58333
92.429	53.91667
96.628	39.91667
100.823	55.25
105.015	54.58333
109.204	44.91667
113.388	61.58333
117.57	46.91667
121.748	61.91667
125.922	55.91667
130.093	69.58333
134.261	66.91667
138.425	56.58333
142.585	86.58333
146.742	72.25
150.896	86.58333
155.046	89.58333
159.193	130.58333
163.336	196.58333
167.476	339.25
171.613	607.25
175.746	991.91667
179.875	1471.91667
184.002	1903.25
188.124	2258.25
192.244	2402.25
196.36	2419.91667
200.472	2403.58333
204.581	2391.25
208.687	2343.25
212.79	2343.91667
216.889	2372.25
220.984	2422.25
225.077	2431.25
229.165	2454.25
233.251	2447.91667
237.333	2456.91667
241.412	2467.58333
245.487	2441.25
249.559	2423.25
253.628	2420.58333
257.694	2405.91667
261.756	2404.91667
265.814	2348.91667
269.87	2285.25
273.922	2228.91667
277.97	2173.25
282.016	2161.91667
286.058	2156.25
290.097	2177.25
294.132	2181.91667
298.164	2162.58333
302.193	2103.91667
306.219	1992.25
310.241	1893.25
314.26	1786.91667
318.276	1706.25
322.288	1655.58333
326.297	1606.58333
330.303	1583.25
334.305	1573.25
338.305	1548.58333
342.301	1552.58333
346.294	1531.91667
350.283	1526.91667
354.269	1523.25
358.252	1506.25
362.232	1506.58333
366.209	1520.25
370.182	1499.58333
374.152	1498.25
378.119	1506.25
382.083	1490.25
386.043	1508.58333
390	1522.58333
393.954	1543.25
397.905	1536.25
401.852	1571.58333
405.797	1525.91667
409.738	1576.25
413.676	1634.25
417.61	1682.91667
421.542	1562.25
425.47	1506.25
429.396	1491.25
433.318	1466.91667
437.236	1480.91667
441.152	1496.25
445.065	1455.25
448.974	1464.25
452.88	1446.58333
456.783	1451.25
460.683	1424.58333
464.58	1442.58333
468.473	1450.91667
472.364	1476.58333
476.251	1471.25
480.135	1473.25
484.016	1473.25
487.894	1477.91667
491.769	1495.58333
495.641	1473.91667
499.509	1484.58333
503.375	1485.91667
507.237	1472.25
511.096	1479.91667
514.952	1463.58333
518.805	1467.91667
522.655	1477.91667
526.502	1468.91667
530.346	1479.25
534.187	1476.91667
538.024	1475.91667
541.859	1463.58333
545.69	1489.25
549.519	1495.58333
553.344	1466.25
557.166	1456.58333
560.985	1452.91667
564.802	1446.25
568.615	1418.58333
572.425	1416.58333
576.232	1393.58333
580.036	1415.25
583.836	1415.91667
587.634	1431.91667
591.429	1419.91667
595.221	1448.58333
599.01	1434.58333
602.796	1427.91667
606.578	1441.58333
610.358	1427.91667
614.135	1438.58333
617.909	1449.25
621.679	1441.25
625.447	1430.25
629.212	1420.25
632.973	1425.58333
636.732	1430.25
640.488	1437.91667
644.241	1399.58333
647.991	1400.25
651.737	1425.25
655.481	1377.91667
659.222	1407.25
662.96	1379.58333
666.695	1409.25
670.427	1400.91667
674.156	1416.91667
677.882	1409.91667
681.605	1412.25
685.325	1391.91667
689.043	1410.58333
692.757	1395.91667
696.468	1388.25
700.177	1395.25
703.882	1369.25
707.585	1366.91667
711.284	1351.58333
714.981	1357.91667
718.675	1332.91667
722.366	1369.58333
726.054	1349.25
729.739	1347.25
733.421	1337.91667
737.1	1339.91667
740.777	1350.58333
744.45	1347.25
748.121	1355.91667
751.789	1378.25
755.453	1367.25
759.115	1363.58333
762.774	1382.91667
766.431	1363.25
770.084	1382.58333
773.734	1382.91667
777.382	1405.58333
781.027	1395.91667
784.669	1392.58333
788.308	1399.25
791.944	1400.58333
795.577	1413.91667
799.208	1408.25
802.835	1408.58333
806.46	1416.25
810.082	1420.58333
813.701	1411.58333
817.317	1442.58333
820.931	1425.91667
824.542	1433.58333
828.149	1412.25
831.754	1386.58333
835.357	1402.91667
838.956	1412.58333
842.553	1426.58333
846.146	1419.58333
849.737	1368.25
853.326	1377.25
856.911	1340.25
860.493	1372.58333
864.073	1392.58333
867.65	1478.91667
871.225	1461.91667
874.796	1404.58333
878.365	1390.25
881.931	1402.91667
885.494	1413.91667
889.054	1411.25
892.612	1406.58333
896.166	1385.91667
899.719	1356.25
903.268	1342.91667
906.814	1347.58333
910.358	1330.58333
913.899	1332.25
917.438	1318.58333
920.973	1307.58333
924.506	1321.91667
928.036	1348.25
931.564	1343.91667
935.088	1372.25
938.61	1343.58333
942.129	1344.91667
945.646	1370.58333
949.16	1385.91667
952.671	1395.91667
956.179	1422.58333
959.685	1396.25
963.188	1414.91667
966.688	1410.91667
970.185	1349.91667
973.68	1330.91667
977.173	1310.58333
980.662	1297.25
984.149	1303.25
987.633	1279.91667
991.114	1301.91667
994.593	1322.58333
998.069	1343.58333
1001.542	1389.91667
1005.013	1372.58333
1008.481	1291.91667
1011.947	1262.25
1015.409	1258.25
1018.869	1260.91667
1022.327	1259.58333
1025.782	1264.25
1029.234	1229.58333
1032.683	1243.25
1036.13	1211.25
1039.574	1166.91667
1043.016	1139.91667
1046.455	1115.91667
1049.891	1124.91667
1053.325	1120.25
1056.756	1104.58333
1060.184	1121.58333
1063.61	1118.25
1067.033	1129.58333
1070.454	1097.58333
1073.872	1153.91667
1077.287	1122.91667
1080.7	1121.58333
1084.11	1115.25
1087.517	1115.58333
1090.922	1096.91667
1094.325	1088.91667
1097.724	1077.58333
1101.122	1075.91667
1104.516	1077.58333
1107.908	1073.25
1111.298	1084.25
1114.684	1092.25
1118.069	1085.58333
1121.45	1107.25
1124.83	1091.25
1128.206	1088.58333
1131.58	1115.58333
1134.951	1144.25
1138.32	1155.58333
1141.687	1200.25
1145.05	1215.58333
1148.412	1207.58333
1151.77	1210.91667
1155.126	1202.91667
1158.48	1185.91667
1161.831	1205.58333
1165.18	1186.25
1168.525	1208.91667
1171.869	1206.58333
1175.21	1200.25
1178.548	1235.91667
1181.884	1254.58333
1185.217	1254.58333
1188.548	1271.58333
1191.877	1289.25
1195.202	1349.58333
1198.526	1360.91667
1201.846	1364.25
1205.165	1366.58333
1208.48	1347.25
1211.794	1357.25
1215.104	1345.91667
1218.413	1338.25
1221.719	1331.25
1225.022	1310.91667
1228.323	1294.91667
1231.621	1316.25
1234.917	1274.91667
1238.21	1293.58333
1241.501	1274.91667
1244.79	1270.58333
1248.076	1258.58333
1251.359	1281.25
1254.64	1340.58333
1257.919	1318.58333
1261.195	1307.25
1264.468	1344.91667
1267.74	1364.58333
1271.008	1366.25
1274.275	1353.91667
1277.538	1335.25
1280.8	1334.58333
1284.059	1337.91667
1287.315	1342.91667
1290.569	1332.91667
1293.821	1345.25
1297.07	1357.58333
1300.317	1355.25
1303.562	1347.25
1306.803	1343.25
1310.043	1347.25
1313.28	1333.58333
1316.515	1323.25
1319.747	1324.91667
1322.977	1311.91667
1326.204	1297.58333
1329.429	1279.91667
1332.652	1275.25
1335.872	1293.25
1339.09	1270.91667
1342.306	1254.58333
1345.519	1264.25
1348.729	1246.25
1351.938	1241.58333
1355.144	1233.58333
1358.347	1217.91667
1361.548	1216.25
1364.747	1217.58333
1367.944	1208.25
1371.138	1216.91667
1374.329	1214.91667
1377.518	1205.25
1380.705	1204.58333
1383.89	1219.91667
1387.072	1166.58333
1390.252	1152.91667
1393.429	1120.91667
1396.605	1089.91667
1399.777	1056.25
1402.948	1051.58333
1406.116	1034.58333
1409.282	1018.91667
1412.445	1030.58333
1415.606	1045.91667
1418.765	1033.58333
1421.921	1061.25
1425.075	1057.58333
1428.227	1098.91667
1431.376	1109.91667
1434.524	1167.91667
1437.668	1181.25
1440.811	1184.25
1443.951	1204.25
1447.089	1209.25
1450.224	1178.91667
1453.357	1200.91667
1456.488	1197.25
1459.617	1187.58333
1462.743	1154.25
1465.867	1131.91667
1468.989	1134.91667
1472.108	1113.25
1475.225	1090.25
1478.34	1092.25
1481.453	1083.91667
1484.563	1075.58333
1487.671	1087.58333
1490.776	1109.91667
1493.88	1118.58333
1496.981	1130.58333
1500.08	1152.58333
1503.176	1137.25
1506.271	1153.91667
1509.363	1186.58333
1512.452	1171.25
1515.54	1187.91667
1518.625	1204.91667
1521.708	1238.25
1524.789	1276.25
1527.867	1311.91667
1530.944	1356.58333
1534.018	1394.91667
1537.089	1458.91667
1540.159	1461.91667
1543.226	1457.91667
1546.291	1427.25
1549.354	1408.91667
1552.415	1370.25
1555.473	1345.58333
1558.529	1340.25
1561.583	1305.91667
1564.634	1320.91667
1567.684	1309.91667
1570.731	1301.25
1573.776	1333.25
1576.819	1332.91667
1579.859	1337.25
1582.898	1349.58333
1585.934	1370.58333
1588.968	1374.91667
1591.999	1361.58333
1595.029	1347.91667
1598.056	1370.91667
1601.081	1389.25
1604.104	1376.91667
1607.125	1363.58333
1610.144	1331.25
1613.16	1299.58333
1616.174	1285.25
1619.186	1265.91667
1622.196	1242.58333
1625.203	1196.91667
1628.209	1191.91667
1631.212	1173.91667
1634.213	1174.58333
1637.212	1182.58333
1640.209	1178.25
1643.203	1131.91667
1646.196	1095.91667
1649.186	1060.25
1652.174	1035.25
1655.16	1002.91667
1658.144	1001.91667
1661.125	958.25
1664.105	913.58333
1667.082	890.58333
1670.057	847.25
1673.03	800.25
1676.001	757.58333
1678.97	724.91667
1681.937	680.58333
1684.901	658.58333
1687.863	658.58333
1690.824	609.91667
1693.782	612.91667
1696.738	577.91667
1699.692	591.91667
1702.643	565.25
1705.593	569.91667
1708.54	554.25
1711.486	564.25
1714.429	538.25
1717.37	555.25
1720.309	531.58333
1723.246	545.25
1726.181	526.25
1729.113	521.58333
1732.044	535.25
1734.972	522.58333
1737.899	532.58333
1740.823	539.58333
1743.745	551.91667
1746.665	501.25
1749.583	510.91667
1752.499	495.91667
1755.413	491.25
1758.325	476.25
1761.235	486.25
1764.142	470.91667
1767.048	475.25
1769.951	474.58333
1772.852	472.58333
1775.752	521.25
1778.649	541.91667
1781.544	506.91667
1784.437	447.91667
1787.328	473.58333
1790.217	457.58333
1793.104	431.25
1795.989	443.25
1798.872	443.91667
1801.753	463.25
1804.631	442.25
1807.508	449.58333
1810.383	442.58333
1813.255	441.25
1816.126	439.91667
1818.994	430.58333
1821.861	426.25
1824.725	441.58333
1827.587	432.58333
1830.448	435.91667
1833.306	419.91667
1836.162	423.25
1839.017	412.58333
1841.869	423.91667
1844.719	414.58333
1847.567	403.25
1850.414	396.25
1853.258	404.25
1856.1	415.25
1858.94	416.58333
1861.778	411.58333
1864.614	394.91667
1867.448	408.58333
1870.28	397.58333
1873.111	415.58333
1875.939	410.25
1878.765	416.25
1881.589	399.58333
1884.411	404.91667
1887.231	416.91667
1890.049	407.91667
1892.865	406.91667
1895.68	398.91667
1898.492	410.91667
1901.302	394.91667
1904.11	395.25
1906.916	387.58333
1909.721	382.58333
1912.523	392.91667
1915.323	378.25
1918.122	372.58333
1920.918	387.58333
1923.712	374.58333
1926.505	382.91667
1929.295	368.25
1932.084	381.91667
1934.87	385.25
1937.655	372.58333
1940.438	364.58333
1943.218	372.58333
1945.997	375.25
1948.774	378.91667
1951.549	377.25
1954.322	363.25
1957.093	365.91667
1959.862	369.58333
1962.629	369.91667
1965.394	359.58333
1968.157	350.58333
1970.918	367.25
1973.678	348.91667
1976.435	358.58333
1979.19	355.58333
1981.944	357.91667
1984.696	352.25
1987.445	349.25
1990.193	348.91667
1992.939	365.25
1995.683	350.25
1998.425	326.25
2001.165	359.58333
2003.903	330.25
2006.639	341.25
2009.374	340.91667
2012.106	343.25
2014.837	319.58333
2017.566	348.91667
2020.292	338.25
2023.017	331.58333
2025.74	319.91667
2028.461	321.58333
2031.18	337.25
2033.898	315.91667
2036.613	323.58333
2039.327	330.91667
2042.038	319.58333
2044.748	329.91667
2047.456	329.91667
2050.162	311.91667
2052.866	317.91667
2055.568	328.91667
2058.268	311.58333
2060.967	322.58333
2063.663	303.91667
2066.358	309.91667
2069.051	305.58333
2071.742	319.58333
2074.431	323.58333
2077.118	316.91667
2079.804	301.58333
2082.487	303.58333
2085.169	314.25
2087.849	335.25
2090.527	303.25
2093.203	318.91667
2095.877	317.58333
2098.55	311.58333
2101.22	321.25
2103.889	323.91667
2106.556	314.25
2109.221	325.91667
2111.884	317.25
2114.546	349.58333
2117.205	345.91667
2119.863	388.91667
2122.519	381.58333
2125.173	409.91667
2127.825	437.91667
2130.475	447.91667
2133.124	431.91667
2135.771	411.25
2138.416	425.25
2141.059	390.58333
2143.7	383.58333
2146.339	352.58333
2148.977	334.25
2151.613	337.58333
2154.247	329.58333
2156.879	325.25
2159.51	304.25
2162.138	308.91667
2164.765	302.25
2167.39	288.58333
2170.013	311.58333
2172.634	307.58333
2175.254	296.91667
2177.872	329.25
2180.488	285.91667
2183.102	290.91667
2185.714	287.25
2188.325	267.58333
2190.934	289.58333
2193.541	291.91667
2196.146	278.91667
2198.75	267.91667
2201.351	264.91667
2203.951	254.25
2206.549	273.58333
2209.146	265.58333
2211.74	261.58333
2214.333	267.25
2216.924	256.58333
2219.514	268.58333
2222.101	258.58333
2224.687	274.58333
2227.271	246.91667
2229.853	256.58333
2232.433	240.91667
2235.012	258.91667
2237.589	255.25
2240.164	268.58333
2242.738	248.25
2245.309	241.58333
2247.879	263.58333
2250.448	257.25
2253.014	235.91667
2255.579	230.25
2258.142	241.91667
2260.703	231.91667
2263.262	230.58333
2265.82	228.58333
2268.376	246.25
2270.93	231.25
2273.483	228.58333
2276.033	235.91667
2278.583	227.91667
2281.13	234.25
2283.675	222.25
2286.219	228.25
2288.761	237.25
2291.302	232.91667
2293.841	236.58333
2296.377	216.58333
2298.913	228.58333
2301.446	235.91667
2303.978	227.25
2306.508	223.91667
2309.037	224.58333
2311.563	223.58333
2314.088	220.58333
2316.612	212.58333
2319.133	217.25
2321.653	221.25
2324.171	211.25
2326.688	226.58333
2329.202	218.25
2331.715	221.25
2334.227	225.58333
2336.736	220.25
2339.244	213.91667
2341.751	201.91667
2344.255	219.58333
2346.758	210.91667
2349.259	205.25
2351.759	210.58333
2354.257	201.58333
2356.753	198.25
2359.247	204.91667
2361.74	208.91667
2364.231	204.91667
2366.721	211.25
2369.209	203.58333
2371.695	200.58333
2374.179	192.91667
2376.662	193.25
2379.143	212.58333
2381.622	203.58333
2384.1	210.58333
2386.576	196.58333
2389.051	213.25
2391.524	214.58333
2393.995	206.58333
2396.464	190.58333
2398.932	196.25
2401.398	196.91667
2403.863	188.91667
2406.325	191.25
2408.787	204.25
2411.246	200.25
2413.704	192.25
2416.16	186.25
2418.615	193.25
2421.068	193.25
2423.519	189.25
2425.969	180.91667
2428.417	202.91667
2430.863	207.25
2433.308	198.91667
2435.751	194.91667
2438.193	186.91667
2440.633	191.25
2443.071	193.91667
2445.508	182.91667
2447.943	182.58333
2450.376	189.25
2452.808	192.25
2455.238	172.58333
2457.667	209.58333
2460.093	181.58333
2462.519	170.25
2464.942	173.25
2467.365	174.91667
2469.785	185.25
2472.204	177.58333
2474.621	180.58333
2477.037	193.91667
2479.451	171.25
2481.863	170.91667
2484.274	173.91667
2486.683	177.91667
2489.091	185.91667
2491.497	177.58333
2493.901	176.25
2496.304	174.91667
2498.705	187.58333
2501.105	176.91667
2503.503	196.91667
2505.899	165.25
2508.294	193.25
2510.687	163.58333
2513.079	168.58333
2515.469	169.91667
2517.858	170.91667
2520.245	186.58333
2522.63	172.25
2525.014	165.25
2527.396	162.25
2529.776	171.58333
2532.156	172.58333
2534.533	157.58333
2536.909	155.91667
2539.283	153.58333
2541.656	164.58333
2544.027	177.25
2546.397	173.58333
2548.765	160.58333
2551.131	164.58333
2553.496	163.91667
2555.86	168.58333
2558.221	170.91667
2560.582	161.25
2562.94	147.91667
2565.298	160.91667
2567.653	175.91667
2570.007	155.25
2572.36	173.25
2574.711	154.91667
2577.06	175.91667
2579.408	161.91667
2581.754	159.91667
2584.099	160.91667
2586.442	156.91667
2588.784	161.25
2591.124	160.91667
2593.463	159.58333
2595.8	160.58333
2598.135	145.25
2600.469	151.58333
2602.802	166.58333
2605.133	169.58333
2607.462	148.58333
2609.79	143.91667
2612.116	165.91667
2614.441	152.91667
2616.764	161.25
2619.086	153.25
2621.406	150.91667
2623.725	163.25
2626.042	151.25
2628.358	145.91667
2630.672	152.25
2632.985	159.58333
2635.296	155.91667
2637.606	151.25
2639.914	144.91667
2642.22	151.25
2644.525	151.91667
2646.829	154.91667
2649.131	170.25
2651.432	162.25
2653.731	149.25
2656.028	161.25
2658.324	162.58333
2660.619	141.58333
2662.912	162.58333
2665.204	141.91667
2667.494	155.25
2669.782	143.58333
2672.07	159.58333
2674.355	162.25
2676.639	155.58333
2678.922	147.91667
2681.203	155.25
2683.483	146.91667
2685.761	141.91667
2688.038	164.91667
2690.313	164.91667
2692.587	153.25
2694.859	153.25
2697.13	144.91667
2699.399	154.58333
2701.667	164.91667
2703.933	155.91667
2706.198	159.91667
2708.461	163.58333
2710.723	158.91667
2712.984	151.25
2715.243	160.91667
2717.5	152.25
2719.757	162.25
2722.011	154.25
2724.264	165.58333
2726.516	168.25
2728.766	147.58333
2731.015	160.58333
2733.262	151.25
2735.508	153.58333
2737.753	158.25
2739.996	146.25
2742.237	142.58333
2744.477	154.58333
2746.716	170.91667
2748.953	159.25
2751.189	165.91667
2753.423	156.58333
2755.656	142.25
2757.887	148.58333
2760.117	148.91667
2762.346	143.91667
2764.573	133.58333
2766.798	144.58333
2769.022	149.58333
2771.245	137.25
2773.467	150.25
2775.686	144.58333
2777.905	148.58333
2780.122	142.91667
2782.337	158.91667
2784.552	144.58333
2786.764	151.58333
2788.976	139.58333
2791.186	145.91667
2793.394	150.25
2795.601	158.91667
2797.807	159.25
2800.011	155.91667
2802.214	161.91667
2804.415	155.91667
2806.615	159.58333
2808.814	159.91667
2811.011	159.91667
2813.206	163.91667
2815.401	172.58333
2817.594	169.91667
2819.785	174.91667
2821.975	159.25
2824.164	161.58333
2826.351	166.25
2828.537	179.58333
2830.722	177.91667
2832.905	173.91667
2835.086	186.25
2837.267	200.25
2839.445	202.91667
2841.623	198.25
2843.799	198.91667
2845.974	213.91667
2848.147	220.91667
2850.319	229.25
2852.489	241.25
2854.659	243.58333
2856.826	245.25
2858.993	262.25
2861.158	243.91667
2863.321	249.58333
2865.483	259.91667
2867.644	256.25
2869.804	260.25
2871.962	252.25
2874.118	266.58333
2876.274	291.91667
2878.428	283.58333
2880.58	276.91667
2882.731	258.25
2884.881	256.91667
2887.03	263.91667
2889.177	255.91667
2891.322	265.25
2893.467	248.25
2895.61	248.58333
2897.751	259.58333
2899.892	252.25
2902.03	262.25
2904.168	252.25
2906.304	256.91667
2908.439	276.58333
2910.572	256.58333
2912.704	263.58333
2914.835	269.58333
2916.965	264.58333
2919.093	279.58333
2921.219	247.58333
2923.345	278.91667
2925.469	267.91667
2927.591	260.58333
2929.712	242.58333
2931.832	252.25
2933.951	253.25
2936.068	240.25
2938.184	240.25
2940.299	227.58333
2942.412	222.25
2944.524	207.58333
2946.634	214.25
2948.744	191.58333
2950.851	217.58333
2952.958	192.58333
2955.063	197.58333
2957.167	193.58333
2959.269	173.25
2961.371	203.58333
2963.471	173.58333
2965.569	186.25
2967.666	159.58333
2969.762	162.91667
2971.857	158.25
2973.95	146.25
2976.042	162.58333
2978.133	155.25
2980.222	151.91667
2982.31	136.91667
2984.396	126.25
2986.482	130.25
2988.566	135.58333
2990.648	133.58333
2992.73	132.25
2994.81	120.58333
2996.889	133.91667
2998.966	126.25
3001.042	136.91667
3003.117	125.91667
3005.191	130.58333
3007.263	134.58333
3009.334	124.91667
3011.403	130.91667
3013.472	120.91667
3015.539	135.91667
3017.604	140.91667
3019.669	112.25
3021.732	119.91667
3023.794	116.91667
3025.854	111.91667
3027.914	110.58333
3029.971	108.91667
3032.028	108.91667
3034.083	118.58333
3036.137	111.25
3038.19	101.91667
3040.242	100.91667
3042.292	95.91667
3044.341	102.58333
3046.388	115.91667
3048.435	100.25
3050.48	111.91667
3052.524	106.91667
3054.566	86.91667
3056.607	103.91667
3058.647	99.25
3060.686	89.91667
3062.723	80.91667
3064.759	83.91667
3066.794	-0.08333
3068.828	0.25
3070.86	0.91667
