-0.839	138.25
3.438	156.25
7.711	63.58333
11.981	42.91667
16.247	26.91667
20.509	41.25
24.768	36.58333
29.024	45.91667
33.276	30.91667
37.524	39.25
41.769	30.91667
46.01	26.58333
50.247	44.91667
54.481	50.25
58.712	53.91667
62.939	35.25
67.162	55.58333
71.382	46.58333
75.599	39.58333
79.812	45.58333
84.021	64.91667
88.227	42.58333
92.429	51.91667
96.628	36.91667
100.823	49.91667
105.015	52.25
109.204	49.25
113.388	58.25
117.57	44.58333
121.748	62.58333
125.922	47.91667
130.093	58.58333
134.261	65.58333
138.425	56.25
142.585	87.58333
146.742	65.91667
150.896	82.25
155.046	78.91667
159.193	117.25
163.336	169.25
167.476	291.25
171.613	511.91667
175.746	843.25
179.875	1222.58333
184.002	1590.91667
188.124	1901.25
192.244	2008.25
196.36	2007.25
200.472	2030.58333
204.581	1996.91667
208.687	1936.91667
212.79	1946.58333
216.889	1966.58333
220.984	1982.25
225.077	2015.91667
229.165	2014.25
233.251	2026.58333
237.333	2036.58333
241.412	1999.58333
245.487	2003.58333
249.559	1968.25
253.628	1978.25
257.694	1964.58333
261.756	1954.91667
265.814	1927.58333
269.87	1863.58333
273.922	1852.25
277.97	1810.25
282.016	1796.58333
286.058	1781.58333
290.097	1827.58333
294.132	1838.58333
298.164	1837.58333
302.193	1768.25
306.219	1690.25
310.241	1600.25
314.26	1500.25
318.276	1453.25
322.288	1398.91667
326.297	1356.91667
330.303	1342.91667
334.305	1338.58333
338.305	1328.25
342.301	1311.58333
346.294	1318.58333
350.283	1307.91667
354.269	1278.58333
358.252	1272.91667
362.232	1297.91667
366.209	1304.91667
370.182	1289.91667
374.152	1262.91667
378.119	1294.91667
382.083	1281.25
386.043	1300.58333
390	1284.25
393.954	1294.25
397.905	1312.58333
401.852	1316.58333
405.797	1296.91667
409.738	1312.25
413.676	1322.25
417.61	1350.91667
421.542	1299.25
425.47	1279.91667
429.396	1281.58333
433.318	1266.25
437.236	1280.25
441.152	1292.25
445.065	1250.25
448.974	1259.58333
452.88	1249.25
456.783	1249.25
460.683	1244.91667
464.58	1259.91667
468.473	1267.91667
472.364	1260.91667
476.251	1262.25
480.135	1266.25
484.016	1268.25
487.894	1300.58333
491.769	1281.58333
495.641	1268.91667
499.509	1285.25
503.375	1277.58333
507.237	1271.25
511.096	1278.91667
514.952	1279.25
518.805	1290.91667
522.655	1294.91667
526.502	1264.25
530.346	1272.91667
534.187	1286.58333
538.024	1276.25
541.859	1250.91667
545.69	1281.58333
549.519	1261.25
553.344	1273.25
557.166	1242.25
560.985	1233.25
564.802	1240.91667
568.615	1231.58333
572.425	1216.25
576.232	1214.58333
580.036	1210.58333
583.836	1231.58333
587.634	1218.91667
591.429	1214.58333
595.221	1244.91667
599.01	1244.25
602.796	1245.58333
606.578	1239.91667
610.358	1248.58333
614.135	1250.25
617.909	1248.91667
621.679	1228.91667
625.447	1231.91667
629.212	1226.91667
632.973	1238.91667
636.732	1209.91667
640.488	1234.91667
644.241	1192.58333
647.991	1194.58333
651.737	1237.91667
655.481	1189.58333
659.222	1210.91667
662.96	1189.25
666.695	1216.58333
670.427	1204.25
674.156	1227.25
677.882	1217.58333
681.605	1218.25
685.325	1198.91667
689.043	1214.91667
692.757	1200.91667
696.468	1200.25
700.177	1196.58333
703.882	1176.58333
707.585	1170.25
711.284	1162.58333
714.981	1155.58333
718.675	1151.58333
722.366	1165.25
726.054	1153.91667
729.739	1155.58333
733.421	1138.58333
737.1	1146.25
740.777	1162.25
744.45	1154.91667
748.121	1143.58333
751.789	1197.58333
755.453	1173.25
759.115	1177.58333
762.774	1167.91667
766.431	1162.58333
770.084	1184.25
773.734	1171.91667
777.382	1206.91667
781.027	1191.91667
784.669	1188.91667
788.308	1184.91667
791.944	1194.91667
795.577	1190.91667
799.208	1194.25
802.835	1209.25
806.46	1211.91667
810.082	1222.25
813.701	1214.58333
817.317	1230.91667
820.931	1232.25
824.542	1228.25
828.149	1197.91667
831.754	1194.91667
835.357	1190.91667
838.956	1198.58333
842.553	1192.91667
846.146	1181.58333
849.737	1147.91667
853.326	1164.25
856.911	1127.58333
860.493	1152.58333
864.073	1163.91667
867.65	1205.91667
871.225	1200.91667
874.796	1177.58333
878.365	1161.25
881.931	1186.25
885.494	1186.91667
889.054	1181.91667
892.612	1182.25
896.166	1168.58333
899.719	1143.91667
903.268	1121.25
906.814	1122.91667
910.358	1121.25
913.899	1104.91667
917.438	1120.91667
920.973	1084.58333
924.506	1111.91667
928.036	1136.25
931.564	1132.58333
935.088	1157.58333
938.61	1144.91667
942.129	1127.58333
945.646	1160.58333
949.16	1153.25
952.671	1172.58333
956.179	1192.25
959.685	1175.58333
963.188	1183.91667
966.688	1171.58333
970.185	1126.25
973.68	1115.91667
977.173	1124.58333
980.662	1099.25
984.149	1105.25
987.633	1075.25
991.114	1109.91667
994.593	1121.25
998.069	1136.58333
1001.542	1158.91667
1005.013	1163.25
1008.481	1076.91667
1011.947	1078.25
1015.409	1052.58333
1018.869	1072.25
1022.327	1055.25
1025.782	1041.58333
1029.234	1036.25
1032.683	1035.91667
1036.13	1004.58333
1039.574	973.91667
1043.016	949.58333
1046.455	953.91667
1049.891	934.58333
1053.325	948.58333
1056.756	948.58333
1060.184	935.25
1063.61	928.91667
1067.033	934.91667
1070.454	935.91667
1073.872	965.25
1077.287	937.58333
1080.7	948.58333
1084.11	944.91667
1087.517	944.58333
1090.922	939.91667
1094.325	911.91667
1097.724	912.91667
1101.122	898.91667
1104.516	896.91667
1107.908	886.91667
1111.298	895.58333
1114.684	895.91667
1118.069	899.58333
1121.45	926.91667
1124.83	899.25
1128.206	916.25
1131.58	940.58333
1134.951	943.58333
1138.32	951.58333
1141.687	993.58333
1145.05	1008.91667
1148.412	998.25
1151.77	987.58333
1155.126	987.91667
1158.48	968.58333
1161.831	972.91667
1165.18	973.91667
1168.525	997.58333
1171.869	998.58333
1175.21	997.25
1178.548	1011.91667
1181.884	1025.25
1185.217	1025.58333
1188.548	1050.58333
1191.877	1049.25
1195.202	1091.58333
1198.526	1107.91667
1201.846	1102.91667
1205.165	1111.91667
1208.48	1114.58333
1211.794	1117.58333
1215.104	1107.91667
1218.413	1102.91667
1221.719	1105.25
1225.022	1078.91667
1228.323	1066.91667
1231.621	1077.58333
1234.917	1065.58333
1238.21	1078.91667
1241.501	1057.25
1244.79	1053.25
1248.076	1034.91667
1251.359	1064.25
1254.64	1092.25
1257.919	1075.58333
1261.195	1080.58333
1264.468	1102.58333
1267.74	1112.25
1271.008	1105.91667
1274.275	1119.91667
1277.538	1100.91667
1280.8	1101.91667
1284.059	1100.58333
1287.315	1124.91667
1290.569	1121.25
1293.821	1122.91667
1297.07	1111.58333
1300.317	1119.25
1303.562	1117.58333
1306.803	1093.58333
1310.043	1105.91667
1313.28	1091.91667
1316.515	1083.91667
1319.747	1102.25
1322.977	1087.58333
1326.204	1076.58333
1329.429	1062.91667
1332.652	1063.25
1335.872	1068.25
1339.09	1056.25
1342.306	1066.25
1345.519	1049.58333
1348.729	1043.58333
1351.938	1058.58333
1355.144	1032.25
1358.347	1030.58333
1361.548	1036.91667
1364.747	1022.91667
1367.944	1011.91667
1371.138	1013.25
1374.329	1008.91667
1377.518	1011.91667
1380.705	1014.58333
1383.89	1013.58333
1387.072	987.25
1390.252	967.58333
1393.429	936.58333
1396.605	908.25
1399.777	885.58333
1402.948	881.25
1406.116	870.91667
1409.282	872.58333
1412.445	871.25
1415.606	883.25
1418.765	881.25
1421.921	899.58333
1425.075	892.58333
1428.227	897.91667
1431.376	944.91667
1434.524	960.91667
1437.668	995.25
1440.811	1009.25
1443.951	998.58333
1447.089	1007.25
1450.224	997.91667
1453.357	996.91667
1456.488	999.58333
1459.617	977.58333
1462.743	966.25
1465.867	933.58333
1468.989	953.58333
1472.108	923.25
1475.225	919.25
1478.34	903.91667
1481.453	890.91667
1484.563	888.58333
1487.671	899.25
1490.776	926.91667
1493.88	912.58333
1496.981	925.58333
1500.08	927.91667
1503.176	950.91667
1506.271	953.58333
1509.363	973.25
1512.452	954.58333
1515.54	966.91667
1518.625	982.25
1521.708	1007.58333
1524.789	1039.58333
1527.867	1056.58333
1530.944	1108.58333
1534.018	1108.58333
1537.089	1172.91667
1540.159	1163.25
1543.226	1191.58333
1546.291	1152.91667
1549.354	1146.25
1552.415	1132.25
1555.473	1101.58333
1558.529	1082.25
1561.583	1069.25
1564.634	1058.91667
1567.684	1051.58333
1570.731	1060.91667
1573.776	1074.58333
1576.819	1065.58333
1579.859	1076.25
1582.898	1090.58333
1585.934	1115.25
1588.968	1098.91667
1591.999	1095.58333
1595.029	1090.25
1598.056	1101.58333
1601.081	1109.25
1604.104	1109.91667
1607.125	1100.58333
1610.144	1072.58333
1613.16	1059.58333
1616.174	1030.58333
1619.186	1015.91667
1622.196	997.91667
1625.203	957.91667
1628.209	975.91667
1631.212	967.25
1634.213	972.25
1637.212	986.91667
1640.209	977.58333
1643.203	945.25
1646.196	934.25
1649.186	891.91667
1652.174	877.91667
1655.16	845.25
1658.144	836.58333
1661.125	808.58333
1664.105	787.91667
1667.082	755.58333
1670.057	712.58333
1673.03	681.25
1676.001	652.91667
1678.97	613.25
1681.937	597.91667
1684.901	562.58333
1687.863	550.58333
1690.824	515.58333
1693.782	538.91667
1696.738	497.25
1699.692	502.25
1702.643	489.25
1705.593	496.25
1708.54	484.91667
1711.486	491.58333
1714.429	467.91667
1717.37	478.58333
1720.309	464.91667
1723.246	462.91667
1726.181	449.58333
1729.113	456.25
1732.044	455.58333
1734.972	450.58333
1737.899	457.58333
1740.823	460.25
1743.745	477.91667
1746.665	432.58333
1749.583	433.25
1752.499	428.25
1755.413	421.91667
1758.325	420.91667
1761.235	419.91667
1764.142	414.58333
1767.048	400.91667
1769.951	408.58333
1772.852	409.58333
1775.752	418.58333
1778.649	424.25
1781.544	425.58333
1784.437	393.25
1787.328	401.58333
1790.217	395.58333
1793.104	370.25
1795.989	387.58333
1798.872	376.58333
1801.753	396.91667
1804.631	384.58333
1807.508	395.58333
1810.383	381.25
1813.255	384.25
1816.126	383.91667
1818.994	384.58333
1821.861	375.91667
1824.725	384.91667
1827.587	373.91667
1830.448	372.58333
1833.306	369.25
1836.162	375.91667
1839.017	363.25
1841.869	364.91667
1844.719	366.58333
1847.567	352.91667
1850.414	343.25
1853.258	349.58333
1856.1	366.58333
1858.94	363.58333
1861.778	353.25
1864.614	343.58333
1867.448	358.25
1870.28	346.25
1873.111	362.25
1875.939	360.25
1878.765	371.25
1881.589	350.58333
1884.411	353.58333
1887.231	359.25
1890.049	352.25
1892.865	359.25
1895.68	339.25
1898.492	352.58333
1901.302	345.58333
1904.11	331.58333
1906.916	340.91667
1909.721	340.25
1912.523	354.25
1915.323	317.58333
1918.122	331.91667
1920.918	347.25
1923.712	327.91667
1926.505	332.25
1929.295	317.58333
1932.084	332.25
1934.87	326.91667
1937.655	323.25
1940.438	319.91667
1943.218	321.25
1945.997	332.25
1948.774	332.91667
1951.549	329.25
1954.322	326.25
1957.093	333.91667
1959.862	319.25
1962.629	313.58333
1965.394	321.25
1968.157	306.25
1970.918	316.91667
1973.678	307.91667
1976.435	314.91667
1979.19	308.91667
1981.944	298.91667
1984.696	302.25
1987.445	289.91667
1990.193	306.25
1992.939	317.91667
1995.683	308.91667
1998.425	284.25
2001.165	318.25
2003.903	288.58333
2006.639	299.25
2009.374	298.91667
2012.106	297.91667
2014.837	283.58333
2017.566	309.58333
2020.292	298.58333
2023.017	288.25
2025.74	289.58333
2028.461	283.91667
2031.18	290.58333
2033.898	277.91667
2036.613	287.25
2039.327	296.58333
2042.038	282.58333
2044.748	283.58333
2047.456	285.58333
2050.162	272.58333
2052.866	276.58333
2055.568	288.58333
2058.268	277.25
2060.967	289.58333
2063.663	266.91667
2066.358	271.58333
2069.051	265.58333
2071.742	280.91667
2074.431	284.91667
2077.118	266.91667
2079.804	259.25
2082.487	268.25
2085.169	281.58333
2087.849	294.91667
2090.527	266.91667
2093.203	270.91667
2095.877	271.25
2098.55	276.25
2101.22	282.58333
2103.889	286.25
2106.556	274.91667
2109.221	290.25
2111.884	276.25
2114.546	303.25
2117.205	306.91667
2119.863	330.25
2122.519	329.91667
2125.173	350.58333
2127.825	377.91667
2130.475	380.25
2133.124	359.91667
2135.771	346.91667
2138.416	366.58333
2141.059	328.58333
2143.7	330.58333
2146.339	308.25
2148.977	282.91667
2151.613	287.91667
2154.247	288.25
2156.879	275.25
2159.51	265.91667
2162.138	271.91667
2164.765	265.25
2167.39	253.25
2170.013	275.25
2172.634	269.58333
2175.254	261.25
2177.872	292.25
2180.488	247.25
2183.102	254.91667
2185.714	249.25
2188.325	241.91667
2190.934	252.91667
2193.541	249.25
2196.146	242.91667
2198.75	236.25
2201.351	234.91667
2203.951	219.25
2206.549	243.58333
2209.146	227.91667
2211.74	227.25
2214.333	237.58333
2216.924	221.58333
2219.514	228.91667
2222.101	216.58333
2224.687	236.91667
2227.271	217.25
2229.853	223.25
2232.433	204.25
2235.012	223.25
2237.589	225.58333
2240.164	241.25
2242.738	217.25
2245.309	207.58333
2247.879	233.58333
2250.448	222.58333
2253.014	205.25
2255.579	205.58333
2258.142	209.91667
2260.703	214.25
2263.262	205.25
2265.82	199.91667
2268.376	218.91667
2270.93	204.91667
2273.483	193.91667
2276.033	214.58333
2278.583	200.58333
2281.13	199.25
2283.675	196.25
2286.219	197.91667
2288.761	204.91667
2291.302	209.91667
2293.841	217.91667
2296.377	192.58333
2298.913	205.25
2301.446	214.25
2303.978	198.91667
2306.508	200.91667
2309.037	203.25
2311.563	195.91667
2314.088	196.58333
2316.612	183.91667
2319.133	199.25
2321.653	196.25
2324.171	186.91667
2326.688	204.25
2329.202	196.25
2331.715	196.25
2334.227	195.25
2336.736	189.25
2339.244	185.25
2341.751	181.91667
2344.255	195.58333
2346.758	195.58333
2349.259	181.25
2351.759	188.25
2354.257	178.91667
2356.753	173.91667
2359.247	181.91667
2361.74	180.91667
2364.231	186.58333
2366.721	185.58333
2369.209	180.25
2371.695	180.58333
2374.179	172.91667
2376.662	165.25
2379.143	190.58333
2381.622	178.91667
2384.1	186.25
2386.576	175.25
2389.051	194.91667
2391.524	187.58333
2393.995	185.25
2396.464	175.25
2398.932	172.91667
2401.398	183.91667
2403.863	169.58333
2406.325	163.91667
2408.787	176.58333
2411.246	174.91667
2413.704	173.91667
2416.16	169.25
2418.615	171.91667
2421.068	171.91667
2423.519	169.25
2425.969	168.25
2428.417	178.58333
2430.863	188.58333
2433.308	183.91667
2435.751	172.58333
2438.193	175.58333
2440.633	173.91667
2443.071	179.58333
2445.508	168.91667
2447.943	165.25
2450.376	165.58333
2452.808	177.25
2455.238	160.25
2457.667	189.58333
2460.093	163.25
2462.519	155.25
2464.942	153.91667
2467.365	162.25
2469.785	172.25
2472.204	158.91667
2474.621	156.25
2477.037	176.91667
2479.451	152.58333
2481.863	143.58333
2484.274	157.91667
2486.683	163.91667
2489.091	169.58333
2491.497	166.91667
2493.901	158.91667
2496.304	162.91667
2498.705	174.25
2501.105	158.25
2503.503	181.25
2505.899	151.25
2508.294	172.25
2510.687	150.91667
2513.079	153.58333
2515.469	152.58333
2517.858	151.91667
2520.245	171.91667
2522.63	154.25
2525.014	146.25
2527.396	145.25
2529.776	147.58333
2532.156	157.58333
2534.533	147.58333
2536.909	140.58333
2539.283	140.25
2541.656	147.25
2544.027	164.58333
2546.397	155.91667
2548.765	147.58333
2551.131	153.58333
2553.496	156.25
2555.86	154.25
2558.221	160.91667
2560.582	147.58333
2562.94	142.91667
2565.298	149.58333
2567.653	161.91667
2570.007	133.91667
2572.36	155.91667
2574.711	144.91667
2577.06	158.91667
2579.408	145.25
2581.754	145.25
2584.099	143.25
2586.442	142.91667
2588.784	149.91667
2591.124	145.25
2593.463	144.58333
2595.8	147.25
2598.135	133.58333
2600.469	139.25
2602.802	153.91667
2605.133	156.58333
2607.462	138.25
2609.79	131.25
2612.116	152.91667
2614.441	137.58333
2616.764	148.25
2619.086	143.58333
2621.406	140.91667
2623.725	151.58333
2626.042	144.58333
2628.358	136.25
2630.672	143.91667
2632.985	154.91667
2635.296	147.58333
2637.606	139.91667
2639.914	136.25
2642.22	138.91667
2644.525	142.91667
2646.829	148.58333
2649.131	160.58333
2651.432	152.91667
2653.731	138.25
2656.028	154.91667
2658.324	144.58333
2660.619	134.91667
2662.912	149.58333
2665.204	131.25
2667.494	146.91667
2669.782	135.91667
2672.07	155.91667
2674.355	150.25
2676.639	147.25
2678.922	137.91667
2681.203	146.91667
2683.483	141.25
2685.761	127.58333
2688.038	146.91667
2690.313	159.58333
2692.587	144.58333
2694.859	136.91667
2697.13	137.58333
2699.399	146.25
2701.667	152.91667
2703.933	141.58333
2706.198	152.91667
2708.461	158.25
2710.723	149.91667
2712.984	150.91667
2715.243	157.91667
2717.5	142.91667
2719.757	154.91667
2722.011	146.25
2724.264	153.58333
2726.516	161.91667
2728.766	135.25
2731.015	145.58333
2733.262	142.91667
2735.508	146.91667
2737.753	149.58333
2739.996	135.25
2742.237	133.58333
2744.477	151.91667
2746.716	156.25
2748.953	151.91667
2751.189	155.25
2753.423	151.58333
2755.656	139.25
2757.887	139.25
2760.117	139.25
2762.346	134.58333
2764.573	125.25
2766.798	130.91667
2769.022	139.25
2771.245	130.91667
2773.467	134.58333
2775.686	138.91667
2777.905	145.25
2780.122	137.91667
2782.337	147.58333
2784.552	139.58333
2786.764	141.58333
2788.976	136.58333
2791.186	144.25
2793.394	142.25
2795.601	144.58333
2797.807	154.91667
2800.011	148.25
2802.214	156.91667
2804.415	146.58333
2806.615	153.91667
2808.814	149.25
2811.011	153.58333
2813.206	149.25
2815.401	156.25
2817.594	160.25
2819.785	164.25
2821.975	143.58333
2824.164	157.58333
2826.351	152.25
2828.537	172.91667
2830.722	166.58333
2832.905	165.25
2835.086	167.25
2837.267	191.91667
2839.445	186.91667
2841.623	177.91667
2843.799	180.91667
2845.974	190.91667
2848.147	194.91667
2850.319	209.91667
2852.489	208.91667
2854.659	215.25
2856.826	218.25
2858.993	233.58333
2861.158	214.25
2863.321	219.25
2865.483	237.91667
2867.644	221.25
2869.804	224.58333
2871.962	219.58333
2874.118	228.25
2876.274	232.58333
2878.428	228.58333
2880.58	231.58333
2882.731	223.25
2884.881	221.25
2887.03	228.25
2889.177	223.91667
2891.322	240.91667
2893.467	224.25
2895.61	222.91667
2897.751	240.58333
2899.892	219.91667
2902.03	232.91667
2904.168	223.58333
2906.304	228.58333
2908.439	235.91667
2910.572	220.91667
2912.704	225.58333
2914.835	235.91667
2916.965	238.58333
2919.093	245.58333
2921.219	219.25
2923.345	245.91667
2925.469	225.25
2927.591	232.25
2929.712	212.58333
2931.832	223.91667
2933.951	218.91667
2936.068	212.25
2938.184	209.25
2940.299	201.25
2942.412	203.25
2944.524	185.91667
2946.634	198.58333
2948.744	167.25
2950.851	204.25
2952.958	168.25
2955.063	182.58333
2957.167	177.91667
2959.269	162.91667
2961.371	193.91667
2963.471	164.91667
2965.569	182.25
2967.666	154.58333
2969.762	156.91667
2971.857	149.58333
2973.95	148.25
2976.042	152.58333
2978.133	147.91667
2980.222	147.91667
2982.31	135.91667
2984.396	117.91667
2986.482	128.58333
2988.566	134.25
2990.648	129.91667
2992.73	131.91667
2994.81	118.25
2996.889	133.58333
2998.966	128.58333
3001.042	143.91667
3003.117	130.58333
3005.191	131.25
3007.263	131.91667
3009.334	127.91667
3011.403	126.91667
3013.472	120.58333
3015.539	130.58333
3017.604	142.25
3019.669	115.58333
3021.732	117.58333
3023.794	117.58333
3025.854	110.91667
3027.914	104.91667
3029.971	110.91667
3032.028	116.91667
3034.083	117.25
3036.137	116.25
3038.19	100.58333
3040.242	99.25
3042.292	101.25
3044.341	107.58333
3046.388	121.58333
3048.435	100.91667
3050.48	115.25
3052.524	106.91667
3054.566	89.58333
3056.607	105.91667
3058.647	95.91667
3060.686	89.91667
3062.723	82.25
3064.759	86.25
3066.794	1.91667
3068.828	-1.08333
3070.86	1.91667
