-0.839	145.29167
3.438	170.95833
7.711	68.29167
11.981	46.29167
16.247	34.95833
20.509	36.95833
24.768	39.95833
29.024	42.29167
33.276	32.625
37.524	41.95833
41.769	28.29167
46.01	25.95833
50.247	43.95833
54.481	52.625
58.712	52.29167
62.939	38.95833
67.162	54.625
71.382	49.29167
75.599	37.95833
79.812	44.625
84.021	60.95833
88.227	41.95833
92.429	49.95833
96.628	40.625
100.823	55.95833
105.015	55.625
109.204	47.29167
113.388	61.29167
117.57	43.625
121.748	59.95833
125.922	53.95833
130.093	69.625
134.261	67.29167
138.425	59.95833
142.585	85.625
146.742	70.29167
150.896	82.95833
155.046	88.29167
159.193	133.95833
163.336	191.29167
167.476	323.625
171.613	588.625
175.746	965.29167
179.875	1395.625
184.002	1820.625
188.124	2146.29167
192.244	2265.625
196.36	2266.625
200.472	2266.29167
204.581	2235.625
208.687	2186.29167
212.79	2206.625
216.889	2222.625
220.984	2253.29167
225.077	2277.95833
229.165	2282.95833
233.251	2298.29167
237.333	2320.95833
241.412	2309.625
245.487	2290.625
249.559	2269.95833
253.628	2260.625
257.694	2241.29167
261.756	2257.625
265.814	2183.95833
269.87	2111.95833
273.922	2050.95833
277.97	2026.95833
282.016	1997.29167
286.058	1977.625
290.097	2000.95833
294.132	2038.95833
298.164	2001.625
302.193	1941.625
306.219	1837.29167
310.241	1710.29167
314.26	1610.29167
318.276	1525.625
322.288	1495.625
326.297	1424.625
330.303	1397.29167
334.305	1374.625
338.305	1361.29167
342.301	1353.625
346.294	1346.95833
350.283	1339.625
354.269	1347.29167
358.252	1341.625
362.232	1338.95833
366.209	1337.625
370.182	1306.625
374.152	1329.625
378.119	1318.95833
382.083	1321.625
386.043	1323.95833
390	1316.625
393.954	1366.29167
397.905	1356.625
401.852	1368.95833
405.797	1333.95833
409.738	1382.29167
413.676	1449.95833
417.61	1501.625
421.542	1386.95833
425.47	1310.29167
429.396	1300.29167
433.318	1272.29167
437.236	1285.625
441.152	1317.29167
445.065	1264.29167
448.974	1269.625
452.88	1260.29167
456.783	1259.29167
460.683	1247.95833
464.58	1277.625
468.473	1277.29167
472.364	1275.95833
476.251	1260.95833
480.135	1276.95833
484.016	1288.95833
487.894	1297.95833
491.769	1289.95833
495.641	1285.29167
499.509	1283.29167
503.375	1301.95833
507.237	1278.625
511.096	1278.625
514.952	1284.95833
518.805	1271.29167
522.655	1287.29167
526.502	1274.95833
530.346	1280.29167
534.187	1285.625
538.024	1280.95833
541.859	1291.95833
545.69	1308.95833
549.519	1298.625
553.344	1274.95833
557.166	1263.625
560.985	1264.95833
564.802	1252.29167
568.615	1252.29167
572.425	1230.29167
576.232	1211.625
580.036	1209.29167
583.836	1220.95833
587.634	1234.29167
591.429	1222.95833
595.221	1252.625
599.01	1256.29167
602.796	1260.625
606.578	1266.29167
610.358	1276.29167
614.135	1251.625
617.909	1256.625
621.679	1245.95833
625.447	1234.625
629.212	1248.625
632.973	1241.95833
636.732	1257.625
640.488	1236.625
644.241	1201.29167
647.991	1190.95833
651.737	1238.95833
655.481	1201.625
659.222	1201.625
662.96	1202.29167
666.695	1224.625
670.427	1210.95833
674.156	1221.95833
677.882	1232.625
681.605	1224.95833
685.325	1213.95833
689.043	1238.625
692.757	1217.29167
696.468	1214.95833
700.177	1211.29167
703.882	1195.29167
707.585	1175.29167
711.284	1181.625
714.981	1159.625
718.675	1164.29167
722.366	1185.29167
726.054	1179.625
729.739	1170.95833
733.421	1174.95833
737.1	1162.29167
740.777	1185.95833
744.45	1168.625
748.121	1189.625
751.789	1227.29167
755.453	1196.29167
759.115	1198.95833
762.774	1200.95833
766.431	1207.625
770.084	1208.625
773.734	1204.625
777.382	1228.625
781.027	1249.29167
784.669	1229.625
788.308	1233.95833
791.944	1241.625
795.577	1253.625
799.208	1245.29167
802.835	1250.29167
806.46	1265.95833
810.082	1261.625
813.701	1253.625
817.317	1271.625
820.931	1275.29167
824.542	1276.29167
828.149	1252.625
831.754	1237.29167
835.357	1237.625
838.956	1243.625
842.553	1258.95833
846.146	1255.625
849.737	1219.29167
853.326	1212.625
856.911	1193.95833
860.493	1235.29167
864.073	1271.625
867.65	1332.29167
871.225	1316.95833
874.796	1249.29167
878.365	1239.625
881.931	1258.95833
885.494	1267.95833
889.054	1247.95833
892.612	1260.625
896.166	1225.95833
899.719	1220.29167
903.268	1208.29167
906.814	1200.29167
910.358	1191.95833
913.899	1174.625
917.438	1187.29167
920.973	1168.29167
924.506	1182.29167
928.036	1215.29167
931.564	1214.29167
935.088	1235.29167
938.61	1197.95833
942.129	1219.625
945.646	1251.95833
949.16	1253.29167
952.671	1257.625
956.179	1275.29167
959.685	1258.95833
963.188	1285.29167
966.688	1265.95833
970.185	1232.95833
973.68	1193.29167
977.173	1176.95833
980.662	1174.29167
984.149	1196.95833
987.633	1155.95833
991.114	1178.29167
994.593	1199.625
998.069	1214.625
1001.542	1262.95833
1005.013	1249.29167
1008.481	1169.625
1011.947	1143.29167
1015.409	1148.29167
1018.869	1136.95833
1022.327	1163.95833
1025.782	1124.29167
1029.234	1106.95833
1032.683	1100.625
1036.13	1072.29167
1039.574	1049.625
1043.016	1022.29167
1046.455	1014.625
1049.891	998.29167
1053.325	998.29167
1056.756	1015.29167
1060.184	1014.29167
1063.61	1011.29167
1067.033	1016.29167
1070.454	1005.29167
1073.872	1038.29167
1077.287	1006.95833
1080.7	1024.29167
1084.11	1005.29167
1087.517	1011.95833
1090.922	990.625
1094.325	989.625
1097.724	965.625
1101.122	989.95833
1104.516	970.625
1107.908	961.95833
1111.298	979.625
1114.684	993.625
1118.069	978.95833
1121.45	997.29167
1124.83	988.95833
1128.206	1006.95833
1131.58	1023.95833
1134.951	1030.95833
1138.32	1053.29167
1141.687	1102.95833
1145.05	1104.29167
1148.412	1110.625
1151.77	1105.95833
1155.126	1096.95833
1158.48	1085.29167
1161.831	1099.29167
1165.18	1102.95833
1168.525	1127.625
1171.869	1122.29167
1175.21	1127.29167
1178.548	1140.29167
1181.884	1131.95833
1185.217	1147.95833
1188.548	1183.29167
1191.877	1184.95833
1195.202	1238.95833
1198.526	1263.95833
1201.846	1261.625
1205.165	1259.29167
1208.48	1256.625
1211.794	1251.29167
1215.104	1262.95833
1218.413	1245.29167
1221.719	1229.625
1225.022	1218.29167
1228.323	1196.29167
1231.621	1208.29167
1234.917	1192.95833
1238.21	1207.625
1241.501	1191.625
1244.79	1181.625
1248.076	1164.29167
1251.359	1197.29167
1254.64	1247.95833
1257.919	1227.95833
1261.195	1238.95833
1264.468	1253.95833
1267.74	1266.95833
1271.008	1255.29167
1274.275	1264.29167
1277.538	1247.625
1280.8	1245.95833
1284.059	1237.29167
1287.315	1252.95833
1290.569	1247.95833
1293.821	1263.95833
1297.07	1270.625
1300.317	1273.625
1303.562	1276.29167
1306.803	1266.95833
1310.043	1260.95833
1313.28	1244.625
1316.515	1236.29167
1319.747	1245.29167
1322.977	1229.29167
1326.204	1211.29167
1329.429	1184.29167
1332.652	1180.625
1335.872	1193.95833
1339.09	1157.625
1342.306	1175.95833
1345.519	1159.95833
1348.729	1145.29167
1351.938	1143.95833
1355.144	1138.95833
1358.347	1118.29167
1361.548	1146.95833
1364.747	1134.625
1367.944	1104.625
1371.138	1118.29167
1374.329	1107.29167
1377.518	1119.625
1380.705	1126.95833
1383.89	1144.625
1387.072	1096.625
1390.252	1066.29167
1393.429	1031.625
1396.605	1005.625
1399.777	982.29167
1402.948	962.29167
1406.116	948.95833
1409.282	956.95833
1412.445	955.625
1415.606	959.95833
1418.765	973.625
1421.921	987.625
1425.075	988.95833
1428.227	1011.625
1431.376	1053.29167
1434.524	1102.29167
1437.668	1116.625
1440.811	1109.95833
1443.951	1118.95833
1447.089	1138.625
1450.224	1130.625
1453.357	1117.625
1456.488	1111.29167
1459.617	1102.29167
1462.743	1093.29167
1465.867	1067.29167
1468.989	1062.95833
1472.108	1043.625
1475.225	1027.95833
1478.34	1019.95833
1481.453	1014.29167
1484.563	1017.625
1487.671	1019.29167
1490.776	1024.95833
1493.88	1031.29167
1496.981	1061.625
1500.08	1087.29167
1503.176	1082.625
1506.271	1088.29167
1509.363	1110.625
1512.452	1108.29167
1515.54	1115.95833
1518.625	1133.29167
1521.708	1181.29167
1524.789	1202.625
1527.867	1235.625
1530.944	1287.95833
1534.018	1329.29167
1537.089	1398.95833
1540.159	1391.95833
1543.226	1395.95833
1546.291	1360.625
1549.354	1345.29167
1552.415	1328.29167
1555.473	1285.625
1558.529	1284.625
1561.583	1258.95833
1564.634	1241.625
1567.684	1243.29167
1570.731	1255.95833
1573.776	1255.29167
1576.819	1276.95833
1579.859	1287.95833
1582.898	1291.95833
1585.934	1321.29167
1588.968	1318.95833
1591.999	1290.95833
1595.029	1314.95833
1598.056	1306.29167
1601.081	1324.625
1604.104	1328.95833
1607.125	1291.625
1610.144	1267.29167
1613.16	1236.625
1616.174	1217.29167
1619.186	1195.95833
1622.196	1174.29167
1625.203	1125.625
1628.209	1150.625
1631.212	1111.625
1634.213	1109.95833
1637.212	1107.625
1640.209	1099.625
1643.203	1073.625
1646.196	1047.29167
1649.186	1010.625
1652.174	991.95833
1655.16	942.29167
1658.144	937.29167
1661.125	899.29167
1664.105	861.95833
1667.082	825.625
1670.057	783.95833
1673.03	740.95833
1676.001	710.95833
1678.97	670.29167
1681.937	635.29167
1684.901	603.625
1687.863	598.625
1690.824	564.29167
1693.782	574.95833
1696.738	534.95833
1699.692	533.625
1702.643	519.29167
1705.593	522.625
1708.54	511.95833
1711.486	517.29167
1714.429	491.95833
1717.37	502.625
1720.309	488.625
1723.246	494.625
1726.181	480.625
1729.113	480.29167
1732.044	484.29167
1734.972	470.625
1737.899	489.29167
1740.823	487.29167
1743.745	502.625
1746.665	464.95833
1749.583	450.29167
1752.499	453.625
1755.413	441.95833
1758.325	432.95833
1761.235	446.95833
1764.142	430.95833
1767.048	430.625
1769.951	434.95833
1772.852	431.95833
1775.752	469.95833
1778.649	494.625
1781.544	464.95833
1784.437	412.625
1787.328	421.95833
1790.217	418.29167
1793.104	396.625
1795.989	393.29167
1798.872	402.95833
1801.753	410.29167
1804.631	399.95833
1807.508	405.95833
1810.383	401.95833
1813.255	404.625
1816.126	387.95833
1818.994	393.29167
1821.861	388.625
1824.725	394.95833
1827.587	388.29167
1830.448	388.29167
1833.306	379.95833
1836.162	394.625
1839.017	388.29167
1841.869	381.625
1844.719	380.625
1847.567	366.95833
1850.414	358.95833
1853.258	362.625
1856.1	369.625
1858.94	380.95833
1861.778	379.625
1864.614	363.95833
1867.448	369.625
1870.28	356.95833
1873.111	376.95833
1875.939	360.625
1878.765	385.29167
1881.589	361.29167
1884.411	362.95833
1887.231	371.625
1890.049	353.625
1892.865	371.29167
1895.68	352.625
1898.492	366.95833
1901.302	359.29167
1904.11	354.625
1906.916	355.625
1909.721	356.625
1912.523	349.29167
1915.323	341.625
1918.122	336.625
1920.918	357.29167
1923.712	336.95833
1926.505	349.29167
1929.295	315.95833
1932.084	341.95833
1934.87	344.95833
1937.655	333.29167
1940.438	332.29167
1943.218	340.95833
1945.997	334.625
1948.774	338.95833
1951.549	345.95833
1954.322	326.625
1957.093	332.625
1959.862	327.29167
1962.629	332.625
1965.394	326.95833
1968.157	322.625
1970.918	334.95833
1973.678	322.29167
1976.435	332.95833
1979.19	317.29167
1981.944	312.95833
1984.696	316.95833
1987.445	307.625
1990.193	316.95833
1992.939	332.625
1995.683	316.625
1998.425	301.95833
2001.165	337.625
2003.903	292.29167
2006.639	304.29167
2009.374	310.95833
2012.106	313.95833
2014.837	290.625
2017.566	312.625
2020.292	312.29167
2023.017	296.625
2025.74	303.29167
2028.461	295.29167
2031.18	305.95833
2033.898	285.625
2036.613	293.625
2039.327	301.95833
2042.038	287.95833
2044.748	301.29167
2047.456	310.625
2050.162	286.625
2052.866	290.29167
2055.568	298.29167
2058.268	282.625
2060.967	295.29167
2063.663	278.29167
2066.358	283.625
2069.051	275.95833
2071.742	289.625
2074.431	291.625
2077.118	284.625
2079.804	281.95833
2082.487	283.625
2085.169	291.95833
2087.849	299.625
2090.527	287.625
2093.203	279.625
2095.877	286.95833
2098.55	287.29167
2101.22	296.29167
2103.889	296.625
2106.556	285.29167
2109.221	304.29167
2111.884	301.95833
2114.546	323.29167
2117.205	330.95833
2119.863	361.29167
2122.519	366.95833
2125.173	386.95833
2127.825	430.95833
2130.475	426.95833
2133.124	410.95833
2135.771	394.95833
2138.416	394.95833
2141.059	360.95833
2143.7	361.29167
2146.339	330.29167
2148.977	304.29167
2151.613	314.29167
2154.247	304.95833
2156.879	296.625
2159.51	284.29167
2162.138	283.29167
2164.765	285.29167
2167.39	272.29167
2170.013	293.625
2172.634	282.29167
2175.254	270.95833
2177.872	307.29167
2180.488	263.625
2183.102	266.95833
2185.714	267.625
2188.325	254.625
2190.934	263.95833
2193.541	259.29167
2196.146	254.625
2198.75	246.95833
2201.351	242.29167
2203.951	231.95833
2206.549	257.95833
2209.146	252.29167
2211.74	242.29167
2214.333	247.29167
2216.924	242.625
2219.514	239.95833
2222.101	240.29167
2224.687	252.29167
2227.271	232.95833
2229.853	237.95833
2232.433	218.95833
2235.012	240.95833
2237.589	231.625
2240.164	248.625
2242.738	230.95833
2245.309	219.625
2247.879	239.625
2250.448	237.29167
2253.014	222.95833
2255.579	211.625
2258.142	218.95833
2260.703	223.625
2263.262	215.95833
2265.82	210.95833
2268.376	224.29167
2270.93	214.29167
2273.483	205.625
2276.033	218.95833
2278.583	214.625
2281.13	206.29167
2283.675	199.625
2286.219	205.95833
2288.761	217.95833
2291.302	219.95833
2293.841	224.95833
2296.377	199.625
2298.913	217.95833
2301.446	213.95833
2303.978	205.95833
2306.508	203.625
2309.037	208.625
2311.563	211.29167
2314.088	206.95833
2316.612	197.625
2319.133	208.29167
2321.653	209.95833
2324.171	194.29167
2326.688	211.625
2329.202	205.29167
2331.715	198.625
2334.227	202.625
2336.736	201.625
2339.244	196.29167
2341.751	186.625
2344.255	196.95833
2346.758	198.625
2349.259	190.29167
2351.759	205.95833
2354.257	186.29167
2356.753	189.29167
2359.247	188.29167
2361.74	194.95833
2364.231	198.29167
2366.721	199.29167
2369.209	181.29167
2371.695	184.625
2374.179	178.95833
2376.662	177.29167
2379.143	197.29167
2381.622	186.29167
2384.1	200.95833
2386.576	192.625
2389.051	199.29167
2391.524	198.29167
2393.995	194.625
2396.464	182.625
2398.932	181.29167
2401.398	186.29167
2403.863	177.29167
2406.325	178.95833
2408.787	184.29167
2411.246	183.95833
2413.704	176.95833
2416.16	176.95833
2418.615	179.95833
2421.068	182.95833
2423.519	180.29167
2425.969	173.29167
2428.417	186.95833
2430.863	194.29167
2433.308	183.29167
2435.751	183.95833
2438.193	177.29167
2440.633	177.625
2443.071	185.95833
2445.508	172.95833
2447.943	172.29167
2450.376	172.95833
2452.808	176.625
2455.238	168.625
2457.667	201.625
2460.093	162.95833
2462.519	159.95833
2464.942	164.625
2467.365	172.625
2469.785	180.625
2472.204	166.95833
2474.621	169.95833
2477.037	180.625
2479.451	160.625
2481.863	156.95833
2484.274	160.625
2486.683	166.625
2489.091	174.95833
2491.497	168.29167
2493.901	166.95833
2496.304	161.29167
2498.705	174.95833
2501.105	166.29167
2503.503	186.95833
2505.899	159.29167
2508.294	181.625
2510.687	160.95833
2513.079	166.625
2515.469	157.95833
2517.858	158.625
2520.245	170.95833
2522.63	161.95833
2525.014	159.29167
2527.396	162.625
2529.776	159.625
2532.156	163.29167
2534.533	154.95833
2536.909	151.625
2539.283	139.95833
2541.656	147.625
2544.027	168.625
2546.397	159.29167
2548.765	154.95833
2551.131	154.95833
2553.496	162.29167
2555.86	155.625
2558.221	161.29167
2560.582	151.95833
2562.94	140.29167
2565.298	152.29167
2567.653	161.95833
2570.007	142.625
2572.36	156.29167
2574.711	149.95833
2577.06	163.95833
2579.408	154.625
2581.754	152.625
2584.099	151.29167
2586.442	150.625
2588.784	156.95833
2591.124	154.29167
2593.463	149.95833
2595.8	159.95833
2598.135	144.95833
2600.469	141.625
2602.802	160.29167
2605.133	159.625
2607.462	141.29167
2609.79	131.625
2612.116	153.95833
2614.441	143.95833
2616.764	145.29167
2619.086	147.29167
2621.406	140.625
2623.725	160.29167
2626.042	139.29167
2628.358	138.625
2630.672	144.29167
2632.985	152.95833
2635.296	150.95833
2637.606	141.95833
2639.914	142.95833
2642.22	142.29167
2644.525	142.95833
2646.829	144.29167
2649.131	156.29167
2651.432	151.95833
2653.731	143.29167
2656.028	152.625
2658.324	152.625
2660.619	132.625
2662.912	156.29167
2665.204	129.95833
2667.494	147.29167
2669.782	139.29167
2672.07	156.29167
2674.355	155.95833
2676.639	151.95833
2678.922	139.95833
2681.203	148.29167
2683.483	140.625
2685.761	138.625
2688.038	153.95833
2690.313	161.625
2692.587	141.95833
2694.859	140.625
2697.13	137.29167
2699.399	145.95833
2701.667	151.95833
2703.933	142.95833
2706.198	164.29167
2708.461	158.625
2710.723	156.29167
2712.984	151.95833
2715.243	160.625
2717.5	149.95833
2719.757	152.95833
2722.011	147.95833
2724.264	165.29167
2726.516	165.95833
2728.766	144.29167
2731.015	151.625
2733.262	146.95833
2735.508	147.625
2737.753	156.625
2739.996	135.95833
2742.237	142.29167
2744.477	151.95833
2746.716	159.625
2748.953	150.95833
2751.189	156.625
2753.423	156.625
2755.656	135.95833
2757.887	135.95833
2760.117	141.29167
2762.346	131.95833
2764.573	128.625
2766.798	134.29167
2769.022	132.625
2771.245	134.29167
2773.467	140.625
2775.686	135.29167
2777.905	146.29167
2780.122	147.29167
2782.337	143.29167
2784.552	142.95833
2786.764	138.625
2788.976	137.95833
2791.186	143.95833
2793.394	143.625
2795.601	153.29167
2797.807	154.29167
2800.011	150.29167
2802.214	154.29167
2804.415	157.625
2806.615	156.29167
2808.814	151.625
2811.011	157.625
2813.206	159.95833
2815.401	164.95833
2817.594	166.29167
2819.785	169.625
2821.975	153.95833
2824.164	168.29167
2826.351	162.625
2828.537	176.625
2830.722	171.95833
2832.905	172.95833
2835.086	179.95833
2837.267	200.29167
2839.445	194.95833
2841.623	192.95833
2843.799	198.625
2845.974	204.625
2848.147	206.29167
2850.319	225.95833
2852.489	232.625
2854.659	242.625
2856.826	235.625
2858.993	256.95833
2861.158	232.625
2863.321	253.625
2865.483	257.625
2867.644	258.95833
2869.804	249.29167
2871.962	253.29167
2874.118	262.95833
2876.274	289.29167
2878.428	282.95833
2880.58	268.625
2882.731	255.29167
2884.881	258.29167
2887.03	262.625
2889.177	253.625
2891.322	257.29167
2893.467	251.95833
2895.61	245.95833
2897.751	264.29167
2899.892	253.29167
2902.03	255.95833
2904.168	251.95833
2906.304	255.625
2908.439	274.29167
2910.572	251.625
2912.704	261.29167
2914.835	265.29167
2916.965	263.95833
2919.093	272.625
2921.219	253.95833
2923.345	278.29167
2925.469	255.29167
2927.591	253.625
2929.712	243.29167
2931.832	248.625
2933.951	244.95833
2936.068	233.29167
2938.184	229.29167
2940.299	229.95833
2942.412	218.29167
2944.524	198.95833
2946.634	209.95833
2948.744	188.95833
2950.851	220.625
2952.958	185.29167
2955.063	195.625
2957.167	187.95833
2959.269	170.625
2961.371	201.95833
2963.471	170.29167
2965.569	182.95833
2967.666	157.95833
2969.762	155.625
2971.857	150.95833
2973.95	149.95833
2976.042	156.29167
2978.133	143.95833
2980.222	146.95833
2982.31	136.29167
2984.396	124.625
2986.482	127.625
2988.566	132.29167
2990.648	126.29167
2992.73	131.625
2994.81	114.625
2996.889	127.625
2998.966	122.625
3001.042	133.95833
3003.117	120.625
3005.191	129.29167
3007.263	131.95833
3009.334	121.95833
3011.403	126.29167
3013.472	113.29167
3015.539	135.625
3017.604	138.95833
3019.669	106.625
3021.732	115.95833
3023.794	114.29167
3025.854	106.29167
3027.914	103.29167
3029.971	109.95833
3032.028	111.29167
3034.083	115.95833
3036.137	109.625
3038.19	97.29167
3040.242	91.29167
3042.292	94.625
3044.341	95.29167
3046.388	114.95833
3048.435	94.95833
3050.48	111.95833
3052.524	99.29167
3054.566	85.95833
3056.607	98.95833
3058.647	94.29167
3060.686	81.95833
3062.723	75.95833
3064.759	83.95833
3066.794	1.625
3068.828	-0.375
3070.86	2.625
