-0.839	151.41667
3.438	168.75
7.711	68.08333
11.981	43.41667
16.247	29.41667
20.509	40.08333
24.768	37.08333
29.024	41.08333
33.276	33.41667
37.524	43.75
41.769	31.41667
46.01	27.41667
50.247	46.41667
54.481	52.08333
58.712	54.08333
62.939	37.41667
67.162	52.41667
71.382	46.75
75.599	41.41667
79.812	42.08333
84.021	64.08333
88.227	42.75
92.429	51.41667
96.628	40.41667
100.823	56.08333
105.015	49.75
109.204	47.08333
113.388	61.75
117.57	45.08333
121.748	59.75
125.922	53.08333
130.093	64.08333
134.261	68.08333
138.425	59.08333
142.585	92.08333
146.742	68.75
150.896	91.08333
155.046	84.41667
159.193	128.75
163.336	192.41667
167.476	327.41667
171.613	598.41667
175.746	973.41667
179.875	1427.41667
184.002	1859.08333
188.124	2196.75
192.244	2326.08333
196.36	2340.41667
200.472	2332.75
204.581	2301.75
208.687	2257.75
212.79	2249.08333
216.889	2267.75
220.984	2332.41667
225.077	2337.75
229.165	2344.41667
233.251	2354.41667
237.333	2362.08333
241.412	2347.08333
245.487	2343.08333
249.559	2318.08333
253.628	2338.75
257.694	2304.75
261.756	2310.41667
265.814	2244.41667
269.87	2175.41667
273.922	2106.75
277.97	2085.41667
282.016	2069.41667
286.058	2040.41667
290.097	2058.41667
294.132	2089.75
298.164	2066.41667
302.193	2004.08333
306.219	1884.08333
310.241	1775.41667
314.26	1675.41667
318.276	1586.41667
322.288	1542.41667
326.297	1491.08333
330.303	1469.41667
334.305	1448.08333
338.305	1412.08333
342.301	1419.75
346.294	1426.41667
350.283	1404.41667
354.269	1380.08333
358.252	1386.75
362.232	1389.75
366.209	1398.75
370.182	1374.08333
374.152	1384.41667
378.119	1386.08333
382.083	1378.41667
386.043	1391.75
390	1377.08333
393.954	1398.08333
397.905	1421.75
401.852	1429.41667
405.797	1407.41667
409.738	1434.08333
413.676	1519.75
417.61	1573.08333
421.542	1437.75
425.47	1357.08333
429.396	1357.08333
433.318	1335.41667
437.236	1340.75
441.152	1377.08333
445.065	1323.41667
448.974	1352.08333
452.88	1309.41667
456.783	1319.08333
460.683	1321.08333
464.58	1332.08333
468.473	1335.41667
472.364	1335.75
476.251	1334.41667
480.135	1329.75
484.016	1341.75
487.894	1360.08333
491.769	1353.75
495.641	1365.41667
499.509	1356.08333
503.375	1340.75
507.237	1350.75
511.096	1334.41667
514.952	1350.08333
518.805	1335.41667
522.655	1341.41667
526.502	1339.41667
530.346	1338.08333
534.187	1352.08333
538.024	1342.08333
541.859	1357.41667
545.69	1393.41667
549.519	1363.08333
553.344	1345.41667
557.166	1317.08333
560.985	1322.75
564.802	1325.41667
568.615	1310.41667
572.425	1279.41667
576.232	1278.75
580.036	1278.75
583.836	1288.08333
587.634	1299.08333
591.429	1292.75
595.221	1314.75
599.01	1325.75
602.796	1317.08333
606.578	1323.41667
610.358	1332.08333
614.135	1312.75
617.909	1315.41667
621.679	1303.75
625.447	1288.75
629.212	1296.08333
632.973	1303.08333
636.732	1298.75
640.488	1312.08333
644.241	1283.08333
647.991	1264.75
651.737	1313.08333
655.481	1268.41667
659.222	1267.75
662.96	1279.75
666.695	1276.75
670.427	1279.41667
674.156	1289.75
677.882	1282.41667
681.605	1281.75
685.325	1278.41667
689.043	1292.08333
692.757	1258.75
696.468	1276.75
700.177	1258.75
703.882	1245.75
707.585	1225.75
711.284	1250.41667
714.981	1231.08333
718.675	1229.41667
722.366	1242.08333
726.054	1214.08333
729.739	1224.75
733.421	1233.75
737.1	1240.75
740.777	1243.41667
744.45	1252.41667
748.121	1246.41667
751.789	1279.75
755.453	1256.41667
759.115	1270.41667
762.774	1263.75
766.431	1270.41667
770.084	1263.41667
773.734	1275.75
777.382	1293.75
781.027	1293.41667
784.669	1287.41667
788.308	1289.41667
791.944	1309.41667
795.577	1310.75
799.208	1298.08333
802.835	1310.75
806.46	1326.08333
810.082	1312.41667
813.701	1312.41667
817.317	1329.41667
820.931	1322.41667
824.542	1324.41667
828.149	1306.41667
831.754	1292.41667
835.357	1292.41667
838.956	1293.75
842.553	1328.08333
846.146	1322.75
849.737	1270.75
853.326	1273.41667
856.911	1259.41667
860.493	1282.75
864.073	1315.41667
867.65	1382.41667
871.225	1376.75
874.796	1305.75
878.365	1283.41667
881.931	1291.41667
885.494	1314.75
889.054	1289.41667
892.612	1309.41667
896.166	1286.41667
899.719	1263.75
903.268	1248.08333
906.814	1248.41667
910.358	1238.08333
913.899	1237.08333
917.438	1243.41667
920.973	1215.08333
924.506	1236.41667
928.036	1253.41667
931.564	1271.41667
935.088	1275.75
938.61	1259.41667
942.129	1266.08333
945.646	1294.41667
949.16	1305.08333
952.671	1309.75
956.179	1341.41667
959.685	1312.41667
963.188	1320.41667
966.688	1292.08333
970.185	1262.08333
973.68	1237.75
977.173	1238.08333
980.662	1217.41667
984.149	1228.41667
987.633	1203.41667
991.114	1221.08333
994.593	1238.75
998.069	1267.08333
1001.542	1305.08333
1005.013	1305.75
1008.481	1216.75
1011.947	1181.75
1015.409	1184.75
1018.869	1186.41667
1022.327	1194.41667
1025.782	1175.41667
1029.234	1151.08333
1032.683	1163.41667
1036.13	1120.41667
1039.574	1074.41667
1043.016	1070.41667
1046.455	1059.08333
1049.891	1033.41667
1053.325	1053.75
1056.756	1040.41667
1060.184	1050.41667
1063.61	1031.41667
1067.033	1058.41667
1070.454	1045.41667
1073.872	1076.08333
1077.287	1040.41667
1080.7	1032.75
1084.11	1030.08333
1087.517	1042.75
1090.922	1039.75
1094.325	1012.41667
1097.724	1005.08333
1101.122	999.08333
1104.516	1009.08333
1107.908	991.75
1111.298	1009.08333
1114.684	1016.75
1118.069	1031.41667
1121.45	1045.41667
1124.83	1016.41667
1128.206	1050.08333
1131.58	1046.41667
1134.951	1072.75
1138.32	1090.75
1141.687	1132.75
1145.05	1149.75
1148.412	1148.41667
1151.77	1128.08333
1155.126	1136.41667
1158.48	1124.41667
1161.831	1135.08333
1165.18	1127.75
1168.525	1157.08333
1171.869	1157.08333
1175.21	1152.41667
1178.548	1180.75
1181.884	1165.08333
1185.217	1179.75
1188.548	1217.08333
1191.877	1245.41667
1195.202	1280.75
1198.526	1309.75
1201.846	1292.08333
1205.165	1287.75
1208.48	1293.08333
1211.794	1290.75
1215.104	1283.75
1218.413	1277.41667
1221.719	1266.41667
1225.022	1254.08333
1228.323	1236.08333
1231.621	1234.41667
1234.917	1232.08333
1238.21	1253.08333
1241.501	1205.08333
1244.79	1214.75
1248.076	1197.08333
1251.359	1224.08333
1254.64	1272.41667
1257.919	1253.08333
1261.195	1252.08333
1264.468	1289.75
1267.74	1303.08333
1271.008	1304.08333
1274.275	1297.75
1277.538	1281.75
1280.8	1280.75
1284.059	1272.75
1287.315	1287.08333
1290.569	1288.08333
1293.821	1295.75
1297.07	1297.75
1300.317	1292.75
1303.562	1312.75
1306.803	1286.41667
1310.043	1270.75
1313.28	1271.41667
1316.515	1257.08333
1319.747	1276.75
1322.977	1251.75
1326.204	1247.08333
1329.429	1237.08333
1332.652	1225.75
1335.872	1220.75
1339.09	1212.75
1342.306	1215.08333
1345.519	1199.75
1348.729	1191.08333
1351.938	1196.75
1355.144	1169.41667
1358.347	1159.08333
1361.548	1165.75
1364.747	1170.75
1367.944	1141.75
1371.138	1157.08333
1374.329	1158.75
1377.518	1144.75
1380.705	1159.41667
1383.89	1167.41667
1387.072	1134.41667
1390.252	1098.08333
1393.429	1058.41667
1396.605	1035.08333
1399.777	1007.41667
1402.948	998.75
1406.116	975.41667
1409.282	987.75
1412.445	980.75
1415.606	986.41667
1418.765	975.08333
1421.921	1006.08333
1425.075	1023.41667
1428.227	1049.08333
1431.376	1087.41667
1434.524	1111.41667
1437.668	1133.08333
1440.811	1145.75
1443.951	1151.75
1447.089	1147.75
1450.224	1146.41667
1453.357	1156.08333
1456.488	1141.41667
1459.617	1142.08333
1462.743	1122.75
1465.867	1099.75
1468.989	1085.75
1472.108	1066.08333
1475.225	1049.08333
1478.34	1043.75
1481.453	1036.41667
1484.563	1038.41667
1487.671	1053.41667
1490.776	1057.75
1493.88	1060.41667
1496.981	1077.41667
1500.08	1101.08333
1503.176	1101.08333
1506.271	1120.08333
1509.363	1143.75
1512.452	1141.41667
1515.54	1156.75
1518.625	1147.08333
1521.708	1211.08333
1524.789	1229.41667
1527.867	1254.41667
1530.944	1330.41667
1534.018	1351.41667
1537.089	1423.08333
1540.159	1420.75
1543.226	1436.75
1546.291	1386.41667
1549.354	1367.41667
1552.415	1328.08333
1555.473	1310.08333
1558.529	1298.08333
1561.583	1285.41667
1564.634	1255.41667
1567.684	1271.08333
1570.731	1279.41667
1573.776	1280.41667
1576.819	1284.08333
1579.859	1298.08333
1582.898	1325.75
1585.934	1344.41667
1588.968	1344.08333
1591.999	1320.08333
1595.029	1324.75
1598.056	1340.75
1601.081	1352.08333
1604.104	1343.75
1607.125	1313.08333
1610.144	1299.08333
1613.16	1281.08333
1616.174	1239.41667
1619.186	1228.41667
1622.196	1199.08333
1625.203	1151.75
1628.209	1150.41667
1631.212	1129.08333
1634.213	1136.75
1637.212	1138.08333
1640.209	1133.08333
1643.203	1093.41667
1646.196	1058.75
1649.186	1024.08333
1652.174	1002.41667
1655.16	977.08333
1658.144	962.75
1661.125	915.75
1664.105	892.75
1667.082	853.41667
1670.057	801.41667
1673.03	767.41667
1676.001	727.41667
1678.97	684.08333
1681.937	655.08333
1684.901	619.41667
1687.863	618.41667
1690.824	594.75
1693.782	591.08333
1696.738	562.08333
1699.692	554.41667
1702.643	530.75
1705.593	534.41667
1708.54	529.41667
1711.486	548.41667
1714.429	510.08333
1717.37	516.08333
1720.309	502.08333
1723.246	520.08333
1726.181	494.08333
1729.113	503.41667
1732.044	494.41667
1734.972	484.75
1737.899	502.41667
1740.823	500.75
1743.745	520.75
1746.665	470.75
1749.583	470.75
1752.499	459.75
1755.413	459.41667
1758.325	449.08333
1761.235	455.41667
1764.142	443.75
1767.048	439.08333
1769.951	444.08333
1772.852	446.75
1775.752	482.41667
1778.649	504.41667
1781.544	469.08333
1784.437	431.41667
1787.328	437.75
1790.217	425.41667
1793.104	417.41667
1795.989	412.08333
1798.872	407.75
1801.753	426.08333
1804.631	414.75
1807.508	424.08333
1810.383	412.41667
1813.255	420.08333
1816.126	405.41667
1818.994	410.08333
1821.861	402.75
1824.725	405.08333
1827.587	398.75
1830.448	408.08333
1833.306	402.08333
1836.162	403.75
1839.017	394.75
1841.869	391.41667
1844.719	396.75
1847.567	378.08333
1850.414	381.41667
1853.258	377.08333
1856.1	388.41667
1858.94	392.75
1861.778	386.41667
1864.614	369.41667
1867.448	386.41667
1870.28	366.75
1873.111	397.41667
1875.939	372.08333
1878.765	391.41667
1881.589	365.75
1884.411	375.75
1887.231	378.41667
1890.049	371.75
1892.865	384.08333
1895.68	373.08333
1898.492	385.08333
1901.302	373.08333
1904.11	363.41667
1906.916	361.75
1909.721	367.75
1912.523	370.08333
1915.323	352.41667
1918.122	358.08333
1920.918	364.08333
1923.712	355.41667
1926.505	358.41667
1929.295	341.08333
1932.084	360.08333
1934.87	357.08333
1937.655	356.08333
1940.438	338.41667
1943.218	348.08333
1945.997	348.41667
1948.774	361.41667
1951.549	357.08333
1954.322	341.75
1957.093	346.41667
1959.862	336.41667
1962.629	343.08333
1965.394	339.08333
1968.157	333.08333
1970.918	345.75
1973.678	332.75
1976.435	342.41667
1979.19	327.75
1981.944	326.08333
1984.696	322.75
1987.445	319.41667
1990.193	329.75
1992.939	340.75
1995.683	334.08333
1998.425	311.41667
2001.165	338.41667
2003.903	301.75
2006.639	319.41667
2009.374	321.08333
2012.106	326.08333
2014.837	306.75
2017.566	324.41667
2020.292	321.41667
2023.017	312.75
2025.74	317.08333
2028.461	300.41667
2031.18	319.41667
2033.898	300.08333
2036.613	314.41667
2039.327	313.08333
2042.038	303.08333
2044.748	311.08333
2047.456	314.08333
2050.162	292.41667
2052.866	301.41667
2055.568	326.08333
2058.268	295.08333
2060.967	316.08333
2063.663	297.08333
2066.358	299.08333
2069.051	283.41667
2071.742	300.41667
2074.431	306.41667
2077.118	295.41667
2079.804	278.08333
2082.487	290.08333
2085.169	303.08333
2087.849	320.08333
2090.527	285.08333
2093.203	287.41667
2095.877	292.41667
2098.55	299.08333
2101.22	304.41667
2103.889	301.75
2106.556	297.41667
2109.221	313.75
2111.884	307.08333
2114.546	336.41667
2117.205	333.75
2119.863	376.41667
2122.519	362.75
2125.173	388.41667
2127.825	422.75
2130.475	431.41667
2133.124	419.41667
2135.771	402.41667
2138.416	406.41667
2141.059	365.41667
2143.7	360.75
2146.339	342.75
2148.977	315.75
2151.613	323.08333
2154.247	315.75
2156.879	306.75
2159.51	295.08333
2162.138	298.75
2164.765	292.41667
2167.39	278.41667
2170.013	302.41667
2172.634	293.41667
2175.254	278.08333
2177.872	310.08333
2180.488	272.75
2183.102	266.08333
2185.714	267.75
2188.325	265.41667
2190.934	263.41667
2193.541	270.41667
2196.146	264.08333
2198.75	253.41667
2201.351	254.41667
2203.951	243.75
2206.549	263.75
2209.146	249.08333
2211.74	253.08333
2214.333	255.75
2216.924	239.75
2219.514	246.41667
2222.101	238.41667
2224.687	261.08333
2227.271	239.75
2229.853	243.75
2232.433	227.41667
2235.012	252.75
2237.589	243.08333
2240.164	248.41667
2242.738	237.08333
2245.309	228.41667
2247.879	247.41667
2250.448	236.08333
2253.014	224.08333
2255.579	216.75
2258.142	226.75
2260.703	233.08333
2263.262	225.08333
2265.82	221.41667
2268.376	236.08333
2270.93	221.08333
2273.483	213.08333
2276.033	230.08333
2278.583	216.08333
2281.13	215.08333
2283.675	211.75
2286.219	213.08333
2288.761	221.41667
2291.302	224.08333
2293.841	232.41667
2296.377	206.08333
2298.913	219.08333
2301.446	229.08333
2303.978	213.41667
2306.508	208.75
2309.037	215.75
2311.563	213.41667
2314.088	206.75
2316.612	193.41667
2319.133	212.75
2321.653	212.08333
2324.171	205.41667
2326.688	217.41667
2329.202	206.08333
2331.715	206.41667
2334.227	206.41667
2336.736	202.08333
2339.244	195.75
2341.751	194.08333
2344.255	209.41667
2346.758	204.75
2349.259	191.41667
2351.759	208.41667
2354.257	190.08333
2356.753	188.08333
2359.247	193.41667
2361.74	195.75
2364.231	198.41667
2366.721	202.08333
2369.209	193.75
2371.695	194.41667
2374.179	188.08333
2376.662	178.41667
2379.143	199.41667
2381.622	191.75
2384.1	208.08333
2386.576	196.08333
2389.051	199.41667
2391.524	207.08333
2393.995	195.08333
2396.464	189.41667
2398.932	184.75
2401.398	186.75
2403.863	184.08333
2406.325	184.08333
2408.787	188.75
2411.246	190.08333
2413.704	192.41667
2416.16	182.08333
2418.615	182.08333
2421.068	185.08333
2423.519	180.08333
2425.969	176.08333
2428.417	195.41667
2430.863	198.75
2433.308	189.75
2435.751	185.41667
2438.193	182.75
2440.633	187.41667
2443.071	186.75
2445.508	180.75
2447.943	180.08333
2450.376	176.41667
2452.808	183.75
2455.238	166.08333
2457.667	199.41667
2460.093	164.75
2462.519	163.75
2464.942	168.08333
2467.365	178.41667
2469.785	178.08333
2472.204	168.41667
2474.621	172.41667
2477.037	185.75
2479.451	163.08333
2481.863	156.75
2484.274	163.75
2486.683	169.08333
2489.091	176.41667
2491.497	169.75
2493.901	168.75
2496.304	163.41667
2498.705	175.08333
2501.105	169.41667
2503.503	189.75
2505.899	155.75
2508.294	177.75
2510.687	166.75
2513.079	162.75
2515.469	157.41667
2517.858	165.41667
2520.245	182.75
2522.63	162.08333
2525.014	158.41667
2527.396	164.75
2529.776	159.08333
2532.156	169.75
2534.533	153.08333
2536.909	155.41667
2539.283	142.08333
2541.656	155.75
2544.027	169.75
2546.397	164.41667
2548.765	159.08333
2551.131	163.08333
2553.496	162.08333
2555.86	163.08333
2558.221	164.75
2560.582	153.41667
2562.94	151.41667
2565.298	158.41667
2567.653	170.08333
2570.007	144.41667
2572.36	158.08333
2574.711	148.41667
2577.06	169.75
2579.408	153.41667
2581.754	151.75
2584.099	155.08333
2586.442	150.41667
2588.784	163.08333
2591.124	152.41667
2593.463	153.75
2595.8	156.75
2598.135	140.75
2600.469	137.75
2602.802	159.08333
2605.133	160.75
2607.462	145.41667
2609.79	136.75
2612.116	154.08333
2614.441	148.41667
2616.764	153.75
2619.086	157.08333
2621.406	143.75
2623.725	160.41667
2626.042	155.75
2628.358	139.41667
2630.672	151.41667
2632.985	160.75
2635.296	150.41667
2637.606	149.41667
2639.914	140.75
2642.22	142.75
2644.525	147.75
2646.829	145.41667
2649.131	162.41667
2651.432	153.75
2653.731	143.41667
2656.028	158.75
2658.324	149.75
2660.619	137.75
2662.912	155.08333
2665.204	136.75
2667.494	155.08333
2669.782	140.41667
2672.07	155.08333
2674.355	160.75
2676.639	150.08333
2678.922	142.41667
2681.203	149.75
2683.483	138.75
2685.761	134.75
2688.038	155.08333
2690.313	155.75
2692.587	146.41667
2694.859	143.75
2697.13	146.08333
2699.399	152.75
2701.667	159.41667
2703.933	149.41667
2706.198	162.75
2708.461	162.75
2710.723	157.75
2712.984	149.41667
2715.243	163.75
2717.5	147.75
2719.757	157.41667
2722.011	150.75
2724.264	161.41667
2726.516	168.41667
2728.766	145.41667
2731.015	154.08333
2733.262	151.08333
2735.508	148.41667
2737.753	151.08333
2739.996	141.08333
2742.237	145.41667
2744.477	157.08333
2746.716	164.75
2748.953	158.41667
2751.189	159.08333
2753.423	149.08333
2755.656	139.08333
2757.887	136.08333
2760.117	142.75
2762.346	140.41667
2764.573	130.75
2766.798	138.08333
2769.022	144.41667
2771.245	137.08333
2773.467	140.41667
2775.686	140.41667
2777.905	148.41667
2780.122	145.08333
2782.337	150.08333
2784.552	141.41667
2786.764	144.08333
2788.976	141.41667
2791.186	143.41667
2793.394	143.75
2795.601	155.41667
2797.807	156.08333
2800.011	146.75
2802.214	158.41667
2804.415	152.08333
2806.615	152.75
2808.814	155.41667
2811.011	163.41667
2813.206	159.08333
2815.401	166.41667
2817.594	167.08333
2819.785	170.75
2821.975	159.41667
2824.164	166.75
2826.351	164.08333
2828.537	174.08333
2830.722	177.41667
2832.905	176.75
2835.086	185.75
2837.267	199.75
2839.445	193.41667
2841.623	197.08333
2843.799	197.41667
2845.974	212.08333
2848.147	212.08333
2850.319	226.08333
2852.489	234.08333
2854.659	234.41667
2856.826	234.75
2858.993	256.41667
2861.158	236.75
2863.321	246.41667
2865.483	257.75
2867.644	259.08333
2869.804	263.08333
2871.962	255.41667
2874.118	265.41667
2876.274	297.41667
2878.428	276.75
2880.58	275.41667
2882.731	255.08333
2884.881	259.41667
2887.03	265.41667
2889.177	248.08333
2891.322	271.08333
2893.467	242.08333
2895.61	249.08333
2897.751	266.75
2899.892	252.08333
2902.03	251.75
2904.168	254.75
2906.304	253.08333
2908.439	271.75
2910.572	251.08333
2912.704	260.75
2914.835	268.41667
2916.965	260.75
2919.093	279.08333
2921.219	245.08333
2923.345	272.75
2925.469	262.41667
2927.591	257.08333
2929.712	244.08333
2931.832	254.08333
2933.951	252.41667
2936.068	238.08333
2938.184	234.41667
2940.299	223.08333
2942.412	213.75
2944.524	202.75
2946.634	213.75
2948.744	186.41667
2950.851	224.08333
2952.958	185.75
2955.063	191.41667
2957.167	190.41667
2959.269	173.08333
2961.371	202.75
2963.471	167.75
2965.569	191.41667
2967.666	159.75
2969.762	163.41667
2971.857	154.41667
2973.95	150.75
2976.042	160.08333
2978.133	151.75
2980.222	149.75
2982.31	139.41667
2984.396	119.08333
2986.482	129.41667
2988.566	134.08333
2990.648	132.75
2992.73	133.08333
2994.81	116.08333
2996.889	132.41667
2998.966	132.08333
3001.042	137.08333
3003.117	126.75
3005.191	128.08333
3007.263	134.08333
3009.334	123.41667
3011.403	126.41667
3013.472	117.75
3015.539	133.75
3017.604	133.75
3019.669	112.41667
3021.732	111.75
3023.794	115.41667
3025.854	107.41667
3027.914	103.08333
3029.971	112.75
3032.028	106.08333
3034.083	119.08333
3036.137	113.75
3038.19	101.08333
3040.242	99.08333
3042.292	96.08333
3044.341	101.75
3046.388	116.08333
3048.435	94.75
3050.48	114.08333
3052.524	103.75
3054.566	85.08333
3056.607	95.75
3058.647	95.75
3060.686	83.41667
3062.723	78.41667
3064.759	81.75
3066.794	-1.25
3068.828	0.41667
3070.86	2.41667
