-0.839	142.41667
3.438	156.08333
7.711	66.08333
11.981	45.08333
16.247	36.75
20.509	39.75
24.768	37.41667
29.024	43.08333
33.276	34.75
37.524	44.41667
41.769	35.41667
46.01	27.75
50.247	44.08333
54.481	53.08333
58.712	55.41667
62.939	37.08333
67.162	55.75
71.382	48.08333
75.599	40.41667
79.812	44.08333
84.021	65.75
88.227	42.41667
92.429	58.41667
96.628	41.75
100.823	57.75
105.015	57.08333
109.204	48.75
113.388	59.75
117.57	49.41667
121.748	61.08333
125.922	55.41667
130.093	68.75
134.261	74.41667
138.425	57.41667
142.585	91.41667
146.742	71.41667
150.896	87.08333
155.046	85.08333
159.193	127.41667
163.336	190.08333
167.476	329.08333
171.613	602.41667
175.746	993.75
179.875	1460.41667
184.002	1909.75
188.124	2261.41667
192.244	2429.08333
196.36	2428.75
200.472	2435.75
204.581	2410.75
208.687	2359.41667
212.79	2364.75
216.889	2402.41667
220.984	2437.41667
225.077	2430.41667
229.165	2468.75
233.251	2452.41667
237.333	2472.75
241.412	2464.75
245.487	2465.75
249.559	2439.75
253.628	2447.75
257.694	2415.75
261.756	2408.08333
265.814	2391.41667
269.87	2322.41667
273.922	2266.75
277.97	2261.75
282.016	2225.41667
286.058	2196.75
290.097	2236.41667
294.132	2235.75
298.164	2243.41667
302.193	2193.41667
306.219	2074.41667
310.241	1965.41667
314.26	1851.41667
318.276	1763.41667
322.288	1711.08333
326.297	1677.41667
330.303	1647.08333
334.305	1636.08333
338.305	1626.75
342.301	1617.75
346.294	1611.08333
350.283	1600.75
354.269	1605.75
358.252	1585.41667
362.232	1606.08333
366.209	1595.41667
370.182	1567.75
374.152	1575.41667
378.119	1567.75
382.083	1565.75
386.043	1590.08333
390	1574.75
393.954	1592.08333
397.905	1588.41667
401.852	1626.08333
405.797	1588.75
409.738	1586.08333
413.676	1605.75
417.61	1613.41667
421.542	1604.75
425.47	1577.08333
429.396	1578.41667
433.318	1561.41667
437.236	1554.75
441.152	1582.75
445.065	1528.41667
448.974	1556.08333
452.88	1536.75
456.783	1536.75
460.683	1520.08333
464.58	1528.75
468.473	1557.75
472.364	1553.41667
476.251	1557.41667
480.135	1561.75
484.016	1560.08333
487.894	1560.75
491.769	1584.75
495.641	1563.41667
499.509	1570.08333
503.375	1578.75
507.237	1559.75
511.096	1561.08333
514.952	1576.75
518.805	1558.08333
522.655	1570.41667
526.502	1555.75
530.346	1544.08333
534.187	1574.08333
538.024	1544.41667
541.859	1552.08333
545.69	1576.08333
549.519	1552.41667
553.344	1551.75
557.166	1508.41667
560.985	1530.08333
564.802	1528.41667
568.615	1517.75
572.425	1489.41667
576.232	1482.41667
580.036	1466.41667
583.836	1484.75
587.634	1479.08333
591.429	1485.08333
595.221	1512.41667
599.01	1515.75
602.796	1509.75
606.578	1526.08333
610.358	1531.75
614.135	1508.41667
617.909	1522.41667
621.679	1505.75
625.447	1507.75
629.212	1505.41667
632.973	1501.75
636.732	1492.41667
640.488	1487.75
644.241	1470.08333
647.991	1462.08333
651.737	1485.41667
655.481	1453.08333
659.222	1477.41667
662.96	1479.08333
666.695	1485.08333
670.427	1501.41667
674.156	1491.75
677.882	1484.75
681.605	1477.08333
685.325	1463.41667
689.043	1498.08333
692.757	1458.41667
696.468	1461.41667
700.177	1448.41667
703.882	1418.75
707.585	1419.41667
711.284	1431.41667
714.981	1418.41667
718.675	1411.41667
722.366	1436.08333
726.054	1404.75
729.739	1412.41667
733.421	1406.41667
737.1	1387.08333
740.777	1413.41667
744.45	1414.75
748.121	1414.08333
751.789	1430.41667
755.453	1419.41667
759.115	1443.41667
762.774	1423.41667
766.431	1430.41667
770.084	1444.41667
773.734	1434.41667
777.382	1450.08333
781.027	1448.41667
784.669	1444.08333
788.308	1426.08333
791.944	1463.08333
795.577	1452.41667
799.208	1451.41667
802.835	1475.08333
806.46	1467.75
810.082	1492.08333
813.701	1475.75
817.317	1509.75
820.931	1493.08333
824.542	1500.75
828.149	1460.75
831.754	1438.08333
835.357	1432.41667
838.956	1440.41667
842.553	1450.08333
846.146	1431.08333
849.737	1396.75
853.326	1396.41667
856.911	1371.41667
860.493	1403.75
864.073	1401.41667
867.65	1429.75
871.225	1422.75
874.796	1424.75
878.365	1409.75
881.931	1440.41667
885.494	1441.08333
889.054	1416.41667
892.612	1430.75
896.166	1398.75
899.719	1388.75
903.268	1372.08333
906.814	1371.41667
910.358	1361.41667
913.899	1360.75
917.438	1358.08333
920.973	1335.75
924.506	1357.75
928.036	1392.75
931.564	1393.08333
935.088	1418.08333
938.61	1394.41667
942.129	1385.08333
945.646	1417.75
949.16	1425.41667
952.671	1436.41667
956.179	1455.75
959.685	1442.41667
963.188	1472.41667
966.688	1456.08333
970.185	1412.75
973.68	1375.41667
977.173	1367.08333
980.662	1337.41667
984.149	1344.08333
987.633	1326.41667
991.114	1348.08333
994.593	1370.41667
998.069	1376.75
1001.542	1410.41667
1005.013	1403.41667
1008.481	1334.08333
1011.947	1321.08333
1015.409	1300.41667
1018.869	1308.41667
1022.327	1302.08333
1025.782	1300.41667
1029.234	1290.75
1032.683	1268.75
1036.13	1241.41667
1039.574	1207.41667
1043.016	1178.08333
1046.455	1170.75
1049.891	1153.08333
1053.325	1162.08333
1056.756	1153.08333
1060.184	1160.75
1063.61	1146.41667
1067.033	1166.75
1070.454	1153.41667
1073.872	1175.08333
1077.287	1140.41667
1080.7	1161.08333
1084.11	1151.75
1087.517	1153.41667
1090.922	1140.75
1094.325	1116.41667
1097.724	1113.08333
1101.122	1124.75
1104.516	1090.08333
1107.908	1089.08333
1111.298	1103.41667
1114.684	1112.75
1118.069	1112.08333
1121.45	1136.08333
1124.83	1124.41667
1128.206	1123.75
1131.58	1133.75
1134.951	1160.75
1138.32	1171.41667
1141.687	1211.75
1145.05	1235.75
1148.412	1210.08333
1151.77	1222.41667
1155.126	1218.75
1158.48	1179.75
1161.831	1196.41667
1165.18	1216.75
1168.525	1218.75
1171.869	1238.08333
1175.21	1234.08333
1178.548	1246.41667
1181.884	1256.08333
1185.217	1254.08333
1188.548	1279.41667
1191.877	1303.41667
1195.202	1336.41667
1198.526	1358.41667
1201.846	1357.75
1205.165	1362.08333
1208.48	1372.41667
1211.794	1359.75
1215.104	1370.41667
1218.413	1336.41667
1221.719	1334.75
1225.022	1311.08333
1228.323	1306.41667
1231.621	1303.75
1234.917	1293.75
1238.21	1315.41667
1241.501	1281.75
1244.79	1278.75
1248.076	1262.41667
1251.359	1282.08333
1254.64	1324.08333
1257.919	1327.41667
1261.195	1317.08333
1264.468	1343.41667
1267.74	1365.41667
1271.008	1357.75
1274.275	1361.75
1277.538	1349.41667
1280.8	1346.41667
1284.059	1355.75
1287.315	1359.08333
1290.569	1359.41667
1293.821	1359.41667
1297.07	1361.41667
1300.317	1343.75
1303.562	1347.75
1306.803	1345.75
1310.043	1347.08333
1313.28	1336.08333
1316.515	1332.08333
1319.747	1329.41667
1322.977	1327.08333
1326.204	1315.08333
1329.429	1302.08333
1332.652	1313.75
1335.872	1299.75
1339.09	1278.75
1342.306	1295.41667
1345.519	1286.75
1348.729	1275.08333
1351.938	1280.41667
1355.144	1259.75
1358.347	1248.75
1361.548	1256.41667
1364.747	1252.08333
1367.944	1218.75
1371.138	1234.08333
1374.329	1214.41667
1377.518	1219.41667
1380.705	1239.75
1383.89	1226.75
1387.072	1193.08333
1390.252	1161.75
1393.429	1132.75
1396.605	1098.41667
1399.777	1058.08333
1402.948	1077.75
1406.116	1048.75
1409.282	1050.41667
1412.445	1041.08333
1415.606	1057.08333
1418.765	1049.75
1421.921	1064.75
1425.075	1080.08333
1428.227	1098.41667
1431.376	1141.08333
1434.524	1167.75
1437.668	1192.08333
1440.811	1208.75
1443.951	1226.75
1447.089	1221.41667
1450.224	1229.08333
1453.357	1218.08333
1456.488	1219.08333
1459.617	1200.08333
1462.743	1183.75
1465.867	1146.08333
1468.989	1153.08333
1472.108	1116.08333
1475.225	1127.41667
1478.34	1105.08333
1481.453	1096.08333
1484.563	1091.75
1487.671	1092.75
1490.776	1104.08333
1493.88	1114.41667
1496.981	1132.41667
1500.08	1147.08333
1503.176	1145.41667
1506.271	1155.41667
1509.363	1183.41667
1512.452	1177.08333
1515.54	1184.75
1518.625	1188.08333
1521.708	1239.41667
1524.789	1263.41667
1527.867	1284.75
1530.944	1345.08333
1534.018	1373.75
1537.089	1427.08333
1540.159	1439.41667
1543.226	1433.41667
1546.291	1403.08333
1549.354	1374.08333
1552.415	1346.41667
1555.473	1323.75
1558.529	1309.08333
1561.583	1287.08333
1564.634	1264.41667
1567.684	1281.08333
1570.731	1284.75
1573.776	1302.08333
1576.819	1308.75
1579.859	1311.41667
1582.898	1333.41667
1585.934	1353.08333
1588.968	1343.08333
1591.999	1316.41667
1595.029	1334.41667
1598.056	1328.75
1601.081	1357.41667
1604.104	1344.75
1607.125	1335.41667
1610.144	1312.41667
1613.16	1290.41667
1616.174	1275.08333
1619.186	1253.41667
1622.196	1244.08333
1625.203	1201.08333
1628.209	1214.75
1631.212	1191.75
1634.213	1209.41667
1637.212	1225.08333
1640.209	1215.75
1643.203	1184.08333
1646.196	1140.08333
1649.186	1097.41667
1652.174	1082.75
1655.16	1030.08333
1658.144	1033.75
1661.125	989.08333
1664.105	941.08333
1667.082	907.08333
1670.057	872.41667
1673.03	827.08333
1676.001	789.41667
1678.97	739.75
1681.937	707.75
1684.901	675.08333
1687.863	669.41667
1690.824	635.08333
1693.782	640.41667
1696.738	614.08333
1699.692	614.08333
1702.643	581.75
1705.593	583.08333
1708.54	577.75
1711.486	596.41667
1714.429	565.75
1717.37	583.75
1720.309	557.41667
1723.246	565.41667
1726.181	548.41667
1729.113	549.08333
1732.044	545.08333
1734.972	542.08333
1737.899	566.41667
1740.823	551.75
1743.745	582.41667
1746.665	528.75
1749.583	522.41667
1752.499	514.75
1755.413	517.08333
1758.325	496.41667
1761.235	513.41667
1764.142	498.75
1767.048	495.75
1769.951	490.75
1772.852	499.41667
1775.752	501.08333
1778.649	502.41667
1781.544	514.75
1784.437	475.08333
1787.328	496.08333
1790.217	488.75
1793.104	462.75
1795.989	473.75
1798.872	462.41667
1801.753	469.41667
1804.631	469.08333
1807.508	475.75
1810.383	465.75
1813.255	465.75
1816.126	462.08333
1818.994	470.41667
1821.861	456.08333
1824.725	465.75
1827.587	464.41667
1830.448	456.08333
1833.306	446.41667
1836.162	455.75
1839.017	450.41667
1841.869	439.08333
1844.719	447.08333
1847.567	430.75
1850.414	421.41667
1853.258	429.75
1856.1	448.41667
1858.94	441.75
1861.778	429.75
1864.614	424.41667
1867.448	429.08333
1870.28	417.08333
1873.111	443.41667
1875.939	428.41667
1878.765	442.75
1881.589	421.75
1884.411	423.08333
1887.231	433.08333
1890.049	417.41667
1892.865	429.08333
1895.68	410.75
1898.492	424.75
1901.302	414.08333
1904.11	405.08333
1906.916	407.08333
1909.721	405.41667
1912.523	408.75
1915.323	394.08333
1918.122	391.75
1920.918	413.08333
1923.712	396.75
1926.505	405.41667
1929.295	380.41667
1932.084	403.41667
1934.87	400.08333
1937.655	390.41667
1940.438	389.75
1943.218	393.75
1945.997	388.08333
1948.774	398.75
1951.549	397.08333
1954.322	386.08333
1957.093	391.08333
1959.862	384.08333
1962.629	380.75
1965.394	382.41667
1968.157	368.08333
1970.918	390.41667
1973.678	373.41667
1976.435	376.41667
1979.19	368.41667
1981.944	360.41667
1984.696	360.75
1987.445	369.08333
1990.193	364.75
1992.939	376.41667
1995.683	372.41667
1998.425	350.08333
2001.165	390.08333
2003.903	356.41667
2006.639	348.75
2009.374	374.41667
2012.106	359.75
2014.837	343.75
2017.566	364.08333
2020.292	355.08333
2023.017	340.75
2025.74	345.75
2028.461	344.41667
2031.18	354.41667
2033.898	347.08333
2036.613	352.08333
2039.327	357.41667
2042.038	339.08333
2044.748	344.75
2047.456	354.08333
2050.162	330.41667
2052.866	337.75
2055.568	345.41667
2058.268	333.08333
2060.967	344.41667
2063.663	326.08333
2066.358	323.08333
2069.051	324.41667
2071.742	330.41667
2074.431	342.75
2077.118	329.41667
2079.804	315.41667
2082.487	319.75
2085.169	330.75
2087.849	352.75
2090.527	326.08333
2093.203	327.08333
2095.877	326.08333
2098.55	327.75
2101.22	331.41667
2103.889	330.75
2106.556	319.08333
2109.221	335.75
2111.884	330.75
2114.546	348.75
2117.205	352.75
2119.863	388.08333
2122.519	375.08333
2125.173	402.75
2127.825	418.75
2130.475	424.41667
2133.124	409.75
2135.771	389.41667
2138.416	401.41667
2141.059	384.08333
2143.7	377.08333
2146.339	354.41667
2148.977	327.41667
2151.613	335.75
2154.247	336.41667
2156.879	322.75
2159.51	312.08333
2162.138	312.08333
2164.765	315.41667
2167.39	293.41667
2170.013	323.41667
2172.634	318.08333
2175.254	300.75
2177.872	341.75
2180.488	295.75
2183.102	292.75
2185.714	289.41667
2188.325	283.41667
2190.934	296.75
2193.541	299.08333
2196.146	289.08333
2198.75	275.75
2201.351	278.75
2203.951	266.41667
2206.549	281.75
2209.146	276.41667
2211.74	267.75
2214.333	279.41667
2216.924	261.41667
2219.514	264.41667
2222.101	262.08333
2224.687	275.08333
2227.271	259.41667
2229.853	261.08333
2232.433	252.75
2235.012	271.75
2237.589	263.75
2240.164	280.41667
2242.738	261.75
2245.309	258.08333
2247.879	273.08333
2250.448	267.41667
2253.014	249.08333
2255.579	247.08333
2258.142	255.41667
2260.703	247.75
2263.262	243.75
2265.82	241.75
2268.376	254.08333
2270.93	237.41667
2273.483	233.08333
2276.033	249.41667
2278.583	243.41667
2281.13	235.08333
2283.675	232.75
2286.219	239.75
2288.761	246.75
2291.302	245.41667
2293.841	251.75
2296.377	231.41667
2298.913	239.08333
2301.446	248.75
2303.978	233.41667
2306.508	233.08333
2309.037	230.08333
2311.563	231.08333
2314.088	235.41667
2316.612	219.75
2319.133	239.75
2321.653	227.41667
2324.171	223.41667
2326.688	235.08333
2329.202	225.75
2331.715	226.75
2334.227	231.41667
2336.736	222.75
2339.244	215.41667
2341.751	211.41667
2344.255	232.75
2346.758	227.41667
2349.259	217.08333
2351.759	218.75
2354.257	211.41667
2356.753	211.41667
2359.247	208.75
2361.74	222.75
2364.231	218.75
2366.721	226.08333
2369.209	205.75
2371.695	208.75
2374.179	203.75
2376.662	198.08333
2379.143	223.41667
2381.622	211.41667
2384.1	216.75
2386.576	205.08333
2389.051	222.08333
2391.524	212.75
2393.995	213.75
2396.464	206.41667
2398.932	203.08333
2401.398	213.41667
2403.863	197.41667
2406.325	199.41667
2408.787	206.41667
2411.246	200.08333
2413.704	202.75
2416.16	200.75
2418.615	198.08333
2421.068	209.41667
2423.519	196.75
2425.969	187.08333
2428.417	208.08333
2430.863	215.08333
2433.308	205.08333
2435.751	204.75
2438.193	201.75
2440.633	203.08333
2443.071	198.75
2445.508	199.75
2447.943	197.08333
2450.376	192.75
2452.808	198.75
2455.238	185.08333
2457.667	215.08333
2460.093	186.41667
2462.519	181.08333
2464.942	186.41667
2467.365	194.08333
2469.785	192.75
2472.204	187.08333
2474.621	186.41667
2477.037	207.41667
2479.451	174.75
2481.863	182.41667
2484.274	178.08333
2486.683	188.41667
2489.091	201.41667
2491.497	192.75
2493.901	184.75
2496.304	182.08333
2498.705	191.08333
2501.105	183.75
2503.503	198.75
2505.899	180.08333
2508.294	194.41667
2510.687	178.08333
2513.079	177.41667
2515.469	176.08333
2517.858	179.41667
2520.245	189.41667
2522.63	178.08333
2525.014	180.41667
2527.396	176.08333
2529.776	183.41667
2532.156	185.75
2534.533	167.08333
2536.909	166.08333
2539.283	157.41667
2541.656	169.75
2544.027	180.41667
2546.397	175.41667
2548.765	173.41667
2551.131	173.75
2553.496	170.08333
2555.86	179.75
2558.221	174.41667
2560.582	172.41667
2562.94	162.75
2565.298	172.75
2567.653	184.75
2570.007	165.41667
2572.36	178.08333
2574.711	157.41667
2577.06	180.75
2579.408	165.75
2581.754	166.75
2584.099	164.75
2586.442	168.08333
2588.784	176.75
2591.124	168.08333
2593.463	168.41667
2595.8	173.08333
2598.135	153.08333
2600.469	164.75
2602.802	177.75
2605.133	174.75
2607.462	157.08333
2609.79	153.08333
2612.116	176.08333
2614.441	161.75
2616.764	160.75
2619.086	168.08333
2621.406	157.75
2623.725	171.08333
2626.042	163.08333
2628.358	161.41667
2630.672	164.75
2632.985	173.75
2635.296	166.08333
2637.606	153.75
2639.914	153.08333
2642.22	159.08333
2644.525	162.08333
2646.829	162.41667
2649.131	172.08333
2651.432	164.41667
2653.731	159.08333
2656.028	170.08333
2658.324	160.41667
2660.619	155.75
2662.912	165.75
2665.204	149.08333
2667.494	166.75
2669.782	152.41667
2672.07	164.08333
2674.355	170.75
2676.639	160.41667
2678.922	152.41667
2681.203	166.41667
2683.483	155.08333
2685.761	146.75
2688.038	168.08333
2690.313	168.75
2692.587	154.75
2694.859	158.41667
2697.13	155.75
2699.399	159.75
2701.667	168.41667
2703.933	161.75
2706.198	170.75
2708.461	168.75
2710.723	173.41667
2712.984	166.08333
2715.243	171.08333
2717.5	165.75
2719.757	171.41667
2722.011	165.41667
2724.264	172.75
2726.516	177.08333
2728.766	159.75
2731.015	168.08333
2733.262	165.08333
2735.508	161.75
2737.753	169.41667
2739.996	153.08333
2742.237	152.41667
2744.477	167.08333
2746.716	171.08333
2748.953	174.41667
2751.189	167.08333
2753.423	165.08333
2755.656	157.08333
2757.887	149.08333
2760.117	151.08333
2762.346	147.75
2764.573	143.08333
2766.798	153.75
2769.022	159.41667
2771.245	148.41667
2773.467	155.75
2775.686	147.41667
2777.905	162.08333
2780.122	156.41667
2782.337	164.41667
2784.552	148.41667
2786.764	156.08333
2788.976	152.08333
2791.186	157.08333
2793.394	153.41667
2795.601	158.75
2797.807	167.41667
2800.011	159.08333
2802.214	172.08333
2804.415	162.75
2806.615	160.75
2808.814	169.08333
2811.011	171.08333
2813.206	167.08333
2815.401	177.08333
2817.594	174.08333
2819.785	186.75
2821.975	165.41667
2824.164	176.08333
2826.351	170.75
2828.537	182.75
2830.722	187.41667
2832.905	181.75
2835.086	192.08333
2837.267	207.41667
2839.445	206.41667
2841.623	202.75
2843.799	206.75
2845.974	219.41667
2848.147	216.41667
2850.319	236.41667
2852.489	243.75
2854.659	247.08333
2856.826	248.08333
2858.993	265.41667
2861.158	249.75
2863.321	251.08333
2865.483	268.08333
2867.644	257.41667
2869.804	259.08333
2871.962	257.08333
2874.118	257.75
2876.274	265.41667
2878.428	260.41667
2880.58	259.75
2882.731	249.08333
2884.881	252.41667
2887.03	261.41667
2889.177	259.75
2891.322	263.08333
2893.467	255.08333
2895.61	255.75
2897.751	260.75
2899.892	262.08333
2902.03	271.08333
2904.168	254.75
2906.304	265.41667
2908.439	281.75
2910.572	256.75
2912.704	266.75
2914.835	276.41667
2916.965	268.41667
2919.093	279.75
2921.219	254.08333
2923.345	289.41667
2925.469	261.41667
2927.591	266.08333
2929.712	248.75
2931.832	264.75
2933.951	252.75
2936.068	241.75
2938.184	243.08333
2940.299	236.75
2942.412	233.08333
2944.524	218.08333
2946.634	224.75
2948.744	199.41667
2950.851	230.08333
2952.958	198.75
2955.063	202.75
2957.167	195.08333
2959.269	179.41667
2961.371	213.41667
2963.471	178.41667
2965.569	196.41667
2967.666	171.75
2969.762	171.41667
2971.857	164.08333
2973.95	163.41667
2976.042	163.08333
2978.133	163.41667
2980.222	159.41667
2982.31	147.41667
2984.396	134.75
2986.482	144.08333
2988.566	146.41667
2990.648	140.75
2992.73	140.08333
2994.81	129.08333
2996.889	143.08333
2998.966	137.08333
3001.042	150.08333
3003.117	132.41667
3005.191	141.75
3007.263	144.75
3009.334	138.08333
3011.403	135.41667
3013.472	134.08333
3015.539	146.08333
3017.604	153.75
3019.669	118.75
3021.732	129.08333
3023.794	123.41667
3025.854	118.75
3027.914	121.41667
3029.971	117.41667
3032.028	121.41667
3034.083	131.08333
3036.137	123.08333
3038.19	112.08333
3040.242	106.75
3042.292	108.08333
3044.341	115.41667
3046.388	129.41667
3048.435	109.75
3050.48	119.75
3052.524	109.41667
3054.566	100.41667
3056.607	111.75
3058.647	106.08333
3060.686	96.75
3062.723	89.41667
3064.759	95.41667
3066.794	0.08333
3068.828	2.08333
3070.86	3.08333
