-0.839	147.25
3.438	164.25
7.711	70.58333
11.981	43.25
16.247	32.91667
20.509	36.91667
24.768	38.58333
29.024	44.25
33.276	32.25
37.524	42.25
41.769	31.25
46.01	27.25
50.247	44.91667
54.481	51.58333
58.712	52.91667
62.939	38.25
67.162	56.25
71.382	46.91667
75.599	40.25
79.812	44.58333
84.021	61.25
88.227	43.25
92.429	52.58333
96.628	40.91667
100.823	53.91667
105.015	53.58333
109.204	49.58333
113.388	61.91667
117.57	45.91667
121.748	60.25
125.922	54.58333
130.093	69.91667
134.261	66.91667
138.425	56.25
142.585	89.25
146.742	70.58333
150.896	83.25
155.046	83.91667
159.193	129.58333
163.336	188.25
167.476	324.58333
171.613	587.91667
175.746	959.25
179.875	1416.58333
184.002	1833.91667
188.124	2206.91667
192.244	2295.58333
196.36	2333.58333
200.472	2310.58333
204.581	2287.25
208.687	2237.25
212.79	2248.58333
216.889	2277.25
220.984	2290.58333
225.077	2311.58333
229.165	2319.25
233.251	2319.91667
237.333	2322.25
241.412	2308.58333
245.487	2288.91667
249.559	2275.91667
253.628	2265.58333
257.694	2225.58333
261.756	2210.25
265.814	2183.91667
269.87	2130.58333
273.922	2096.91667
277.97	2070.25
282.016	2043.91667
286.058	2038.25
290.097	2052.25
294.132	2065.91667
298.164	2043.58333
302.193	1980.91667
306.219	1902.58333
310.241	1772.91667
314.26	1701.25
318.276	1637.58333
322.288	1583.91667
326.297	1546.25
330.303	1534.25
334.305	1500.91667
338.305	1513.25
342.301	1496.25
346.294	1493.58333
350.283	1496.58333
354.269	1498.58333
358.252	1486.25
362.232	1498.91667
366.209	1489.91667
370.182	1486.91667
374.152	1471.91667
378.119	1488.91667
382.083	1463.25
386.043	1478.58333
390	1481.58333
393.954	1486.58333
397.905	1476.58333
401.852	1496.25
405.797	1479.25
409.738	1469.91667
413.676	1483.58333
417.61	1496.91667
421.542	1485.58333
425.47	1471.91667
429.396	1467.25
433.318	1443.91667
437.236	1450.91667
441.152	1480.25
445.065	1413.58333
448.974	1456.91667
452.88	1424.58333
456.783	1403.91667
460.683	1429.58333
464.58	1422.25
468.473	1431.58333
472.364	1424.25
476.251	1442.25
480.135	1429.25
484.016	1455.91667
487.894	1469.25
491.769	1465.58333
495.641	1447.91667
499.509	1450.25
503.375	1471.58333
507.237	1443.25
511.096	1438.58333
514.952	1435.91667
518.805	1439.91667
522.655	1443.58333
526.502	1451.91667
530.346	1445.25
534.187	1439.58333
538.024	1439.25
541.859	1450.25
545.69	1456.58333
549.519	1427.91667
553.344	1447.58333
557.166	1423.91667
560.985	1413.25
564.802	1409.25
568.615	1406.91667
572.425	1385.91667
576.232	1363.58333
580.036	1370.91667
583.836	1371.25
587.634	1382.58333
591.429	1386.91667
595.221	1393.58333
599.01	1394.25
602.796	1386.25
606.578	1403.25
610.358	1405.25
614.135	1404.58333
617.909	1406.25
621.679	1397.91667
625.447	1381.91667
629.212	1390.25
632.973	1389.25
636.732	1379.25
640.488	1388.91667
644.241	1367.91667
647.991	1351.25
651.737	1369.91667
655.481	1357.91667
659.222	1362.25
662.96	1358.58333
666.695	1365.25
670.427	1354.25
674.156	1366.58333
677.882	1380.91667
681.605	1378.25
685.325	1363.58333
689.043	1394.58333
692.757	1342.58333
696.468	1342.91667
700.177	1334.25
703.882	1339.58333
707.585	1324.91667
711.284	1312.25
714.981	1306.91667
718.675	1314.91667
722.366	1330.58333
726.054	1296.91667
729.739	1300.58333
733.421	1308.25
737.1	1297.58333
740.777	1322.58333
744.45	1309.91667
748.121	1323.25
751.789	1353.91667
755.453	1322.25
759.115	1331.91667
762.774	1318.91667
766.431	1325.91667
770.084	1334.91667
773.734	1320.25
777.382	1331.91667
781.027	1339.91667
784.669	1338.91667
788.308	1333.25
791.944	1345.91667
795.577	1364.58333
799.208	1349.91667
802.835	1358.25
806.46	1373.25
810.082	1391.91667
813.701	1380.25
817.317	1391.91667
820.931	1392.91667
824.542	1395.58333
828.149	1349.25
831.754	1335.25
835.357	1324.91667
838.956	1344.91667
842.553	1344.91667
846.146	1334.91667
849.737	1299.91667
853.326	1307.25
856.911	1279.91667
860.493	1315.25
864.073	1301.25
867.65	1329.91667
871.225	1341.91667
874.796	1314.58333
878.365	1316.25
881.931	1330.58333
885.494	1344.25
889.054	1328.58333
892.612	1335.91667
896.166	1298.91667
899.719	1293.58333
903.268	1285.25
906.814	1279.58333
910.358	1263.91667
913.899	1247.91667
917.438	1272.91667
920.973	1234.58333
924.506	1248.91667
928.036	1268.58333
931.564	1291.91667
935.088	1307.25
938.61	1297.25
942.129	1292.91667
945.646	1304.25
949.16	1311.25
952.671	1326.91667
956.179	1345.91667
959.685	1324.58333
963.188	1347.25
966.688	1323.91667
970.185	1282.91667
973.68	1257.91667
977.173	1260.25
980.662	1234.58333
984.149	1254.25
987.633	1237.25
991.114	1252.25
994.593	1267.58333
998.069	1281.91667
1001.542	1309.25
1005.013	1302.58333
1008.481	1232.58333
1011.947	1214.25
1015.409	1202.25
1018.869	1211.58333
1022.327	1211.25
1025.782	1187.58333
1029.234	1173.25
1032.683	1176.58333
1036.13	1132.58333
1039.574	1112.91667
1043.016	1095.91667
1046.455	1066.91667
1049.891	1064.25
1053.325	1073.25
1056.756	1072.25
1060.184	1079.25
1063.61	1053.91667
1067.033	1081.25
1070.454	1064.91667
1073.872	1098.58333
1077.287	1067.25
1080.7	1072.58333
1084.11	1071.91667
1087.517	1062.25
1090.922	1055.25
1094.325	1029.25
1097.724	1031.58333
1101.122	1025.91667
1104.516	1021.25
1107.908	1004.58333
1111.298	1019.58333
1114.684	1037.91667
1118.069	1030.25
1121.45	1046.25
1124.83	1019.25
1128.206	1049.25
1131.58	1061.91667
1134.951	1072.25
1138.32	1102.25
1141.687	1125.91667
1145.05	1120.91667
1148.412	1129.58333
1151.77	1128.91667
1155.126	1127.91667
1158.48	1102.58333
1161.831	1109.58333
1165.18	1110.58333
1168.525	1132.58333
1171.869	1148.91667
1175.21	1137.91667
1178.548	1147.91667
1181.884	1147.91667
1185.217	1167.25
1188.548	1193.58333
1191.877	1210.91667
1195.202	1237.25
1198.526	1259.58333
1201.846	1256.25
1205.165	1263.58333
1208.48	1267.25
1211.794	1251.58333
1215.104	1266.91667
1218.413	1248.58333
1221.719	1245.25
1225.022	1237.91667
1228.323	1222.25
1231.621	1219.58333
1234.917	1208.91667
1238.21	1233.58333
1241.501	1202.25
1244.79	1188.91667
1248.076	1184.58333
1251.359	1198.25
1254.64	1235.91667
1257.919	1233.58333
1261.195	1245.58333
1264.468	1246.91667
1267.74	1261.91667
1271.008	1278.58333
1274.275	1269.25
1277.538	1255.25
1280.8	1250.58333
1284.059	1251.58333
1287.315	1268.91667
1290.569	1251.58333
1293.821	1262.25
1297.07	1283.25
1300.317	1260.25
1303.562	1284.91667
1306.803	1269.25
1310.043	1254.25
1313.28	1246.58333
1316.515	1241.58333
1319.747	1240.25
1322.977	1243.91667
1326.204	1224.91667
1329.429	1224.58333
1332.652	1222.25
1335.872	1219.25
1339.09	1207.58333
1342.306	1208.25
1345.519	1193.91667
1348.729	1178.91667
1351.938	1203.58333
1355.144	1188.91667
1358.347	1158.58333
1361.548	1160.25
1364.747	1164.58333
1367.944	1157.58333
1371.138	1142.25
1374.329	1157.25
1377.518	1135.91667
1380.705	1148.25
1383.89	1145.58333
1387.072	1110.91667
1390.252	1082.91667
1393.429	1056.25
1396.605	1030.91667
1399.777	1002.91667
1402.948	1000.91667
1406.116	988.25
1409.282	980.58333
1412.445	975.25
1415.606	1000.58333
1418.765	991.91667
1421.921	998.58333
1425.075	1003.91667
1428.227	1031.25
1431.376	1068.25
1434.524	1097.25
1437.668	1122.25
1440.811	1131.91667
1443.951	1129.25
1447.089	1146.25
1450.224	1128.91667
1453.357	1138.25
1456.488	1128.25
1459.617	1105.25
1462.743	1102.25
1465.867	1076.25
1468.989	1065.58333
1472.108	1055.25
1475.225	1045.91667
1478.34	1012.91667
1481.453	1007.58333
1484.563	1013.58333
1487.671	1020.25
1490.776	1027.58333
1493.88	1042.91667
1496.981	1058.91667
1500.08	1062.25
1503.176	1059.91667
1506.271	1081.25
1509.363	1089.25
1512.452	1087.91667
1515.54	1095.58333
1518.625	1102.91667
1521.708	1147.25
1524.789	1180.25
1527.867	1188.91667
1530.944	1261.91667
1534.018	1301.25
1537.089	1327.25
1540.159	1357.91667
1543.226	1340.58333
1546.291	1325.25
1549.354	1290.25
1552.415	1273.91667
1555.473	1246.58333
1558.529	1243.58333
1561.583	1208.25
1564.634	1194.58333
1567.684	1210.25
1570.731	1197.25
1573.776	1222.25
1576.819	1219.91667
1579.859	1234.91667
1582.898	1242.25
1585.934	1256.91667
1588.968	1256.91667
1591.999	1236.58333
1595.029	1238.25
1598.056	1260.25
1601.081	1278.91667
1604.104	1270.91667
1607.125	1251.91667
1610.144	1236.91667
1613.16	1192.58333
1616.174	1183.58333
1619.186	1190.91667
1622.196	1153.25
1625.203	1118.91667
1628.209	1109.25
1631.212	1104.91667
1634.213	1110.58333
1637.212	1117.25
1640.209	1122.91667
1643.203	1088.91667
1646.196	1071.91667
1649.186	1026.25
1652.174	1014.91667
1655.16	976.25
1658.144	964.25
1661.125	928.91667
1664.105	894.25
1667.082	857.58333
1670.057	801.58333
1673.03	774.58333
1676.001	744.91667
1678.97	697.91667
1681.937	665.58333
1684.901	633.25
1687.863	627.58333
1690.824	600.91667
1693.782	596.58333
1696.738	569.25
1699.692	563.58333
1702.643	542.58333
1705.593	549.25
1708.54	543.58333
1711.486	549.91667
1714.429	527.58333
1717.37	539.25
1720.309	524.58333
1723.246	530.25
1726.181	508.58333
1729.113	506.58333
1732.044	512.58333
1734.972	518.91667
1737.899	511.91667
1740.823	524.58333
1743.745	540.91667
1746.665	492.25
1749.583	492.91667
1752.499	481.91667
1755.413	479.58333
1758.325	461.58333
1761.235	470.58333
1764.142	466.91667
1767.048	460.58333
1769.951	467.25
1772.852	449.25
1775.752	463.25
1778.649	460.91667
1781.544	462.25
1784.437	440.91667
1787.328	455.25
1790.217	455.58333
1793.104	433.91667
1795.989	434.25
1798.872	424.58333
1801.753	435.91667
1804.631	427.25
1807.508	440.58333
1810.383	434.58333
1813.255	434.25
1816.126	423.25
1818.994	423.25
1821.861	421.58333
1824.725	424.91667
1827.587	418.58333
1830.448	424.91667
1833.306	400.91667
1836.162	427.91667
1839.017	407.25
1841.869	414.58333
1844.719	405.25
1847.567	399.91667
1850.414	386.58333
1853.258	391.58333
1856.1	410.25
1858.94	412.58333
1861.778	410.91667
1864.614	393.58333
1867.448	394.25
1870.28	385.91667
1873.111	417.25
1875.939	393.91667
1878.765	405.58333
1881.589	385.58333
1884.411	396.58333
1887.231	398.91667
1890.049	384.91667
1892.865	394.25
1895.68	381.91667
1898.492	384.91667
1901.302	384.58333
1904.11	372.91667
1906.916	377.91667
1909.721	373.25
1912.523	383.91667
1915.323	371.58333
1918.122	368.25
1920.918	382.58333
1923.712	365.58333
1926.505	379.58333
1929.295	346.25
1932.084	373.25
1934.87	373.25
1937.655	364.91667
1940.438	355.25
1943.218	365.25
1945.997	361.58333
1948.774	365.25
1951.549	370.25
1954.322	350.91667
1957.093	358.91667
1959.862	351.91667
1962.629	353.91667
1965.394	353.25
1968.157	344.58333
1970.918	362.25
1973.678	341.91667
1976.435	354.25
1979.19	333.58333
1981.944	340.58333
1984.696	335.58333
1987.445	333.91667
1990.193	338.91667
1992.939	348.58333
1995.683	341.91667
1998.425	321.25
2001.165	360.25
2003.903	327.91667
2006.639	334.58333
2009.374	334.25
2012.106	341.25
2014.837	318.25
2017.566	336.91667
2020.292	330.25
2023.017	323.91667
2025.74	319.91667
2028.461	319.58333
2031.18	325.25
2033.898	308.25
2036.613	325.58333
2039.327	325.58333
2042.038	306.25
2044.748	323.91667
2047.456	323.58333
2050.162	309.91667
2052.866	308.91667
2055.568	331.25
2058.268	309.58333
2060.967	320.25
2063.663	294.91667
2066.358	305.58333
2069.051	290.58333
2071.742	309.58333
2074.431	307.25
2077.118	303.91667
2079.804	293.25
2082.487	295.25
2085.169	316.91667
2087.849	329.25
2090.527	299.25
2093.203	292.58333
2095.877	303.25
2098.55	298.25
2101.22	311.91667
2103.889	314.58333
2106.556	309.58333
2109.221	327.58333
2111.884	313.91667
2114.546	339.58333
2117.205	350.25
2119.863	378.25
2122.519	377.58333
2125.173	396.91667
2127.825	431.25
2130.475	434.58333
2133.124	423.91667
2135.771	396.25
2138.416	413.58333
2141.059	371.91667
2143.7	373.91667
2146.339	343.91667
2148.977	323.58333
2151.613	331.58333
2154.247	334.91667
2156.879	310.58333
2159.51	302.25
2162.138	302.58333
2164.765	298.58333
2167.39	284.58333
2170.013	306.91667
2172.634	296.25
2175.254	288.58333
2177.872	319.91667
2180.488	275.91667
2183.102	285.58333
2185.714	275.25
2188.325	264.58333
2190.934	282.91667
2193.541	283.25
2196.146	277.58333
2198.75	264.91667
2201.351	253.91667
2203.951	248.58333
2206.549	271.25
2209.146	261.25
2211.74	249.91667
2214.333	264.58333
2216.924	245.25
2219.514	252.91667
2222.101	242.58333
2224.687	264.91667
2227.271	237.25
2229.853	247.58333
2232.433	230.91667
2235.012	254.25
2237.589	248.25
2240.164	258.91667
2242.738	237.25
2245.309	233.25
2247.879	253.91667
2250.448	250.91667
2253.014	227.58333
2255.579	231.25
2258.142	228.58333
2260.703	228.91667
2263.262	225.25
2265.82	221.25
2268.376	237.25
2270.93	230.58333
2273.483	220.91667
2276.033	233.58333
2278.583	224.25
2281.13	219.58333
2283.675	212.25
2286.219	219.91667
2288.761	229.91667
2291.302	227.25
2293.841	232.91667
2296.377	208.25
2298.913	222.58333
2301.446	231.58333
2303.978	219.25
2306.508	224.58333
2309.037	219.91667
2311.563	216.58333
2314.088	215.91667
2316.612	202.25
2319.133	218.58333
2321.653	213.91667
2324.171	201.58333
2326.688	220.25
2329.202	208.91667
2331.715	217.25
2334.227	213.25
2336.736	207.91667
2339.244	207.58333
2341.751	189.25
2344.255	210.58333
2346.758	207.25
2349.259	199.91667
2351.759	205.91667
2354.257	199.58333
2356.753	193.91667
2359.247	200.58333
2361.74	195.58333
2364.231	203.25
2366.721	208.25
2369.209	195.25
2371.695	200.58333
2374.179	189.91667
2376.662	180.25
2379.143	211.25
2381.622	198.91667
2384.1	199.58333
2386.576	192.25
2389.051	203.91667
2391.524	206.58333
2393.995	193.91667
2396.464	195.25
2398.932	186.58333
2401.398	189.91667
2403.863	182.91667
2406.325	185.91667
2408.787	192.91667
2411.246	187.58333
2413.704	185.25
2416.16	179.58333
2418.615	180.91667
2421.068	184.25
2423.519	180.58333
2425.969	178.25
2428.417	195.25
2430.863	204.91667
2433.308	186.91667
2435.751	185.91667
2438.193	190.91667
2440.633	188.91667
2443.071	187.25
2445.508	178.25
2447.943	177.91667
2450.376	175.91667
2452.808	183.58333
2455.238	179.58333
2457.667	208.91667
2460.093	174.91667
2462.519	167.25
2464.942	169.25
2467.365	177.58333
2469.785	184.58333
2472.204	173.25
2474.621	169.91667
2477.037	194.25
2479.451	164.25
2481.863	166.58333
2484.274	168.25
2486.683	174.25
2489.091	182.91667
2491.497	172.25
2493.901	173.58333
2496.304	167.58333
2498.705	178.58333
2501.105	175.25
2503.503	192.25
2505.899	160.58333
2508.294	185.58333
2510.687	170.58333
2513.079	171.25
2515.469	155.25
2517.858	164.58333
2520.245	180.58333
2522.63	169.58333
2525.014	159.25
2527.396	155.25
2529.776	158.91667
2532.156	170.25
2534.533	151.25
2536.909	152.91667
2539.283	144.58333
2541.656	161.25
2544.027	174.91667
2546.397	165.58333
2548.765	152.25
2551.131	163.25
2553.496	163.25
2555.86	165.91667
2558.221	168.25
2560.582	157.25
2562.94	150.25
2565.298	154.91667
2567.653	166.91667
2570.007	149.58333
2572.36	159.58333
2574.711	148.25
2577.06	167.25
2579.408	159.91667
2581.754	152.91667
2584.099	152.25
2586.442	155.58333
2588.784	160.58333
2591.124	150.58333
2593.463	155.91667
2595.8	158.58333
2598.135	141.91667
2600.469	148.25
2602.802	160.91667
2605.133	162.91667
2607.462	141.25
2609.79	136.91667
2612.116	156.25
2614.441	153.25
2616.764	154.91667
2619.086	152.58333
2621.406	145.58333
2623.725	162.91667
2626.042	144.58333
2628.358	137.91667
2630.672	148.91667
2632.985	157.25
2635.296	152.91667
2637.606	146.91667
2639.914	144.91667
2642.22	144.58333
2644.525	148.25
2646.829	149.91667
2649.131	161.25
2651.432	152.58333
2653.731	144.58333
2656.028	158.91667
2658.324	154.58333
2660.619	141.58333
2662.912	152.25
2665.204	144.25
2667.494	151.25
2669.782	132.58333
2672.07	156.58333
2674.355	155.58333
2676.639	148.91667
2678.922	141.91667
2681.203	151.91667
2683.483	135.25
2685.761	136.58333
2688.038	155.25
2690.313	162.25
2692.587	150.91667
2694.859	141.58333
2697.13	147.58333
2699.399	151.58333
2701.667	159.25
2703.933	155.91667
2706.198	156.25
2708.461	154.25
2710.723	152.58333
2712.984	153.58333
2715.243	161.91667
2717.5	149.58333
2719.757	157.58333
2722.011	153.91667
2724.264	150.25
2726.516	165.25
2728.766	146.91667
2731.015	145.25
2733.262	148.25
2735.508	149.91667
2737.753	153.91667
2739.996	137.25
2742.237	140.25
2744.477	156.58333
2746.716	158.58333
2748.953	155.91667
2751.189	156.91667
2753.423	154.91667
2755.656	143.91667
2757.887	140.25
2760.117	141.91667
2762.346	135.58333
2764.573	126.58333
2766.798	137.25
2769.022	139.91667
2771.245	136.58333
2773.467	135.25
2775.686	133.91667
2777.905	147.58333
2780.122	141.25
2782.337	144.58333
2784.552	139.91667
2786.764	142.91667
2788.976	139.91667
2791.186	143.25
2793.394	140.58333
2795.601	154.25
2797.807	152.25
2800.011	149.58333
2802.214	156.91667
2804.415	147.58333
2806.615	151.91667
2808.814	151.25
2811.011	158.58333
2813.206	156.91667
2815.401	166.91667
2817.594	165.58333
2819.785	168.58333
2821.975	149.58333
2824.164	152.58333
2826.351	157.58333
2828.537	173.58333
2830.722	171.58333
2832.905	168.58333
2835.086	173.58333
2837.267	190.91667
2839.445	192.25
2841.623	192.25
2843.799	194.58333
2845.974	207.91667
2848.147	201.91667
2850.319	222.91667
2852.489	222.91667
2854.659	228.91667
2856.826	228.91667
2858.993	247.91667
2861.158	220.58333
2863.321	231.25
2865.483	250.25
2867.644	239.25
2869.804	238.25
2871.962	232.91667
2874.118	235.91667
2876.274	239.91667
2878.428	243.91667
2880.58	239.91667
2882.731	225.91667
2884.881	238.58333
2887.03	242.91667
2889.177	233.91667
2891.322	242.91667
2893.467	235.58333
2895.61	235.91667
2897.751	251.58333
2899.892	240.91667
2902.03	249.91667
2904.168	240.58333
2906.304	248.25
2908.439	260.25
2910.572	234.91667
2912.704	246.58333
2914.835	252.58333
2916.965	252.58333
2919.093	270.25
2921.219	237.25
2923.345	264.58333
2925.469	249.58333
2927.591	242.25
2929.712	225.91667
2931.832	231.91667
2933.951	227.25
2936.068	224.58333
2938.184	214.91667
2940.299	216.91667
2942.412	209.25
2944.524	194.25
2946.634	202.91667
2948.744	179.91667
2950.851	211.58333
2952.958	175.91667
2955.063	188.58333
2957.167	181.25
2959.269	168.25
2961.371	193.91667
2963.471	165.25
2965.569	174.91667
2967.666	153.91667
2969.762	151.58333
2971.857	149.58333
2973.95	141.58333
2976.042	157.58333
2978.133	142.91667
2980.222	143.91667
2982.31	137.58333
2984.396	117.91667
2986.482	122.91667
2988.566	132.58333
2990.648	126.91667
2992.73	128.58333
2994.81	109.91667
2996.889	133.58333
2998.966	119.58333
3001.042	131.58333
3003.117	126.91667
3005.191	125.25
3007.263	130.25
3009.334	123.58333
3011.403	120.58333
3013.472	115.91667
3015.539	129.25
3017.604	131.91667
3019.669	107.25
3021.732	113.91667
3023.794	111.58333
3025.854	103.25
3027.914	102.91667
3029.971	104.58333
3032.028	108.91667
3034.083	118.91667
3036.137	107.58333
3038.19	103.58333
3040.242	92.58333
3042.292	93.58333
3044.341	100.58333
3046.388	116.25
3048.435	97.25
3050.48	112.25
3052.524	100.25
3054.566	89.58333
3056.607	97.58333
3058.647	93.25
3060.686	81.58333
3062.723	78.91667
3064.759	84.25
3066.794	0.25
3068.828	-0.08333
3070.86	4.25
