-0.839	158.70833
3.438	168.375
7.711	69.375
11.981	40.70833
16.247	29.375
20.509	37.70833
24.768	36.04167
29.024	45.375
33.276	30.04167
37.524	43.375
41.769	29.04167
46.01	26.70833
50.247	43.70833
54.481	52.70833
58.712	54.70833
62.939	34.70833
67.162	55.375
71.382	42.375
75.599	35.04167
79.812	45.04167
84.021	61.375
88.227	42.04167
92.429	49.375
96.628	35.04167
100.823	50.04167
105.015	51.70833
109.204	47.70833
113.388	59.70833
117.57	45.375
121.748	57.375
125.922	50.375
130.093	65.04167
134.261	65.04167
138.425	54.375
142.585	81.375
146.742	61.70833
150.896	83.375
155.046	77.375
159.193	115.70833
163.336	170.375
167.476	300.04167
171.613	541.375
175.746	868.04167
179.875	1270.70833
184.002	1658.375
188.124	1944.375
192.244	2026.70833
196.36	2029.04167
200.472	2011.375
204.581	1966.375
208.687	1915.04167
212.79	1902.04167
216.889	1930.70833
220.984	1950.70833
225.077	1959.375
229.165	1988.04167
233.251	1969.375
237.333	1980.04167
241.412	1933.70833
245.487	1944.70833
249.559	1913.70833
253.628	1893.375
257.694	1882.04167
261.756	1882.70833
265.814	1838.04167
269.87	1772.70833
273.922	1730.70833
277.97	1718.70833
282.016	1685.04167
286.058	1651.04167
290.097	1676.70833
294.132	1686.70833
298.164	1684.375
302.193	1629.04167
306.219	1542.375
310.241	1444.70833
314.26	1340.70833
318.276	1287.375
322.288	1244.04167
326.297	1192.375
330.303	1160.70833
334.305	1156.04167
338.305	1146.04167
342.301	1132.375
346.294	1138.04167
350.283	1119.04167
354.269	1108.70833
358.252	1109.375
362.232	1106.375
366.209	1124.04167
370.182	1100.70833
374.152	1093.375
378.119	1103.375
382.083	1085.70833
386.043	1111.70833
390	1093.04167
393.954	1123.04167
397.905	1107.375
401.852	1116.375
405.797	1096.70833
409.738	1101.375
413.676	1101.70833
417.61	1107.375
421.542	1098.70833
425.47	1083.375
429.396	1070.70833
433.318	1046.04167
437.236	1072.04167
441.152	1091.04167
445.065	1046.70833
448.974	1049.70833
452.88	1044.375
456.783	1042.70833
460.683	1045.04167
464.58	1052.70833
468.473	1051.04167
472.364	1045.70833
476.251	1038.04167
480.135	1055.70833
484.016	1061.375
487.894	1079.70833
491.769	1075.70833
495.641	1061.04167
499.509	1069.04167
503.375	1076.375
507.237	1058.04167
511.096	1056.70833
514.952	1073.04167
518.805	1058.70833
522.655	1075.04167
526.502	1068.375
530.346	1062.70833
534.187	1067.375
538.024	1042.375
541.859	1049.70833
545.69	1074.70833
549.519	1059.04167
553.344	1055.70833
557.166	1042.70833
560.985	1039.70833
564.802	1036.70833
568.615	1021.375
572.425	994.375
576.232	1005.04167
580.036	1001.70833
583.836	1009.375
587.634	1014.04167
591.429	1006.375
595.221	1042.04167
599.01	1037.04167
602.796	1023.375
606.578	1033.375
610.358	1049.375
614.135	1042.70833
617.909	1029.70833
621.679	1024.04167
625.447	1019.375
629.212	1022.70833
632.973	1024.375
636.732	1018.04167
640.488	1027.375
644.241	1010.04167
647.991	997.375
651.737	1036.04167
655.481	1010.04167
659.222	1006.375
662.96	1004.70833
666.695	1015.375
670.427	1023.70833
674.156	1011.375
677.882	1006.70833
681.605	1015.04167
685.325	1001.04167
689.043	1021.375
692.757	984.70833
696.468	1000.70833
700.177	986.04167
703.882	976.70833
707.585	985.375
711.284	983.70833
714.981	968.375
718.675	969.04167
722.366	972.70833
726.054	965.375
729.739	958.04167
733.421	963.04167
737.1	960.375
740.777	985.375
744.45	974.70833
748.121	962.04167
751.789	999.70833
755.453	989.375
759.115	992.70833
762.774	1000.375
766.431	995.70833
770.084	1003.04167
773.734	1003.70833
777.382	1026.70833
781.027	1035.70833
784.669	1020.04167
788.308	1025.04167
791.944	1038.375
795.577	1032.04167
799.208	1047.375
802.835	1039.70833
806.46	1048.375
810.082	1052.375
813.701	1061.70833
817.317	1075.04167
820.931	1077.375
824.542	1072.375
828.149	1038.04167
831.754	1007.70833
835.357	1015.04167
838.956	1052.375
842.553	1025.375
846.146	1036.70833
849.737	987.04167
853.326	1016.70833
856.911	984.70833
860.493	1011.70833
864.073	1019.70833
867.65	1036.04167
871.225	1053.375
874.796	1020.04167
878.365	1017.04167
881.931	1021.375
885.494	1062.04167
889.054	1036.375
892.612	1043.375
896.166	1019.04167
899.719	1003.04167
903.268	994.375
906.814	989.70833
910.358	993.04167
913.899	986.04167
917.438	976.70833
920.973	967.375
924.506	985.70833
928.036	1011.70833
931.564	1020.375
935.088	1038.70833
938.61	1014.04167
942.129	1017.04167
945.646	1028.70833
949.16	1039.70833
952.671	1048.04167
956.179	1082.70833
959.685	1069.04167
963.188	1091.70833
966.688	1068.04167
970.185	1030.375
973.68	993.04167
977.173	994.70833
980.662	974.70833
984.149	992.70833
987.633	960.70833
991.114	985.375
994.593	995.70833
998.069	1017.375
1001.542	1032.375
1005.013	1027.375
1008.481	951.04167
1011.947	950.70833
1015.409	946.70833
1018.869	948.04167
1022.327	966.04167
1025.782	939.70833
1029.234	934.70833
1032.683	925.04167
1036.13	905.375
1039.574	878.375
1043.016	852.70833
1046.455	841.70833
1049.891	829.04167
1053.325	840.04167
1056.756	833.70833
1060.184	843.04167
1063.61	825.375
1067.033	847.04167
1070.454	839.04167
1073.872	856.70833
1077.287	828.375
1080.7	850.04167
1084.11	837.375
1087.517	836.70833
1090.922	830.04167
1094.325	812.70833
1097.724	812.04167
1101.122	820.375
1104.516	815.375
1107.908	792.375
1111.298	818.375
1114.684	829.70833
1118.069	816.70833
1121.45	829.04167
1124.83	831.04167
1128.206	841.70833
1131.58	832.70833
1134.951	852.375
1138.32	872.375
1141.687	898.375
1145.05	915.04167
1148.412	919.375
1151.77	922.04167
1155.126	910.04167
1158.48	904.375
1161.831	914.04167
1165.18	911.70833
1168.525	936.04167
1171.869	935.04167
1175.21	938.375
1178.548	947.375
1181.884	955.70833
1185.217	959.70833
1188.548	980.375
1191.877	995.04167
1195.202	1035.04167
1198.526	1060.70833
1201.846	1058.375
1205.165	1049.70833
1208.48	1061.04167
1211.794	1066.70833
1215.104	1062.70833
1218.413	1040.375
1221.719	1052.375
1225.022	1030.04167
1228.323	1000.70833
1231.621	1017.04167
1234.917	1001.70833
1238.21	1027.70833
1241.501	1009.70833
1244.79	992.04167
1248.076	993.04167
1251.359	1014.04167
1254.64	1055.375
1257.919	1012.375
1261.195	1034.04167
1264.468	1048.04167
1267.74	1063.375
1271.008	1056.70833
1274.275	1054.70833
1277.538	1053.04167
1280.8	1048.70833
1284.059	1044.04167
1287.315	1054.04167
1290.569	1053.04167
1293.821	1053.375
1297.07	1068.375
1300.317	1071.375
1303.562	1080.375
1306.803	1072.04167
1310.043	1070.04167
1313.28	1062.70833
1316.515	1037.04167
1319.747	1052.70833
1322.977	1042.70833
1326.204	1032.04167
1329.429	1026.04167
1332.652	1021.375
1335.872	1022.04167
1339.09	1011.70833
1342.306	1004.375
1345.519	1005.375
1348.729	1002.70833
1351.938	996.70833
1355.144	983.70833
1358.347	969.375
1361.548	978.04167
1364.747	984.70833
1367.944	959.04167
1371.138	955.70833
1374.329	961.04167
1377.518	957.04167
1380.705	971.70833
1383.89	966.04167
1387.072	932.04167
1390.252	912.375
1393.429	891.375
1396.605	865.375
1399.777	815.375
1402.948	815.04167
1406.116	805.04167
1409.282	814.70833
1412.445	813.70833
1415.606	817.70833
1418.765	819.70833
1421.921	838.70833
1425.075	842.70833
1428.227	873.70833
1431.376	898.70833
1434.524	941.375
1437.668	959.375
1440.811	961.375
1443.951	965.70833
1447.089	983.04167
1450.224	977.70833
1453.357	962.70833
1456.488	966.375
1459.617	949.375
1462.743	946.04167
1465.867	916.375
1468.989	912.04167
1472.108	889.04167
1475.225	887.375
1478.34	869.04167
1481.453	865.70833
1484.563	861.04167
1487.671	880.04167
1490.776	893.70833
1493.88	886.70833
1496.981	905.04167
1500.08	910.70833
1503.176	916.70833
1506.271	927.375
1509.363	932.70833
1512.452	931.375
1515.54	950.04167
1518.625	959.04167
1521.708	996.375
1524.789	1010.70833
1527.867	1038.375
1530.944	1091.04167
1534.018	1130.70833
1537.089	1168.04167
1540.159	1174.375
1543.226	1187.375
1546.291	1150.375
1549.354	1134.375
1552.415	1118.70833
1555.473	1077.375
1558.529	1076.70833
1561.583	1058.375
1564.634	1041.04167
1567.684	1045.70833
1570.731	1070.375
1573.776	1083.375
1576.819	1088.375
1579.859	1086.04167
1582.898	1116.375
1585.934	1125.375
1588.968	1128.70833
1591.999	1117.375
1595.029	1105.04167
1598.056	1117.04167
1601.081	1128.04167
1604.104	1131.04167
1607.125	1107.375
1610.144	1102.04167
1613.16	1058.375
1616.174	1050.70833
1619.186	1036.04167
1622.196	1022.04167
1625.203	977.70833
1628.209	978.375
1631.212	972.04167
1634.213	985.04167
1637.212	1004.375
1640.209	1005.375
1643.203	965.70833
1646.196	940.375
1649.186	888.375
1652.174	886.04167
1655.16	840.04167
1658.144	846.70833
1661.125	775.70833
1664.105	760.375
1667.082	728.04167
1670.057	691.70833
1673.03	644.04167
1676.001	620.04167
1678.97	580.375
1681.937	553.70833
1684.901	527.70833
1687.863	517.04167
1690.824	482.04167
1693.782	490.375
1696.738	456.70833
1699.692	465.70833
1702.643	441.375
1705.593	460.70833
1708.54	435.04167
1711.486	450.04167
1714.429	415.375
1717.37	441.375
1720.309	419.04167
1723.246	432.04167
1726.181	418.70833
1729.113	407.375
1732.044	423.70833
1734.972	405.04167
1737.899	421.375
1740.823	417.04167
1743.745	443.375
1746.665	392.04167
1749.583	389.375
1752.499	385.375
1755.413	384.04167
1758.325	368.04167
1761.235	382.375
1764.142	363.70833
1767.048	362.375
1769.951	363.70833
1772.852	366.04167
1775.752	367.375
1778.649	373.70833
1781.544	377.70833
1784.437	359.04167
1787.328	356.375
1790.217	352.375
1793.104	338.70833
1795.989	340.70833
1798.872	337.375
1801.753	355.375
1804.631	343.375
1807.508	353.375
1810.383	341.70833
1813.255	341.04167
1816.126	338.04167
1818.994	335.375
1821.861	332.04167
1824.725	347.04167
1827.587	331.375
1830.448	331.375
1833.306	320.375
1836.162	341.375
1839.017	329.70833
1841.869	328.70833
1844.719	329.375
1847.567	313.375
1850.414	307.70833
1853.258	310.70833
1856.1	327.375
1858.94	334.04167
1861.778	325.70833
1864.614	312.70833
1867.448	317.04167
1870.28	307.375
1873.111	332.04167
1875.939	318.04167
1878.765	331.375
1881.589	308.375
1884.411	318.70833
1887.231	319.375
1890.049	308.70833
1892.865	327.375
1895.68	304.70833
1898.492	314.375
1901.302	312.04167
1904.11	308.70833
1906.916	302.70833
1909.721	296.375
1912.523	311.04167
1915.323	292.375
1918.122	294.04167
1920.918	302.04167
1923.712	288.70833
1926.505	300.04167
1929.295	283.70833
1932.084	300.70833
1934.87	301.70833
1937.655	285.70833
1940.438	283.375
1943.218	291.04167
1945.997	290.04167
1948.774	297.04167
1951.549	302.70833
1954.322	288.375
1957.093	295.375
1959.862	285.375
1962.629	284.04167
1965.394	283.04167
1968.157	277.70833
1970.918	287.375
1973.678	276.375
1976.435	288.70833
1979.19	279.04167
1981.944	265.70833
1984.696	275.70833
1987.445	270.70833
1990.193	278.375
1992.939	283.04167
1995.683	275.70833
1998.425	259.70833
2001.165	292.70833
2003.903	261.04167
2006.639	265.04167
2009.374	274.70833
2012.106	267.375
2014.837	248.375
2017.566	271.04167
2020.292	266.70833
2023.017	264.70833
2025.74	258.375
2028.461	256.04167
2031.18	265.70833
2033.898	250.70833
2036.613	259.375
2039.327	260.04167
2042.038	249.70833
2044.748	255.375
2047.456	262.375
2050.162	254.70833
2052.866	262.375
2055.568	265.375
2058.268	256.04167
2060.967	262.70833
2063.663	234.70833
2066.358	249.04167
2069.051	242.04167
2071.742	251.375
2074.431	258.70833
2077.118	246.04167
2079.804	235.04167
2082.487	237.70833
2085.169	252.375
2087.849	268.375
2090.527	239.04167
2093.203	253.04167
2095.877	246.04167
2098.55	248.375
2101.22	257.04167
2103.889	260.375
2106.556	246.375
2109.221	260.04167
2111.884	249.70833
2114.546	276.04167
2117.205	278.04167
2119.863	310.04167
2122.519	296.375
2125.173	318.04167
2127.825	355.04167
2130.475	350.70833
2133.124	342.375
2135.771	321.70833
2138.416	334.70833
2141.059	293.375
2143.7	300.04167
2146.339	280.375
2148.977	255.70833
2151.613	274.04167
2154.247	263.70833
2156.879	257.375
2159.51	238.04167
2162.138	244.04167
2164.765	250.375
2167.39	232.70833
2170.013	255.375
2172.634	245.70833
2175.254	232.375
2177.872	267.70833
2180.488	229.70833
2183.102	228.375
2185.714	228.04167
2188.325	220.04167
2190.934	226.375
2193.541	237.04167
2196.146	221.04167
2198.75	213.70833
2201.351	215.04167
2203.951	204.375
2206.549	231.375
2209.146	214.375
2211.74	208.70833
2214.333	220.04167
2216.924	203.04167
2219.514	210.04167
2222.101	206.04167
2224.687	224.04167
2227.271	204.04167
2229.853	202.04167
2232.433	195.70833
2235.012	216.70833
2237.589	208.375
2240.164	216.375
2242.738	202.04167
2245.309	194.70833
2247.879	220.70833
2250.448	211.70833
2253.014	191.70833
2255.579	188.04167
2258.142	194.04167
2260.703	195.70833
2263.262	190.04167
2265.82	184.375
2268.376	204.70833
2270.93	182.70833
2273.483	183.04167
2276.033	194.70833
2278.583	184.04167
2281.13	185.375
2283.675	177.375
2286.219	186.04167
2288.761	195.04167
2291.302	190.375
2293.841	201.375
2296.377	176.04167
2298.913	190.70833
2301.446	198.375
2303.978	182.375
2306.508	186.375
2309.037	186.04167
2311.563	178.375
2314.088	188.70833
2316.612	169.375
2319.133	187.375
2321.653	178.70833
2324.171	176.04167
2326.688	187.04167
2329.202	174.375
2331.715	182.70833
2334.227	179.04167
2336.736	185.375
2339.244	175.70833
2341.751	166.70833
2344.255	179.04167
2346.758	177.375
2349.259	170.04167
2351.759	171.70833
2354.257	167.70833
2356.753	160.70833
2359.247	164.375
2361.74	173.375
2364.231	171.04167
2366.721	179.04167
2369.209	165.04167
2371.695	168.04167
2374.179	163.04167
2376.662	159.375
2379.143	174.70833
2381.622	166.70833
2384.1	171.70833
2386.576	157.375
2389.051	175.70833
2391.524	171.70833
2393.995	172.04167
2396.464	167.70833
2398.932	158.70833
2401.398	166.375
2403.863	159.04167
2406.325	156.70833
2408.787	162.375
2411.246	163.375
2413.704	159.375
2416.16	157.375
2418.615	161.04167
2421.068	164.04167
2423.519	156.375
2425.969	150.375
2428.417	172.04167
2430.863	179.04167
2433.308	164.70833
2435.751	161.375
2438.193	154.70833
2440.633	163.04167
2443.071	163.70833
2445.508	145.70833
2447.943	158.70833
2450.376	153.04167
2452.808	164.04167
2455.238	145.70833
2457.667	180.04167
2460.093	148.70833
2462.519	143.70833
2464.942	146.04167
2467.365	162.70833
2469.785	160.04167
2472.204	150.70833
2474.621	147.70833
2477.037	166.04167
2479.451	143.04167
2481.863	144.375
2484.274	142.375
2486.683	148.04167
2489.091	164.04167
2491.497	160.70833
2493.901	153.04167
2496.304	150.70833
2498.705	158.375
2501.105	148.04167
2503.503	168.375
2505.899	144.70833
2508.294	161.70833
2510.687	145.375
2513.079	146.375
2515.469	142.375
2517.858	139.04167
2520.245	158.375
2522.63	148.04167
2525.014	144.04167
2527.396	138.375
2529.776	139.375
2532.156	153.375
2534.533	138.375
2536.909	135.04167
2539.283	127.375
2541.656	141.375
2544.027	156.375
2546.397	143.70833
2548.765	136.04167
2551.131	144.375
2553.496	149.70833
2555.86	141.70833
2558.221	146.375
2560.582	137.375
2562.94	132.375
2565.298	137.04167
2567.653	148.375
2570.007	131.04167
2572.36	146.04167
2574.711	133.04167
2577.06	149.70833
2579.408	135.70833
2581.754	135.70833
2584.099	139.375
2586.442	133.375
2588.784	145.70833
2591.124	134.70833
2593.463	133.04167
2595.8	138.04167
2598.135	124.375
2600.469	123.70833
2602.802	146.375
2605.133	143.70833
2607.462	127.70833
2609.79	122.375
2612.116	140.04167
2614.441	136.375
2616.764	134.70833
2619.086	132.70833
2621.406	126.70833
2623.725	142.375
2626.042	132.375
2628.358	130.70833
2630.672	136.70833
2632.985	142.04167
2635.296	135.375
2637.606	132.04167
2639.914	133.04167
2642.22	131.04167
2644.525	132.70833
2646.829	132.04167
2649.131	147.04167
2651.432	141.04167
2653.731	131.04167
2656.028	143.375
2658.324	138.70833
2660.619	129.375
2662.912	141.375
2665.204	122.70833
2667.494	132.375
2669.782	126.70833
2672.07	141.375
2674.355	144.70833
2676.639	138.375
2678.922	124.04167
2681.203	139.375
2683.483	131.04167
2685.761	123.04167
2688.038	135.70833
2690.313	147.375
2692.587	132.70833
2694.859	129.375
2697.13	130.70833
2699.399	137.375
2701.667	141.04167
2703.933	137.375
2706.198	150.375
2708.461	142.375
2710.723	144.04167
2712.984	141.375
2715.243	144.04167
2717.5	142.70833
2719.757	142.375
2722.011	136.375
2724.264	146.375
2726.516	152.375
2728.766	135.04167
2731.015	143.70833
2733.262	139.04167
2735.508	138.04167
2737.753	140.04167
2739.996	123.70833
2742.237	127.375
2744.477	144.04167
2746.716	151.70833
2748.953	150.70833
2751.189	143.04167
2753.423	144.70833
2755.656	132.04167
2757.887	128.70833
2760.117	130.375
2762.346	130.375
2764.573	117.04167
2766.798	130.375
2769.022	128.375
2771.245	126.70833
2773.467	131.70833
2775.686	129.70833
2777.905	136.70833
2780.122	129.375
2782.337	138.70833
2784.552	129.375
2786.764	132.375
2788.976	125.375
2791.186	131.375
2793.394	133.04167
2795.601	137.70833
2797.807	146.70833
2800.011	139.375
2802.214	145.04167
2804.415	138.04167
2806.615	138.04167
2808.814	142.70833
2811.011	147.04167
2813.206	146.04167
2815.401	153.375
2817.594	151.70833
2819.785	156.70833
2821.975	144.04167
2824.164	147.70833
2826.351	147.70833
2828.537	165.375
2830.722	159.04167
2832.905	155.70833
2835.086	161.375
2837.267	184.70833
2839.445	177.04167
2841.623	181.04167
2843.799	181.04167
2845.974	184.375
2848.147	190.70833
2850.319	203.70833
2852.489	218.70833
2854.659	210.04167
2856.826	215.04167
2858.993	235.375
2861.158	211.70833
2863.321	218.04167
2865.483	243.04167
2867.644	232.70833
2869.804	232.70833
2871.962	226.70833
2874.118	231.70833
2876.274	234.04167
2878.428	227.04167
2880.58	236.375
2882.731	217.04167
2884.881	228.04167
2887.03	229.375
2889.177	221.04167
2891.322	233.70833
2893.467	226.70833
2895.61	221.04167
2897.751	240.04167
2899.892	227.375
2902.03	234.04167
2904.168	230.70833
2906.304	234.375
2908.439	252.04167
2910.572	226.375
2912.704	240.04167
2914.835	241.375
2916.965	240.70833
2919.093	250.04167
2921.219	225.70833
2923.345	260.70833
2925.469	235.70833
2927.591	230.375
2929.712	217.04167
2931.832	237.04167
2933.951	229.70833
2936.068	219.375
2938.184	220.04167
2940.299	210.04167
2942.412	207.70833
2944.524	185.70833
2946.634	201.375
2948.744	171.375
2950.851	210.70833
2952.958	175.04167
2955.063	183.04167
2957.167	173.375
2959.269	165.375
2961.371	192.04167
2963.471	156.375
2965.569	176.70833
2967.666	153.375
2969.762	155.70833
2971.857	152.04167
2973.95	144.70833
2976.042	149.70833
2978.133	137.70833
2980.222	143.375
2982.31	132.70833
2984.396	118.70833
2986.482	121.04167
2988.566	135.375
2990.648	131.70833
2992.73	127.04167
2994.81	113.04167
2996.889	128.70833
2998.966	123.04167
3001.042	132.70833
3003.117	121.375
3005.191	127.04167
3007.263	130.70833
3009.334	121.04167
3011.403	122.375
3013.472	118.70833
3015.539	130.70833
3017.604	138.04167
3019.669	109.04167
3021.732	117.04167
3023.794	113.70833
3025.854	110.375
3027.914	105.70833
3029.971	104.04167
3032.028	113.70833
3034.083	122.375
3036.137	110.375
3038.19	103.04167
3040.242	94.04167
3042.292	96.04167
3044.341	100.70833
3046.388	117.70833
3048.435	98.375
3050.48	112.375
3052.524	99.04167
3054.566	87.70833
3056.607	99.375
3058.647	94.70833
3060.686	86.375
3062.723	81.375
3064.759	84.70833
3066.794	0.375
3068.828	2.375
3070.86	2.375
