-0.839	138.58333
3.438	154.91667
7.711	63.91667
11.981	45.25
16.247	33.91667
20.509	40.25
24.768	36.25
29.024	43.91667
33.276	29.58333
37.524	42.25
41.769	31.58333
46.01	25.58333
50.247	42.58333
54.481	52.91667
58.712	52.91667
62.939	36.58333
67.162	55.91667
71.382	47.91667
75.599	38.58333
79.812	47.91667
84.021	64.91667
88.227	43.25
92.429	51.91667
96.628	40.58333
100.823	50.25
105.015	50.91667
109.204	48.58333
113.388	58.25
117.57	48.25
121.748	61.91667
125.922	50.25
130.093	65.91667
134.261	66.91667
138.425	56.58333
142.585	86.58333
146.742	66.58333
150.896	80.25
155.046	82.91667
159.193	123.58333
163.336	179.58333
167.476	308.58333
171.613	553.58333
175.746	891.91667
179.875	1305.25
184.002	1710.91667
188.124	2021.25
192.244	2142.91667
196.36	2151.25
200.472	2125.25
204.581	2116.58333
208.687	2068.58333
212.79	2080.25
216.889	2091.91667
220.984	2119.58333
225.077	2147.25
229.165	2165.58333
233.251	2192.25
237.333	2185.58333
241.412	2186.25
245.487	2158.58333
249.559	2142.58333
253.628	2142.91667
257.694	2109.91667
261.756	2136.25
265.814	2070.58333
269.87	2013.25
273.922	1966.58333
277.97	1939.91667
282.016	1917.58333
286.058	1896.25
290.097	1928.25
294.132	1954.91667
298.164	1950.25
302.193	1860.25
306.219	1758.25
310.241	1678.25
314.26	1545.58333
318.276	1476.58333
322.288	1435.58333
326.297	1382.91667
330.303	1356.91667
334.305	1339.91667
338.305	1301.25
342.301	1310.58333
346.294	1300.91667
350.283	1288.91667
354.269	1292.91667
358.252	1294.58333
362.232	1301.58333
366.209	1289.25
370.182	1272.91667
374.152	1278.58333
378.119	1267.25
382.083	1268.58333
386.043	1283.25
390	1280.25
393.954	1287.58333
397.905	1287.58333
401.852	1309.25
405.797	1277.25
409.738	1263.58333
413.676	1305.25
417.61	1308.25
421.542	1282.58333
425.47	1257.25
429.396	1262.25
433.318	1239.91667
437.236	1253.58333
441.152	1282.58333
445.065	1234.58333
448.974	1225.25
452.88	1218.25
456.783	1227.25
460.683	1206.91667
464.58	1230.58333
468.473	1235.91667
472.364	1240.25
476.251	1238.91667
480.135	1239.91667
484.016	1254.91667
487.894	1254.91667
491.769	1264.58333
495.641	1233.91667
499.509	1264.58333
503.375	1256.58333
507.237	1261.58333
511.096	1241.58333
514.952	1264.58333
518.805	1258.25
522.655	1252.91667
526.502	1254.25
530.346	1255.58333
534.187	1248.58333
538.024	1245.91667
541.859	1232.58333
545.69	1265.25
549.519	1248.25
553.344	1237.91667
557.166	1225.91667
560.985	1219.25
564.802	1218.25
568.615	1209.58333
572.425	1184.91667
576.232	1185.91667
580.036	1178.91667
583.836	1184.91667
587.634	1203.58333
591.429	1174.58333
595.221	1217.91667
599.01	1211.25
602.796	1214.25
606.578	1223.91667
610.358	1223.25
614.135	1216.58333
617.909	1217.91667
621.679	1195.25
625.447	1189.91667
629.212	1214.58333
632.973	1212.25
636.732	1190.25
640.488	1195.25
644.241	1189.91667
647.991	1185.25
651.737	1205.91667
655.481	1158.91667
659.222	1182.25
662.96	1177.25
666.695	1194.25
670.427	1186.91667
674.156	1198.25
677.882	1201.25
681.605	1196.91667
685.325	1176.58333
689.043	1191.58333
692.757	1165.25
696.468	1181.25
700.177	1155.91667
703.882	1147.25
707.585	1151.91667
711.284	1141.91667
714.981	1128.25
718.675	1136.58333
722.366	1151.91667
726.054	1132.91667
729.739	1132.91667
733.421	1142.58333
737.1	1138.91667
740.777	1159.25
744.45	1149.25
748.121	1146.58333
751.789	1173.91667
755.453	1151.25
759.115	1175.58333
762.774	1178.58333
766.431	1163.58333
770.084	1174.58333
773.734	1181.25
777.382	1193.58333
781.027	1182.58333
784.669	1183.58333
788.308	1181.25
791.944	1207.91667
795.577	1212.25
799.208	1211.58333
802.835	1211.91667
806.46	1234.25
810.082	1236.25
813.701	1222.25
817.317	1240.25
820.931	1244.25
824.542	1237.25
828.149	1218.91667
831.754	1195.58333
835.357	1198.91667
838.956	1213.25
842.553	1204.58333
846.146	1176.58333
849.737	1161.58333
853.326	1166.25
856.911	1145.25
860.493	1178.91667
864.073	1180.91667
867.65	1197.25
871.225	1207.25
874.796	1197.91667
878.365	1184.91667
881.931	1206.91667
885.494	1211.91667
889.054	1203.58333
892.612	1192.25
896.166	1183.58333
899.719	1167.25
903.268	1144.25
906.814	1145.58333
910.358	1139.91667
913.899	1130.58333
917.438	1129.58333
920.973	1114.58333
924.506	1128.58333
928.036	1158.58333
931.564	1192.91667
935.088	1203.58333
938.61	1171.58333
942.129	1172.91667
945.646	1196.25
949.16	1208.91667
952.671	1209.91667
956.179	1241.25
959.685	1230.25
963.188	1249.25
966.688	1246.91667
970.185	1184.91667
973.68	1166.25
977.173	1153.91667
980.662	1132.91667
984.149	1153.91667
987.633	1118.91667
991.114	1145.91667
994.593	1153.58333
998.069	1171.58333
1001.542	1206.25
1005.013	1179.25
1008.481	1133.25
1011.947	1110.58333
1015.409	1101.25
1018.869	1109.58333
1022.327	1108.58333
1025.782	1102.58333
1029.234	1081.58333
1032.683	1078.25
1036.13	1054.58333
1039.574	1005.91667
1043.016	988.58333
1046.455	981.58333
1049.891	974.25
1053.325	985.25
1056.756	976.91667
1060.184	974.91667
1063.61	977.25
1067.033	986.25
1070.454	976.25
1073.872	993.91667
1077.287	973.91667
1080.7	972.25
1084.11	978.25
1087.517	955.91667
1090.922	954.91667
1094.325	951.25
1097.724	941.91667
1101.122	946.25
1104.516	938.58333
1107.908	937.91667
1111.298	925.58333
1114.684	936.91667
1118.069	949.25
1121.45	971.25
1124.83	950.58333
1128.206	967.91667
1131.58	975.58333
1134.951	999.25
1138.32	1000.58333
1141.687	1044.91667
1145.05	1059.58333
1148.412	1053.91667
1151.77	1050.91667
1155.126	1058.25
1158.48	1043.91667
1161.831	1048.58333
1165.18	1048.58333
1168.525	1064.25
1171.869	1068.91667
1175.21	1072.91667
1178.548	1091.58333
1181.884	1083.91667
1185.217	1095.91667
1188.548	1135.25
1191.877	1132.91667
1195.202	1187.25
1198.526	1204.25
1201.846	1203.58333
1205.165	1203.25
1208.48	1192.25
1211.794	1196.91667
1215.104	1205.58333
1218.413	1175.91667
1221.719	1190.25
1225.022	1155.58333
1228.323	1159.25
1231.621	1151.25
1234.917	1149.25
1238.21	1168.91667
1241.501	1136.25
1244.79	1135.58333
1248.076	1117.58333
1251.359	1141.58333
1254.64	1183.25
1257.919	1165.91667
1261.195	1181.25
1264.468	1182.58333
1267.74	1206.91667
1271.008	1192.58333
1274.275	1200.91667
1277.538	1193.58333
1280.8	1196.91667
1284.059	1186.91667
1287.315	1219.25
1290.569	1208.91667
1293.821	1209.91667
1297.07	1208.58333
1300.317	1213.25
1303.562	1210.25
1306.803	1207.58333
1310.043	1191.58333
1313.28	1185.91667
1316.515	1186.25
1319.747	1202.91667
1322.977	1171.58333
1326.204	1163.58333
1329.429	1148.91667
1332.652	1152.91667
1335.872	1145.25
1339.09	1132.25
1342.306	1141.25
1345.519	1134.58333
1348.729	1131.58333
1351.938	1133.58333
1355.144	1105.58333
1358.347	1095.25
1361.548	1109.91667
1364.747	1090.25
1367.944	1077.58333
1371.138	1082.91667
1374.329	1081.25
1377.518	1067.58333
1380.705	1080.58333
1383.89	1074.25
1387.072	1057.25
1390.252	1021.25
1393.429	995.25
1396.605	965.58333
1399.777	934.58333
1402.948	940.25
1406.116	934.58333
1409.282	919.25
1412.445	919.25
1415.606	922.58333
1418.765	922.58333
1421.921	952.25
1425.075	937.91667
1428.227	986.58333
1431.376	1016.58333
1434.524	1046.58333
1437.668	1065.91667
1440.811	1082.91667
1443.951	1085.58333
1447.089	1106.58333
1450.224	1086.25
1453.357	1082.58333
1456.488	1079.58333
1459.617	1069.91667
1462.743	1050.58333
1465.867	1027.58333
1468.989	1025.91667
1472.108	1011.91667
1475.225	986.58333
1478.34	970.58333
1481.453	969.91667
1484.563	968.91667
1487.671	985.58333
1490.776	1002.91667
1493.88	996.25
1496.981	1016.58333
1500.08	1024.91667
1503.176	1027.91667
1506.271	1032.58333
1509.363	1054.58333
1512.452	1056.91667
1515.54	1068.25
1518.625	1073.25
1521.708	1108.58333
1524.789	1129.25
1527.867	1175.58333
1530.944	1209.25
1534.018	1247.91667
1537.089	1309.58333
1540.159	1318.58333
1543.226	1323.25
1546.291	1282.58333
1549.354	1275.58333
1552.415	1248.58333
1555.473	1222.58333
1558.529	1202.58333
1561.583	1185.91667
1564.634	1171.91667
1567.684	1176.58333
1570.731	1180.58333
1573.776	1201.25
1576.819	1209.58333
1579.859	1201.25
1582.898	1233.25
1585.934	1234.25
1588.968	1239.25
1591.999	1215.58333
1595.029	1228.91667
1598.056	1228.91667
1601.081	1250.91667
1604.104	1244.91667
1607.125	1229.25
1610.144	1219.91667
1613.16	1175.91667
1616.174	1145.25
1619.186	1127.91667
1622.196	1115.91667
1625.203	1080.58333
1628.209	1096.91667
1631.212	1086.58333
1634.213	1079.91667
1637.212	1094.91667
1640.209	1097.91667
1643.203	1057.25
1646.196	1014.58333
1649.186	990.58333
1652.174	960.91667
1655.16	920.58333
1658.144	925.91667
1661.125	865.58333
1664.105	836.58333
1667.082	816.25
1670.057	773.25
1673.03	729.58333
1676.001	698.25
1678.97	642.58333
1681.937	631.25
1684.901	584.25
1687.863	592.58333
1690.824	548.25
1693.782	563.58333
1696.738	530.25
1699.692	521.25
1702.643	513.25
1705.593	501.91667
1708.54	499.91667
1711.486	516.91667
1714.429	493.25
1717.37	491.91667
1720.309	481.58333
1723.246	495.25
1726.181	469.25
1729.113	480.91667
1732.044	473.25
1734.972	466.58333
1737.899	482.91667
1740.823	478.25
1743.745	493.91667
1746.665	460.25
1749.583	451.58333
1752.499	447.25
1755.413	432.25
1758.325	427.25
1761.235	434.25
1764.142	418.58333
1767.048	421.25
1769.951	426.91667
1772.852	423.58333
1775.752	433.91667
1778.649	425.91667
1781.544	441.91667
1784.437	406.91667
1787.328	421.91667
1790.217	409.91667
1793.104	393.25
1795.989	398.58333
1798.872	391.91667
1801.753	404.91667
1804.631	404.91667
1807.508	404.25
1810.383	404.58333
1813.255	397.91667
1816.126	400.25
1818.994	395.58333
1821.861	391.58333
1824.725	396.58333
1827.587	392.25
1830.448	388.25
1833.306	378.25
1836.162	385.91667
1839.017	379.25
1841.869	387.58333
1844.719	374.58333
1847.567	357.91667
1850.414	363.58333
1853.258	361.91667
1856.1	374.58333
1858.94	386.91667
1861.778	375.25
1864.614	358.91667
1867.448	364.25
1870.28	352.25
1873.111	374.25
1875.939	362.58333
1878.765	378.91667
1881.589	358.91667
1884.411	365.58333
1887.231	366.25
1890.049	358.58333
1892.865	376.91667
1895.68	358.58333
1898.492	364.25
1901.302	350.25
1904.11	360.58333
1906.916	350.58333
1909.721	346.25
1912.523	364.91667
1915.323	340.25
1918.122	339.25
1920.918	353.58333
1923.712	338.91667
1926.505	343.58333
1929.295	330.25
1932.084	357.58333
1934.87	352.25
1937.655	335.58333
1940.438	328.25
1943.218	337.25
1945.997	339.58333
1948.774	335.91667
1951.549	345.91667
1954.322	331.25
1957.093	333.91667
1959.862	325.58333
1962.629	330.58333
1965.394	327.91667
1968.157	317.58333
1970.918	338.58333
1973.678	322.58333
1976.435	332.58333
1979.19	318.58333
1981.944	307.58333
1984.696	312.25
1987.445	310.91667
1990.193	314.91667
1992.939	326.58333
1995.683	322.25
1998.425	294.58333
2001.165	336.91667
2003.903	296.91667
2006.639	309.58333
2009.374	315.91667
2012.106	312.25
2014.837	288.91667
2017.566	318.91667
2020.292	309.58333
2023.017	302.25
2025.74	298.91667
2028.461	287.58333
2031.18	312.91667
2033.898	285.91667
2036.613	294.58333
2039.327	306.58333
2042.038	296.91667
2044.748	295.25
2047.456	296.25
2050.162	286.25
2052.866	295.25
2055.568	301.58333
2058.268	287.58333
2060.967	295.58333
2063.663	274.91667
2066.358	285.25
2069.051	280.25
2071.742	283.58333
2074.431	294.25
2077.118	285.25
2079.804	278.58333
2082.487	285.25
2085.169	299.25
2087.849	303.25
2090.527	280.91667
2093.203	283.25
2095.877	278.91667
2098.55	290.25
2101.22	290.25
2103.889	295.58333
2106.556	283.25
2109.221	298.91667
2111.884	289.25
2114.546	312.91667
2117.205	313.58333
2119.863	348.91667
2122.519	342.58333
2125.173	357.25
2127.825	386.25
2130.475	389.91667
2133.124	381.91667
2135.771	352.91667
2138.416	372.25
2141.059	342.91667
2143.7	338.91667
2146.339	317.25
2148.977	281.58333
2151.613	299.91667
2154.247	296.25
2156.879	286.91667
2159.51	277.91667
2162.138	279.91667
2164.765	276.91667
2167.39	265.58333
2170.013	284.58333
2172.634	282.25
2175.254	262.91667
2177.872	304.91667
2180.488	251.58333
2183.102	260.58333
2185.714	264.58333
2188.325	251.25
2190.934	260.58333
2193.541	264.58333
2196.146	252.58333
2198.75	248.25
2201.351	244.91667
2203.951	232.91667
2206.549	251.91667
2209.146	243.91667
2211.74	236.25
2214.333	242.58333
2216.924	234.91667
2219.514	233.91667
2222.101	235.58333
2224.687	251.91667
2227.271	228.91667
2229.853	238.25
2232.433	218.91667
2235.012	235.58333
2237.589	237.25
2240.164	247.58333
2242.738	231.25
2245.309	220.25
2247.879	245.91667
2250.448	235.91667
2253.014	221.58333
2255.579	214.91667
2258.142	220.91667
2260.703	221.58333
2263.262	215.91667
2265.82	207.58333
2268.376	225.58333
2270.93	211.58333
2273.483	212.25
2276.033	218.91667
2278.583	210.58333
2281.13	209.91667
2283.675	203.58333
2286.219	207.58333
2288.761	217.58333
2291.302	211.91667
2293.841	222.58333
2296.377	197.91667
2298.913	208.91667
2301.446	215.58333
2303.978	211.25
2306.508	212.58333
2309.037	210.91667
2311.563	207.25
2314.088	211.58333
2316.612	189.91667
2319.133	205.58333
2321.653	209.91667
2324.171	201.25
2326.688	206.58333
2329.202	200.58333
2331.715	199.25
2334.227	199.25
2336.736	199.91667
2339.244	198.58333
2341.751	190.25
2344.255	206.25
2346.758	201.25
2349.259	187.91667
2351.759	200.91667
2354.257	186.91667
2356.753	188.58333
2359.247	192.25
2361.74	198.91667
2364.231	192.91667
2366.721	196.58333
2369.209	187.58333
2371.695	190.58333
2374.179	183.58333
2376.662	169.91667
2379.143	202.91667
2381.622	188.25
2384.1	193.25
2386.576	186.58333
2389.051	196.58333
2391.524	192.25
2393.995	195.91667
2396.464	181.25
2398.932	184.91667
2401.398	189.25
2403.863	184.25
2406.325	183.25
2408.787	190.91667
2411.246	186.25
2413.704	186.25
2416.16	180.58333
2418.615	181.25
2421.068	182.91667
2423.519	181.25
2425.969	175.91667
2428.417	189.58333
2430.863	201.58333
2433.308	185.91667
2435.751	185.25
2438.193	180.91667
2440.633	181.25
2443.071	190.58333
2445.508	177.91667
2447.943	175.58333
2450.376	169.58333
2452.808	178.58333
2455.238	166.25
2457.667	205.91667
2460.093	171.25
2462.519	160.25
2464.942	169.58333
2467.365	174.25
2469.785	177.58333
2472.204	167.25
2474.621	174.25
2477.037	185.25
2479.451	163.25
2481.863	160.91667
2484.274	163.91667
2486.683	170.58333
2489.091	177.58333
2491.497	172.91667
2493.901	167.25
2496.304	166.58333
2498.705	175.25
2501.105	172.91667
2503.503	193.91667
2505.899	168.25
2508.294	187.25
2510.687	164.58333
2513.079	167.25
2515.469	162.58333
2517.858	170.25
2520.245	178.58333
2522.63	170.58333
2525.014	156.58333
2527.396	153.91667
2529.776	160.91667
2532.156	166.58333
2534.533	157.91667
2536.909	152.58333
2539.283	143.25
2541.656	157.25
2544.027	175.58333
2546.397	158.91667
2548.765	155.91667
2551.131	157.25
2553.496	163.25
2555.86	166.58333
2558.221	165.25
2560.582	155.25
2562.94	146.58333
2565.298	155.58333
2567.653	169.58333
2570.007	142.91667
2572.36	163.58333
2574.711	149.91667
2577.06	169.25
2579.408	155.58333
2581.754	154.91667
2584.099	152.25
2586.442	152.25
2588.784	163.58333
2591.124	149.91667
2593.463	150.58333
2595.8	156.91667
2598.135	144.25
2600.469	147.58333
2602.802	163.91667
2605.133	159.58333
2607.462	144.58333
2609.79	136.91667
2612.116	156.58333
2614.441	147.25
2616.764	156.25
2619.086	151.58333
2621.406	146.58333
2623.725	164.91667
2626.042	148.25
2628.358	147.58333
2630.672	152.91667
2632.985	155.25
2635.296	153.58333
2637.606	146.58333
2639.914	148.25
2642.22	143.25
2644.525	148.91667
2646.829	148.58333
2649.131	165.91667
2651.432	158.91667
2653.731	147.58333
2656.028	162.91667
2658.324	157.58333
2660.619	140.91667
2662.912	160.91667
2665.204	142.91667
2667.494	153.91667
2669.782	144.91667
2672.07	157.91667
2674.355	162.58333
2676.639	147.25
2678.922	143.91667
2681.203	155.91667
2683.483	149.91667
2685.761	137.91667
2688.038	158.58333
2690.313	163.25
2692.587	145.91667
2694.859	148.58333
2697.13	150.58333
2699.399	155.58333
2701.667	158.25
2703.933	151.58333
2706.198	160.91667
2708.461	159.91667
2710.723	157.91667
2712.984	160.25
2715.243	163.91667
2717.5	157.58333
2719.757	163.91667
2722.011	153.25
2724.264	165.58333
2726.516	173.25
2728.766	150.25
2731.015	162.25
2733.262	151.58333
2735.508	150.91667
2737.753	160.58333
2739.996	144.58333
2742.237	146.25
2744.477	163.58333
2746.716	169.58333
2748.953	160.25
2751.189	159.25
2753.423	151.91667
2755.656	149.58333
2757.887	140.25
2760.117	151.25
2762.346	149.58333
2764.573	135.25
2766.798	146.58333
2769.022	152.25
2771.245	145.58333
2773.467	148.25
2775.686	139.58333
2777.905	150.91667
2780.122	142.25
2782.337	152.25
2784.552	145.91667
2786.764	147.58333
2788.976	145.91667
2791.186	148.58333
2793.394	155.58333
2795.601	158.25
2797.807	162.25
2800.011	146.58333
2802.214	164.58333
2804.415	154.58333
2806.615	152.25
2808.814	160.58333
2811.011	164.58333
2813.206	164.25
2815.401	174.25
2817.594	171.58333
2819.785	169.25
2821.975	157.25
2824.164	165.58333
2826.351	165.25
2828.537	178.25
2830.722	178.25
2832.905	176.25
2835.086	175.58333
2837.267	198.25
2839.445	198.91667
2841.623	197.91667
2843.799	206.58333
2845.974	212.91667
2848.147	218.25
2850.319	226.58333
2852.489	229.91667
2854.659	235.25
2856.826	236.91667
2858.993	259.58333
2861.158	234.25
2863.321	243.91667
2865.483	257.58333
2867.644	251.25
2869.804	247.25
2871.962	236.25
2874.118	249.58333
2876.274	251.91667
2878.428	250.91667
2880.58	255.91667
2882.731	236.91667
2884.881	248.91667
2887.03	247.91667
2889.177	247.91667
2891.322	254.91667
2893.467	249.91667
2895.61	241.25
2897.751	263.58333
2899.892	244.25
2902.03	252.58333
2904.168	254.58333
2906.304	257.25
2908.439	276.91667
2910.572	245.91667
2912.704	259.58333
2914.835	266.25
2916.965	263.58333
2919.093	283.91667
2921.219	248.91667
2923.345	282.25
2925.469	259.91667
2927.591	258.25
2929.712	235.91667
2931.832	251.58333
2933.951	244.91667
2936.068	240.25
2938.184	235.58333
2940.299	231.91667
2942.412	224.25
2944.524	208.91667
2946.634	213.58333
2948.744	193.58333
2950.851	225.25
2952.958	191.58333
2955.063	201.25
2957.167	193.25
2959.269	188.58333
2961.371	208.91667
2963.471	178.91667
2965.569	200.25
2967.666	161.91667
2969.762	169.25
2971.857	158.91667
2973.95	157.58333
2976.042	168.25
2978.133	158.25
2980.222	154.58333
2982.31	146.58333
2984.396	129.91667
2986.482	134.91667
2988.566	143.58333
2990.648	139.91667
2992.73	142.25
2994.81	129.25
2996.889	142.25
2998.966	138.91667
3001.042	147.58333
3003.117	137.91667
3005.191	137.58333
3007.263	144.58333
3009.334	131.91667
3011.403	134.58333
3013.472	126.91667
3015.539	145.25
3017.604	156.58333
3019.669	121.91667
3021.732	130.91667
3023.794	130.58333
3025.854	113.25
3027.914	113.58333
3029.971	114.91667
3032.028	121.25
3034.083	129.25
3036.137	125.58333
3038.19	108.25
3040.242	100.25
3042.292	108.91667
3044.341	115.91667
3046.388	128.58333
3048.435	106.25
3050.48	122.91667
3052.524	113.58333
3054.566	95.25
3056.607	109.58333
3058.647	105.58333
3060.686	91.58333
3062.723	89.91667
3064.759	94.25
3066.794	-0.75
3068.828	0.91667
3070.86	2.25
