-0.839	147.29167
3.438	167.95833
7.711	70.625
11.981	46.29167
16.247	29.95833
20.509	41.29167
24.768	39.29167
29.024	45.625
33.276	30.95833
37.524	42.625
41.769	33.95833
46.01	26.95833
50.247	47.625
54.481	52.625
58.712	55.95833
62.939	38.29167
67.162	57.95833
71.382	45.29167
75.599	40.95833
79.812	47.625
84.021	62.625
88.227	46.29167
92.429	53.625
96.628	36.95833
100.823	52.29167
105.015	55.625
109.204	48.625
113.388	60.625
117.57	43.625
121.748	65.95833
125.922	52.625
130.093	66.95833
134.261	68.29167
138.425	60.29167
142.585	90.29167
146.742	68.625
150.896	84.29167
155.046	81.625
159.193	121.95833
163.336	174.625
167.476	299.95833
171.613	548.625
175.746	906.625
179.875	1311.95833
184.002	1713.95833
188.124	2030.95833
192.244	2126.625
196.36	2144.625
200.472	2140.29167
204.581	2113.29167
208.687	2064.29167
212.79	2070.29167
216.889	2083.625
220.984	2108.625
225.077	2133.625
229.165	2132.95833
233.251	2118.625
237.333	2128.29167
241.412	2105.625
245.487	2098.29167
249.559	2083.29167
253.628	2046.625
257.694	2027.625
261.756	2035.95833
265.814	1997.29167
269.87	1955.625
273.922	1894.95833
277.97	1858.625
282.016	1862.95833
286.058	1831.95833
290.097	1859.29167
294.132	1882.625
298.164	1854.625
302.193	1800.95833
306.219	1696.625
310.241	1611.95833
314.26	1505.95833
318.276	1449.625
322.288	1424.95833
326.297	1376.625
330.303	1336.95833
334.305	1329.29167
338.305	1324.95833
342.301	1317.625
346.294	1312.625
350.283	1300.625
354.269	1281.95833
358.252	1295.29167
362.232	1301.95833
366.209	1297.625
370.182	1272.29167
374.152	1275.625
378.119	1288.29167
382.083	1273.625
386.043	1286.29167
390	1288.95833
393.954	1298.625
397.905	1285.29167
401.852	1293.29167
405.797	1286.29167
409.738	1274.95833
413.676	1288.95833
417.61	1283.95833
421.542	1280.95833
425.47	1262.95833
429.396	1277.29167
433.318	1248.95833
437.236	1251.625
441.152	1283.95833
445.065	1239.29167
448.974	1236.29167
452.88	1223.625
456.783	1235.625
460.683	1225.95833
464.58	1230.625
468.473	1241.95833
472.364	1239.625
476.251	1242.29167
480.135	1237.95833
484.016	1262.625
487.894	1273.95833
491.769	1258.29167
495.641	1245.625
499.509	1267.625
503.375	1266.29167
507.237	1263.625
511.096	1250.95833
514.952	1253.625
518.805	1261.29167
522.655	1245.625
526.502	1240.625
530.346	1243.625
534.187	1252.625
538.024	1253.95833
541.859	1247.95833
545.69	1272.95833
549.519	1244.625
553.344	1252.625
557.166	1225.29167
560.985	1223.95833
564.802	1231.29167
568.615	1202.29167
572.425	1191.95833
576.232	1182.95833
580.036	1182.625
583.836	1194.625
587.634	1207.29167
591.429	1200.29167
595.221	1234.95833
599.01	1207.625
602.796	1207.29167
606.578	1215.95833
610.358	1226.625
614.135	1215.95833
617.909	1233.625
621.679	1215.95833
625.447	1190.625
629.212	1219.29167
632.973	1214.29167
636.732	1192.29167
640.488	1203.95833
644.241	1172.29167
647.991	1178.95833
651.737	1202.95833
655.481	1157.95833
659.222	1179.625
662.96	1186.625
666.695	1198.625
670.427	1191.95833
674.156	1185.95833
677.882	1191.95833
681.605	1195.95833
685.325	1167.95833
689.043	1209.29167
692.757	1177.95833
696.468	1179.29167
700.177	1155.29167
703.882	1160.29167
707.585	1147.95833
711.284	1160.29167
714.981	1140.95833
718.675	1148.95833
722.366	1163.29167
726.054	1131.95833
729.739	1142.95833
733.421	1145.29167
737.1	1145.29167
740.777	1154.29167
744.45	1146.29167
748.121	1156.625
751.789	1181.29167
755.453	1150.95833
759.115	1168.29167
762.774	1164.625
766.431	1173.29167
770.084	1175.29167
773.734	1176.625
777.382	1190.625
781.027	1188.625
784.669	1190.95833
788.308	1175.29167
791.944	1194.29167
795.577	1207.95833
799.208	1202.625
802.835	1206.625
806.46	1225.29167
810.082	1210.625
813.701	1231.29167
817.317	1225.95833
820.931	1224.29167
824.542	1226.29167
828.149	1202.29167
831.754	1183.29167
835.357	1179.95833
838.956	1193.95833
842.553	1194.95833
846.146	1172.95833
849.737	1160.29167
853.326	1165.29167
856.911	1139.625
860.493	1167.625
864.073	1165.29167
867.65	1191.625
871.225	1201.625
874.796	1192.29167
878.365	1166.29167
881.931	1177.625
885.494	1205.95833
889.054	1181.95833
892.612	1184.95833
896.166	1167.29167
899.719	1174.95833
903.268	1138.625
906.814	1155.625
910.358	1138.95833
913.899	1122.29167
917.438	1119.29167
920.973	1105.29167
924.506	1124.625
928.036	1148.95833
931.564	1160.625
935.088	1182.95833
938.61	1145.625
942.129	1144.29167
945.646	1184.625
949.16	1181.625
952.671	1193.95833
956.179	1213.29167
959.685	1187.625
963.188	1199.29167
966.688	1194.95833
970.185	1151.95833
973.68	1126.29167
977.173	1134.29167
980.662	1103.95833
984.149	1119.95833
987.633	1088.625
991.114	1131.95833
994.593	1132.625
998.069	1148.625
1001.542	1174.95833
1005.013	1171.29167
1008.481	1088.625
1011.947	1092.625
1015.409	1069.29167
1018.869	1087.95833
1022.327	1084.29167
1025.782	1070.95833
1029.234	1059.95833
1032.683	1053.625
1036.13	1023.625
1039.574	995.95833
1043.016	967.95833
1046.455	975.95833
1049.891	957.625
1053.325	968.95833
1056.756	954.625
1060.184	956.625
1063.61	949.625
1067.033	954.29167
1070.454	958.625
1073.872	975.625
1077.287	960.29167
1080.7	963.625
1084.11	961.29167
1087.517	958.625
1090.922	961.625
1094.325	928.29167
1097.724	915.29167
1101.122	919.625
1104.516	917.29167
1107.908	913.95833
1111.298	912.625
1114.684	929.29167
1118.069	924.29167
1121.45	954.29167
1124.83	941.625
1128.206	947.625
1131.58	947.625
1134.951	967.29167
1138.32	983.95833
1141.687	1021.625
1145.05	1033.625
1148.412	1022.95833
1151.77	1022.95833
1155.126	1019.29167
1158.48	1003.95833
1161.831	1018.625
1165.18	1023.625
1168.525	1033.95833
1171.869	1034.625
1175.21	1029.29167
1178.548	1049.29167
1181.884	1057.625
1185.217	1062.29167
1188.548	1101.625
1191.877	1090.625
1195.202	1137.95833
1198.526	1171.95833
1201.846	1159.95833
1205.165	1152.95833
1208.48	1168.625
1211.794	1153.625
1215.104	1171.29167
1218.413	1147.29167
1221.719	1153.95833
1225.022	1119.625
1228.323	1103.625
1231.621	1120.625
1234.917	1112.625
1238.21	1135.95833
1241.501	1094.95833
1244.79	1102.29167
1248.076	1092.29167
1251.359	1101.29167
1254.64	1141.95833
1257.919	1125.625
1261.195	1147.625
1264.468	1145.29167
1267.74	1166.625
1271.008	1156.625
1274.275	1161.29167
1277.538	1160.29167
1280.8	1152.625
1284.059	1147.95833
1287.315	1174.625
1290.569	1165.29167
1293.821	1175.95833
1297.07	1167.95833
1300.317	1186.95833
1303.562	1174.95833
1306.803	1173.95833
1310.043	1170.29167
1313.28	1160.29167
1316.515	1151.29167
1319.747	1153.29167
1322.977	1147.95833
1326.204	1147.29167
1329.429	1122.95833
1332.652	1127.625
1335.872	1127.95833
1339.09	1102.625
1342.306	1099.95833
1345.519	1101.29167
1348.729	1094.29167
1351.938	1090.95833
1355.144	1084.625
1358.347	1057.29167
1361.548	1073.95833
1364.747	1085.29167
1367.944	1040.29167
1371.138	1052.625
1374.329	1057.29167
1377.518	1049.29167
1380.705	1063.29167
1383.89	1057.625
1387.072	1033.29167
1390.252	994.625
1393.429	978.625
1396.605	948.29167
1399.777	905.625
1402.948	912.95833
1406.116	892.95833
1409.282	904.95833
1412.445	905.95833
1415.606	915.29167
1418.765	908.95833
1421.921	919.625
1425.075	930.625
1428.227	945.95833
1431.376	989.95833
1434.524	1014.625
1437.668	1051.29167
1440.811	1066.625
1443.951	1046.95833
1447.089	1074.625
1450.224	1060.29167
1453.357	1048.625
1456.488	1041.29167
1459.617	1032.95833
1462.743	1023.29167
1465.867	979.29167
1468.989	994.95833
1472.108	970.95833
1475.225	957.95833
1478.34	942.95833
1481.453	930.95833
1484.563	936.95833
1487.671	940.625
1490.776	943.95833
1493.88	959.29167
1496.981	973.625
1500.08	986.95833
1503.176	988.95833
1506.271	1004.29167
1509.363	1027.95833
1512.452	1010.29167
1515.54	1022.95833
1518.625	1037.625
1521.708	1071.95833
1524.789	1088.95833
1527.867	1116.95833
1530.944	1180.29167
1534.018	1213.625
1537.089	1256.29167
1540.159	1261.95833
1543.226	1280.95833
1546.291	1245.625
1549.354	1226.29167
1552.415	1206.625
1555.473	1185.625
1558.529	1160.29167
1561.583	1147.625
1564.634	1144.95833
1567.684	1129.95833
1570.731	1136.625
1573.776	1151.625
1576.819	1162.29167
1579.859	1151.29167
1582.898	1164.95833
1585.934	1192.625
1588.968	1195.625
1591.999	1191.29167
1595.029	1184.29167
1598.056	1202.95833
1601.081	1220.625
1604.104	1199.625
1607.125	1177.625
1610.144	1172.29167
1613.16	1133.625
1616.174	1106.95833
1619.186	1103.95833
1622.196	1064.29167
1625.203	1064.625
1628.209	1041.95833
1631.212	1041.625
1634.213	1025.625
1637.212	1048.625
1640.209	1044.625
1643.203	1009.95833
1646.196	991.625
1649.186	952.95833
1652.174	937.95833
1655.16	904.29167
1658.144	882.95833
1661.125	854.95833
1664.105	829.95833
1667.082	805.29167
1670.057	753.625
1673.03	713.29167
1676.001	680.95833
1678.97	624.29167
1681.937	616.95833
1684.901	586.29167
1687.863	580.95833
1690.824	544.29167
1693.782	553.625
1696.738	519.625
1699.692	515.625
1702.643	499.95833
1705.593	495.625
1708.54	488.95833
1711.486	501.95833
1714.429	470.95833
1717.37	492.95833
1720.309	467.29167
1723.246	486.29167
1726.181	468.29167
1729.113	463.625
1732.044	467.625
1734.972	451.625
1737.899	466.95833
1740.823	467.29167
1743.745	483.625
1746.665	447.95833
1749.583	437.625
1752.499	429.95833
1755.413	434.625
1758.325	421.95833
1761.235	431.625
1764.142	409.95833
1767.048	411.625
1769.951	421.625
1772.852	408.29167
1775.752	413.625
1778.649	408.95833
1781.544	417.625
1784.437	401.95833
1787.328	403.29167
1790.217	402.625
1793.104	378.29167
1795.989	387.625
1798.872	381.29167
1801.753	397.95833
1804.631	389.625
1807.508	395.625
1810.383	385.95833
1813.255	390.29167
1816.126	386.29167
1818.994	375.29167
1821.861	374.95833
1824.725	389.625
1827.587	384.625
1830.448	376.95833
1833.306	367.625
1836.162	384.95833
1839.017	374.95833
1841.869	365.29167
1844.719	374.29167
1847.567	358.29167
1850.414	348.29167
1853.258	346.625
1856.1	362.29167
1858.94	366.29167
1861.778	362.95833
1864.614	349.625
1867.448	360.29167
1870.28	339.95833
1873.111	364.625
1875.939	352.625
1878.765	366.95833
1881.589	346.95833
1884.411	350.625
1887.231	357.95833
1890.049	361.29167
1892.865	353.29167
1895.68	348.625
1898.492	358.29167
1901.302	340.95833
1904.11	344.625
1906.916	343.29167
1909.721	336.29167
1912.523	345.95833
1915.323	335.95833
1918.122	327.95833
1920.918	346.95833
1923.712	328.95833
1926.505	340.95833
1929.295	321.625
1932.084	338.95833
1934.87	337.95833
1937.655	320.29167
1940.438	312.95833
1943.218	323.29167
1945.997	320.29167
1948.774	337.625
1951.549	336.95833
1954.322	325.95833
1957.093	324.29167
1959.862	314.29167
1962.629	321.95833
1965.394	320.29167
1968.157	308.29167
1970.918	318.29167
1973.678	300.95833
1976.435	322.29167
1979.19	310.29167
1981.944	304.625
1984.696	307.625
1987.445	295.29167
1990.193	313.29167
1992.939	320.625
1995.683	305.29167
1998.425	286.95833
2001.165	325.625
2003.903	288.29167
2006.639	299.625
2009.374	308.29167
2012.106	306.95833
2014.837	289.625
2017.566	311.29167
2020.292	294.625
2023.017	296.95833
2025.74	282.625
2028.461	277.95833
2031.18	290.29167
2033.898	287.29167
2036.613	291.625
2039.327	292.95833
2042.038	286.95833
2044.748	280.625
2047.456	286.625
2050.162	280.29167
2052.866	280.625
2055.568	292.95833
2058.268	279.625
2060.967	286.95833
2063.663	276.95833
2066.358	273.29167
2069.051	269.625
2071.742	275.625
2074.431	283.625
2077.118	272.95833
2079.804	271.625
2082.487	279.95833
2085.169	290.625
2087.849	298.95833
2090.527	267.625
2093.203	277.29167
2095.877	279.29167
2098.55	275.29167
2101.22	283.95833
2103.889	286.95833
2106.556	285.29167
2109.221	293.625
2111.884	291.625
2114.546	306.625
2117.205	318.29167
2119.863	358.29167
2122.519	359.29167
2125.173	375.625
2127.825	411.625
2130.475	409.29167
2133.124	392.625
2135.771	376.625
2138.416	381.29167
2141.059	343.95833
2143.7	348.625
2146.339	323.29167
2148.977	295.625
2151.613	305.95833
2154.247	296.95833
2156.879	291.29167
2159.51	277.625
2162.138	278.625
2164.765	268.95833
2167.39	265.95833
2170.013	290.29167
2172.634	280.95833
2175.254	267.29167
2177.872	303.625
2180.488	253.625
2183.102	259.625
2185.714	252.625
2188.325	241.95833
2190.934	252.625
2193.541	254.95833
2196.146	249.95833
2198.75	242.625
2201.351	241.29167
2203.951	225.29167
2206.549	247.29167
2209.146	233.95833
2211.74	227.95833
2214.333	246.95833
2216.924	222.29167
2219.514	232.625
2222.101	223.95833
2224.687	247.29167
2227.271	223.95833
2229.853	220.29167
2232.433	207.95833
2235.012	235.625
2237.589	222.95833
2240.164	240.29167
2242.738	223.625
2245.309	211.95833
2247.879	232.29167
2250.448	231.625
2253.014	211.95833
2255.579	206.95833
2258.142	214.29167
2260.703	212.29167
2263.262	208.95833
2265.82	201.625
2268.376	217.625
2270.93	212.625
2273.483	200.95833
2276.033	217.95833
2278.583	206.95833
2281.13	205.625
2283.675	195.625
2286.219	202.625
2288.761	203.29167
2291.302	206.625
2293.841	216.29167
2296.377	191.95833
2298.913	207.95833
2301.446	209.95833
2303.978	201.625
2306.508	202.625
2309.037	201.95833
2311.563	198.625
2314.088	202.95833
2316.612	179.95833
2319.133	203.95833
2321.653	200.29167
2324.171	189.95833
2326.688	201.29167
2329.202	194.95833
2331.715	199.625
2334.227	196.95833
2336.736	191.625
2339.244	185.95833
2341.751	179.29167
2344.255	188.95833
2346.758	187.95833
2349.259	180.95833
2351.759	191.95833
2354.257	185.29167
2356.753	176.95833
2359.247	177.95833
2361.74	186.95833
2364.231	186.29167
2366.721	184.29167
2369.209	173.625
2371.695	184.625
2374.179	177.95833
2376.662	165.29167
2379.143	191.95833
2381.622	178.95833
2384.1	180.625
2386.576	172.95833
2389.051	185.95833
2391.524	188.625
2393.995	190.29167
2396.464	173.29167
2398.932	177.29167
2401.398	173.29167
2403.863	173.95833
2406.325	167.625
2408.787	179.95833
2411.246	173.29167
2413.704	176.29167
2416.16	173.95833
2418.615	169.95833
2421.068	174.95833
2423.519	171.625
2425.969	160.625
2428.417	176.29167
2430.863	194.625
2433.308	175.29167
2435.751	177.29167
2438.193	170.625
2440.633	171.29167
2443.071	180.95833
2445.508	164.625
2447.943	174.29167
2450.376	164.625
2452.808	170.95833
2455.238	158.29167
2457.667	187.625
2460.093	161.625
2462.519	149.95833
2464.942	160.95833
2467.365	167.29167
2469.785	163.625
2472.204	157.625
2474.621	164.95833
2477.037	181.29167
2479.451	152.95833
2481.863	152.625
2484.274	157.95833
2486.683	158.625
2489.091	169.95833
2491.497	162.625
2493.901	160.625
2496.304	161.95833
2498.705	171.95833
2501.105	163.625
2503.503	180.95833
2505.899	148.95833
2508.294	172.625
2510.687	156.95833
2513.079	159.29167
2515.469	151.95833
2517.858	151.95833
2520.245	167.625
2522.63	161.29167
2525.014	149.95833
2527.396	147.95833
2529.776	147.29167
2532.156	157.625
2534.533	144.29167
2536.909	144.625
2539.283	130.95833
2541.656	147.29167
2544.027	162.29167
2546.397	149.625
2548.765	145.95833
2551.131	151.625
2553.496	155.29167
2555.86	148.95833
2558.221	154.29167
2560.582	145.625
2562.94	136.625
2565.298	149.95833
2567.653	156.29167
2570.007	138.29167
2572.36	156.95833
2574.711	143.95833
2577.06	159.29167
2579.408	146.29167
2581.754	141.95833
2584.099	147.95833
2586.442	140.29167
2588.784	152.95833
2591.124	144.625
2593.463	144.95833
2595.8	148.625
2598.135	138.29167
2600.469	132.625
2602.802	151.95833
2605.133	151.625
2607.462	133.95833
2609.79	133.95833
2612.116	146.95833
2614.441	141.29167
2616.764	144.625
2619.086	146.625
2621.406	134.95833
2623.725	148.625
2626.042	140.95833
2628.358	136.95833
2630.672	138.625
2632.985	143.95833
2635.296	138.29167
2637.606	140.29167
2639.914	132.625
2642.22	135.95833
2644.525	145.95833
2646.829	143.29167
2649.131	154.29167
2651.432	147.625
2653.731	134.95833
2656.028	152.29167
2658.324	146.29167
2660.619	126.625
2662.912	148.29167
2665.204	128.625
2667.494	146.95833
2669.782	132.29167
2672.07	147.625
2674.355	144.29167
2676.639	146.29167
2678.922	137.29167
2681.203	144.625
2683.483	130.95833
2685.761	123.29167
2688.038	147.29167
2690.313	149.29167
2692.587	141.29167
2694.859	137.29167
2697.13	137.29167
2699.399	136.95833
2701.667	149.95833
2703.933	140.29167
2706.198	152.29167
2708.461	149.29167
2710.723	148.625
2712.984	141.625
2715.243	148.29167
2717.5	141.95833
2719.757	146.95833
2722.011	142.29167
2724.264	151.625
2726.516	160.29167
2728.766	136.625
2731.015	145.29167
2733.262	142.29167
2735.508	142.29167
2737.753	148.625
2739.996	132.95833
2742.237	135.95833
2744.477	152.95833
2746.716	155.625
2748.953	146.625
2751.189	151.29167
2753.423	145.29167
2755.656	139.29167
2757.887	136.625
2760.117	137.95833
2762.346	130.29167
2764.573	122.29167
2766.798	137.95833
2769.022	130.625
2771.245	134.625
2773.467	129.29167
2775.686	131.95833
2777.905	137.29167
2780.122	134.625
2782.337	138.625
2784.552	132.95833
2786.764	138.29167
2788.976	135.95833
2791.186	137.625
2793.394	131.95833
2795.601	141.625
2797.807	147.29167
2800.011	141.29167
2802.214	145.95833
2804.415	146.95833
2806.615	141.95833
2808.814	150.29167
2811.011	148.95833
2813.206	151.95833
2815.401	163.625
2817.594	153.625
2819.785	161.95833
2821.975	148.625
2824.164	154.29167
2826.351	151.29167
2828.537	169.625
2830.722	160.95833
2832.905	162.625
2835.086	171.29167
2837.267	187.29167
2839.445	182.625
2841.623	185.625
2843.799	191.29167
2845.974	194.625
2848.147	193.95833
2850.319	214.625
2852.489	220.29167
2854.659	217.29167
2856.826	220.95833
2858.993	241.95833
2861.158	221.29167
2863.321	221.625
2865.483	236.625
2867.644	234.29167
2869.804	236.29167
2871.962	222.29167
2874.118	231.95833
2876.274	232.625
2878.428	235.625
2880.58	238.29167
2882.731	222.625
2884.881	234.95833
2887.03	232.95833
2889.177	231.625
2891.322	239.29167
2893.467	229.625
2895.61	221.625
2897.751	237.625
2899.892	230.29167
2902.03	235.95833
2904.168	236.95833
2906.304	237.625
2908.439	251.95833
2910.572	233.95833
2912.704	240.95833
2914.835	245.29167
2916.965	240.625
2919.093	256.95833
2921.219	229.95833
2923.345	255.625
2925.469	238.625
2927.591	232.625
2929.712	216.625
2931.832	235.29167
2933.951	222.29167
2936.068	217.625
2938.184	214.95833
2940.299	210.95833
2942.412	205.29167
2944.524	191.29167
2946.634	201.625
2948.744	171.95833
2950.851	205.625
2952.958	171.95833
2955.063	179.625
2957.167	176.95833
2959.269	165.95833
2961.371	187.95833
2963.471	158.625
2965.569	172.625
2967.666	147.29167
2969.762	154.29167
2971.857	141.29167
2973.95	138.95833
2976.042	150.625
2978.133	140.625
2980.222	142.95833
2982.31	127.95833
2984.396	113.625
2986.482	122.29167
2988.566	130.29167
2990.648	124.95833
2992.73	123.95833
2994.81	111.29167
2996.889	129.95833
2998.966	124.95833
3001.042	132.625
3003.117	115.29167
3005.191	120.95833
3007.263	123.29167
3009.334	114.29167
3011.403	121.29167
3013.472	111.625
3015.539	122.95833
3017.604	135.95833
3019.669	105.625
3021.732	109.625
3023.794	115.29167
3025.854	101.29167
3027.914	98.95833
3029.971	100.95833
3032.028	105.625
3034.083	112.95833
3036.137	108.95833
3038.19	100.29167
3040.242	89.95833
3042.292	91.625
3044.341	97.625
3046.388	109.95833
3048.435	91.95833
3050.48	111.95833
3052.524	96.625
3054.566	83.95833
3056.607	98.95833
3058.647	93.95833
3060.686	85.29167
3062.723	75.95833
3064.759	76.625
3066.794	0.95833
3068.828	-0.70833
3070.86	2.29167
