-0.839	143.79167
3.438	166.125
7.711	66.79167
11.981	44.79167
16.247	33.125
20.509	37.79167
24.768	36.125
29.024	42.45833
33.276	31.79167
37.524	42.45833
41.769	30.125
46.01	26.79167
50.247	45.79167
54.481	52.125
58.712	59.79167
62.939	36.45833
67.162	55.79167
71.382	47.125
75.599	37.125
79.812	45.125
84.021	67.45833
88.227	41.125
92.429	48.45833
96.628	40.125
100.823	52.45833
105.015	53.79167
109.204	49.45833
113.388	58.125
117.57	48.45833
121.748	65.125
125.922	49.125
130.093	71.45833
134.261	68.45833
138.425	56.45833
142.585	84.79167
146.742	68.125
150.896	83.45833
155.046	83.45833
159.193	125.125
163.336	181.45833
167.476	311.45833
171.613	559.45833
175.746	915.79167
179.875	1327.45833
184.002	1740.79167
188.124	2064.45833
192.244	2175.79167
196.36	2184.45833
200.472	2177.125
204.581	2161.125
208.687	2118.79167
212.79	2124.45833
216.889	2152.45833
220.984	2194.45833
225.077	2193.45833
229.165	2232.45833
233.251	2222.45833
237.333	2247.79167
241.412	2210.79167
245.487	2219.45833
249.559	2197.125
253.628	2188.125
257.694	2158.45833
261.756	2160.125
265.814	2123.125
269.87	2071.79167
273.922	2011.125
277.97	2003.125
282.016	1965.125
286.058	1941.79167
290.097	1968.45833
294.132	1987.45833
298.164	1987.125
302.193	1917.45833
306.219	1823.79167
310.241	1718.125
314.26	1595.125
318.276	1525.45833
322.288	1455.79167
326.297	1423.45833
330.303	1395.79167
334.305	1377.79167
338.305	1361.79167
342.301	1343.79167
346.294	1351.45833
350.283	1343.79167
354.269	1336.45833
358.252	1331.45833
362.232	1329.79167
366.209	1333.79167
370.182	1340.125
374.152	1315.45833
378.119	1336.125
382.083	1311.125
386.043	1325.79167
390	1305.79167
393.954	1329.125
397.905	1324.125
401.852	1355.79167
405.797	1314.45833
409.738	1326.79167
413.676	1341.45833
417.61	1335.45833
421.542	1319.79167
425.47	1307.45833
429.396	1300.79167
433.318	1286.79167
437.236	1304.79167
441.152	1328.79167
445.065	1275.45833
448.974	1272.125
452.88	1276.45833
456.783	1271.79167
460.683	1262.125
464.58	1270.45833
468.473	1271.79167
472.364	1273.125
476.251	1261.45833
480.135	1284.79167
484.016	1299.45833
487.894	1306.45833
491.769	1320.79167
495.641	1304.45833
499.509	1297.79167
503.375	1301.79167
507.237	1302.45833
511.096	1286.79167
514.952	1305.125
518.805	1297.79167
522.655	1303.79167
526.502	1281.79167
530.346	1287.125
534.187	1312.79167
538.024	1280.125
541.859	1294.79167
545.69	1308.45833
549.519	1293.125
553.344	1287.45833
557.166	1260.125
560.985	1259.125
564.802	1243.125
568.615	1255.79167
572.425	1222.45833
576.232	1230.125
580.036	1233.79167
583.836	1233.45833
587.634	1222.79167
591.429	1228.79167
595.221	1257.125
599.01	1249.125
602.796	1239.45833
606.578	1271.79167
610.358	1267.125
614.135	1269.79167
617.909	1263.79167
621.679	1251.125
625.447	1229.79167
629.212	1238.79167
632.973	1239.125
636.732	1225.125
640.488	1251.79167
644.241	1207.45833
647.991	1227.45833
651.737	1248.125
655.481	1206.45833
659.222	1220.79167
662.96	1216.45833
666.695	1229.125
670.427	1232.45833
674.156	1243.79167
677.882	1238.79167
681.605	1226.45833
685.325	1215.45833
689.043	1240.125
692.757	1201.125
696.468	1212.79167
700.177	1205.79167
703.882	1178.45833
707.585	1188.79167
711.284	1171.125
714.981	1166.79167
718.675	1165.45833
722.366	1188.45833
726.054	1175.45833
729.739	1169.125
733.421	1182.45833
737.1	1177.125
740.777	1183.45833
744.45	1175.125
748.121	1184.125
751.789	1224.45833
755.453	1191.45833
759.115	1203.79167
762.774	1202.79167
766.431	1210.125
770.084	1209.79167
773.734	1204.45833
777.382	1232.45833
781.027	1230.125
784.669	1224.45833
788.308	1224.45833
791.944	1244.45833
795.577	1251.125
799.208	1245.79167
802.835	1255.45833
806.46	1264.45833
810.082	1256.79167
813.701	1265.79167
817.317	1285.125
820.931	1277.79167
824.542	1272.125
828.149	1251.125
831.754	1243.79167
835.357	1239.45833
838.956	1245.45833
842.553	1240.79167
846.146	1213.79167
849.737	1201.79167
853.326	1199.79167
856.911	1188.79167
860.493	1212.45833
864.073	1199.45833
867.65	1230.79167
871.225	1241.125
874.796	1223.125
878.365	1218.79167
881.931	1230.45833
885.494	1244.79167
889.054	1225.79167
892.612	1236.45833
896.166	1206.45833
899.719	1195.79167
903.268	1186.45833
906.814	1186.79167
910.358	1187.45833
913.899	1163.45833
917.438	1163.79167
920.973	1154.45833
924.506	1153.125
928.036	1195.125
931.564	1202.125
935.088	1227.79167
938.61	1195.45833
942.129	1216.125
945.646	1219.125
949.16	1238.45833
952.671	1239.79167
956.179	1271.125
959.685	1263.125
963.188	1282.45833
966.688	1272.79167
970.185	1218.125
973.68	1195.125
977.173	1174.79167
980.662	1167.125
984.149	1175.45833
987.633	1148.45833
991.114	1166.79167
994.593	1196.125
998.069	1199.125
1001.542	1230.79167
1005.013	1225.79167
1008.481	1158.79167
1011.947	1142.79167
1015.409	1129.79167
1018.869	1119.45833
1022.327	1133.79167
1025.782	1127.79167
1029.234	1118.125
1032.683	1115.125
1036.13	1079.125
1039.574	1053.125
1043.016	1015.125
1046.455	1015.45833
1049.891	984.45833
1053.325	1003.45833
1056.756	992.45833
1060.184	996.125
1063.61	988.45833
1067.033	1012.45833
1070.454	992.79167
1073.872	1014.125
1077.287	1009.125
1080.7	1007.45833
1084.11	1002.45833
1087.517	999.125
1090.922	998.125
1094.325	966.79167
1097.724	966.79167
1101.122	968.79167
1104.516	961.79167
1107.908	951.125
1111.298	973.45833
1114.684	970.45833
1118.069	974.125
1121.45	999.45833
1124.83	975.79167
1128.206	986.125
1131.58	997.79167
1134.951	1035.125
1138.32	1060.125
1141.687	1074.45833
1145.05	1081.79167
1148.412	1076.125
1151.77	1074.125
1155.126	1061.79167
1158.48	1062.125
1161.831	1076.79167
1165.18	1073.45833
1168.525	1092.45833
1171.869	1102.45833
1175.21	1083.79167
1178.548	1118.79167
1181.884	1121.79167
1185.217	1129.45833
1188.548	1141.125
1191.877	1155.125
1195.202	1201.45833
1198.526	1216.125
1201.846	1229.79167
1205.165	1234.79167
1208.48	1234.79167
1211.794	1216.125
1215.104	1235.45833
1218.413	1216.125
1221.719	1212.125
1225.022	1186.79167
1228.323	1171.45833
1231.621	1172.45833
1234.917	1169.125
1238.21	1195.45833
1241.501	1176.79167
1244.79	1148.125
1248.076	1135.79167
1251.359	1170.45833
1254.64	1204.125
1257.919	1187.45833
1261.195	1184.79167
1264.468	1211.45833
1267.74	1231.125
1271.008	1226.79167
1274.275	1222.79167
1277.538	1209.79167
1280.8	1225.45833
1284.059	1220.125
1287.315	1219.79167
1290.569	1222.79167
1293.821	1228.79167
1297.07	1233.79167
1300.317	1239.45833
1303.562	1247.45833
1306.803	1224.125
1310.043	1219.125
1313.28	1215.79167
1316.515	1217.125
1319.747	1209.125
1322.977	1201.79167
1326.204	1178.125
1329.429	1182.125
1332.652	1183.125
1335.872	1165.79167
1339.09	1174.45833
1342.306	1168.45833
1345.519	1157.45833
1348.729	1137.125
1351.938	1143.45833
1355.144	1130.45833
1358.347	1127.125
1361.548	1119.79167
1364.747	1120.79167
1367.944	1105.79167
1371.138	1113.45833
1374.329	1099.79167
1377.518	1102.79167
1380.705	1105.79167
1383.89	1115.79167
1387.072	1070.45833
1390.252	1050.45833
1393.429	1015.79167
1396.605	989.45833
1399.777	952.79167
1402.948	968.45833
1406.116	928.79167
1409.282	950.79167
1412.445	942.125
1415.606	972.79167
1418.765	958.125
1421.921	967.45833
1425.075	979.125
1428.227	988.79167
1431.376	1034.45833
1434.524	1071.125
1437.668	1082.79167
1440.811	1115.125
1443.951	1117.45833
1447.089	1115.79167
1450.224	1118.125
1453.357	1119.79167
1456.488	1097.45833
1459.617	1089.79167
1462.743	1080.125
1465.867	1060.125
1468.989	1043.79167
1472.108	1022.125
1475.225	1024.45833
1478.34	1002.125
1481.453	999.45833
1484.563	999.45833
1487.671	1017.125
1490.776	1017.79167
1493.88	1019.79167
1496.981	1049.45833
1500.08	1050.79167
1503.176	1044.125
1506.271	1053.45833
1509.363	1076.45833
1512.452	1072.125
1515.54	1080.125
1518.625	1080.125
1521.708	1132.125
1524.789	1152.45833
1527.867	1190.125
1530.944	1236.125
1534.018	1279.79167
1537.089	1332.45833
1540.159	1345.45833
1543.226	1334.125
1546.291	1305.79167
1549.354	1282.79167
1552.415	1263.79167
1555.473	1241.45833
1558.529	1231.45833
1561.583	1211.125
1564.634	1192.79167
1567.684	1192.45833
1570.731	1196.79167
1573.776	1210.125
1576.819	1214.79167
1579.859	1216.79167
1582.898	1247.125
1585.934	1261.79167
1588.968	1263.45833
1591.999	1244.125
1595.029	1240.45833
1598.056	1259.45833
1601.081	1267.79167
1604.104	1260.79167
1607.125	1264.45833
1610.144	1242.125
1613.16	1187.45833
1616.174	1176.79167
1619.186	1149.125
1622.196	1131.45833
1625.203	1104.125
1628.209	1111.45833
1631.212	1115.45833
1634.213	1110.45833
1637.212	1110.125
1640.209	1114.45833
1643.203	1061.125
1646.196	1045.125
1649.186	1005.125
1652.174	987.45833
1655.16	949.125
1658.144	947.79167
1661.125	886.125
1664.105	850.125
1667.082	821.125
1670.057	777.79167
1673.03	749.79167
1676.001	697.79167
1678.97	664.45833
1681.937	643.125
1684.901	612.79167
1687.863	593.125
1690.824	562.125
1693.782	581.125
1696.738	533.79167
1699.692	538.125
1702.643	513.79167
1705.593	525.125
1708.54	513.45833
1711.486	531.45833
1714.429	496.45833
1717.37	520.79167
1720.309	498.45833
1723.246	491.79167
1726.181	481.45833
1729.113	489.45833
1732.044	489.45833
1734.972	480.45833
1737.899	488.79167
1740.823	499.125
1743.745	511.79167
1746.665	468.79167
1749.583	455.79167
1752.499	456.79167
1755.413	453.45833
1758.325	436.45833
1761.235	450.125
1764.142	437.79167
1767.048	432.45833
1769.951	425.79167
1772.852	435.125
1775.752	433.45833
1778.649	438.79167
1781.544	440.45833
1784.437	417.125
1787.328	433.79167
1790.217	424.79167
1793.104	396.79167
1795.989	408.45833
1798.872	400.79167
1801.753	422.125
1804.631	407.79167
1807.508	416.79167
1810.383	409.79167
1813.255	406.45833
1816.126	409.125
1818.994	399.45833
1821.861	398.79167
1824.725	403.125
1827.587	401.125
1830.448	402.125
1833.306	377.79167
1836.162	393.79167
1839.017	384.79167
1841.869	392.79167
1844.719	389.45833
1847.567	364.45833
1850.414	372.79167
1853.258	367.45833
1856.1	385.79167
1858.94	389.125
1861.778	385.125
1864.614	375.45833
1867.448	384.125
1870.28	370.79167
1873.111	383.125
1875.939	383.125
1878.765	386.45833
1881.589	366.79167
1884.411	381.125
1887.231	375.79167
1890.049	366.45833
1892.865	378.45833
1895.68	364.125
1898.492	371.125
1901.302	360.79167
1904.11	364.125
1906.916	360.79167
1909.721	360.125
1912.523	370.45833
1915.323	353.79167
1918.122	351.45833
1920.918	369.79167
1923.712	352.79167
1926.505	347.79167
1929.295	331.45833
1932.084	348.45833
1934.87	350.45833
1937.655	342.45833
1940.438	336.79167
1943.218	338.45833
1945.997	350.125
1948.774	351.79167
1951.549	355.45833
1954.322	335.125
1957.093	343.45833
1959.862	338.125
1962.629	338.79167
1965.394	335.125
1968.157	327.125
1970.918	348.125
1973.678	322.45833
1976.435	341.45833
1979.19	316.79167
1981.944	311.45833
1984.696	322.125
1987.445	313.79167
1990.193	325.45833
1992.939	335.45833
1995.683	327.45833
1998.425	310.125
2001.165	336.125
2003.903	300.79167
2006.639	308.125
2009.374	321.45833
2012.106	310.125
2014.837	297.125
2017.566	326.125
2020.292	309.125
2023.017	310.125
2025.74	306.125
2028.461	299.45833
2031.18	310.125
2033.898	300.45833
2036.613	305.79167
2039.327	306.125
2042.038	293.79167
2044.748	308.45833
2047.456	303.125
2050.162	291.125
2052.866	293.125
2055.568	303.125
2058.268	290.125
2060.967	301.79167
2063.663	293.125
2066.358	289.79167
2069.051	287.45833
2071.742	295.125
2074.431	302.125
2077.118	287.79167
2079.804	282.45833
2082.487	282.125
2085.169	306.45833
2087.849	315.45833
2090.527	285.45833
2093.203	286.45833
2095.877	290.79167
2098.55	294.125
2101.22	297.125
2103.889	298.125
2106.556	290.125
2109.221	300.125
2111.884	302.79167
2114.546	316.125
2117.205	321.79167
2119.863	354.125
2122.519	345.79167
2125.173	359.45833
2127.825	395.125
2130.475	397.45833
2133.124	378.79167
2135.771	365.79167
2138.416	380.79167
2141.059	341.45833
2143.7	343.125
2146.339	324.125
2148.977	298.125
2151.613	311.45833
2154.247	302.125
2156.879	293.45833
2159.51	281.79167
2162.138	284.79167
2164.765	281.125
2167.39	270.79167
2170.013	298.45833
2172.634	285.125
2175.254	270.125
2177.872	304.45833
2180.488	259.79167
2183.102	268.79167
2185.714	265.45833
2188.325	253.79167
2190.934	266.79167
2193.541	272.125
2196.146	259.125
2198.75	248.125
2201.351	245.125
2203.951	242.125
2206.549	258.79167
2209.146	245.79167
2211.74	240.79167
2214.333	250.79167
2216.924	237.79167
2219.514	240.125
2222.101	239.79167
2224.687	254.125
2227.271	233.79167
2229.853	236.79167
2232.433	227.79167
2235.012	246.125
2237.589	244.125
2240.164	257.45833
2242.738	237.79167
2245.309	231.125
2247.879	245.125
2250.448	238.79167
2253.014	225.45833
2255.579	218.79167
2258.142	228.45833
2260.703	221.79167
2263.262	222.45833
2265.82	208.45833
2268.376	229.125
2270.93	221.125
2273.483	209.79167
2276.033	223.79167
2278.583	212.45833
2281.13	210.45833
2283.675	202.45833
2286.219	213.125
2288.761	224.79167
2291.302	218.79167
2293.841	225.45833
2296.377	206.45833
2298.913	214.79167
2301.446	218.45833
2303.978	214.125
2306.508	212.45833
2309.037	210.45833
2311.563	217.79167
2314.088	211.79167
2316.612	193.79167
2319.133	208.79167
2321.653	210.79167
2324.171	202.45833
2326.688	214.45833
2329.202	209.45833
2331.715	206.79167
2334.227	203.79167
2336.736	205.45833
2339.244	197.45833
2341.751	195.125
2344.255	211.45833
2346.758	201.79167
2349.259	195.79167
2351.759	204.125
2354.257	194.45833
2356.753	191.45833
2359.247	193.125
2361.74	199.45833
2364.231	194.79167
2366.721	202.125
2369.209	193.45833
2371.695	190.45833
2374.179	193.45833
2376.662	176.45833
2379.143	200.125
2381.622	193.79167
2384.1	196.45833
2386.576	186.79167
2389.051	203.79167
2391.524	200.45833
2393.995	198.45833
2396.464	183.79167
2398.932	187.125
2401.398	187.45833
2403.863	185.125
2406.325	181.45833
2408.787	192.79167
2411.246	181.45833
2413.704	187.79167
2416.16	180.125
2418.615	182.45833
2421.068	190.125
2423.519	182.125
2425.969	177.45833
2428.417	192.125
2430.863	210.79167
2433.308	191.45833
2435.751	189.125
2438.193	183.125
2440.633	184.79167
2443.071	192.79167
2445.508	172.125
2447.943	175.79167
2450.376	178.79167
2452.808	184.125
2455.238	170.79167
2457.667	200.125
2460.093	167.45833
2462.519	162.125
2464.942	171.79167
2467.365	178.79167
2469.785	177.45833
2472.204	168.125
2474.621	176.45833
2477.037	190.125
2479.451	158.125
2481.863	168.45833
2484.274	162.45833
2486.683	171.125
2489.091	182.125
2491.497	176.79167
2493.901	169.45833
2496.304	171.45833
2498.705	180.79167
2501.105	169.45833
2503.503	192.45833
2505.899	166.125
2508.294	188.125
2510.687	158.79167
2513.079	165.125
2515.469	165.45833
2517.858	160.79167
2520.245	182.125
2522.63	166.79167
2525.014	163.125
2527.396	163.79167
2529.776	161.125
2532.156	166.79167
2534.533	150.125
2536.909	152.79167
2539.283	146.79167
2541.656	154.79167
2544.027	174.79167
2546.397	168.45833
2548.765	162.79167
2551.131	163.45833
2553.496	165.125
2555.86	168.125
2558.221	168.45833
2560.582	158.79167
2562.94	148.79167
2565.298	161.79167
2567.653	171.79167
2570.007	145.79167
2572.36	172.79167
2574.711	153.125
2577.06	169.45833
2579.408	156.79167
2581.754	158.125
2584.099	156.45833
2586.442	149.45833
2588.784	165.125
2591.124	158.45833
2593.463	156.45833
2595.8	158.125
2598.135	144.45833
2600.469	146.125
2602.802	162.79167
2605.133	165.79167
2607.462	150.79167
2609.79	144.125
2612.116	159.45833
2614.441	156.125
2616.764	155.79167
2619.086	158.125
2621.406	150.45833
2623.725	166.125
2626.042	152.79167
2628.358	141.79167
2630.672	154.79167
2632.985	160.125
2635.296	152.125
2637.606	151.45833
2639.914	143.45833
2642.22	147.125
2644.525	158.79167
2646.829	147.45833
2649.131	169.125
2651.432	153.79167
2653.731	149.79167
2656.028	165.125
2658.324	155.45833
2660.619	143.79167
2662.912	158.45833
2665.204	140.125
2667.494	155.125
2669.782	137.45833
2672.07	159.45833
2674.355	160.45833
2676.639	159.125
2678.922	147.45833
2681.203	150.45833
2683.483	150.125
2685.761	137.79167
2688.038	156.79167
2690.313	165.79167
2692.587	152.125
2694.859	149.79167
2697.13	148.45833
2699.399	153.125
2701.667	158.45833
2703.933	154.125
2706.198	156.79167
2708.461	157.45833
2710.723	161.125
2712.984	152.79167
2715.243	164.79167
2717.5	154.45833
2719.757	165.125
2722.011	156.125
2724.264	171.79167
2726.516	169.125
2728.766	145.45833
2731.015	158.45833
2733.262	155.125
2735.508	158.125
2737.753	161.125
2739.996	147.45833
2742.237	148.45833
2744.477	156.79167
2746.716	165.45833
2748.953	164.125
2751.189	166.45833
2753.423	157.79167
2755.656	154.79167
2757.887	142.125
2760.117	145.45833
2762.346	146.79167
2764.573	131.79167
2766.798	148.79167
2769.022	148.79167
2771.245	144.45833
2773.467	145.79167
2775.686	142.45833
2777.905	151.45833
2780.122	150.79167
2782.337	150.125
2784.552	150.79167
2786.764	147.79167
2788.976	141.79167
2791.186	149.79167
2793.394	148.45833
2795.601	160.45833
2797.807	160.79167
2800.011	161.79167
2802.214	166.79167
2804.415	157.79167
2806.615	158.45833
2808.814	160.79167
2811.011	161.45833
2813.206	157.125
2815.401	170.45833
2817.594	172.125
2819.785	169.45833
2821.975	158.125
2824.164	169.45833
2826.351	161.45833
2828.537	183.79167
2830.722	176.125
2832.905	176.125
2835.086	185.45833
2837.267	204.45833
2839.445	197.125
2841.623	199.45833
2843.799	202.125
2845.974	216.79167
2848.147	211.45833
2850.319	227.125
2852.489	241.125
2854.659	242.79167
2856.826	234.45833
2858.993	262.125
2861.158	236.79167
2863.321	242.125
2865.483	262.45833
2867.644	257.125
2869.804	247.45833
2871.962	246.45833
2874.118	253.125
2876.274	255.79167
2878.428	257.79167
2880.58	249.45833
2882.731	241.79167
2884.881	257.125
2887.03	259.45833
2889.177	259.45833
2891.322	255.45833
2893.467	245.45833
2895.61	253.125
2897.751	262.45833
2899.892	251.79167
2902.03	262.79167
2904.168	259.79167
2906.304	260.125
2908.439	279.125
2910.572	253.125
2912.704	256.45833
2914.835	272.45833
2916.965	272.125
2919.093	266.45833
2921.219	250.125
2923.345	281.45833
2925.469	263.79167
2927.591	253.79167
2929.712	242.125
2931.832	255.45833
2933.951	251.125
2936.068	237.79167
2938.184	238.125
2940.299	224.125
2942.412	222.45833
2944.524	208.79167
2946.634	218.45833
2948.744	188.125
2950.851	225.125
2952.958	192.45833
2955.063	199.45833
2957.167	193.125
2959.269	186.45833
2961.371	203.45833
2963.471	173.125
2965.569	197.125
2967.666	166.45833
2969.762	169.45833
2971.857	164.79167
2973.95	155.79167
2976.042	169.79167
2978.133	157.125
2980.222	151.125
2982.31	146.79167
2984.396	137.45833
2986.482	138.125
2988.566	146.45833
2990.648	142.125
2992.73	140.45833
2994.81	132.45833
2996.889	138.125
2998.966	136.79167
3001.042	149.125
3003.117	137.45833
3005.191	135.45833
3007.263	138.79167
3009.334	128.45833
3011.403	138.125
3013.472	129.45833
3015.539	143.45833
3017.604	146.79167
3019.669	123.125
3021.732	127.45833
3023.794	125.125
3025.854	114.79167
3027.914	117.45833
3029.971	117.45833
3032.028	117.79167
3034.083	129.79167
3036.137	123.125
3038.19	112.79167
3040.242	107.125
3042.292	103.45833
3044.341	110.45833
3046.388	127.79167
3048.435	105.79167
3050.48	120.125
3052.524	110.125
3054.566	95.45833
3056.607	111.125
3058.647	105.45833
3060.686	91.45833
3062.723	89.125
3064.759	95.125
3066.794	-0.54167
3068.828	0.125
3070.86	0.45833
