-0.839	145.08333
3.438	156.08333
7.711	64.75
11.981	40.75
16.247	31.41667
20.509	36.41667
24.768	36.75
29.024	42.41667
33.276	30.41667
37.524	42.41667
41.769	31.75
46.01	24.75
50.247	44.41667
54.481	51.75
58.712	55.41667
62.939	39.08333
67.162	52.75
71.382	45.75
75.599	35.08333
79.812	42.08333
84.021	65.08333
88.227	39.41667
92.429	52.08333
96.628	35.08333
100.823	55.08333
105.015	50.08333
109.204	44.41667
113.388	59.41667
117.57	41.75
121.748	57.41667
125.922	46.08333
130.093	62.75
134.261	61.41667
138.425	53.75
142.585	82.75
146.742	65.75
150.896	78.41667
155.046	73.41667
159.193	110.41667
163.336	161.08333
167.476	272.08333
171.613	488.08333
175.746	795.75
179.875	1154.08333
184.002	1481.75
188.124	1753.08333
192.244	1852.75
196.36	1852.75
200.472	1839.08333
204.581	1839.41667
208.687	1774.08333
212.79	1769.41667
216.889	1801.75
220.984	1814.41667
225.077	1827.75
229.165	1833.41667
233.251	1841.41667
237.333	1841.41667
241.412	1816.41667
245.487	1817.08333
249.559	1792.08333
253.628	1789.41667
257.694	1765.75
261.756	1787.75
265.814	1742.41667
269.87	1680.41667
273.922	1671.41667
277.97	1634.75
282.016	1609.08333
286.058	1609.08333
290.097	1642.75
294.132	1653.41667
298.164	1638.41667
302.193	1585.08333
306.219	1488.41667
310.241	1409.75
314.26	1311.41667
318.276	1265.08333
322.288	1219.41667
326.297	1182.41667
330.303	1151.75
334.305	1138.41667
338.305	1127.41667
342.301	1116.75
346.294	1138.75
350.283	1114.41667
354.269	1110.08333
358.252	1105.75
362.232	1098.75
366.209	1102.41667
370.182	1098.08333
374.152	1094.75
378.119	1097.41667
382.083	1082.75
386.043	1086.08333
390	1087.08333
393.954	1094.08333
397.905	1102.41667
401.852	1126.41667
405.797	1090.41667
409.738	1102.08333
413.676	1125.41667
417.61	1140.41667
421.542	1101.08333
425.47	1083.41667
429.396	1076.08333
433.318	1061.75
437.236	1087.41667
441.152	1089.08333
445.065	1050.08333
448.974	1054.41667
452.88	1045.75
456.783	1054.08333
460.683	1050.08333
464.58	1058.08333
468.473	1056.41667
472.364	1061.41667
476.251	1062.41667
480.135	1054.41667
484.016	1059.41667
487.894	1085.08333
491.769	1077.41667
495.641	1081.41667
499.509	1073.08333
503.375	1079.08333
507.237	1074.41667
511.096	1079.75
514.952	1077.75
518.805	1090.41667
522.655	1080.41667
526.502	1071.08333
530.346	1075.75
534.187	1069.41667
538.024	1071.75
541.859	1058.08333
545.69	1095.41667
549.519	1069.75
553.344	1066.08333
557.166	1045.75
560.985	1049.75
564.802	1044.08333
568.615	1021.75
572.425	1008.08333
576.232	1020.75
580.036	1015.08333
583.836	1024.08333
587.634	1031.41667
591.429	1021.41667
595.221	1049.08333
599.01	1043.08333
602.796	1046.08333
606.578	1053.08333
610.358	1047.75
614.135	1037.08333
617.909	1035.08333
621.679	1027.41667
625.447	1029.75
629.212	1031.75
632.973	1045.41667
636.732	1027.75
640.488	1044.41667
644.241	1016.41667
647.991	1002.08333
651.737	1029.75
655.481	995.41667
659.222	1009.41667
662.96	1001.41667
666.695	1004.75
670.427	1024.75
674.156	1020.41667
677.882	1010.08333
681.605	1032.41667
685.325	1000.75
689.043	1027.41667
692.757	1004.75
696.468	1002.41667
700.177	1005.41667
703.882	976.08333
707.585	991.08333
711.284	992.08333
714.981	971.41667
718.675	977.75
722.366	985.08333
726.054	954.41667
729.739	974.75
733.421	991.08333
737.1	978.75
740.777	1002.75
744.45	989.75
748.121	981.41667
751.789	1014.08333
755.453	992.41667
759.115	1012.08333
762.774	998.41667
766.431	1002.41667
770.084	1014.08333
773.734	999.41667
777.382	1022.08333
781.027	1024.08333
784.669	1023.41667
788.308	1003.41667
791.944	1034.08333
795.577	1039.75
799.208	1032.41667
802.835	1031.41667
806.46	1040.75
810.082	1042.08333
813.701	1046.75
817.317	1052.41667
820.931	1047.75
824.542	1044.75
828.149	1041.08333
831.754	1012.75
835.357	1029.08333
838.956	1037.41667
842.553	1035.08333
846.146	1016.08333
849.737	990.75
853.326	1011.41667
856.911	997.75
860.493	1021.08333
864.073	1029.75
867.65	1040.08333
871.225	1063.08333
874.796	1027.41667
878.365	1014.41667
881.931	1027.75
885.494	1045.41667
889.054	1027.75
892.612	1034.41667
896.166	1016.41667
899.719	981.41667
903.268	989.08333
906.814	989.41667
910.358	994.08333
913.899	969.41667
917.438	962.41667
920.973	954.08333
924.506	971.75
928.036	988.75
931.564	999.41667
935.088	1016.08333
938.61	994.41667
942.129	1006.08333
945.646	1018.75
949.16	1030.41667
952.671	1026.08333
956.179	1052.08333
959.685	1030.41667
963.188	1054.41667
966.688	1024.75
970.185	999.75
973.68	972.08333
977.173	972.08333
980.662	949.08333
984.149	971.75
987.633	940.08333
991.114	971.75
994.593	985.41667
998.069	1001.75
1001.542	1018.75
1005.013	1008.41667
1008.481	942.08333
1011.947	947.41667
1015.409	935.41667
1018.869	925.75
1022.327	934.41667
1025.782	919.08333
1029.234	917.41667
1032.683	900.41667
1036.13	886.08333
1039.574	857.75
1043.016	840.08333
1046.455	835.08333
1049.891	826.08333
1053.325	827.41667
1056.756	817.75
1060.184	828.41667
1063.61	810.41667
1067.033	829.41667
1070.454	822.75
1073.872	854.08333
1077.287	817.75
1080.7	826.75
1084.11	830.75
1087.517	821.08333
1090.922	812.75
1094.325	802.75
1097.724	800.08333
1101.122	790.08333
1104.516	801.41667
1107.908	777.08333
1111.298	783.75
1114.684	797.08333
1118.069	792.75
1121.45	812.75
1124.83	792.75
1128.206	817.75
1131.58	818.75
1134.951	835.41667
1138.32	840.41667
1141.687	884.08333
1145.05	897.41667
1148.412	897.41667
1151.77	892.75
1155.126	880.08333
1158.48	873.08333
1161.831	873.08333
1165.18	884.08333
1168.525	892.41667
1171.869	913.41667
1175.21	906.08333
1178.548	908.08333
1181.884	917.41667
1185.217	926.08333
1188.548	939.08333
1191.877	951.75
1195.202	999.08333
1198.526	1010.41667
1201.846	996.75
1205.165	1001.75
1208.48	1020.08333
1211.794	1018.08333
1215.104	1018.08333
1218.413	1010.75
1221.719	986.41667
1225.022	980.08333
1228.323	968.75
1231.621	969.41667
1234.917	959.08333
1238.21	982.08333
1241.501	972.75
1244.79	953.41667
1248.076	939.41667
1251.359	963.08333
1254.64	1005.08333
1257.919	987.75
1261.195	997.41667
1264.468	994.08333
1267.74	1012.08333
1271.008	1012.75
1274.275	1012.08333
1277.538	1002.08333
1280.8	1004.08333
1284.059	1003.08333
1287.315	1008.41667
1290.569	1009.41667
1293.821	1029.08333
1297.07	1013.41667
1300.317	1023.75
1303.562	1030.08333
1306.803	1013.75
1310.043	1007.08333
1313.28	995.75
1316.515	989.41667
1319.747	1002.41667
1322.977	996.75
1326.204	989.75
1329.429	979.41667
1332.652	976.75
1335.872	976.75
1339.09	955.75
1342.306	968.75
1345.519	957.75
1348.729	942.08333
1351.938	963.41667
1355.144	926.75
1358.347	916.08333
1361.548	940.08333
1364.747	943.75
1367.944	911.75
1371.138	919.41667
1374.329	924.75
1377.518	919.75
1380.705	920.08333
1383.89	928.41667
1387.072	891.08333
1390.252	886.75
1393.429	852.75
1396.605	845.08333
1399.777	797.75
1402.948	800.75
1406.116	781.75
1409.282	787.41667
1412.445	784.08333
1415.606	795.75
1418.765	800.75
1421.921	812.08333
1425.075	816.75
1428.227	841.41667
1431.376	873.41667
1434.524	893.08333
1437.668	917.41667
1440.811	911.08333
1443.951	924.75
1447.089	935.41667
1450.224	920.75
1453.357	914.75
1456.488	919.41667
1459.617	900.08333
1462.743	901.75
1465.867	870.08333
1468.989	859.75
1472.108	840.08333
1475.225	846.75
1478.34	819.08333
1481.453	818.75
1484.563	812.75
1487.671	833.08333
1490.776	840.41667
1493.88	841.08333
1496.981	863.08333
1500.08	867.41667
1503.176	876.41667
1506.271	874.41667
1509.363	893.08333
1512.452	883.75
1515.54	902.41667
1518.625	903.41667
1521.708	941.41667
1524.789	971.41667
1527.867	978.75
1530.944	1036.75
1534.018	1051.08333
1537.089	1096.41667
1540.159	1109.41667
1543.226	1123.75
1546.291	1095.08333
1549.354	1079.41667
1552.415	1054.41667
1555.473	1044.41667
1558.529	1033.41667
1561.583	1029.75
1564.634	1002.75
1567.684	989.75
1570.731	1007.41667
1573.776	1002.08333
1576.819	1000.75
1579.859	1000.08333
1582.898	1031.75
1585.934	1042.75
1588.968	1052.75
1591.999	1023.08333
1595.029	1015.75
1598.056	1042.41667
1601.081	1049.75
1604.104	1045.41667
1607.125	1027.08333
1610.144	1002.41667
1613.16	989.41667
1616.174	960.08333
1619.186	960.41667
1622.196	931.41667
1625.203	910.75
1628.209	911.41667
1631.212	902.08333
1634.213	916.08333
1637.212	903.75
1640.209	904.08333
1643.203	872.75
1646.196	860.75
1649.186	831.75
1652.174	811.08333
1655.16	789.41667
1658.144	780.75
1661.125	755.41667
1664.105	708.41667
1667.082	702.75
1670.057	651.75
1673.03	612.75
1676.001	590.08333
1678.97	547.08333
1681.937	535.08333
1684.901	505.41667
1687.863	495.08333
1690.824	466.41667
1693.782	483.08333
1696.738	440.41667
1699.692	449.08333
1702.643	425.75
1705.593	438.75
1708.54	425.41667
1711.486	433.08333
1714.429	412.75
1717.37	430.41667
1720.309	413.41667
1723.246	425.75
1726.181	403.41667
1729.113	399.08333
1732.044	400.08333
1734.972	396.08333
1737.899	414.75
1740.823	407.41667
1743.745	428.08333
1746.665	390.41667
1749.583	381.08333
1752.499	385.41667
1755.413	380.08333
1758.325	368.41667
1761.235	372.41667
1764.142	358.08333
1767.048	367.08333
1769.951	363.75
1772.852	362.08333
1775.752	379.08333
1778.649	378.75
1781.544	378.08333
1784.437	352.41667
1787.328	352.08333
1790.217	356.41667
1793.104	335.75
1795.989	347.41667
1798.872	330.08333
1801.753	348.75
1804.631	334.75
1807.508	342.75
1810.383	339.08333
1813.255	338.75
1816.126	332.08333
1818.994	331.75
1821.861	332.08333
1824.725	341.08333
1827.587	328.08333
1830.448	333.75
1833.306	324.08333
1836.162	336.08333
1839.017	328.41667
1841.869	325.08333
1844.719	327.41667
1847.567	314.75
1850.414	304.08333
1853.258	306.75
1856.1	320.75
1858.94	328.75
1861.778	317.41667
1864.614	306.41667
1867.448	319.41667
1870.28	306.75
1873.111	327.08333
1875.939	312.75
1878.765	336.08333
1881.589	307.41667
1884.411	312.08333
1887.231	307.75
1890.049	306.08333
1892.865	316.75
1895.68	298.75
1898.492	309.75
1901.302	310.41667
1904.11	298.41667
1906.916	302.41667
1909.721	302.08333
1912.523	304.08333
1915.323	284.75
1918.122	283.75
1920.918	297.75
1923.712	288.08333
1926.505	295.41667
1929.295	283.08333
1932.084	298.41667
1934.87	293.41667
1937.655	287.08333
1940.438	283.41667
1943.218	284.75
1945.997	289.08333
1948.774	291.41667
1951.549	300.75
1954.322	279.08333
1957.093	284.41667
1959.862	275.08333
1962.629	287.41667
1965.394	270.41667
1968.157	274.41667
1970.918	291.08333
1973.678	268.75
1976.435	281.08333
1979.19	275.08333
1981.944	266.08333
1984.696	272.75
1987.445	269.75
1990.193	269.75
1992.939	280.75
1995.683	275.75
1998.425	255.08333
2001.165	288.08333
2003.903	255.08333
2006.639	264.75
2009.374	270.41667
2012.106	266.75
2014.837	250.75
2017.566	274.41667
2020.292	264.08333
2023.017	253.75
2025.74	253.41667
2028.461	249.41667
2031.18	258.75
2033.898	245.08333
2036.613	257.08333
2039.327	258.41667
2042.038	244.41667
2044.748	255.41667
2047.456	260.41667
2050.162	240.41667
2052.866	250.75
2055.568	253.08333
2058.268	247.75
2060.967	259.08333
2063.663	246.08333
2066.358	236.75
2069.051	240.41667
2071.742	245.75
2074.431	249.41667
2077.118	245.08333
2079.804	238.41667
2082.487	236.08333
2085.169	255.75
2087.849	262.41667
2090.527	245.41667
2093.203	247.75
2095.877	244.75
2098.55	244.41667
2101.22	252.41667
2103.889	255.75
2106.556	245.41667
2109.221	261.08333
2111.884	255.08333
2114.546	275.08333
2117.205	278.08333
2119.863	310.08333
2122.519	303.75
2125.173	325.08333
2127.825	355.41667
2130.475	359.41667
2133.124	333.75
2135.771	314.75
2138.416	331.08333
2141.059	307.75
2143.7	301.41667
2146.339	272.41667
2148.977	256.08333
2151.613	267.75
2154.247	261.08333
2156.879	258.08333
2159.51	245.75
2162.138	247.75
2164.765	241.41667
2167.39	234.08333
2170.013	258.08333
2172.634	241.08333
2175.254	235.41667
2177.872	272.75
2180.488	217.08333
2183.102	227.41667
2185.714	228.08333
2188.325	221.75
2190.934	227.41667
2193.541	228.75
2196.146	218.75
2198.75	213.75
2201.351	216.41667
2203.951	203.08333
2206.549	219.41667
2209.146	215.41667
2211.74	207.41667
2214.333	216.41667
2216.924	198.41667
2219.514	207.08333
2222.101	200.08333
2224.687	214.08333
2227.271	194.41667
2229.853	201.75
2232.433	185.75
2235.012	210.08333
2237.589	202.08333
2240.164	213.75
2242.738	191.41667
2245.309	192.08333
2247.879	208.41667
2250.448	207.75
2253.014	186.75
2255.579	183.75
2258.142	194.75
2260.703	192.08333
2263.262	182.75
2265.82	178.41667
2268.376	198.08333
2270.93	188.41667
2273.483	176.41667
2276.033	195.75
2278.583	183.08333
2281.13	182.41667
2283.675	173.75
2286.219	177.41667
2288.761	187.08333
2291.302	190.08333
2293.841	198.75
2296.377	170.75
2298.913	182.08333
2301.446	197.41667
2303.978	181.41667
2306.508	180.75
2309.037	186.41667
2311.563	184.41667
2314.088	177.08333
2316.612	169.41667
2319.133	179.08333
2321.653	180.41667
2324.171	174.75
2326.688	181.08333
2329.202	178.75
2331.715	181.75
2334.227	178.41667
2336.736	175.08333
2339.244	171.41667
2341.751	160.41667
2344.255	180.08333
2346.758	172.75
2349.259	166.75
2351.759	178.41667
2354.257	160.08333
2356.753	161.08333
2359.247	167.75
2361.74	166.75
2364.231	165.75
2366.721	181.75
2369.209	165.75
2371.695	165.41667
2374.179	160.41667
2376.662	152.41667
2379.143	179.75
2381.622	162.41667
2384.1	173.08333
2386.576	164.08333
2389.051	174.75
2391.524	169.41667
2393.995	176.75
2396.464	159.75
2398.932	154.08333
2401.398	168.41667
2403.863	152.08333
2406.325	153.41667
2408.787	159.75
2411.246	163.41667
2413.704	157.08333
2416.16	158.08333
2418.615	157.41667
2421.068	163.41667
2423.519	157.41667
2425.969	148.75
2428.417	162.75
2430.863	176.41667
2433.308	162.75
2435.751	165.41667
2438.193	159.75
2440.633	161.75
2443.071	163.41667
2445.508	156.75
2447.943	156.41667
2450.376	147.75
2452.808	159.75
2455.238	148.08333
2457.667	174.08333
2460.093	152.41667
2462.519	139.41667
2464.942	148.75
2467.365	152.41667
2469.785	157.41667
2472.204	145.41667
2474.621	146.75
2477.037	162.08333
2479.451	138.75
2481.863	139.75
2484.274	145.41667
2486.683	146.75
2489.091	157.08333
2491.497	148.41667
2493.901	149.75
2496.304	146.08333
2498.705	156.08333
2501.105	150.75
2503.503	165.41667
2505.899	143.08333
2508.294	156.75
2510.687	144.75
2513.079	148.41667
2515.469	142.75
2517.858	139.08333
2520.245	158.41667
2522.63	147.41667
2525.014	141.41667
2527.396	138.08333
2529.776	145.08333
2532.156	149.08333
2534.533	137.75
2536.909	133.08333
2539.283	124.75
2541.656	137.41667
2544.027	153.75
2546.397	143.41667
2548.765	135.41667
2551.131	144.75
2553.496	145.08333
2555.86	145.08333
2558.221	148.08333
2560.582	138.08333
2562.94	135.75
2565.298	139.08333
2567.653	147.75
2570.007	125.75
2572.36	146.08333
2574.711	136.75
2577.06	151.08333
2579.408	139.08333
2581.754	132.75
2584.099	134.41667
2586.442	137.41667
2588.784	139.75
2591.124	133.08333
2593.463	134.41667
2595.8	141.08333
2598.135	127.75
2600.469	127.08333
2602.802	141.75
2605.133	144.08333
2607.462	128.08333
2609.79	122.75
2612.116	141.08333
2614.441	132.41667
2616.764	138.41667
2619.086	134.75
2621.406	128.41667
2623.725	143.41667
2626.042	126.75
2628.358	124.75
2630.672	137.08333
2632.985	147.41667
2635.296	142.41667
2637.606	132.75
2639.914	132.41667
2642.22	134.75
2644.525	130.41667
2646.829	136.75
2649.131	148.41667
2651.432	141.75
2653.731	131.08333
2656.028	148.08333
2658.324	141.41667
2660.619	123.08333
2662.912	146.08333
2665.204	126.75
2667.494	138.08333
2669.782	125.08333
2672.07	141.08333
2674.355	144.41667
2676.639	134.75
2678.922	130.75
2681.203	138.41667
2683.483	131.08333
2685.761	124.41667
2688.038	142.08333
2690.313	148.75
2692.587	133.41667
2694.859	134.08333
2697.13	136.08333
2699.399	139.75
2701.667	145.41667
2703.933	138.75
2706.198	142.08333
2708.461	146.41667
2710.723	143.75
2712.984	136.75
2715.243	143.75
2717.5	138.75
2719.757	145.41667
2722.011	134.41667
2724.264	153.08333
2726.516	152.75
2728.766	135.75
2731.015	142.41667
2733.262	141.41667
2735.508	134.41667
2737.753	143.75
2739.996	127.08333
2742.237	132.75
2744.477	153.41667
2746.716	152.08333
2748.953	144.41667
2751.189	144.08333
2753.423	149.41667
2755.656	135.41667
2757.887	129.41667
2760.117	138.41667
2762.346	130.75
2764.573	121.08333
2766.798	131.41667
2769.022	139.08333
2771.245	123.75
2773.467	131.41667
2775.686	135.08333
2777.905	138.08333
2780.122	129.75
2782.337	139.08333
2784.552	129.41667
2786.764	131.08333
2788.976	133.75
2791.186	136.75
2793.394	135.75
2795.601	140.41667
2797.807	143.08333
2800.011	137.41667
2802.214	146.08333
2804.415	138.08333
2806.615	142.41667
2808.814	139.75
2811.011	144.75
2813.206	145.41667
2815.401	157.75
2817.594	157.41667
2819.785	160.41667
2821.975	143.08333
2824.164	150.75
2826.351	146.41667
2828.537	165.41667
2830.722	157.41667
2832.905	156.75
2835.086	170.75
2837.267	181.41667
2839.445	182.41667
2841.623	177.08333
2843.799	176.41667
2845.974	180.75
2848.147	195.75
2850.319	201.41667
2852.489	203.08333
2854.659	214.75
2856.826	206.75
2858.993	230.08333
2861.158	207.08333
2863.321	211.41667
2865.483	231.41667
2867.644	223.41667
2869.804	222.41667
2871.962	212.41667
2874.118	221.41667
2876.274	230.75
2878.428	229.08333
2880.58	228.08333
2882.731	214.41667
2884.881	218.75
2887.03	230.41667
2889.177	222.41667
2891.322	222.41667
2893.467	215.41667
2895.61	211.41667
2897.751	232.75
2899.892	218.41667
2902.03	223.75
2904.168	220.75
2906.304	225.41667
2908.439	242.41667
2910.572	222.75
2912.704	224.75
2914.835	228.75
2916.965	226.41667
2919.093	247.08333
2921.219	213.75
2923.345	246.08333
2925.469	224.08333
2927.591	222.41667
2929.712	210.41667
2931.832	222.08333
2933.951	212.08333
2936.068	208.08333
2938.184	207.08333
2940.299	203.75
2942.412	204.41667
2944.524	181.08333
2946.634	189.41667
2948.744	170.08333
2950.851	199.41667
2952.958	171.08333
2955.063	176.75
2957.167	170.08333
2959.269	158.41667
2961.371	186.08333
2963.471	162.08333
2965.569	172.75
2967.666	150.41667
2969.762	144.41667
2971.857	147.75
2973.95	142.75
2976.042	156.08333
2978.133	143.08333
2980.222	144.41667
2982.31	132.75
2984.396	123.08333
2986.482	124.75
2988.566	126.08333
2990.648	128.75
2992.73	124.75
2994.81	111.41667
2996.889	133.75
2998.966	120.08333
3001.042	135.08333
3003.117	121.41667
3005.191	124.75
3007.263	133.41667
3009.334	121.41667
3011.403	129.08333
3013.472	116.08333
3015.539	129.08333
3017.604	137.08333
3019.669	110.08333
3021.732	116.41667
3023.794	119.08333
3025.854	113.08333
3027.914	104.75
3029.971	109.08333
3032.028	112.08333
3034.083	119.41667
3036.137	111.41667
3038.19	103.08333
3040.242	98.41667
3042.292	98.08333
3044.341	105.75
3046.388	112.41667
3048.435	100.08333
3050.48	113.75
3052.524	106.75
3054.566	86.41667
3056.607	101.75
3058.647	95.08333
3060.686	90.75
3062.723	84.75
3064.759	87.41667
3066.794	0.41667
3068.828	1.41667
3070.86	3.41667
