-0.839	137.45833
3.438	157.45833
7.711	66.79167
11.981	44.125
16.247	30.45833
20.509	42.79167
24.768	30.45833
29.024	44.45833
33.276	31.79167
37.524	42.79167
41.769	31.45833
46.01	28.45833
50.247	43.125
54.481	53.125
58.712	55.125
62.939	36.45833
67.162	52.125
71.382	47.125
75.599	37.125
79.812	46.79167
84.021	65.79167
88.227	42.125
92.429	54.125
96.628	39.79167
100.823	53.79167
105.015	52.79167
109.204	51.125
113.388	59.45833
117.57	42.79167
121.748	57.45833
125.922	51.125
130.093	67.125
134.261	65.45833
138.425	58.125
142.585	88.45833
146.742	64.79167
150.896	80.79167
155.046	78.45833
159.193	120.125
163.336	177.45833
167.476	300.79167
171.613	538.79167
175.746	872.79167
179.875	1264.125
184.002	1661.79167
188.124	1977.79167
192.244	2076.45833
196.36	2086.79167
200.472	2067.79167
204.581	2062.125
208.687	2018.79167
212.79	2027.45833
216.889	2059.125
220.984	2074.45833
225.077	2123.125
229.165	2145.45833
233.251	2108.79167
237.333	2146.125
241.412	2122.45833
245.487	2121.45833
249.559	2096.125
253.628	2094.45833
257.694	2067.79167
261.756	2087.125
265.814	2036.45833
269.87	1966.125
273.922	1930.79167
277.97	1891.125
282.016	1902.45833
286.058	1853.45833
290.097	1903.79167
294.132	1904.45833
298.164	1904.45833
302.193	1817.79167
306.219	1743.125
310.241	1610.125
314.26	1516.125
318.276	1446.79167
322.288	1399.45833
326.297	1347.45833
330.303	1319.79167
334.305	1290.125
338.305	1281.125
342.301	1286.79167
346.294	1275.45833
350.283	1258.45833
354.269	1258.79167
358.252	1258.45833
362.232	1258.45833
366.209	1262.79167
370.182	1246.45833
374.152	1235.79167
378.119	1248.79167
382.083	1243.79167
386.043	1249.79167
390	1238.79167
393.954	1250.45833
397.905	1246.45833
401.852	1267.45833
405.797	1238.79167
409.738	1240.79167
413.676	1250.125
417.61	1260.125
421.542	1251.45833
425.47	1227.45833
429.396	1218.45833
433.318	1216.79167
437.236	1209.45833
441.152	1249.79167
445.065	1190.45833
448.974	1210.79167
452.88	1202.79167
456.783	1191.45833
460.683	1192.125
464.58	1195.45833
468.473	1201.79167
472.364	1217.79167
476.251	1217.45833
480.135	1199.45833
484.016	1216.125
487.894	1223.79167
491.769	1232.79167
495.641	1231.79167
499.509	1237.79167
503.375	1224.45833
507.237	1222.125
511.096	1218.45833
514.952	1234.125
518.805	1232.79167
522.655	1234.45833
526.502	1224.79167
530.346	1221.125
534.187	1229.79167
538.024	1218.79167
541.859	1202.79167
545.69	1246.125
549.519	1221.125
553.344	1219.125
557.166	1198.79167
560.985	1189.79167
564.802	1184.125
568.615	1174.79167
572.425	1164.79167
576.232	1159.125
580.036	1147.45833
583.836	1164.45833
587.634	1172.45833
591.429	1155.45833
595.221	1189.125
599.01	1186.79167
602.796	1174.79167
606.578	1188.125
610.358	1196.45833
614.135	1199.125
617.909	1201.45833
621.679	1184.125
625.447	1162.79167
629.212	1176.79167
632.973	1177.125
636.732	1175.79167
640.488	1169.125
644.241	1153.45833
647.991	1152.79167
651.737	1166.45833
655.481	1135.45833
659.222	1152.125
662.96	1151.125
666.695	1167.79167
670.427	1169.79167
674.156	1169.79167
677.882	1164.125
681.605	1173.45833
685.325	1144.125
689.043	1182.125
692.757	1137.45833
696.468	1152.45833
700.177	1137.45833
703.882	1113.45833
707.585	1117.79167
711.284	1114.125
714.981	1105.79167
718.675	1107.79167
722.366	1136.45833
726.054	1092.79167
729.739	1115.79167
733.421	1102.79167
737.1	1111.79167
740.777	1131.125
744.45	1111.79167
748.121	1117.79167
751.789	1140.45833
755.453	1129.45833
759.115	1140.125
762.774	1146.79167
766.431	1136.45833
770.084	1140.79167
773.734	1151.125
777.382	1158.125
781.027	1158.45833
784.669	1160.125
788.308	1156.125
791.944	1168.125
795.577	1195.125
799.208	1185.45833
802.835	1171.125
806.46	1189.79167
810.082	1207.125
813.701	1207.45833
817.317	1207.79167
820.931	1194.125
824.542	1199.125
828.149	1180.79167
831.754	1173.125
835.357	1165.125
838.956	1178.79167
842.553	1170.125
846.146	1138.79167
849.737	1132.45833
853.326	1132.79167
856.911	1128.125
860.493	1163.125
864.073	1152.125
867.65	1168.125
871.225	1184.125
874.796	1177.125
878.365	1172.45833
881.931	1181.45833
885.494	1169.125
889.054	1173.125
892.612	1183.45833
896.166	1153.79167
899.719	1142.45833
903.268	1121.125
906.814	1134.45833
910.358	1132.125
913.899	1116.79167
917.438	1110.45833
920.973	1075.45833
924.506	1100.45833
928.036	1132.79167
931.564	1149.79167
935.088	1169.125
938.61	1146.79167
942.129	1152.45833
945.646	1164.79167
949.16	1176.45833
952.671	1191.45833
956.179	1206.45833
959.685	1203.79167
963.188	1221.125
966.688	1197.79167
970.185	1163.79167
973.68	1128.79167
977.173	1120.79167
980.662	1108.125
984.149	1123.125
987.633	1097.45833
991.114	1102.45833
994.593	1138.125
998.069	1154.125
1001.542	1171.125
1005.013	1164.45833
1008.481	1116.79167
1011.947	1093.45833
1015.409	1062.125
1018.869	1096.45833
1022.327	1086.125
1025.782	1067.125
1029.234	1051.125
1032.683	1067.79167
1036.13	1034.125
1039.574	984.125
1043.016	976.79167
1046.455	969.79167
1049.891	944.125
1053.325	960.45833
1056.756	940.125
1060.184	969.45833
1063.61	948.45833
1067.033	954.125
1070.454	958.45833
1073.872	984.45833
1077.287	945.45833
1080.7	963.45833
1084.11	951.125
1087.517	955.45833
1090.922	951.125
1094.325	931.125
1097.724	924.125
1101.122	917.125
1104.516	919.45833
1107.908	909.125
1111.298	929.125
1114.684	923.79167
1118.069	920.125
1121.45	942.79167
1124.83	932.125
1128.206	949.79167
1131.58	947.79167
1134.951	979.45833
1138.32	988.79167
1141.687	1017.45833
1145.05	1045.79167
1148.412	1036.45833
1151.77	1029.79167
1155.126	1024.125
1158.48	1011.125
1161.831	1035.45833
1165.18	1033.125
1168.525	1043.45833
1171.869	1064.45833
1175.21	1044.125
1178.548	1064.79167
1181.884	1069.79167
1185.217	1079.79167
1188.548	1101.125
1191.877	1111.45833
1195.202	1160.79167
1198.526	1190.125
1201.846	1172.45833
1205.165	1172.125
1208.48	1191.79167
1211.794	1167.79167
1215.104	1205.79167
1218.413	1156.45833
1221.719	1180.45833
1225.022	1138.45833
1228.323	1138.125
1231.621	1119.79167
1234.917	1119.125
1238.21	1144.79167
1241.501	1113.45833
1244.79	1102.45833
1248.076	1085.125
1251.359	1107.45833
1254.64	1161.79167
1257.919	1124.125
1261.195	1164.79167
1264.468	1164.79167
1267.74	1174.79167
1271.008	1179.79167
1274.275	1163.45833
1277.538	1176.125
1280.8	1166.45833
1284.059	1173.79167
1287.315	1191.125
1290.569	1170.79167
1293.821	1185.45833
1297.07	1192.45833
1300.317	1191.45833
1303.562	1203.79167
1306.803	1182.79167
1310.043	1174.79167
1313.28	1154.45833
1316.515	1159.79167
1319.747	1157.125
1322.977	1159.45833
1326.204	1144.79167
1329.429	1123.125
1332.652	1132.125
1335.872	1131.45833
1339.09	1120.125
1342.306	1117.79167
1345.519	1119.45833
1348.729	1102.79167
1351.938	1112.45833
1355.144	1087.125
1358.347	1072.45833
1361.548	1085.79167
1364.747	1072.45833
1367.944	1048.79167
1371.138	1061.45833
1374.329	1042.45833
1377.518	1054.125
1380.705	1073.125
1383.89	1050.45833
1387.072	1030.45833
1390.252	1000.79167
1393.429	988.45833
1396.605	956.45833
1399.777	925.125
1402.948	907.45833
1406.116	909.79167
1409.282	902.79167
1412.445	895.79167
1415.606	917.125
1418.765	915.45833
1421.921	918.125
1425.075	945.79167
1428.227	974.79167
1431.376	1013.45833
1434.524	1036.79167
1437.668	1054.79167
1440.811	1054.45833
1443.951	1083.45833
1447.089	1070.79167
1450.224	1077.125
1453.357	1066.45833
1456.488	1068.79167
1459.617	1061.125
1462.743	1029.45833
1465.867	999.45833
1468.989	1000.45833
1472.108	982.79167
1475.225	973.125
1478.34	956.45833
1481.453	946.45833
1484.563	952.79167
1487.671	957.45833
1490.776	972.45833
1493.88	973.79167
1496.981	983.125
1500.08	1007.45833
1503.176	1009.79167
1506.271	1012.79167
1509.363	1045.125
1512.452	1024.45833
1515.54	1042.79167
1518.625	1049.79167
1521.708	1095.45833
1524.789	1111.79167
1527.867	1152.45833
1530.944	1198.79167
1534.018	1227.45833
1537.089	1270.79167
1540.159	1288.79167
1543.226	1301.125
1546.291	1272.125
1549.354	1257.45833
1552.415	1235.45833
1555.473	1189.45833
1558.529	1182.45833
1561.583	1156.45833
1564.634	1166.125
1567.684	1151.79167
1570.731	1157.79167
1573.776	1169.125
1576.819	1171.125
1579.859	1183.79167
1582.898	1199.125
1585.934	1217.79167
1588.968	1232.45833
1591.999	1193.125
1595.029	1187.45833
1598.056	1206.79167
1601.081	1234.125
1604.104	1226.45833
1607.125	1215.125
1610.144	1198.45833
1613.16	1163.45833
1616.174	1122.79167
1619.186	1121.45833
1622.196	1094.45833
1625.203	1064.45833
1628.209	1067.79167
1631.212	1056.125
1634.213	1045.125
1637.212	1083.79167
1640.209	1077.125
1643.203	1019.125
1646.196	989.45833
1649.186	957.79167
1652.174	947.79167
1655.16	922.79167
1658.144	892.45833
1661.125	853.45833
1664.105	818.125
1667.082	795.45833
1670.057	748.45833
1673.03	713.45833
1676.001	675.79167
1678.97	641.45833
1681.937	615.45833
1684.901	579.125
1687.863	586.79167
1690.824	541.125
1693.782	554.79167
1696.738	514.79167
1699.692	521.125
1702.643	495.79167
1705.593	502.125
1708.54	488.79167
1711.486	500.79167
1714.429	483.125
1717.37	491.45833
1720.309	476.125
1723.246	481.79167
1726.181	462.45833
1729.113	460.125
1732.044	464.79167
1734.972	458.125
1737.899	474.45833
1740.823	469.45833
1743.745	484.125
1746.665	439.79167
1749.583	433.45833
1752.499	443.45833
1755.413	432.79167
1758.325	422.79167
1761.235	430.125
1764.142	416.125
1767.048	407.79167
1769.951	409.79167
1772.852	407.45833
1775.752	416.45833
1778.649	421.45833
1781.544	426.125
1784.437	395.125
1787.328	409.79167
1790.217	403.125
1793.104	378.125
1795.989	384.79167
1798.872	380.125
1801.753	398.125
1804.631	386.125
1807.508	396.79167
1810.383	375.79167
1813.255	383.79167
1816.126	386.45833
1818.994	377.79167
1821.861	378.45833
1824.725	387.79167
1827.587	385.125
1830.448	374.125
1833.306	369.45833
1836.162	377.45833
1839.017	374.79167
1841.869	372.125
1844.719	364.79167
1847.567	347.45833
1850.414	354.125
1853.258	352.79167
1856.1	370.125
1858.94	376.125
1861.778	360.79167
1864.614	352.79167
1867.448	365.79167
1870.28	342.79167
1873.111	372.79167
1875.939	359.45833
1878.765	366.79167
1881.589	352.79167
1884.411	355.125
1887.231	352.79167
1890.049	351.45833
1892.865	366.125
1895.68	344.79167
1898.492	350.45833
1901.302	341.45833
1904.11	348.45833
1906.916	349.45833
1909.721	339.45833
1912.523	348.45833
1915.323	329.45833
1918.122	338.125
1920.918	353.79167
1923.712	326.45833
1926.505	335.79167
1929.295	322.125
1932.084	333.79167
1934.87	326.45833
1937.655	328.125
1940.438	317.79167
1943.218	330.125
1945.997	329.125
1948.774	330.79167
1951.549	346.45833
1954.322	325.79167
1957.093	322.45833
1959.862	319.125
1962.629	323.79167
1965.394	316.79167
1968.157	301.79167
1970.918	325.79167
1973.678	309.45833
1976.435	317.125
1979.19	313.125
1981.944	302.79167
1984.696	307.79167
1987.445	303.125
1990.193	308.45833
1992.939	322.125
1995.683	308.79167
1998.425	294.45833
2001.165	324.125
2003.903	293.79167
2006.639	307.125
2009.374	305.45833
2012.106	310.79167
2014.837	286.125
2017.566	303.79167
2020.292	294.45833
2023.017	288.79167
2025.74	289.45833
2028.461	285.45833
2031.18	297.125
2033.898	292.125
2036.613	291.125
2039.327	292.125
2042.038	283.125
2044.748	291.45833
2047.456	294.79167
2050.162	274.79167
2052.866	289.79167
2055.568	292.79167
2058.268	276.125
2060.967	287.45833
2063.663	273.45833
2066.358	274.45833
2069.051	274.79167
2071.742	278.79167
2074.431	286.45833
2077.118	281.79167
2079.804	267.125
2082.487	277.125
2085.169	292.125
2087.849	302.125
2090.527	270.45833
2093.203	276.45833
2095.877	276.79167
2098.55	277.45833
2101.22	289.45833
2103.889	285.45833
2106.556	282.45833
2109.221	295.79167
2111.884	286.125
2114.546	303.125
2117.205	309.45833
2119.863	348.45833
2122.519	327.45833
2125.173	355.79167
2127.825	382.79167
2130.475	387.45833
2133.124	361.79167
2135.771	346.125
2138.416	362.79167
2141.059	331.45833
2143.7	330.45833
2146.339	307.79167
2148.977	284.45833
2151.613	295.45833
2154.247	285.79167
2156.879	284.125
2159.51	270.125
2162.138	267.45833
2164.765	263.125
2167.39	252.45833
2170.013	274.45833
2172.634	279.125
2175.254	259.125
2177.872	296.79167
2180.488	254.45833
2183.102	256.45833
2185.714	255.125
2188.325	247.45833
2190.934	256.125
2193.541	259.79167
2196.146	256.79167
2198.75	234.125
2201.351	249.125
2203.951	227.125
2206.549	242.125
2209.146	236.45833
2211.74	235.45833
2214.333	243.79167
2216.924	234.79167
2219.514	237.79167
2222.101	228.45833
2224.687	242.125
2227.271	225.125
2229.853	230.45833
2232.433	218.79167
2235.012	244.79167
2237.589	227.125
2240.164	239.45833
2242.738	222.45833
2245.309	215.79167
2247.879	233.45833
2250.448	229.79167
2253.014	210.125
2255.579	207.125
2258.142	217.79167
2260.703	217.45833
2263.262	205.45833
2265.82	205.125
2268.376	227.79167
2270.93	215.79167
2273.483	201.79167
2276.033	218.125
2278.583	209.45833
2281.13	208.125
2283.675	195.79167
2286.219	202.79167
2288.761	211.125
2291.302	208.45833
2293.841	219.45833
2296.377	198.45833
2298.913	211.45833
2301.446	218.125
2303.978	205.79167
2306.508	205.79167
2309.037	209.79167
2311.563	199.125
2314.088	206.79167
2316.612	186.79167
2319.133	203.79167
2321.653	210.45833
2324.171	197.79167
2326.688	203.79167
2329.202	203.79167
2331.715	197.45833
2334.227	197.79167
2336.736	201.79167
2339.244	195.79167
2341.751	189.125
2344.255	202.79167
2346.758	200.79167
2349.259	188.45833
2351.759	198.125
2354.257	188.45833
2356.753	180.79167
2359.247	183.45833
2361.74	190.45833
2364.231	188.125
2366.721	197.45833
2369.209	187.45833
2371.695	189.79167
2374.179	184.45833
2376.662	176.79167
2379.143	194.45833
2381.622	182.125
2384.1	185.45833
2386.576	178.45833
2389.051	197.125
2391.524	199.45833
2393.995	189.125
2396.464	180.45833
2398.932	182.79167
2401.398	186.45833
2403.863	173.125
2406.325	167.79167
2408.787	184.79167
2411.246	178.125
2413.704	180.79167
2416.16	177.125
2418.615	175.45833
2421.068	185.79167
2423.519	169.79167
2425.969	175.45833
2428.417	193.125
2430.863	200.45833
2433.308	185.125
2435.751	185.79167
2438.193	179.79167
2440.633	177.125
2443.071	185.79167
2445.508	172.125
2447.943	175.125
2450.376	163.79167
2452.808	180.45833
2455.238	162.79167
2457.667	196.125
2460.093	165.79167
2462.519	157.79167
2464.942	163.45833
2467.365	166.79167
2469.785	178.79167
2472.204	159.79167
2474.621	168.45833
2477.037	185.125
2479.451	153.125
2481.863	159.45833
2484.274	163.79167
2486.683	165.125
2489.091	176.79167
2491.497	169.125
2493.901	164.125
2496.304	166.79167
2498.705	180.125
2501.105	165.79167
2503.503	184.45833
2505.899	158.45833
2508.294	184.125
2510.687	157.125
2513.079	160.125
2515.469	157.45833
2517.858	160.45833
2520.245	176.45833
2522.63	159.79167
2525.014	160.45833
2527.396	160.125
2529.776	161.125
2532.156	159.45833
2534.533	147.125
2536.909	152.125
2539.283	140.125
2541.656	146.79167
2544.027	171.125
2546.397	162.79167
2548.765	155.45833
2551.131	156.79167
2553.496	157.45833
2555.86	167.45833
2558.221	170.125
2560.582	156.79167
2562.94	142.79167
2565.298	157.79167
2567.653	166.45833
2570.007	141.125
2572.36	162.45833
2574.711	151.45833
2577.06	176.79167
2579.408	154.79167
2581.754	152.79167
2584.099	152.125
2586.442	150.45833
2588.784	161.45833
2591.124	153.79167
2593.463	144.125
2595.8	158.79167
2598.135	142.79167
2600.469	143.45833
2602.802	160.79167
2605.133	163.125
2607.462	142.79167
2609.79	143.45833
2612.116	163.125
2614.441	148.45833
2616.764	153.79167
2619.086	150.45833
2621.406	146.45833
2623.725	161.45833
2626.042	151.125
2628.358	145.79167
2630.672	154.125
2632.985	163.79167
2635.296	146.79167
2637.606	148.79167
2639.914	143.45833
2642.22	145.79167
2644.525	148.79167
2646.829	150.79167
2649.131	163.79167
2651.432	153.45833
2653.731	144.125
2656.028	158.79167
2658.324	151.45833
2660.619	139.45833
2662.912	153.45833
2665.204	142.125
2667.494	150.125
2669.782	137.45833
2672.07	161.45833
2674.355	160.45833
2676.639	153.125
2678.922	145.125
2681.203	154.79167
2683.483	142.79167
2685.761	141.125
2688.038	154.79167
2690.313	159.45833
2692.587	151.79167
2694.859	143.45833
2697.13	152.79167
2699.399	150.79167
2701.667	155.45833
2703.933	149.125
2706.198	163.125
2708.461	159.125
2710.723	158.125
2712.984	155.125
2715.243	161.79167
2717.5	152.45833
2719.757	164.45833
2722.011	153.45833
2724.264	160.79167
2726.516	171.125
2728.766	145.79167
2731.015	159.45833
2733.262	156.79167
2735.508	149.45833
2737.753	161.125
2739.996	144.79167
2742.237	146.79167
2744.477	158.125
2746.716	166.45833
2748.953	162.125
2751.189	158.125
2753.423	154.79167
2755.656	154.125
2757.887	142.125
2760.117	154.125
2762.346	141.45833
2764.573	133.79167
2766.798	140.79167
2769.022	144.125
2771.245	146.79167
2773.467	144.125
2775.686	138.125
2777.905	156.125
2780.122	145.45833
2782.337	152.125
2784.552	145.79167
2786.764	147.79167
2788.976	144.45833
2791.186	149.79167
2793.394	150.45833
2795.601	155.45833
2797.807	156.45833
2800.011	151.125
2802.214	159.79167
2804.415	154.125
2806.615	162.125
2808.814	157.45833
2811.011	160.79167
2813.206	163.45833
2815.401	175.45833
2817.594	167.45833
2819.785	172.79167
2821.975	161.79167
2824.164	163.79167
2826.351	166.79167
2828.537	178.45833
2830.722	173.125
2832.905	173.45833
2835.086	183.79167
2837.267	194.125
2839.445	193.125
2841.623	204.125
2843.799	204.79167
2845.974	207.45833
2848.147	214.125
2850.319	226.45833
2852.489	235.45833
2854.659	235.79167
2856.826	236.45833
2858.993	256.45833
2861.158	234.79167
2863.321	243.79167
2865.483	257.125
2867.644	256.125
2869.804	259.125
2871.962	240.79167
2874.118	252.45833
2876.274	256.45833
2878.428	253.79167
2880.58	256.125
2882.731	241.125
2884.881	249.125
2887.03	253.45833
2889.177	248.45833
2891.322	260.79167
2893.467	251.79167
2895.61	241.79167
2897.751	265.125
2899.892	243.125
2902.03	253.79167
2904.168	254.79167
2906.304	253.79167
2908.439	266.79167
2910.572	247.125
2912.704	258.45833
2914.835	260.45833
2916.965	269.45833
2919.093	281.125
2921.219	246.125
2923.345	281.45833
2925.469	257.79167
2927.591	258.45833
2929.712	238.45833
2931.832	255.79167
2933.951	248.125
2936.068	236.79167
2938.184	235.79167
2940.299	227.79167
2942.412	225.45833
2944.524	209.45833
2946.634	215.45833
2948.744	188.79167
2950.851	227.45833
2952.958	191.45833
2955.063	197.45833
2957.167	192.125
2959.269	174.79167
2961.371	207.79167
2963.471	180.125
2965.569	191.45833
2967.666	166.79167
2969.762	170.125
2971.857	159.45833
2973.95	155.45833
2976.042	168.125
2978.133	160.45833
2980.222	159.125
2982.31	144.125
2984.396	135.79167
2986.482	136.79167
2988.566	141.45833
2990.648	143.45833
2992.73	149.45833
2994.81	128.79167
2996.889	149.45833
2998.966	143.125
3001.042	150.45833
3003.117	134.45833
3005.191	133.79167
3007.263	144.45833
3009.334	137.45833
3011.403	136.79167
3013.472	131.45833
3015.539	144.79167
3017.604	150.45833
3019.669	120.45833
3021.732	123.79167
3023.794	127.125
3025.854	121.79167
3027.914	121.45833
3029.971	118.125
3032.028	122.79167
3034.083	127.79167
3036.137	120.45833
3038.19	112.125
3040.242	108.79167
3042.292	107.79167
3044.341	111.125
3046.388	122.79167
3048.435	104.125
3050.48	128.45833
3052.524	109.125
3054.566	100.79167
3056.607	113.79167
3058.647	104.79167
3060.686	95.79167
3062.723	88.45833
3064.759	93.79167
3066.794	1.125
3068.828	2.79167
3070.86	3.45833
