-0.839	152.79167
3.438	176.45833
7.711	65.79167
11.981	43.45833
16.247	29.45833
20.509	38.45833
24.768	36.45833
29.024	45.125
33.276	30.45833
37.524	42.45833
41.769	31.125
46.01	29.45833
50.247	49.79167
54.481	52.125
58.712	54.125
62.939	37.79167
67.162	53.45833
71.382	44.79167
75.599	37.79167
79.812	43.125
84.021	63.45833
88.227	38.79167
92.429	51.45833
96.628	38.45833
100.823	56.125
105.015	53.79167
109.204	49.125
113.388	60.125
117.57	42.45833
121.748	62.45833
125.922	49.79167
130.093	63.125
134.261	65.125
138.425	52.79167
142.585	86.79167
146.742	67.79167
150.896	80.125
155.046	79.45833
159.193	116.79167
163.336	182.79167
167.476	303.79167
171.613	543.79167
175.746	882.79167
179.875	1273.45833
184.002	1652.45833
188.124	1948.125
192.244	2043.125
196.36	2026.45833
200.472	1996.79167
204.581	2001.125
208.687	1943.125
212.79	1919.79167
216.889	1938.45833
220.984	1956.79167
225.077	1986.45833
229.165	1957.79167
233.251	1975.79167
237.333	1990.45833
241.412	1969.45833
245.487	1957.79167
249.559	1928.125
253.628	1907.45833
257.694	1909.125
261.756	1901.79167
265.814	1867.125
269.87	1810.45833
273.922	1755.45833
277.97	1727.45833
282.016	1702.125
286.058	1673.45833
290.097	1692.125
294.132	1701.79167
298.164	1702.45833
302.193	1635.125
306.219	1535.79167
310.241	1442.45833
314.26	1365.45833
318.276	1290.125
322.288	1270.45833
326.297	1199.45833
330.303	1194.79167
334.305	1164.79167
338.305	1162.45833
342.301	1167.79167
346.294	1155.79167
350.283	1137.45833
354.269	1144.125
358.252	1130.79167
362.232	1137.79167
366.209	1125.79167
370.182	1115.45833
374.152	1098.45833
378.119	1115.125
382.083	1116.79167
386.043	1119.45833
390	1109.79167
393.954	1116.125
397.905	1117.45833
401.852	1105.79167
405.797	1117.125
409.738	1104.45833
413.676	1134.79167
417.61	1124.125
421.542	1108.45833
425.47	1093.79167
429.396	1086.125
433.318	1076.125
437.236	1063.125
441.152	1118.45833
445.065	1054.125
448.974	1080.45833
452.88	1063.45833
456.783	1057.79167
460.683	1052.79167
464.58	1059.79167
468.473	1063.125
472.364	1070.45833
476.251	1055.45833
480.135	1084.79167
484.016	1081.125
487.894	1090.45833
491.769	1091.45833
495.641	1078.79167
499.509	1084.45833
503.375	1094.125
507.237	1074.45833
511.096	1077.125
514.952	1086.45833
518.805	1093.125
522.655	1090.125
526.502	1082.79167
530.346	1075.45833
534.187	1077.45833
538.024	1081.125
541.859	1066.125
545.69	1084.45833
549.519	1072.45833
553.344	1088.45833
557.166	1060.79167
560.985	1056.125
564.802	1044.79167
568.615	1041.45833
572.425	1014.79167
576.232	1013.45833
580.036	1027.125
583.836	1029.45833
587.634	1031.79167
591.429	1023.45833
595.221	1044.45833
599.01	1052.45833
602.796	1049.125
606.578	1053.125
610.358	1047.79167
614.135	1043.79167
617.909	1054.45833
621.679	1038.79167
625.447	1038.79167
629.212	1032.125
632.973	1027.45833
636.732	1029.125
640.488	1045.79167
644.241	1019.79167
647.991	1012.125
651.737	1043.45833
655.481	1008.79167
659.222	1023.45833
662.96	1024.79167
666.695	1031.125
670.427	1040.45833
674.156	1034.45833
677.882	1032.45833
681.605	1028.45833
685.325	999.45833
689.043	1038.125
692.757	994.45833
696.468	1019.125
700.177	1003.125
703.882	993.125
707.585	993.125
711.284	992.45833
714.981	985.79167
718.675	988.79167
722.366	1009.45833
726.054	983.79167
729.739	988.125
733.421	991.125
737.1	979.45833
740.777	991.45833
744.45	978.125
748.121	992.45833
751.789	1022.79167
755.453	1000.125
759.115	1004.79167
762.774	1014.45833
766.431	1014.125
770.084	1016.45833
773.734	1021.125
777.382	1031.79167
781.027	1029.79167
784.669	1035.125
788.308	1031.79167
791.944	1051.79167
795.577	1042.45833
799.208	1064.79167
802.835	1050.125
806.46	1069.45833
810.082	1066.79167
813.701	1072.125
817.317	1102.125
820.931	1094.79167
824.542	1086.45833
828.149	1058.45833
831.754	1049.45833
835.357	1039.45833
838.956	1057.45833
842.553	1055.79167
846.146	1035.79167
849.737	1007.125
853.326	1018.125
856.911	1004.125
860.493	1036.79167
864.073	1013.45833
867.65	1058.79167
871.225	1054.125
874.796	1045.125
878.365	1036.45833
881.931	1044.45833
885.494	1060.79167
889.054	1041.45833
892.612	1047.45833
896.166	1033.45833
899.719	1014.45833
903.268	994.125
906.814	1016.45833
910.358	1004.125
913.899	984.125
917.438	1002.45833
920.973	987.45833
924.506	991.79167
928.036	1022.79167
931.564	1035.125
935.088	1048.125
938.61	1009.79167
942.129	1042.79167
945.646	1047.125
949.16	1067.125
952.671	1059.79167
956.179	1087.79167
959.685	1079.79167
963.188	1087.79167
966.688	1096.125
970.185	1049.125
973.68	1024.79167
977.173	1004.125
980.662	988.45833
984.149	999.45833
987.633	979.79167
991.114	993.125
994.593	1011.125
998.069	1016.79167
1001.542	1056.125
1005.013	1033.125
1008.481	986.45833
1011.947	968.125
1015.409	950.125
1018.869	964.45833
1022.327	957.125
1025.782	940.79167
1029.234	951.79167
1032.683	941.79167
1036.13	904.79167
1039.574	871.125
1043.016	870.45833
1046.455	860.45833
1049.891	853.125
1053.325	858.45833
1056.756	841.79167
1060.184	843.45833
1063.61	833.125
1067.033	855.79167
1070.454	846.125
1073.872	876.45833
1077.287	849.45833
1080.7	841.79167
1084.11	851.125
1087.517	853.45833
1090.922	836.125
1094.325	828.125
1097.724	818.45833
1101.122	820.125
1104.516	819.125
1107.908	807.125
1111.298	808.79167
1114.684	830.45833
1118.069	832.79167
1121.45	840.125
1124.83	824.125
1128.206	844.125
1131.58	856.125
1134.951	863.125
1138.32	882.45833
1141.687	913.125
1145.05	922.125
1148.412	933.79167
1151.77	927.125
1155.126	920.79167
1158.48	918.79167
1161.831	924.79167
1165.18	917.79167
1168.525	925.79167
1171.869	956.45833
1175.21	939.45833
1178.548	966.125
1181.884	966.79167
1185.217	958.45833
1188.548	990.45833
1191.877	992.45833
1195.202	1049.79167
1198.526	1048.79167
1201.846	1064.125
1205.165	1064.125
1208.48	1080.79167
1211.794	1064.79167
1215.104	1076.79167
1218.413	1045.45833
1221.719	1062.45833
1225.022	1031.79167
1228.323	1021.79167
1231.621	1024.45833
1234.917	1003.125
1238.21	1021.125
1241.501	1010.45833
1244.79	1001.79167
1248.076	987.79167
1251.359	1010.125
1254.64	1058.45833
1257.919	1032.45833
1261.195	1036.125
1264.468	1068.79167
1267.74	1074.79167
1271.008	1069.125
1274.275	1085.79167
1277.538	1064.125
1280.8	1064.125
1284.059	1061.79167
1287.315	1077.125
1290.569	1067.125
1293.821	1086.45833
1297.07	1083.45833
1300.317	1087.79167
1303.562	1114.79167
1306.803	1070.79167
1310.043	1077.45833
1313.28	1065.45833
1316.515	1064.125
1319.747	1060.79167
1322.977	1056.45833
1326.204	1059.45833
1329.429	1029.125
1332.652	1057.79167
1335.872	1048.45833
1339.09	1015.79167
1342.306	1027.125
1345.519	1012.79167
1348.729	1005.45833
1351.938	1011.125
1355.144	995.45833
1358.347	985.45833
1361.548	1000.45833
1364.747	974.125
1367.944	979.125
1371.138	974.45833
1374.329	973.79167
1377.518	971.45833
1380.705	978.45833
1383.89	984.79167
1387.072	927.125
1390.252	922.45833
1393.429	894.45833
1396.605	860.45833
1399.777	814.79167
1402.948	817.125
1406.116	817.125
1409.282	814.45833
1412.445	816.45833
1415.606	833.45833
1418.765	816.125
1421.921	852.45833
1425.075	850.125
1428.227	870.79167
1431.376	906.79167
1434.524	940.45833
1437.668	971.79167
1440.811	960.45833
1443.951	970.79167
1447.089	983.125
1450.224	983.45833
1453.357	969.79167
1456.488	959.45833
1459.617	961.45833
1462.743	952.125
1465.867	919.125
1468.989	922.45833
1472.108	912.45833
1475.225	890.79167
1478.34	884.79167
1481.453	883.125
1484.563	859.79167
1487.671	872.125
1490.776	893.125
1493.88	900.79167
1496.981	918.125
1500.08	928.79167
1503.176	922.79167
1506.271	932.125
1509.363	946.125
1512.452	939.125
1515.54	950.125
1518.625	970.45833
1521.708	1001.45833
1524.789	1033.125
1527.867	1038.45833
1530.944	1096.125
1534.018	1124.125
1537.089	1169.79167
1540.159	1185.45833
1543.226	1189.79167
1546.291	1148.125
1549.354	1149.125
1552.415	1119.45833
1555.473	1095.45833
1558.529	1088.125
1561.583	1073.45833
1564.634	1063.125
1567.684	1051.45833
1570.731	1060.125
1573.776	1087.125
1576.819	1106.125
1579.859	1102.45833
1582.898	1106.45833
1585.934	1131.125
1588.968	1136.125
1591.999	1117.125
1595.029	1122.79167
1598.056	1119.125
1601.081	1146.45833
1604.104	1132.125
1607.125	1120.125
1610.144	1107.79167
1613.16	1071.125
1616.174	1042.125
1619.186	1060.45833
1622.196	1017.45833
1625.203	1001.125
1628.209	998.45833
1631.212	985.125
1634.213	1016.125
1637.212	1020.79167
1640.209	1020.125
1643.203	988.45833
1646.196	959.125
1649.186	920.45833
1652.174	880.45833
1655.16	848.45833
1658.144	857.45833
1661.125	801.45833
1664.105	765.79167
1667.082	735.125
1670.057	690.125
1673.03	661.79167
1676.001	619.125
1678.97	584.125
1681.937	568.125
1684.901	532.125
1687.863	530.79167
1690.824	491.125
1693.782	511.45833
1696.738	462.79167
1699.692	470.125
1702.643	454.79167
1705.593	456.45833
1708.54	446.79167
1711.486	458.125
1714.429	440.45833
1717.37	445.45833
1720.309	425.79167
1723.246	437.125
1726.181	418.45833
1729.113	419.79167
1732.044	426.125
1734.972	412.125
1737.899	428.45833
1740.823	426.125
1743.745	431.79167
1746.665	402.125
1749.583	398.45833
1752.499	396.45833
1755.413	390.79167
1758.325	375.125
1761.235	382.79167
1764.142	367.125
1767.048	365.125
1769.951	372.125
1772.852	363.79167
1775.752	375.45833
1778.649	377.125
1781.544	389.79167
1784.437	358.125
1787.328	378.79167
1790.217	363.125
1793.104	346.79167
1795.989	349.45833
1798.872	347.79167
1801.753	359.45833
1804.631	351.79167
1807.508	357.45833
1810.383	352.125
1813.255	352.79167
1816.126	346.125
1818.994	348.79167
1821.861	343.125
1824.725	349.125
1827.587	351.79167
1830.448	335.79167
1833.306	336.45833
1836.162	337.125
1839.017	338.79167
1841.869	340.45833
1844.719	326.79167
1847.567	308.79167
1850.414	320.125
1853.258	318.79167
1856.1	325.125
1858.94	335.45833
1861.778	323.79167
1864.614	317.125
1867.448	325.125
1870.28	308.45833
1873.111	332.125
1875.939	322.125
1878.765	341.79167
1881.589	314.125
1884.411	327.125
1887.231	325.45833
1890.049	317.45833
1892.865	320.79167
1895.68	309.79167
1898.492	320.79167
1901.302	314.79167
1904.11	305.79167
1906.916	309.125
1909.721	303.79167
1912.523	319.125
1915.323	296.45833
1918.122	301.125
1920.918	312.79167
1923.712	303.79167
1926.505	302.45833
1929.295	289.45833
1932.084	302.79167
1934.87	303.79167
1937.655	298.45833
1940.438	286.45833
1943.218	303.125
1945.997	303.45833
1948.774	300.125
1951.549	299.79167
1954.322	297.45833
1957.093	293.79167
1959.862	295.125
1962.629	282.45833
1965.394	294.79167
1968.157	286.79167
1970.918	300.79167
1973.678	275.125
1976.435	293.79167
1979.19	282.45833
1981.944	273.125
1984.696	283.125
1987.445	274.125
1990.193	276.125
1992.939	291.125
1995.683	281.125
1998.425	265.45833
2001.165	295.45833
2003.903	261.45833
2006.639	275.125
2009.374	280.125
2012.106	280.45833
2014.837	253.79167
2017.566	274.125
2020.292	271.125
2023.017	270.79167
2025.74	268.79167
2028.461	257.45833
2031.18	267.79167
2033.898	259.45833
2036.613	262.79167
2039.327	267.79167
2042.038	248.125
2044.748	259.125
2047.456	272.79167
2050.162	254.125
2052.866	261.79167
2055.568	266.45833
2058.268	253.45833
2060.967	267.45833
2063.663	251.125
2066.358	247.45833
2069.051	246.45833
2071.742	260.79167
2074.431	261.125
2077.118	250.79167
2079.804	241.79167
2082.487	248.45833
2085.169	262.45833
2087.849	272.125
2090.527	249.125
2093.203	250.45833
2095.877	247.45833
2098.55	258.125
2101.22	258.79167
2103.889	263.79167
2106.556	248.45833
2109.221	269.45833
2111.884	260.125
2114.546	273.125
2117.205	282.125
2119.863	314.45833
2122.519	302.45833
2125.173	327.125
2127.825	353.125
2130.475	354.125
2133.124	338.79167
2135.771	325.45833
2138.416	328.79167
2141.059	301.125
2143.7	304.79167
2146.339	281.125
2148.977	266.79167
2151.613	272.79167
2154.247	259.45833
2156.879	258.79167
2159.51	250.125
2162.138	248.79167
2164.765	243.125
2167.39	235.45833
2170.013	255.125
2172.634	250.45833
2175.254	237.45833
2177.872	273.125
2180.488	227.45833
2183.102	236.79167
2185.714	230.79167
2188.325	224.45833
2190.934	237.125
2193.541	239.125
2196.146	229.125
2198.75	216.125
2201.351	222.79167
2203.951	205.45833
2206.549	227.45833
2209.146	216.79167
2211.74	210.45833
2214.333	219.125
2216.924	205.125
2219.514	211.79167
2222.101	204.125
2224.687	219.125
2227.271	205.125
2229.853	205.125
2232.433	190.125
2235.012	216.79167
2237.589	208.79167
2240.164	218.45833
2242.738	211.45833
2245.309	197.79167
2247.879	216.125
2250.448	213.125
2253.014	193.45833
2255.579	187.79167
2258.142	189.125
2260.703	200.125
2263.262	192.125
2265.82	185.79167
2268.376	201.125
2270.93	190.45833
2273.483	183.79167
2276.033	197.45833
2278.583	184.79167
2281.13	190.79167
2283.675	179.45833
2286.219	183.79167
2288.761	191.125
2291.302	196.45833
2293.841	195.125
2296.377	178.125
2298.913	194.125
2301.446	199.125
2303.978	189.125
2306.508	181.125
2309.037	189.45833
2311.563	189.79167
2314.088	186.45833
2316.612	169.45833
2319.133	193.125
2321.653	185.125
2324.171	174.79167
2326.688	189.45833
2329.202	181.125
2331.715	179.45833
2334.227	175.125
2336.736	177.79167
2339.244	169.45833
2341.751	163.125
2344.255	183.125
2346.758	181.79167
2349.259	171.125
2351.759	178.45833
2354.257	177.45833
2356.753	165.125
2359.247	169.45833
2361.74	174.79167
2364.231	174.125
2366.721	179.125
2369.209	165.79167
2371.695	169.45833
2374.179	160.79167
2376.662	159.79167
2379.143	180.45833
2381.622	168.125
2384.1	171.45833
2386.576	162.79167
2389.051	183.45833
2391.524	174.79167
2393.995	178.125
2396.464	166.45833
2398.932	163.125
2401.398	169.45833
2403.863	160.79167
2406.325	157.45833
2408.787	170.79167
2411.246	160.79167
2413.704	161.45833
2416.16	160.45833
2418.615	165.79167
2421.068	166.45833
2423.519	154.125
2425.969	153.125
2428.417	167.79167
2430.863	187.79167
2433.308	165.79167
2435.751	162.45833
2438.193	159.125
2440.633	166.125
2443.071	169.79167
2445.508	158.45833
2447.943	161.125
2450.376	157.79167
2452.808	163.79167
2455.238	152.125
2457.667	186.79167
2460.093	154.125
2462.519	147.79167
2464.942	148.125
2467.365	154.79167
2469.785	165.79167
2472.204	143.45833
2474.621	151.125
2477.037	172.45833
2479.451	143.79167
2481.863	145.45833
2484.274	146.45833
2486.683	153.79167
2489.091	166.125
2491.497	149.79167
2493.901	155.79167
2496.304	148.45833
2498.705	165.45833
2501.105	157.125
2503.503	171.125
2505.899	140.45833
2508.294	171.45833
2510.687	147.79167
2513.079	151.45833
2515.469	142.79167
2517.858	147.79167
2520.245	166.125
2522.63	150.125
2525.014	139.45833
2527.396	142.125
2529.776	142.125
2532.156	151.125
2534.533	138.79167
2536.909	138.125
2539.283	131.79167
2541.656	141.79167
2544.027	149.125
2546.397	146.125
2548.765	145.79167
2551.131	140.45833
2553.496	145.125
2555.86	144.79167
2558.221	148.125
2560.582	139.79167
2562.94	132.45833
2565.298	141.45833
2567.653	154.125
2570.007	132.125
2572.36	151.45833
2574.711	135.125
2577.06	153.79167
2579.408	140.125
2581.754	139.45833
2584.099	134.125
2586.442	138.45833
2588.784	141.45833
2591.124	142.125
2593.463	138.125
2595.8	143.125
2598.135	129.125
2600.469	133.125
2602.802	139.125
2605.133	149.45833
2607.462	135.45833
2609.79	125.125
2612.116	142.45833
2614.441	128.45833
2616.764	145.125
2619.086	133.79167
2621.406	129.125
2623.725	145.79167
2626.042	134.45833
2628.358	131.79167
2630.672	136.125
2632.985	147.79167
2635.296	135.79167
2637.606	136.125
2639.914	131.45833
2642.22	131.79167
2644.525	133.125
2646.829	137.125
2649.131	145.79167
2651.432	137.45833
2653.731	128.125
2656.028	143.45833
2658.324	137.79167
2660.619	120.79167
2662.912	140.45833
2665.204	127.125
2667.494	143.45833
2669.782	125.45833
2672.07	147.45833
2674.355	145.45833
2676.639	136.125
2678.922	129.79167
2681.203	141.125
2683.483	130.125
2685.761	118.125
2688.038	140.79167
2690.313	146.79167
2692.587	134.79167
2694.859	132.125
2697.13	134.45833
2699.399	139.125
2701.667	144.45833
2703.933	137.45833
2706.198	147.45833
2708.461	144.125
2710.723	145.79167
2712.984	140.79167
2715.243	137.125
2717.5	139.45833
2719.757	142.125
2722.011	137.79167
2724.264	156.45833
2726.516	153.79167
2728.766	134.125
2731.015	139.45833
2733.262	136.45833
2735.508	141.125
2737.753	144.125
2739.996	129.79167
2742.237	135.125
2744.477	149.79167
2746.716	157.125
2748.953	146.125
2751.189	147.79167
2753.423	142.45833
2755.656	130.45833
2757.887	129.79167
2760.117	131.125
2762.346	127.79167
2764.573	120.79167
2766.798	126.79167
2769.022	130.79167
2771.245	128.79167
2773.467	133.79167
2775.686	129.79167
2777.905	134.125
2780.122	138.125
2782.337	140.45833
2784.552	128.45833
2786.764	134.125
2788.976	122.79167
2791.186	133.79167
2793.394	134.79167
2795.601	141.79167
2797.807	144.45833
2800.011	139.125
2802.214	154.125
2804.415	137.125
2806.615	138.125
2808.814	144.45833
2811.011	149.45833
2813.206	144.125
2815.401	151.125
2817.594	154.79167
2819.785	157.45833
2821.975	146.45833
2824.164	149.79167
2826.351	152.125
2828.537	162.45833
2830.722	162.45833
2832.905	161.125
2835.086	169.125
2837.267	183.79167
2839.445	174.79167
2841.623	184.125
2843.799	177.125
2845.974	190.125
2848.147	194.125
2850.319	201.79167
2852.489	217.45833
2854.659	220.125
2856.826	217.45833
2858.993	236.125
2861.158	216.79167
2863.321	223.79167
2865.483	234.45833
2867.644	227.45833
2869.804	225.79167
2871.962	231.125
2874.118	230.79167
2876.274	235.45833
2878.428	226.45833
2880.58	230.125
2882.731	210.45833
2884.881	227.45833
2887.03	234.125
2889.177	233.79167
2891.322	231.45833
2893.467	226.79167
2895.61	223.125
2897.751	243.79167
2899.892	228.125
2902.03	232.45833
2904.168	223.45833
2906.304	233.45833
2908.439	250.79167
2910.572	222.45833
2912.704	242.45833
2914.835	243.45833
2916.965	244.45833
2919.093	251.79167
2921.219	235.125
2923.345	258.45833
2925.469	236.125
2927.591	236.125
2929.712	222.79167
2931.832	230.79167
2933.951	224.45833
2936.068	217.125
2938.184	222.45833
2940.299	214.125
2942.412	203.125
2944.524	191.79167
2946.634	201.45833
2948.744	180.45833
2950.851	214.125
2952.958	177.45833
2955.063	182.45833
2957.167	174.45833
2959.269	160.79167
2961.371	191.79167
2963.471	164.125
2965.569	179.125
2967.666	147.125
2969.762	153.125
2971.857	150.125
2973.95	142.45833
2976.042	156.125
2978.133	145.125
2980.222	141.79167
2982.31	130.45833
2984.396	119.45833
2986.482	129.125
2988.566	128.125
2990.648	127.79167
2992.73	131.125
2994.81	117.45833
2996.889	130.45833
2998.966	121.125
3001.042	134.79167
3003.117	116.79167
3005.191	124.79167
3007.263	129.79167
3009.334	123.125
3011.403	125.79167
3013.472	120.125
3015.539	134.125
3017.604	143.125
3019.669	109.125
3021.732	117.125
3023.794	117.79167
3025.854	108.45833
3027.914	103.125
3029.971	109.45833
3032.028	113.79167
3034.083	121.125
3036.137	108.45833
3038.19	98.79167
3040.242	99.79167
3042.292	93.125
3044.341	104.79167
3046.388	119.79167
3048.435	95.45833
3050.48	112.79167
3052.524	101.45833
3054.566	89.79167
3056.607	102.79167
3058.647	100.125
3060.686	85.79167
3062.723	80.45833
3064.759	84.125
3066.794	2.45833
3068.828	0.79167
3070.86	4.45833
