-0.839	150.5
3.438	174.5
7.711	71.5
11.981	46.16667
16.247	32.5
20.509	37.5
24.768	41.16667
29.024	48.5
33.276	33.83333
37.524	39.83333
41.769	33.5
46.01	26.16667
50.247	43.16667
54.481	54.16667
58.712	53.5
62.939	38.83333
67.162	58.5
71.382	44.16667
75.599	38.5
79.812	47.16667
84.021	58.5
88.227	46.83333
92.429	54.16667
96.628	35.83333
100.823	54.16667
105.015	54.16667
109.204	47.83333
113.388	59.83333
117.57	44.5
121.748	63.16667
125.922	48.83333
130.093	69.5
134.261	64.5
138.425	55.83333
142.585	88.5
146.742	66.16667
150.896	79.5
155.046	77.5
159.193	124.16667
163.336	177.83333
167.476	298.5
171.613	540.16667
175.746	865.5
179.875	1278.16667
184.002	1638.5
188.124	1935.5
192.244	2040.5
196.36	2036.5
200.472	2021.5
204.581	1982.83333
208.687	1930.16667
212.79	1916.5
216.889	1942.5
220.984	1947.83333
225.077	1968.83333
229.165	1982.83333
233.251	1977.5
237.333	1971.5
241.412	1948.83333
245.487	1927.16667
249.559	1926.5
253.628	1910.16667
257.694	1888.16667
261.756	1888.5
265.814	1845.5
269.87	1802.5
273.922	1734.83333
277.97	1728.16667
282.016	1703.5
286.058	1661.16667
290.097	1688.16667
294.132	1695.83333
298.164	1684.16667
302.193	1627.5
306.219	1546.83333
310.241	1441.5
314.26	1356.16667
318.276	1283.16667
322.288	1260.83333
326.297	1197.5
330.303	1175.16667
334.305	1164.83333
338.305	1147.5
342.301	1163.16667
346.294	1143.16667
350.283	1139.5
354.269	1116.16667
358.252	1108.16667
362.232	1112.83333
366.209	1115.5
370.182	1100.16667
374.152	1109.16667
378.119	1114.5
382.083	1090.5
386.043	1119.83333
390	1108.5
393.954	1109.83333
397.905	1116.5
401.852	1121.83333
405.797	1091.16667
409.738	1099.16667
413.676	1116.83333
417.61	1118.5
421.542	1101.5
425.47	1085.83333
429.396	1070.16667
433.318	1070.16667
437.236	1076.5
441.152	1089.5
445.065	1057.5
448.974	1068.5
452.88	1045.5
456.783	1037.16667
460.683	1054.5
464.58	1058.83333
468.473	1050.16667
472.364	1038.16667
476.251	1050.16667
480.135	1057.16667
484.016	1065.16667
487.894	1063.16667
491.769	1083.16667
495.641	1081.5
499.509	1077.16667
503.375	1073.83333
507.237	1067.16667
511.096	1066.83333
514.952	1077.5
518.805	1078.16667
522.655	1076.5
526.502	1063.83333
530.346	1062.16667
534.187	1067.83333
538.024	1064.16667
541.859	1054.5
545.69	1089.83333
549.519	1070.83333
553.344	1064.16667
557.166	1055.5
560.985	1030.83333
564.802	1038.5
568.615	1039.83333
572.425	1020.83333
576.232	1002.16667
580.036	1007.5
583.836	1011.83333
587.634	1019.5
591.429	995.5
595.221	1034.83333
599.01	1038.5
602.796	1031.5
606.578	1055.5
610.358	1047.83333
614.135	1029.16667
617.909	1048.16667
621.679	1028.83333
625.447	1017.16667
629.212	1036.5
632.973	1028.83333
636.732	1019.83333
640.488	1030.83333
644.241	1002.83333
647.991	1000.83333
651.737	1022.83333
655.481	999.83333
659.222	1013.83333
662.96	1006.16667
666.695	1014.83333
670.427	1030.5
674.156	1023.5
677.882	1019.5
681.605	1022.5
685.325	988.5
689.043	1033.5
692.757	995.83333
696.468	1007.5
700.177	991.5
703.882	974.5
707.585	980.16667
711.284	979.83333
714.981	973.5
718.675	981.5
722.366	987.5
726.054	965.83333
729.739	981.5
733.421	974.83333
737.1	963.83333
740.777	985.83333
744.45	978.83333
748.121	983.83333
751.789	1013.5
755.453	993.5
759.115	999.83333
762.774	995.83333
766.431	1000.16667
770.084	1004.16667
773.734	1000.83333
777.382	1027.83333
781.027	1028.16667
784.669	1031.83333
788.308	1025.5
791.944	1051.16667
795.577	1032.83333
799.208	1056.83333
802.835	1045.5
806.46	1065.83333
810.082	1056.5
813.701	1059.16667
817.317	1086.16667
820.931	1063.83333
824.542	1079.5
828.149	1059.16667
831.754	1030.16667
835.357	1035.83333
838.956	1044.16667
842.553	1036.5
846.146	1020.5
849.737	1004.16667
853.326	1028.5
856.911	993.83333
860.493	1024.16667
864.073	1023.5
867.65	1049.16667
871.225	1044.83333
874.796	1032.16667
878.365	1040.16667
881.931	1047.16667
885.494	1055.5
889.054	1041.83333
892.612	1053.16667
896.166	1007.83333
899.719	1012.5
903.268	994.16667
906.814	1005.5
910.358	993.16667
913.899	992.5
917.438	1002.16667
920.973	972.83333
924.506	981.83333
928.036	1003.5
931.564	1024.83333
935.088	1039.16667
938.61	1014.83333
942.129	1030.16667
945.646	1021.83333
949.16	1037.16667
952.671	1067.16667
956.179	1073.16667
959.685	1082.83333
963.188	1088.16667
966.688	1075.83333
970.185	1040.16667
973.68	1015.83333
977.173	1006.83333
980.662	985.5
984.149	987.16667
987.633	982.5
991.114	983.5
994.593	995.16667
998.069	1011.83333
1001.542	1039.16667
1005.013	1042.16667
1008.481	972.16667
1011.947	947.5
1015.409	939.5
1018.869	957.83333
1022.327	962.83333
1025.782	945.16667
1029.234	938.83333
1032.683	924.5
1036.13	896.83333
1039.574	872.5
1043.016	857.5
1046.455	839.83333
1049.891	831.16667
1053.325	853.5
1056.756	829.16667
1060.184	849.83333
1063.61	840.5
1067.033	857.5
1070.454	836.83333
1073.872	865.5
1077.287	831.16667
1080.7	844.5
1084.11	846.5
1087.517	831.5
1090.922	832.83333
1094.325	832.16667
1097.724	818.83333
1101.122	823.16667
1104.516	810.83333
1107.908	796.5
1111.298	817.5
1114.684	823.83333
1118.069	835.5
1121.45	849.83333
1124.83	815.83333
1128.206	829.5
1131.58	851.16667
1134.951	857.83333
1138.32	874.5
1141.687	915.5
1145.05	931.83333
1148.412	926.83333
1151.77	915.83333
1155.126	918.16667
1158.48	896.83333
1161.831	899.16667
1165.18	914.5
1168.525	925.5
1171.869	936.5
1175.21	937.16667
1178.548	952.5
1181.884	956.83333
1185.217	957.83333
1188.548	981.16667
1191.877	980.5
1195.202	1041.16667
1198.526	1058.5
1201.846	1059.83333
1205.165	1062.16667
1208.48	1073.16667
1211.794	1065.5
1215.104	1070.83333
1218.413	1054.83333
1221.719	1050.16667
1225.022	1030.83333
1228.323	1015.83333
1231.621	1021.16667
1234.917	1009.83333
1238.21	1026.16667
1241.501	1023.83333
1244.79	1001.16667
1248.076	998.83333
1251.359	1009.5
1254.64	1066.5
1257.919	1023.5
1261.195	1029.5
1264.468	1051.5
1267.74	1074.83333
1271.008	1055.5
1274.275	1066.5
1277.538	1062.16667
1280.8	1058.16667
1284.059	1054.83333
1287.315	1066.5
1290.569	1058.16667
1293.821	1077.16667
1297.07	1070.16667
1300.317	1077.16667
1303.562	1078.83333
1306.803	1072.5
1310.043	1061.83333
1313.28	1046.16667
1316.515	1061.83333
1319.747	1065.16667
1322.977	1036.83333
1326.204	1045.83333
1329.429	1040.5
1332.652	1029.5
1335.872	1027.16667
1339.09	1006.16667
1342.306	1025.16667
1345.519	1015.83333
1348.729	1001.83333
1351.938	1006.5
1355.144	988.5
1358.347	985.5
1361.548	986.83333
1364.747	988.16667
1367.944	967.16667
1371.138	973.16667
1374.329	965.16667
1377.518	954.16667
1380.705	969.5
1383.89	960.5
1387.072	927.83333
1390.252	916.16667
1393.429	894.83333
1396.605	861.83333
1399.777	813.83333
1402.948	815.16667
1406.116	807.83333
1409.282	814.16667
1412.445	814.83333
1415.606	819.16667
1418.765	817.16667
1421.921	846.5
1425.075	842.16667
1428.227	865.5
1431.376	904.16667
1434.524	946.16667
1437.668	950.83333
1440.811	970.5
1443.951	987.5
1447.089	976.83333
1450.224	984.16667
1453.357	962.5
1456.488	964.16667
1459.617	960.83333
1462.743	941.5
1465.867	910.16667
1468.989	919.16667
1472.108	894.5
1475.225	887.5
1478.34	871.5
1481.453	868.5
1484.563	862.83333
1487.671	880.5
1490.776	895.5
1493.88	903.5
1496.981	906.83333
1500.08	916.5
1503.176	924.83333
1506.271	920.83333
1509.363	959.5
1512.452	940.5
1515.54	954.83333
1518.625	954.5
1521.708	994.5
1524.789	1024.83333
1527.867	1048.5
1530.944	1102.16667
1534.018	1123.83333
1537.089	1174.83333
1540.159	1178.83333
1543.226	1190.83333
1546.291	1152.5
1549.354	1147.16667
1552.415	1117.16667
1555.473	1092.83333
1558.529	1083.83333
1561.583	1070.83333
1564.634	1040.5
1567.684	1072.16667
1570.731	1045.5
1573.776	1075.83333
1576.819	1091.16667
1579.859	1100.5
1582.898	1103.5
1585.934	1131.83333
1588.968	1124.5
1591.999	1108.83333
1595.029	1102.16667
1598.056	1127.16667
1601.081	1148.83333
1604.104	1133.5
1607.125	1120.16667
1610.144	1100.83333
1613.16	1080.16667
1616.174	1054.83333
1619.186	1041.5
1622.196	1020.5
1625.203	995.83333
1628.209	994.5
1631.212	991.16667
1634.213	994.5
1637.212	1030.16667
1640.209	1013.5
1643.203	985.5
1646.196	941.83333
1649.186	913.83333
1652.174	894.16667
1655.16	848.83333
1658.144	838.83333
1661.125	783.5
1664.105	760.5
1667.082	737.5
1670.057	678.83333
1673.03	646.16667
1676.001	633.16667
1678.97	576.16667
1681.937	556.16667
1684.901	537.5
1687.863	525.5
1690.824	491.16667
1693.782	494.5
1696.738	463.83333
1699.692	470.16667
1702.643	451.5
1705.593	455.5
1708.54	454.16667
1711.486	451.5
1714.429	428.83333
1717.37	435.5
1720.309	426.5
1723.246	428.16667
1726.181	415.5
1729.113	415.83333
1732.044	421.5
1734.972	413.16667
1737.899	421.5
1740.823	422.83333
1743.745	444.83333
1746.665	395.16667
1749.583	407.5
1752.499	393.5
1755.413	393.5
1758.325	369.16667
1761.235	384.16667
1764.142	366.5
1767.048	372.83333
1769.951	369.5
1772.852	367.83333
1775.752	379.5
1778.649	368.83333
1781.544	385.83333
1784.437	355.83333
1787.328	363.5
1790.217	356.5
1793.104	335.5
1795.989	345.16667
1798.872	332.83333
1801.753	355.5
1804.631	352.16667
1807.508	351.5
1810.383	347.5
1813.255	342.5
1816.126	345.16667
1818.994	340.16667
1821.861	337.83333
1824.725	343.16667
1827.587	345.16667
1830.448	334.83333
1833.306	328.83333
1836.162	340.16667
1839.017	332.16667
1841.869	333.83333
1844.719	333.83333
1847.567	314.83333
1850.414	316.5
1853.258	311.83333
1856.1	333.5
1858.94	333.5
1861.778	331.83333
1864.614	310.5
1867.448	318.83333
1870.28	304.16667
1873.111	332.5
1875.939	317.16667
1878.765	331.16667
1881.589	311.83333
1884.411	320.5
1887.231	326.83333
1890.049	315.5
1892.865	322.5
1895.68	307.16667
1898.492	310.16667
1901.302	316.16667
1904.11	309.16667
1906.916	305.16667
1909.721	299.83333
1912.523	316.16667
1915.323	302.16667
1918.122	295.16667
1920.918	314.16667
1923.712	295.5
1926.505	300.5
1929.295	288.16667
1932.084	302.16667
1934.87	295.83333
1937.655	292.83333
1940.438	293.16667
1943.218	289.83333
1945.997	294.16667
1948.774	302.83333
1951.549	303.16667
1954.322	284.83333
1957.093	285.5
1959.862	286.5
1962.629	296.16667
1965.394	287.16667
1968.157	276.16667
1970.918	291.5
1973.678	271.83333
1976.435	291.83333
1979.19	280.16667
1981.944	271.83333
1984.696	279.16667
1987.445	271.83333
1990.193	280.83333
1992.939	288.83333
1995.683	278.5
1998.425	260.83333
2001.165	299.5
2003.903	266.16667
2006.639	268.16667
2009.374	279.5
2012.106	272.83333
2014.837	248.5
2017.566	274.5
2020.292	269.83333
2023.017	264.83333
2025.74	263.16667
2028.461	259.5
2031.18	269.16667
2033.898	260.16667
2036.613	263.5
2039.327	267.5
2042.038	251.83333
2044.748	266.16667
2047.456	262.16667
2050.162	248.83333
2052.866	252.16667
2055.568	264.83333
2058.268	248.83333
2060.967	268.5
2063.663	242.5
2066.358	243.83333
2069.051	249.16667
2071.742	254.83333
2074.431	261.16667
2077.118	247.16667
2079.804	244.83333
2082.487	248.5
2085.169	261.83333
2087.849	270.16667
2090.527	239.5
2093.203	253.16667
2095.877	248.83333
2098.55	248.83333
2101.22	259.5
2103.889	260.5
2106.556	245.83333
2109.221	262.5
2111.884	258.5
2114.546	276.5
2117.205	276.5
2119.863	314.5
2122.519	306.16667
2125.173	321.5
2127.825	353.83333
2130.475	356.16667
2133.124	335.83333
2135.771	324.83333
2138.416	338.83333
2141.059	296.5
2143.7	304.83333
2146.339	285.5
2148.977	256.16667
2151.613	266.5
2154.247	265.83333
2156.879	260.83333
2159.51	245.5
2162.138	246.83333
2164.765	239.5
2167.39	234.83333
2170.013	253.83333
2172.634	248.16667
2175.254	236.83333
2177.872	271.16667
2180.488	226.83333
2183.102	231.83333
2185.714	233.5
2188.325	228.16667
2190.934	229.5
2193.541	237.83333
2196.146	230.16667
2198.75	212.5
2201.351	215.5
2203.951	202.5
2206.549	215.83333
2209.146	215.83333
2211.74	204.16667
2214.333	218.5
2216.924	201.16667
2219.514	214.83333
2222.101	209.83333
2224.687	222.16667
2227.271	198.83333
2229.853	206.16667
2232.433	195.83333
2235.012	214.5
2237.589	208.16667
2240.164	223.16667
2242.738	205.83333
2245.309	199.16667
2247.879	214.5
2250.448	215.83333
2253.014	195.5
2255.579	185.83333
2258.142	196.83333
2260.703	197.16667
2263.262	193.16667
2265.82	184.5
2268.376	204.5
2270.93	190.16667
2273.483	182.5
2276.033	197.5
2278.583	190.5
2281.13	182.83333
2283.675	183.83333
2286.219	182.5
2288.761	187.83333
2291.302	196.5
2293.841	202.16667
2296.377	177.5
2298.913	177.5
2301.446	196.5
2303.978	186.16667
2306.508	180.5
2309.037	180.83333
2311.563	185.5
2314.088	185.5
2316.612	169.83333
2319.133	181.83333
2321.653	189.83333
2324.171	173.16667
2326.688	193.16667
2329.202	175.16667
2331.715	183.83333
2334.227	181.5
2336.736	180.5
2339.244	179.16667
2341.751	165.16667
2344.255	178.83333
2346.758	181.5
2349.259	168.83333
2351.759	180.5
2354.257	166.5
2356.753	163.16667
2359.247	168.5
2361.74	175.16667
2364.231	173.5
2366.721	181.16667
2369.209	166.83333
2371.695	168.83333
2374.179	161.16667
2376.662	156.16667
2379.143	178.16667
2381.622	166.5
2384.1	174.83333
2386.576	168.5
2389.051	179.83333
2391.524	178.83333
2393.995	171.16667
2396.464	159.83333
2398.932	162.16667
2401.398	168.5
2403.863	157.5
2406.325	162.16667
2408.787	165.83333
2411.246	162.83333
2413.704	161.83333
2416.16	161.16667
2418.615	156.16667
2421.068	168.83333
2423.519	155.16667
2425.969	151.83333
2428.417	173.16667
2430.863	182.5
2433.308	172.83333
2435.751	165.5
2438.193	165.5
2440.633	158.83333
2443.071	166.16667
2445.508	153.83333
2447.943	160.83333
2450.376	148.16667
2452.808	160.16667
2455.238	152.83333
2457.667	186.16667
2460.093	147.83333
2462.519	145.5
2464.942	147.83333
2467.365	155.16667
2469.785	158.16667
2472.204	150.5
2474.621	152.83333
2477.037	170.5
2479.451	141.83333
2481.863	140.5
2484.274	141.83333
2486.683	148.5
2489.091	155.83333
2491.497	151.83333
2493.901	148.16667
2496.304	152.5
2498.705	161.83333
2501.105	150.5
2503.503	166.5
2505.899	139.16667
2508.294	162.16667
2510.687	147.5
2513.079	152.16667
2515.469	141.5
2517.858	142.83333
2520.245	163.16667
2522.63	148.16667
2525.014	144.83333
2527.396	142.83333
2529.776	145.5
2532.156	151.16667
2534.533	139.5
2536.909	138.5
2539.283	123.16667
2541.656	137.5
2544.027	152.16667
2546.397	147.16667
2548.765	139.5
2551.131	140.16667
2553.496	141.16667
2555.86	147.5
2558.221	145.5
2560.582	139.16667
2562.94	132.5
2565.298	139.83333
2567.653	151.83333
2570.007	127.5
2572.36	147.83333
2574.711	135.83333
2577.06	155.83333
2579.408	140.83333
2581.754	141.16667
2584.099	141.5
2586.442	140.16667
2588.784	136.5
2591.124	144.16667
2593.463	137.16667
2595.8	145.5
2598.135	123.83333
2600.469	136.83333
2602.802	145.83333
2605.133	151.83333
2607.462	126.16667
2609.79	130.5
2612.116	144.83333
2614.441	134.83333
2616.764	143.83333
2619.086	138.83333
2621.406	137.5
2623.725	145.5
2626.042	135.5
2628.358	125.83333
2630.672	132.5
2632.985	146.83333
2635.296	135.83333
2637.606	138.83333
2639.914	128.83333
2642.22	134.16667
2644.525	135.16667
2646.829	137.83333
2649.131	145.16667
2651.432	142.5
2653.731	129.83333
2656.028	146.83333
2658.324	139.5
2660.619	128.16667
2662.912	138.83333
2665.204	121.5
2667.494	140.83333
2669.782	127.83333
2672.07	139.5
2674.355	148.83333
2676.639	136.16667
2678.922	128.83333
2681.203	138.83333
2683.483	135.5
2685.761	124.83333
2688.038	144.83333
2690.313	151.16667
2692.587	138.83333
2694.859	131.83333
2697.13	137.16667
2699.399	140.5
2701.667	140.5
2703.933	144.16667
2706.198	147.5
2708.461	144.83333
2710.723	142.5
2712.984	142.16667
2715.243	149.5
2717.5	137.5
2719.757	147.83333
2722.011	139.5
2724.264	149.83333
2726.516	152.5
2728.766	136.16667
2731.015	136.16667
2733.262	142.16667
2735.508	138.83333
2737.753	150.5
2739.996	131.5
2742.237	133.83333
2744.477	145.83333
2746.716	153.83333
2748.953	147.16667
2751.189	150.83333
2753.423	137.83333
2755.656	135.16667
2757.887	129.5
2760.117	135.5
2762.346	125.5
2764.573	120.5
2766.798	131.83333
2769.022	130.5
2771.245	129.5
2773.467	137.16667
2775.686	129.5
2777.905	135.16667
2780.122	137.5
2782.337	137.16667
2784.552	129.83333
2786.764	135.83333
2788.976	129.16667
2791.186	133.83333
2793.394	132.83333
2795.601	141.83333
2797.807	140.83333
2800.011	142.83333
2802.214	144.16667
2804.415	146.16667
2806.615	144.16667
2808.814	144.83333
2811.011	149.16667
2813.206	142.5
2815.401	157.83333
2817.594	155.83333
2819.785	156.83333
2821.975	145.83333
2824.164	149.5
2826.351	149.5
2828.537	163.83333
2830.722	163.83333
2832.905	161.16667
2835.086	166.16667
2837.267	183.16667
2839.445	179.5
2841.623	179.16667
2843.799	182.5
2845.974	186.83333
2848.147	196.83333
2850.319	206.5
2852.489	214.5
2854.659	219.5
2856.826	218.16667
2858.993	237.83333
2861.158	217.5
2863.321	220.83333
2865.483	238.16667
2867.644	239.16667
2869.804	234.16667
2871.962	218.5
2874.118	229.5
2876.274	232.16667
2878.428	234.5
2880.58	231.5
2882.731	220.83333
2884.881	233.5
2887.03	239.16667
2889.177	229.83333
2891.322	236.83333
2893.467	229.16667
2895.61	220.5
2897.751	241.16667
2899.892	234.5
2902.03	236.16667
2904.168	230.16667
2906.304	229.83333
2908.439	244.83333
2910.572	230.5
2912.704	239.83333
2914.835	247.5
2916.965	236.5
2919.093	257.16667
2921.219	228.5
2923.345	256.5
2925.469	233.83333
2927.591	233.16667
2929.712	222.83333
2931.832	229.83333
2933.951	221.83333
2936.068	217.16667
2938.184	213.5
2940.299	207.83333
2942.412	209.5
2944.524	187.16667
2946.634	203.83333
2948.744	172.16667
2950.851	204.5
2952.958	175.16667
2955.063	188.5
2957.167	184.83333
2959.269	159.16667
2961.371	194.83333
2963.471	163.5
2965.569	178.16667
2967.666	154.5
2969.762	151.83333
2971.857	148.16667
2973.95	137.83333
2976.042	153.83333
2978.133	145.83333
2980.222	140.5
2982.31	129.83333
2984.396	119.16667
2986.482	126.83333
2988.566	132.5
2990.648	130.16667
2992.73	130.5
2994.81	114.83333
2996.889	128.5
2998.966	128.83333
3001.042	137.83333
3003.117	118.83333
3005.191	125.5
3007.263	132.5
3009.334	121.16667
3011.403	124.16667
3013.472	115.16667
3015.539	133.83333
3017.604	137.5
3019.669	110.16667
3021.732	118.5
3023.794	120.16667
3025.854	108.5
3027.914	109.5
3029.971	108.5
3032.028	112.83333
3034.083	119.5
3036.137	113.5
3038.19	105.16667
3040.242	95.83333
3042.292	98.16667
3044.341	100.16667
3046.388	116.83333
3048.435	97.16667
3050.48	115.83333
3052.524	98.83333
3054.566	89.83333
3056.607	99.83333
3058.647	97.16667
3060.686	90.5
3062.723	79.16667
3064.759	82.16667
3066.794	-1.5
3068.828	0.5
3070.86	3.5
