-0.839	155.5
3.438	175.83333
7.711	72.16667
11.981	45.83333
16.247	32.83333
20.509	40.16667
24.768	38.16667
29.024	46.5
33.276	32.83333
37.524	43.16667
41.769	30.5
46.01	27.83333
50.247	46.16667
54.481	53.16667
58.712	55.5
62.939	39.16667
67.162	56.5
71.382	47.83333
75.599	39.16667
79.812	42.16667
84.021	66.5
88.227	44.16667
92.429	52.83333
96.628	40.5
100.823	49.16667
105.015	53.83333
109.204	46.5
113.388	56.5
117.57	46.16667
121.748	66.16667
125.922	47.5
130.093	65.16667
134.261	71.16667
138.425	58.16667
142.585	83.5
146.742	63.83333
150.896	84.83333
155.046	79.5
159.193	121.5
163.336	178.16667
167.476	310.5
171.613	553.16667
175.746	884.16667
179.875	1274.16667
184.002	1654.83333
188.124	1967.83333
192.244	2050.5
196.36	2063.5
200.472	2062.83333
204.581	2020.83333
208.687	1971.83333
212.79	1974.16667
216.889	1964.16667
220.984	1983.5
225.077	1997.5
229.165	2010.16667
233.251	2005.83333
237.333	2009.83333
241.412	1999.83333
245.487	1963.5
249.559	1959.83333
253.628	1936.83333
257.694	1930.16667
261.756	1919.5
265.814	1883.5
269.87	1828.83333
273.922	1780.83333
277.97	1748.5
282.016	1727.16667
286.058	1700.83333
290.097	1718.83333
294.132	1717.16667
298.164	1716.83333
302.193	1683.16667
306.219	1574.83333
310.241	1484.16667
314.26	1380.5
318.276	1318.5
322.288	1288.5
326.297	1241.16667
330.303	1230.5
334.305	1205.16667
338.305	1191.16667
342.301	1189.83333
346.294	1186.5
350.283	1157.83333
354.269	1165.83333
358.252	1146.5
362.232	1150.5
366.209	1165.16667
370.182	1147.16667
374.152	1142.5
378.119	1150.16667
382.083	1134.5
386.043	1152.83333
390	1129.83333
393.954	1152.83333
397.905	1154.16667
401.852	1165.16667
405.797	1135.83333
409.738	1152.5
413.676	1152.83333
417.61	1153.5
421.542	1148.16667
425.47	1117.16667
429.396	1119.83333
433.318	1096.5
437.236	1110.83333
441.152	1145.5
445.065	1092.83333
448.974	1106.5
452.88	1093.83333
456.783	1085.83333
460.683	1067.5
464.58	1087.16667
468.473	1108.83333
472.364	1113.83333
476.251	1088.83333
480.135	1097.83333
484.016	1104.83333
487.894	1109.5
491.769	1126.83333
495.641	1112.5
499.509	1109.83333
503.375	1120.16667
507.237	1121.16667
511.096	1114.16667
514.952	1121.83333
518.805	1111.16667
522.655	1109.83333
526.502	1105.5
530.346	1122.83333
534.187	1103.16667
538.024	1104.5
541.859	1088.16667
545.69	1121.5
549.519	1093.5
553.344	1101.16667
557.166	1071.83333
560.985	1083.83333
564.802	1064.5
568.615	1065.83333
572.425	1055.83333
576.232	1045.5
580.036	1048.5
583.836	1040.5
587.634	1059.5
591.429	1053.16667
595.221	1079.83333
599.01	1069.83333
602.796	1081.16667
606.578	1083.16667
610.358	1087.16667
614.135	1077.5
617.909	1073.16667
621.679	1067.5
625.447	1053.83333
629.212	1063.5
632.973	1059.5
636.732	1054.5
640.488	1060.83333
644.241	1038.5
647.991	1020.5
651.737	1062.5
655.481	1031.5
659.222	1054.83333
662.96	1047.16667
666.695	1052.16667
670.427	1073.83333
674.156	1066.16667
677.882	1060.16667
681.605	1059.5
685.325	1039.83333
689.043	1052.5
692.757	1035.5
696.468	1038.5
700.177	1053.5
703.882	1019.5
707.585	1008.5
711.284	1020.16667
714.981	1024.83333
718.675	1015.5
722.366	1019.83333
726.054	1004.5
729.739	1006.5
733.421	1011.5
737.1	1009.5
740.777	1010.16667
744.45	1013.5
748.121	1004.5
751.789	1051.5
755.453	1033.83333
759.115	1023.16667
762.774	1036.5
766.431	1029.83333
770.084	1035.83333
773.734	1047.16667
777.382	1058.5
781.027	1057.16667
784.669	1057.5
788.308	1069.83333
791.944	1066.5
795.577	1068.83333
799.208	1084.16667
802.835	1090.5
806.46	1099.5
810.082	1095.5
813.701	1104.5
817.317	1118.83333
820.931	1098.16667
824.542	1102.16667
828.149	1088.16667
831.754	1075.5
835.357	1056.83333
838.956	1078.5
842.553	1060.5
846.146	1049.5
849.737	1021.5
853.326	1042.16667
856.911	1018.83333
860.493	1047.5
864.073	1062.83333
867.65	1063.5
871.225	1075.16667
874.796	1057.5
878.365	1047.83333
881.931	1068.83333
885.494	1082.5
889.054	1072.83333
892.612	1074.5
896.166	1055.16667
899.719	1038.16667
903.268	1020.16667
906.814	1040.5
910.358	1012.16667
913.899	1018.5
917.438	1015.83333
920.973	998.5
924.506	1026.83333
928.036	1038.16667
931.564	1059.16667
935.088	1064.83333
938.61	1044.16667
942.129	1046.16667
945.646	1071.5
949.16	1074.83333
952.671	1093.16667
956.179	1105.16667
959.685	1100.5
963.188	1107.83333
966.688	1098.83333
970.185	1063.16667
973.68	1025.5
977.173	1036.16667
980.662	1016.16667
984.149	1006.83333
987.633	1004.16667
991.114	1012.16667
994.593	1028.5
998.069	1047.83333
1001.542	1063.16667
1005.013	1065.5
1008.481	1003.5
1011.947	989.16667
1015.409	980.83333
1018.869	973.5
1022.327	988.5
1025.782	957.16667
1029.234	965.16667
1032.683	952.16667
1036.13	934.83333
1039.574	904.16667
1043.016	880.16667
1046.455	882.5
1049.891	870.5
1053.325	865.5
1056.756	856.83333
1060.184	869.83333
1063.61	844.16667
1067.033	880.83333
1070.454	857.83333
1073.872	886.16667
1077.287	859.16667
1080.7	870.5
1084.11	865.16667
1087.517	870.16667
1090.922	857.83333
1094.325	843.5
1097.724	827.83333
1101.122	839.83333
1104.516	829.83333
1107.908	826.5
1111.298	833.16667
1114.684	843.16667
1118.069	842.5
1121.45	866.5
1124.83	855.5
1128.206	856.16667
1131.58	860.16667
1134.951	880.16667
1138.32	890.5
1141.687	934.16667
1145.05	935.83333
1148.412	939.83333
1151.77	935.5
1155.126	940.83333
1158.48	922.16667
1161.831	935.5
1165.18	930.16667
1168.525	953.16667
1171.869	971.5
1175.21	957.83333
1178.548	962.5
1181.884	967.5
1185.217	969.5
1188.548	1002.83333
1191.877	1005.83333
1195.202	1056.16667
1198.526	1078.83333
1201.846	1072.5
1205.165	1075.5
1208.48	1082.83333
1211.794	1097.83333
1215.104	1093.16667
1218.413	1079.83333
1221.719	1078.83333
1225.022	1057.5
1228.323	1022.16667
1231.621	1032.16667
1234.917	1028.5
1238.21	1047.16667
1241.501	1034.16667
1244.79	1022.5
1248.076	1004.5
1251.359	1029.5
1254.64	1067.83333
1257.919	1044.83333
1261.195	1060.5
1264.468	1070.83333
1267.74	1084.83333
1271.008	1092.83333
1274.275	1070.83333
1277.538	1092.16667
1280.8	1073.16667
1284.059	1065.16667
1287.315	1083.16667
1290.569	1085.5
1293.821	1092.5
1297.07	1091.5
1300.317	1102.83333
1303.562	1093.5
1306.803	1081.83333
1310.043	1095.16667
1313.28	1081.5
1316.515	1076.83333
1319.747	1088.5
1322.977	1080.5
1326.204	1063.5
1329.429	1062.83333
1332.652	1062.5
1335.872	1057.5
1339.09	1042.83333
1342.306	1044.16667
1345.519	1033.16667
1348.729	1027.83333
1351.938	1032.5
1355.144	1017.5
1358.347	996.16667
1361.548	1000.5
1364.747	1006.83333
1367.944	993.83333
1371.138	998.16667
1374.329	989.5
1377.518	988.16667
1380.705	982.16667
1383.89	991.83333
1387.072	954.5
1390.252	921.16667
1393.429	896.16667
1396.605	883.83333
1399.777	841.83333
1402.948	842.5
1406.116	833.83333
1409.282	835.83333
1412.445	832.16667
1415.606	844.83333
1418.765	844.16667
1421.921	855.5
1425.075	861.5
1428.227	895.83333
1431.376	939.16667
1434.524	945.83333
1437.668	981.16667
1440.811	986.5
1443.951	981.5
1447.089	1001.83333
1450.224	996.83333
1453.357	982.5
1456.488	991.16667
1459.617	981.5
1462.743	957.83333
1465.867	941.5
1468.989	943.5
1472.108	921.16667
1475.225	898.83333
1478.34	897.5
1481.453	887.5
1484.563	876.16667
1487.671	900.83333
1490.776	908.5
1493.88	911.83333
1496.981	923.5
1500.08	947.83333
1503.176	933.16667
1506.271	939.16667
1509.363	975.16667
1512.452	963.83333
1515.54	973.16667
1518.625	984.16667
1521.708	1010.5
1524.789	1032.5
1527.867	1069.5
1530.944	1112.16667
1534.018	1127.16667
1537.089	1190.83333
1540.159	1201.83333
1543.226	1196.5
1546.291	1173.83333
1549.354	1151.16667
1552.415	1121.16667
1555.473	1111.16667
1558.529	1102.83333
1561.583	1088.16667
1564.634	1083.16667
1567.684	1070.5
1570.731	1073.16667
1573.776	1095.83333
1576.819	1099.5
1579.859	1116.5
1582.898	1131.83333
1585.934	1146.16667
1588.968	1144.5
1591.999	1125.83333
1595.029	1131.5
1598.056	1153.83333
1601.081	1167.16667
1604.104	1147.16667
1607.125	1127.83333
1610.144	1122.5
1613.16	1092.16667
1616.174	1065.83333
1619.186	1055.5
1622.196	1046.83333
1625.203	1006.5
1628.209	1008.16667
1631.212	1011.5
1634.213	1016.5
1637.212	1051.5
1640.209	1044.16667
1643.203	1012.83333
1646.196	976.16667
1649.186	927.16667
1652.174	897.16667
1655.16	867.16667
1658.144	868.16667
1661.125	814.16667
1664.105	777.83333
1667.082	744.5
1670.057	707.83333
1673.03	676.16667
1676.001	641.83333
1678.97	609.5
1681.937	583.5
1684.901	540.16667
1687.863	531.83333
1690.824	502.16667
1693.782	519.16667
1696.738	485.83333
1699.692	488.83333
1702.643	465.83333
1705.593	462.83333
1708.54	460.16667
1711.486	461.16667
1714.429	443.16667
1717.37	445.83333
1720.309	429.16667
1723.246	446.5
1726.181	424.83333
1729.113	440.5
1732.044	437.5
1734.972	423.5
1737.899	438.83333
1740.823	434.83333
1743.745	455.5
1746.665	409.5
1749.583	402.5
1752.499	401.83333
1755.413	394.5
1758.325	382.16667
1761.235	398.5
1764.142	375.16667
1767.048	382.16667
1769.951	381.83333
1772.852	371.16667
1775.752	385.83333
1778.649	379.16667
1781.544	398.83333
1784.437	368.16667
1787.328	378.83333
1790.217	369.5
1793.104	359.5
1795.989	354.5
1798.872	345.5
1801.753	367.5
1804.631	350.16667
1807.508	360.83333
1810.383	360.5
1813.255	362.83333
1816.126	356.16667
1818.994	350.83333
1821.861	355.83333
1824.725	357.16667
1827.587	360.5
1830.448	351.5
1833.306	332.16667
1836.162	355.83333
1839.017	347.16667
1841.869	342.83333
1844.719	341.83333
1847.567	333.5
1850.414	318.83333
1853.258	327.83333
1856.1	340.5
1858.94	344.16667
1861.778	341.16667
1864.614	318.83333
1867.448	331.16667
1870.28	313.5
1873.111	342.83333
1875.939	328.16667
1878.765	346.83333
1881.589	320.5
1884.411	335.5
1887.231	343.16667
1890.049	326.16667
1892.865	334.16667
1895.68	316.83333
1898.492	325.5
1901.302	315.83333
1904.11	317.5
1906.916	314.83333
1909.721	312.83333
1912.523	317.16667
1915.323	302.83333
1918.122	305.16667
1920.918	320.5
1923.712	305.16667
1926.505	316.83333
1929.295	287.16667
1932.084	313.5
1934.87	307.83333
1937.655	303.16667
1940.438	296.5
1943.218	301.5
1945.997	304.5
1948.774	307.16667
1951.549	306.83333
1954.322	299.5
1957.093	301.83333
1959.862	287.5
1962.629	300.16667
1965.394	295.83333
1968.157	291.5
1970.918	303.83333
1973.678	286.83333
1976.435	296.83333
1979.19	283.16667
1981.944	275.83333
1984.696	284.83333
1987.445	282.83333
1990.193	282.83333
1992.939	294.16667
1995.683	285.16667
1998.425	276.83333
2001.165	310.83333
2003.903	270.5
2006.639	278.83333
2009.374	287.16667
2012.106	289.5
2014.837	261.16667
2017.566	288.16667
2020.292	275.5
2023.017	275.83333
2025.74	277.5
2028.461	267.5
2031.18	270.83333
2033.898	263.83333
2036.613	273.5
2039.327	268.5
2042.038	266.83333
2044.748	263.83333
2047.456	278.5
2050.162	261.16667
2052.866	263.5
2055.568	279.83333
2058.268	260.83333
2060.967	267.5
2063.663	256.16667
2066.358	252.5
2069.051	251.16667
2071.742	259.83333
2074.431	268.5
2077.118	257.5
2079.804	243.5
2082.487	262.5
2085.169	265.16667
2087.849	285.5
2090.527	252.83333
2093.203	257.83333
2095.877	261.5
2098.55	254.16667
2101.22	267.83333
2103.889	268.5
2106.556	251.16667
2109.221	276.16667
2111.884	266.16667
2114.546	277.16667
2117.205	292.5
2119.863	321.83333
2122.519	310.5
2125.173	329.83333
2127.825	363.83333
2130.475	360.5
2133.124	336.5
2135.771	328.5
2138.416	342.16667
2141.059	305.16667
2143.7	307.83333
2146.339	286.16667
2148.977	266.5
2151.613	274.83333
2154.247	264.16667
2156.879	264.5
2159.51	258.16667
2162.138	251.16667
2164.765	251.5
2167.39	239.83333
2170.013	262.5
2172.634	258.83333
2175.254	239.83333
2177.872	282.83333
2180.488	240.5
2183.102	238.5
2185.714	238.83333
2188.325	229.83333
2190.934	240.16667
2193.541	239.5
2196.146	237.83333
2198.75	220.5
2201.351	224.16667
2203.951	211.16667
2206.549	232.5
2209.146	223.16667
2211.74	214.83333
2214.333	223.16667
2216.924	208.16667
2219.514	212.5
2222.101	214.5
2224.687	230.5
2227.271	210.5
2229.853	208.83333
2232.433	199.16667
2235.012	223.5
2237.589	205.83333
2240.164	222.5
2242.738	208.5
2245.309	202.16667
2247.879	225.5
2250.448	212.83333
2253.014	206.5
2255.579	188.16667
2258.142	195.83333
2260.703	203.5
2263.262	201.5
2265.82	184.16667
2268.376	207.83333
2270.93	196.5
2273.483	190.5
2276.033	205.5
2278.583	189.16667
2281.13	186.5
2283.675	185.16667
2286.219	188.83333
2288.761	201.5
2291.302	197.5
2293.841	206.16667
2296.377	184.16667
2298.913	195.5
2301.446	206.5
2303.978	190.16667
2306.508	188.16667
2309.037	188.83333
2311.563	188.5
2314.088	195.83333
2316.612	175.16667
2319.133	190.83333
2321.653	193.16667
2324.171	184.16667
2326.688	192.83333
2329.202	189.83333
2331.715	192.83333
2334.227	178.16667
2336.736	184.5
2339.244	177.5
2341.751	169.83333
2344.255	188.83333
2346.758	177.16667
2349.259	173.16667
2351.759	186.16667
2354.257	175.5
2356.753	164.16667
2359.247	172.83333
2361.74	169.5
2364.231	175.83333
2366.721	180.16667
2369.209	172.83333
2371.695	173.5
2374.179	164.16667
2376.662	158.16667
2379.143	192.16667
2381.622	168.16667
2384.1	184.83333
2386.576	170.5
2389.051	185.16667
2391.524	183.83333
2393.995	176.83333
2396.464	167.16667
2398.932	165.83333
2401.398	169.83333
2403.863	163.83333
2406.325	163.16667
2408.787	169.16667
2411.246	169.16667
2413.704	172.5
2416.16	165.5
2418.615	161.83333
2421.068	168.83333
2423.519	164.16667
2425.969	154.83333
2428.417	176.5
2430.863	186.16667
2433.308	170.83333
2435.751	172.83333
2438.193	165.5
2440.633	174.16667
2443.071	168.5
2445.508	152.16667
2447.943	164.83333
2450.376	157.83333
2452.808	164.83333
2455.238	150.16667
2457.667	182.5
2460.093	156.5
2462.519	145.16667
2464.942	149.5
2467.365	164.5
2469.785	169.16667
2472.204	154.16667
2474.621	159.83333
2477.037	171.16667
2479.451	147.16667
2481.863	146.83333
2484.274	151.83333
2486.683	154.5
2489.091	163.83333
2491.497	161.83333
2493.901	156.16667
2496.304	152.5
2498.705	161.83333
2501.105	162.83333
2503.503	174.5
2505.899	145.83333
2508.294	169.5
2510.687	146.5
2513.079	156.83333
2515.469	151.5
2517.858	150.83333
2520.245	161.83333
2522.63	149.83333
2525.014	150.16667
2527.396	142.16667
2529.776	148.5
2532.156	153.83333
2534.533	140.5
2536.909	137.5
2539.283	127.5
2541.656	141.83333
2544.027	159.83333
2546.397	148.83333
2548.765	142.5
2551.131	151.83333
2553.496	152.83333
2555.86	148.83333
2558.221	154.83333
2560.582	144.83333
2562.94	137.5
2565.298	147.16667
2567.653	153.83333
2570.007	131.16667
2572.36	146.83333
2574.711	136.83333
2577.06	159.83333
2579.408	139.83333
2581.754	138.83333
2584.099	140.5
2586.442	143.16667
2588.784	145.83333
2591.124	142.83333
2593.463	140.16667
2595.8	147.5
2598.135	130.5
2600.469	130.5
2602.802	149.83333
2605.133	144.83333
2607.462	136.83333
2609.79	128.83333
2612.116	146.16667
2614.441	140.16667
2616.764	145.5
2619.086	137.5
2621.406	134.5
2623.725	146.83333
2626.042	135.83333
2628.358	133.16667
2630.672	134.5
2632.985	151.5
2635.296	135.5
2637.606	136.83333
2639.914	134.5
2642.22	133.16667
2644.525	139.83333
2646.829	136.16667
2649.131	147.83333
2651.432	144.83333
2653.731	135.5
2656.028	145.83333
2658.324	142.83333
2660.619	124.5
2662.912	140.5
2665.204	124.5
2667.494	141.83333
2669.782	131.5
2672.07	148.16667
2674.355	150.83333
2676.639	143.5
2678.922	129.83333
2681.203	139.5
2683.483	133.5
2685.761	121.5
2688.038	146.83333
2690.313	155.16667
2692.587	137.16667
2694.859	134.83333
2697.13	132.83333
2699.399	135.83333
2701.667	146.83333
2703.933	144.5
2706.198	147.16667
2708.461	143.16667
2710.723	141.5
2712.984	142.83333
2715.243	150.5
2717.5	144.83333
2719.757	147.83333
2722.011	140.16667
2724.264	145.83333
2726.516	160.83333
2728.766	136.5
2731.015	138.16667
2733.262	139.5
2735.508	134.16667
2737.753	146.83333
2739.996	130.5
2742.237	134.83333
2744.477	146.83333
2746.716	157.5
2748.953	147.83333
2751.189	153.16667
2753.423	138.5
2755.656	139.83333
2757.887	129.5
2760.117	135.16667
2762.346	126.83333
2764.573	124.5
2766.798	128.16667
2769.022	138.5
2771.245	134.16667
2773.467	139.5
2775.686	130.5
2777.905	137.16667
2780.122	133.16667
2782.337	139.16667
2784.552	130.83333
2786.764	129.5
2788.976	127.16667
2791.186	129.83333
2793.394	132.83333
2795.601	140.16667
2797.807	141.5
2800.011	141.83333
2802.214	148.83333
2804.415	138.5
2806.615	141.5
2808.814	143.16667
2811.011	150.16667
2813.206	144.16667
2815.401	149.5
2817.594	154.5
2819.785	159.16667
2821.975	140.16667
2824.164	147.5
2826.351	142.5
2828.537	167.83333
2830.722	161.16667
2832.905	157.16667
2835.086	167.83333
2837.267	187.83333
2839.445	176.16667
2841.623	181.5
2843.799	188.83333
2845.974	195.83333
2848.147	200.16667
2850.319	204.16667
2852.489	219.16667
2854.659	214.5
2856.826	220.16667
2858.993	238.16667
2861.158	205.5
2863.321	219.5
2865.483	237.16667
2867.644	232.83333
2869.804	231.83333
2871.962	222.83333
2874.118	236.83333
2876.274	233.16667
2878.428	226.83333
2880.58	235.16667
2882.731	211.5
2884.881	231.83333
2887.03	234.16667
2889.177	230.83333
2891.322	238.5
2893.467	225.83333
2895.61	228.5
2897.751	243.16667
2899.892	237.83333
2902.03	229.83333
2904.168	236.83333
2906.304	227.16667
2908.439	248.5
2910.572	233.83333
2912.704	245.16667
2914.835	252.16667
2916.965	238.16667
2919.093	260.5
2921.219	224.5
2923.345	255.5
2925.469	242.16667
2927.591	240.16667
2929.712	219.83333
2931.832	234.83333
2933.951	224.5
2936.068	219.5
2938.184	219.5
2940.299	208.16667
2942.412	201.5
2944.524	191.16667
2946.634	205.83333
2948.744	177.5
2950.851	209.5
2952.958	175.83333
2955.063	182.16667
2957.167	176.83333
2959.269	167.16667
2961.371	191.5
2963.471	159.83333
2965.569	179.5
2967.666	152.5
2969.762	157.83333
2971.857	147.83333
2973.95	150.83333
2976.042	151.16667
2978.133	148.5
2980.222	144.83333
2982.31	130.83333
2984.396	116.16667
2986.482	126.83333
2988.566	131.5
2990.648	131.5
2992.73	128.83333
2994.81	115.5
2996.889	127.83333
2998.966	127.16667
3001.042	135.5
3003.117	121.16667
3005.191	123.16667
3007.263	131.83333
3009.334	122.16667
3011.403	127.5
3013.472	119.5
3015.539	136.5
3017.604	143.83333
3019.669	108.83333
3021.732	114.5
3023.794	114.5
3025.854	110.5
3027.914	109.16667
3029.971	107.16667
3032.028	111.5
3034.083	117.5
3036.137	116.16667
3038.19	101.5
3040.242	96.5
3042.292	97.5
3044.341	108.5
3046.388	122.83333
3048.435	93.16667
3050.48	115.16667
3052.524	102.5
3054.566	88.16667
3056.607	103.16667
3058.647	99.16667
3060.686	85.83333
3062.723	82.5
3064.759	84.83333
3066.794	-1.16667
3068.828	0.16667
3070.86	3.83333
