-0.839	145.58333
3.438	162.58333
7.711	69.25
11.981	46.58333
16.247	30.91667
20.509	38.25
24.768	35.58333
29.024	44.25
33.276	30.25
37.524	42.91667
41.769	32.58333
46.01	25.91667
50.247	45.58333
54.481	52.91667
58.712	51.25
62.939	33.91667
67.162	52.58333
71.382	48.58333
75.599	39.91667
79.812	41.58333
84.021	65.91667
88.227	40.91667
92.429	52.25
96.628	38.91667
100.823	54.91667
105.015	52.91667
109.204	47.91667
113.388	59.58333
117.57	45.58333
121.748	63.58333
125.922	53.25
130.093	69.25
134.261	70.91667
138.425	59.91667
142.585	88.25
146.742	66.91667
150.896	88.58333
155.046	86.58333
159.193	125.25
163.336	185.91667
167.476	323.25
171.613	572.25
175.746	952.91667
179.875	1399.25
184.002	1815.91667
188.124	2149.91667
192.244	2266.25
196.36	2265.91667
200.472	2258.91667
204.581	2236.25
208.687	2188.91667
212.79	2188.91667
216.889	2210.58333
220.984	2247.25
225.077	2247.25
229.165	2283.91667
233.251	2284.25
237.333	2286.91667
241.412	2267.58333
245.487	2276.25
249.559	2232.58333
253.628	2237.91667
257.694	2218.58333
261.756	2230.25
265.814	2169.58333
269.87	2109.58333
273.922	2032.25
277.97	2000.91667
282.016	1967.25
286.058	1952.25
290.097	1994.58333
294.132	2010.25
298.164	1989.25
302.193	1925.58333
306.219	1804.25
310.241	1696.25
314.26	1603.58333
318.276	1521.91667
322.288	1470.58333
326.297	1425.58333
330.303	1392.91667
334.305	1377.58333
338.305	1358.58333
342.301	1348.91667
346.294	1348.91667
350.283	1350.91667
354.269	1333.58333
358.252	1313.25
362.232	1326.25
366.209	1320.91667
370.182	1302.91667
374.152	1304.25
378.119	1312.25
382.083	1315.58333
386.043	1323.91667
390	1304.25
393.954	1350.58333
397.905	1354.25
401.852	1359.58333
405.797	1328.91667
409.738	1383.58333
413.676	1441.91667
417.61	1483.58333
421.542	1359.91667
425.47	1278.91667
429.396	1269.25
433.318	1259.91667
437.236	1271.25
441.152	1306.58333
445.065	1241.58333
448.974	1275.58333
452.88	1268.25
456.783	1257.91667
460.683	1245.25
464.58	1248.58333
468.473	1251.58333
472.364	1269.58333
476.251	1261.25
480.135	1254.58333
484.016	1265.25
487.894	1290.58333
491.769	1281.91667
495.641	1279.58333
499.509	1288.58333
503.375	1275.25
507.237	1276.91667
511.096	1275.58333
514.952	1269.25
518.805	1265.91667
522.655	1289.58333
526.502	1269.91667
530.346	1279.58333
534.187	1278.58333
538.024	1267.58333
541.859	1276.58333
545.69	1288.25
549.519	1278.91667
553.344	1277.58333
557.166	1268.58333
560.985	1261.58333
564.802	1237.91667
568.615	1223.91667
572.425	1207.25
576.232	1200.25
580.036	1203.25
583.836	1207.91667
587.634	1234.91667
591.429	1211.58333
595.221	1242.91667
599.01	1231.25
602.796	1247.25
606.578	1247.91667
610.358	1251.25
614.135	1243.91667
617.909	1254.58333
621.679	1222.91667
625.447	1221.25
629.212	1212.91667
632.973	1237.58333
636.732	1228.25
640.488	1252.58333
644.241	1203.58333
647.991	1204.58333
651.737	1231.58333
655.481	1200.58333
659.222	1178.91667
662.96	1199.58333
666.695	1219.25
670.427	1212.58333
674.156	1231.25
677.882	1210.58333
681.605	1212.91667
685.325	1204.58333
689.043	1210.91667
692.757	1194.58333
696.468	1190.25
700.177	1194.58333
703.882	1183.25
707.585	1167.25
711.284	1179.91667
714.981	1169.58333
718.675	1153.58333
722.366	1176.25
726.054	1160.91667
729.739	1152.58333
733.421	1170.58333
737.1	1141.25
740.777	1178.25
744.45	1159.25
748.121	1163.58333
751.789	1215.58333
755.453	1191.25
759.115	1184.58333
762.774	1185.25
766.431	1200.25
770.084	1191.91667
773.734	1197.91667
777.382	1208.58333
781.027	1218.91667
784.669	1216.91667
788.308	1213.91667
791.944	1235.91667
795.577	1246.91667
799.208	1248.91667
802.835	1254.25
806.46	1259.58333
810.082	1247.58333
813.701	1247.58333
817.317	1254.25
820.931	1259.91667
824.542	1239.58333
828.149	1243.91667
831.754	1219.58333
835.357	1224.58333
838.956	1242.91667
842.553	1261.58333
846.146	1244.25
849.737	1211.91667
853.326	1202.25
856.911	1202.25
860.493	1222.25
864.073	1248.58333
867.65	1308.91667
871.225	1309.58333
874.796	1237.25
878.365	1233.25
881.931	1245.25
885.494	1254.25
889.054	1248.58333
892.612	1239.58333
896.166	1215.58333
899.719	1200.91667
903.268	1168.58333
906.814	1194.25
910.358	1190.58333
913.899	1167.25
917.438	1188.91667
920.973	1156.58333
924.506	1161.58333
928.036	1185.58333
931.564	1211.25
935.088	1206.91667
938.61	1219.58333
942.129	1203.91667
945.646	1222.91667
949.16	1239.58333
952.671	1253.58333
956.179	1259.25
959.685	1251.25
963.188	1272.25
966.688	1249.91667
970.185	1197.58333
973.68	1187.58333
977.173	1165.25
980.662	1157.25
984.149	1162.91667
987.633	1142.25
991.114	1164.25
994.593	1184.91667
998.069	1197.58333
1001.542	1241.91667
1005.013	1242.58333
1008.481	1141.58333
1011.947	1137.58333
1015.409	1135.91667
1018.869	1137.58333
1022.327	1134.91667
1025.782	1122.58333
1029.234	1104.91667
1032.683	1098.25
1036.13	1059.91667
1039.574	1038.91667
1043.016	1012.58333
1046.455	1014.58333
1049.891	983.91667
1053.325	998.58333
1056.756	983.58333
1060.184	1005.91667
1063.61	990.58333
1067.033	995.25
1070.454	995.25
1073.872	1020.91667
1077.287	996.25
1080.7	1004.25
1084.11	989.25
1087.517	999.91667
1090.922	987.58333
1094.325	967.91667
1097.724	971.91667
1101.122	965.58333
1104.516	952.58333
1107.908	952.58333
1111.298	954.91667
1114.684	975.58333
1118.069	974.91667
1121.45	987.91667
1124.83	979.25
1128.206	995.91667
1131.58	996.91667
1134.951	1024.25
1138.32	1037.58333
1141.687	1083.91667
1145.05	1090.25
1148.412	1095.25
1151.77	1083.91667
1155.126	1094.58333
1158.48	1072.58333
1161.831	1081.58333
1165.18	1083.58333
1168.525	1100.58333
1171.869	1117.58333
1175.21	1113.58333
1178.548	1130.25
1181.884	1141.58333
1185.217	1148.91667
1188.548	1171.58333
1191.877	1195.91667
1195.202	1231.91667
1198.526	1263.91667
1201.846	1233.25
1205.165	1245.58333
1208.48	1245.91667
1211.794	1232.58333
1215.104	1245.58333
1218.413	1243.58333
1221.719	1226.58333
1225.022	1212.25
1228.323	1185.58333
1231.621	1192.25
1234.917	1178.91667
1238.21	1204.91667
1241.501	1170.91667
1244.79	1163.25
1248.076	1167.91667
1251.359	1183.91667
1254.64	1230.58333
1257.919	1183.58333
1261.195	1230.58333
1264.468	1233.58333
1267.74	1260.58333
1271.008	1262.25
1274.275	1242.91667
1277.538	1247.91667
1280.8	1242.91667
1284.059	1221.91667
1287.315	1235.25
1290.569	1236.25
1293.821	1237.91667
1297.07	1255.58333
1300.317	1246.58333
1303.562	1268.91667
1306.803	1241.58333
1310.043	1237.25
1313.28	1225.91667
1316.515	1216.25
1319.747	1231.91667
1322.977	1217.91667
1326.204	1210.25
1329.429	1193.25
1332.652	1171.58333
1335.872	1183.91667
1339.09	1173.25
1342.306	1166.25
1345.519	1158.58333
1348.729	1147.58333
1351.938	1151.91667
1355.144	1129.25
1358.347	1115.58333
1361.548	1137.91667
1364.747	1112.91667
1367.944	1100.58333
1371.138	1102.25
1374.329	1107.91667
1377.518	1124.25
1380.705	1129.58333
1383.89	1116.25
1387.072	1086.91667
1390.252	1057.25
1393.429	1031.25
1396.605	1006.58333
1399.777	957.91667
1402.948	958.58333
1406.116	955.58333
1409.282	948.91667
1412.445	950.91667
1415.606	951.25
1418.765	952.58333
1421.921	977.25
1425.075	985.58333
1428.227	1003.91667
1431.376	1061.91667
1434.524	1078.58333
1437.668	1094.91667
1440.811	1105.58333
1443.951	1114.25
1447.089	1121.91667
1450.224	1115.25
1453.357	1119.91667
1456.488	1108.58333
1459.617	1092.25
1462.743	1088.58333
1465.867	1051.91667
1468.989	1052.25
1472.108	1028.91667
1475.225	1028.25
1478.34	1005.25
1481.453	1001.58333
1484.563	999.58333
1487.671	1009.58333
1490.776	1038.58333
1493.88	1033.25
1496.981	1058.58333
1500.08	1068.58333
1503.176	1068.58333
1506.271	1078.58333
1509.363	1092.91667
1512.452	1099.58333
1515.54	1106.58333
1518.625	1124.58333
1521.708	1158.58333
1524.789	1216.58333
1527.867	1230.25
1530.944	1288.25
1534.018	1313.91667
1537.089	1368.91667
1540.159	1383.25
1543.226	1387.91667
1546.291	1347.91667
1549.354	1348.58333
1552.415	1301.58333
1555.473	1274.25
1558.529	1278.58333
1561.583	1255.91667
1564.634	1220.58333
1567.684	1230.91667
1570.731	1241.91667
1573.776	1252.58333
1576.819	1250.58333
1579.859	1281.25
1582.898	1271.58333
1585.934	1309.58333
1588.968	1306.58333
1591.999	1290.91667
1595.029	1282.91667
1598.056	1286.25
1601.081	1316.58333
1604.104	1314.25
1607.125	1276.25
1610.144	1276.58333
1613.16	1236.58333
1616.174	1210.25
1619.186	1183.58333
1622.196	1165.58333
1625.203	1115.91667
1628.209	1135.25
1631.212	1104.25
1634.213	1109.58333
1637.212	1103.91667
1640.209	1087.58333
1643.203	1061.91667
1646.196	1030.91667
1649.186	1008.91667
1652.174	994.25
1655.16	938.58333
1658.144	921.91667
1661.125	893.91667
1664.105	854.91667
1667.082	828.91667
1670.057	781.91667
1673.03	738.91667
1676.001	712.58333
1678.97	670.58333
1681.937	629.58333
1684.901	600.25
1687.863	597.25
1690.824	558.58333
1693.782	569.25
1696.738	534.91667
1699.692	529.91667
1702.643	514.25
1705.593	512.91667
1708.54	509.91667
1711.486	517.58333
1714.429	490.91667
1717.37	496.58333
1720.309	479.91667
1723.246	490.91667
1726.181	465.91667
1729.113	480.25
1732.044	482.58333
1734.972	468.25
1737.899	481.91667
1740.823	474.25
1743.745	500.58333
1746.665	450.58333
1749.583	445.58333
1752.499	441.91667
1755.413	436.91667
1758.325	429.25
1761.235	438.25
1764.142	425.58333
1767.048	429.25
1769.951	421.58333
1772.852	426.58333
1775.752	460.25
1778.649	487.91667
1781.544	458.91667
1784.437	415.91667
1787.328	412.25
1790.217	415.91667
1793.104	393.91667
1795.989	398.91667
1798.872	392.25
1801.753	400.25
1804.631	403.58333
1807.508	399.91667
1810.383	396.58333
1813.255	390.58333
1816.126	395.91667
1818.994	386.25
1821.861	375.25
1824.725	401.25
1827.587	382.25
1830.448	387.25
1833.306	372.91667
1836.162	395.58333
1839.017	384.25
1841.869	378.58333
1844.719	371.91667
1847.567	366.58333
1850.414	362.91667
1853.258	358.58333
1856.1	371.91667
1858.94	380.58333
1861.778	372.91667
1864.614	352.91667
1867.448	369.58333
1870.28	346.25
1873.111	371.58333
1875.939	358.25
1878.765	385.58333
1881.589	352.91667
1884.411	365.91667
1887.231	367.58333
1890.049	366.58333
1892.865	373.25
1895.68	353.25
1898.492	371.58333
1901.302	355.25
1904.11	352.58333
1906.916	344.25
1909.721	340.91667
1912.523	351.25
1915.323	336.25
1918.122	338.91667
1920.918	357.25
1923.712	334.58333
1926.505	345.25
1929.295	326.58333
1932.084	342.58333
1934.87	326.91667
1937.655	334.25
1940.438	324.25
1943.218	330.58333
1945.997	338.25
1948.774	340.58333
1951.549	341.58333
1954.322	326.58333
1957.093	330.58333
1959.862	322.58333
1962.629	328.25
1965.394	318.58333
1968.157	317.25
1970.918	331.58333
1973.678	317.25
1976.435	329.58333
1979.19	317.91667
1981.944	302.25
1984.696	311.91667
1987.445	313.25
1990.193	304.25
1992.939	323.91667
1995.683	317.58333
1998.425	301.25
2001.165	338.25
2003.903	301.58333
2006.639	297.58333
2009.374	316.91667
2012.106	311.25
2014.837	286.58333
2017.566	307.25
2020.292	310.91667
2023.017	300.25
2025.74	302.58333
2028.461	290.58333
2031.18	300.58333
2033.898	296.25
2036.613	299.58333
2039.327	298.58333
2042.038	292.25
2044.748	296.25
2047.456	299.58333
2050.162	288.25
2052.866	292.58333
2055.568	299.91667
2058.268	291.25
2060.967	300.25
2063.663	285.91667
2066.358	282.58333
2069.051	284.91667
2071.742	285.25
2074.431	288.58333
2077.118	289.58333
2079.804	272.58333
2082.487	281.91667
2085.169	295.25
2087.849	305.25
2090.527	278.25
2093.203	289.25
2095.877	282.91667
2098.55	289.58333
2101.22	291.58333
2103.889	296.58333
2106.556	285.25
2109.221	301.25
2111.884	298.25
2114.546	317.58333
2117.205	326.91667
2119.863	359.25
2122.519	365.25
2125.173	390.25
2127.825	421.25
2130.475	415.58333
2133.124	398.91667
2135.771	389.58333
2138.416	397.58333
2141.059	365.25
2143.7	355.58333
2146.339	332.91667
2148.977	303.58333
2151.613	312.91667
2154.247	308.58333
2156.879	300.58333
2159.51	286.91667
2162.138	294.91667
2164.765	278.58333
2167.39	274.58333
2170.013	290.25
2172.634	279.91667
2175.254	273.58333
2177.872	301.58333
2180.488	256.91667
2183.102	268.25
2185.714	261.25
2188.325	251.91667
2190.934	259.91667
2193.541	266.25
2196.146	259.91667
2198.75	245.58333
2201.351	245.25
2203.951	238.91667
2206.549	249.91667
2209.146	238.58333
2211.74	236.91667
2214.333	243.58333
2216.924	230.25
2219.514	248.25
2222.101	242.58333
2224.687	250.25
2227.271	223.25
2229.853	228.91667
2232.433	223.25
2235.012	238.25
2237.589	230.58333
2240.164	251.58333
2242.738	232.58333
2245.309	221.25
2247.879	240.58333
2250.448	238.58333
2253.014	218.25
2255.579	217.91667
2258.142	218.25
2260.703	222.91667
2263.262	218.25
2265.82	208.25
2268.376	232.58333
2270.93	213.58333
2273.483	205.25
2276.033	222.25
2278.583	206.91667
2281.13	207.91667
2283.675	198.25
2286.219	204.91667
2288.761	209.91667
2291.302	215.25
2293.841	230.25
2296.377	200.25
2298.913	206.58333
2301.446	222.91667
2303.978	206.25
2306.508	203.58333
2309.037	207.25
2311.563	204.58333
2314.088	209.25
2316.612	192.91667
2319.133	206.91667
2321.653	209.25
2324.171	197.58333
2326.688	198.25
2329.202	196.91667
2331.715	204.25
2334.227	202.58333
2336.736	202.25
2339.244	187.58333
2341.751	186.91667
2344.255	203.25
2346.758	203.58333
2349.259	189.25
2351.759	194.58333
2354.257	187.58333
2356.753	182.58333
2359.247	187.25
2361.74	188.25
2364.231	193.58333
2366.721	196.91667
2369.209	186.91667
2371.695	179.58333
2374.179	180.91667
2376.662	173.25
2379.143	202.91667
2381.622	192.25
2384.1	201.91667
2386.576	185.58333
2389.051	203.25
2391.524	195.58333
2393.995	189.58333
2396.464	179.91667
2398.932	179.58333
2401.398	186.25
2403.863	179.58333
2406.325	180.58333
2408.787	184.25
2411.246	178.91667
2413.704	182.25
2416.16	172.25
2418.615	176.58333
2421.068	179.25
2423.519	176.91667
2425.969	169.25
2428.417	182.25
2430.863	203.91667
2433.308	188.58333
2435.751	183.91667
2438.193	181.58333
2440.633	180.91667
2443.071	183.25
2445.508	173.58333
2447.943	170.25
2450.376	170.25
2452.808	173.91667
2455.238	166.58333
2457.667	195.58333
2460.093	170.91667
2462.519	163.91667
2464.942	161.58333
2467.365	174.91667
2469.785	168.25
2472.204	168.58333
2474.621	164.91667
2477.037	181.91667
2479.451	158.25
2481.863	153.91667
2484.274	158.58333
2486.683	162.25
2489.091	173.91667
2491.497	167.58333
2493.901	173.25
2496.304	161.58333
2498.705	176.25
2501.105	168.25
2503.503	188.25
2505.899	153.58333
2508.294	181.91667
2510.687	154.91667
2513.079	164.58333
2515.469	154.25
2517.858	160.91667
2520.245	169.58333
2522.63	160.91667
2525.014	153.25
2527.396	154.25
2529.776	153.25
2532.156	161.58333
2534.533	149.91667
2536.909	145.25
2539.283	142.58333
2541.656	153.25
2544.027	168.58333
2546.397	156.58333
2548.765	148.25
2551.131	156.91667
2553.496	166.25
2555.86	161.58333
2558.221	163.25
2560.582	151.91667
2562.94	145.58333
2565.298	155.25
2567.653	160.25
2570.007	143.58333
2572.36	157.25
2574.711	146.25
2577.06	162.58333
2579.408	152.91667
2581.754	153.25
2584.099	143.58333
2586.442	148.25
2588.784	156.25
2591.124	152.91667
2593.463	150.58333
2595.8	150.58333
2598.135	137.58333
2600.469	135.58333
2602.802	154.91667
2605.133	159.58333
2607.462	144.58333
2609.79	137.91667
2612.116	154.91667
2614.441	144.91667
2616.764	152.91667
2619.086	146.91667
2621.406	144.25
2623.725	158.25
2626.042	140.91667
2628.358	134.91667
2630.672	148.25
2632.985	158.91667
2635.296	146.25
2637.606	144.25
2639.914	135.91667
2642.22	143.58333
2644.525	142.91667
2646.829	143.58333
2649.131	157.58333
2651.432	150.25
2653.731	145.58333
2656.028	155.58333
2658.324	150.91667
2660.619	134.91667
2662.912	149.25
2665.204	130.58333
2667.494	151.25
2669.782	140.58333
2672.07	156.25
2674.355	148.25
2676.639	143.91667
2678.922	142.25
2681.203	149.58333
2683.483	136.91667
2685.761	130.58333
2688.038	156.91667
2690.313	159.91667
2692.587	139.58333
2694.859	146.58333
2697.13	144.91667
2699.399	147.25
2701.667	155.58333
2703.933	152.58333
2706.198	151.91667
2708.461	160.91667
2710.723	150.58333
2712.984	144.91667
2715.243	155.58333
2717.5	145.91667
2719.757	155.25
2722.011	150.25
2724.264	155.91667
2726.516	163.58333
2728.766	143.25
2731.015	157.58333
2733.262	152.25
2735.508	149.25
2737.753	152.25
2739.996	138.58333
2742.237	137.91667
2744.477	157.25
2746.716	160.25
2748.953	154.58333
2751.189	156.25
2753.423	151.25
2755.656	143.58333
2757.887	133.25
2760.117	141.58333
2762.346	134.25
2764.573	129.58333
2766.798	134.91667
2769.022	139.58333
2771.245	134.58333
2773.467	137.58333
2775.686	140.25
2777.905	149.58333
2780.122	140.91667
2782.337	148.58333
2784.552	137.25
2786.764	141.25
2788.976	137.58333
2791.186	143.58333
2793.394	145.58333
2795.601	150.58333
2797.807	152.25
2800.011	148.91667
2802.214	157.91667
2804.415	151.25
2806.615	151.58333
2808.814	154.25
2811.011	156.25
2813.206	157.91667
2815.401	164.91667
2817.594	161.91667
2819.785	170.91667
2821.975	153.91667
2824.164	160.58333
2826.351	162.58333
2828.537	174.91667
2830.722	174.91667
2832.905	169.58333
2835.086	180.91667
2837.267	199.91667
2839.445	194.58333
2841.623	201.25
2843.799	201.58333
2845.974	208.25
2848.147	210.91667
2850.319	229.25
2852.489	232.58333
2854.659	234.58333
2856.826	239.58333
2858.993	253.25
2861.158	228.25
2863.321	245.58333
2865.483	256.25
2867.644	255.25
2869.804	250.58333
2871.962	247.91667
2874.118	259.58333
2876.274	285.91667
2878.428	278.25
2880.58	275.25
2882.731	250.25
2884.881	254.91667
2887.03	255.91667
2889.177	251.58333
2891.322	258.25
2893.467	245.91667
2895.61	250.25
2897.751	254.58333
2899.892	250.25
2902.03	253.58333
2904.168	257.91667
2906.304	249.91667
2908.439	277.25
2910.572	253.58333
2912.704	260.91667
2914.835	263.25
2916.965	266.25
2919.093	276.91667
2921.219	246.25
2923.345	271.25
2925.469	255.91667
2927.591	246.58333
2929.712	241.25
2931.832	257.91667
2933.951	240.91667
2936.068	236.91667
2938.184	229.58333
2940.299	228.58333
2942.412	219.25
2944.524	204.58333
2946.634	205.58333
2948.744	182.91667
2950.851	221.25
2952.958	187.25
2955.063	195.58333
2957.167	179.58333
2959.269	167.58333
2961.371	202.91667
2963.471	172.91667
2965.569	187.58333
2967.666	159.25
2969.762	159.58333
2971.857	158.58333
2973.95	148.25
2976.042	152.91667
2978.133	151.25
2980.222	147.25
2982.31	133.58333
2984.396	123.58333
2986.482	128.58333
2988.566	131.91667
2990.648	136.25
2992.73	133.58333
2994.81	119.25
2996.889	139.25
2998.966	130.58333
3001.042	140.58333
3003.117	120.25
3005.191	128.25
3007.263	135.58333
3009.334	123.91667
3011.403	122.25
3013.472	118.91667
3015.539	130.91667
3017.604	142.91667
3019.669	108.91667
3021.732	114.91667
3023.794	115.25
3025.854	108.91667
3027.914	104.91667
3029.971	104.25
3032.028	115.91667
3034.083	119.58333
3036.137	111.25
3038.19	100.25
3040.242	93.58333
3042.292	94.91667
3044.341	102.58333
3046.388	115.25
3048.435	91.91667
3050.48	113.91667
3052.524	102.25
3054.566	87.25
3056.607	98.91667
3058.647	94.25
3060.686	81.91667
3062.723	78.58333
3064.759	83.91667
3066.794	-1.08333
3068.828	1.25
3070.86	2.58333
