-0.839	133.16667
3.438	154.83333
7.711	65.16667
11.981	43.16667
16.247	31.16667
20.509	38.16667
24.768	37.5
29.024	41.83333
33.276	30.5
37.524	40.5
41.769	27.5
46.01	25.16667
50.247	42.5
54.481	51.16667
58.712	56.16667
62.939	36.83333
67.162	53.83333
71.382	47.5
75.599	35.5
79.812	45.16667
84.021	64.16667
88.227	44.16667
92.429	51.83333
96.628	37.83333
100.823	53.16667
105.015	53.83333
109.204	51.16667
113.388	55.5
117.57	44.83333
121.748	59.5
125.922	48.16667
130.093	70.5
134.261	66.5
138.425	53.16667
142.585	83.5
146.742	66.16667
150.896	84.5
155.046	81.83333
159.193	114.16667
163.336	176.83333
167.476	302.83333
171.613	532.83333
175.746	865.16667
179.875	1271.83333
184.002	1643.83333
188.124	1959.83333
192.244	2063.83333
196.36	2084.5
200.472	2080.5
204.581	2056.83333
208.687	2000.16667
212.79	1998.5
216.889	2057.16667
220.984	2071.16667
225.077	2093.83333
229.165	2092.16667
233.251	2124.5
237.333	2098.83333
241.412	2107.5
245.487	2101.16667
249.559	2066.16667
253.628	2074.83333
257.694	2057.83333
261.756	2055.5
265.814	2008.5
269.87	1948.5
273.922	1906.83333
277.97	1882.5
282.016	1865.5
286.058	1834.83333
290.097	1869.5
294.132	1885.16667
298.164	1880.16667
302.193	1805.5
306.219	1708.5
310.241	1617.5
314.26	1497.83333
318.276	1426.16667
322.288	1361.16667
326.297	1337.83333
330.303	1312.83333
334.305	1294.16667
338.305	1270.16667
342.301	1261.16667
346.294	1264.83333
350.283	1252.83333
354.269	1253.5
358.252	1244.83333
362.232	1251.83333
366.209	1245.5
370.182	1236.5
374.152	1225.16667
378.119	1248.83333
382.083	1221.83333
386.043	1252.5
390	1224.16667
393.954	1239.16667
397.905	1244.5
401.852	1244.16667
405.797	1229.16667
409.738	1228.83333
413.676	1236.16667
417.61	1254.5
421.542	1242.83333
425.47	1213.5
429.396	1215.83333
433.318	1190.5
437.236	1198.83333
441.152	1228.83333
445.065	1185.16667
448.974	1194.16667
452.88	1187.5
456.783	1175.5
460.683	1170.83333
464.58	1188.16667
468.473	1183.83333
472.364	1192.16667
476.251	1187.83333
480.135	1195.5
484.016	1215.16667
487.894	1212.5
491.769	1220.83333
495.641	1213.16667
499.509	1216.5
503.375	1220.83333
507.237	1189.16667
511.096	1204.16667
514.952	1222.16667
518.805	1215.5
522.655	1225.16667
526.502	1204.83333
530.346	1215.83333
534.187	1210.83333
538.024	1185.83333
541.859	1192.83333
545.69	1228.83333
549.519	1211.16667
553.344	1205.83333
557.166	1187.5
560.985	1180.16667
564.802	1176.5
568.615	1163.16667
572.425	1132.5
576.232	1131.83333
580.036	1141.16667
583.836	1136.5
587.634	1155.16667
591.429	1140.5
595.221	1176.83333
599.01	1174.16667
602.796	1169.83333
606.578	1160.5
610.358	1172.5
614.135	1173.83333
617.909	1185.83333
621.679	1166.83333
625.447	1152.16667
629.212	1155.16667
632.973	1153.83333
636.732	1155.16667
640.488	1161.5
644.241	1138.83333
647.991	1139.83333
651.737	1162.16667
655.481	1117.5
659.222	1153.83333
662.96	1144.83333
666.695	1140.83333
670.427	1147.83333
674.156	1172.16667
677.882	1154.5
681.605	1147.5
685.325	1120.5
689.043	1165.5
692.757	1131.16667
696.468	1125.16667
700.177	1126.16667
703.882	1111.5
707.585	1100.5
711.284	1102.83333
714.981	1105.5
718.675	1095.83333
722.366	1115.83333
726.054	1098.5
729.739	1106.5
733.421	1108.16667
737.1	1099.5
740.777	1104.83333
744.45	1108.83333
748.121	1112.83333
751.789	1140.83333
755.453	1128.83333
759.115	1135.83333
762.774	1113.16667
766.431	1130.16667
770.084	1136.16667
773.734	1140.16667
777.382	1157.83333
781.027	1164.5
784.669	1153.83333
788.308	1142.5
791.944	1168.5
795.577	1163.16667
799.208	1182.16667
802.835	1166.5
806.46	1173.83333
810.082	1183.5
813.701	1179.5
817.317	1209.16667
820.931	1197.16667
824.542	1198.83333
828.149	1171.83333
831.754	1151.16667
835.357	1147.5
838.956	1163.83333
842.553	1161.16667
846.146	1143.16667
849.737	1130.16667
853.326	1138.83333
856.911	1118.16667
860.493	1148.5
864.073	1149.5
867.65	1171.83333
871.225	1180.16667
874.796	1155.5
878.365	1152.83333
881.931	1167.5
885.494	1182.5
889.054	1171.83333
892.612	1164.16667
896.166	1153.5
899.719	1136.83333
903.268	1115.83333
906.814	1130.16667
910.358	1119.16667
913.899	1095.16667
917.438	1095.83333
920.973	1074.5
924.506	1084.16667
928.036	1127.16667
931.564	1138.5
935.088	1149.83333
938.61	1130.83333
942.129	1140.16667
945.646	1166.5
949.16	1177.16667
952.671	1182.83333
956.179	1199.5
959.685	1196.5
963.188	1217.83333
966.688	1183.5
970.185	1150.83333
973.68	1112.5
977.173	1114.5
980.662	1093.83333
984.149	1112.16667
987.633	1081.5
991.114	1107.16667
994.593	1125.5
998.069	1144.5
1001.542	1166.83333
1005.013	1156.5
1008.481	1077.16667
1011.947	1077.16667
1015.409	1063.5
1018.869	1089.83333
1022.327	1069.83333
1025.782	1057.83333
1029.234	1049.83333
1032.683	1043.83333
1036.13	1022.5
1039.574	972.5
1043.016	957.5
1046.455	947.5
1049.891	938.16667
1053.325	947.5
1056.756	931.83333
1060.184	951.83333
1063.61	934.83333
1067.033	949.83333
1070.454	954.83333
1073.872	957.5
1077.287	941.83333
1080.7	943.16667
1084.11	953.5
1087.517	941.5
1090.922	929.5
1094.325	915.5
1097.724	913.83333
1101.122	917.83333
1104.516	909.16667
1107.908	891.83333
1111.298	898.83333
1114.684	924.5
1118.069	928.83333
1121.45	949.83333
1124.83	925.16667
1128.206	933.5
1131.58	947.5
1134.951	969.16667
1138.32	993.83333
1141.687	1017.5
1145.05	1023.83333
1148.412	1036.16667
1151.77	1032.5
1155.126	1024.83333
1158.48	1004.16667
1161.831	1024.16667
1165.18	1015.83333
1168.525	1049.83333
1171.869	1037.83333
1175.21	1026.16667
1178.548	1056.5
1181.884	1068.83333
1185.217	1062.5
1188.548	1096.16667
1191.877	1098.5
1195.202	1147.16667
1198.526	1178.5
1201.846	1160.5
1205.165	1174.5
1208.48	1175.5
1211.794	1169.16667
1215.104	1183.5
1218.413	1163.5
1221.719	1146.83333
1225.022	1154.5
1228.323	1121.5
1231.621	1119.83333
1234.917	1116.16667
1238.21	1134.83333
1241.501	1110.83333
1244.79	1102.83333
1248.076	1091.16667
1251.359	1105.83333
1254.64	1136.5
1257.919	1132.16667
1261.195	1138.5
1264.468	1157.5
1267.74	1168.83333
1271.008	1174.5
1274.275	1186.5
1277.538	1164.83333
1280.8	1155.5
1284.059	1153.5
1287.315	1170.16667
1290.569	1164.5
1293.821	1180.16667
1297.07	1165.5
1300.317	1189.16667
1303.562	1181.5
1306.803	1159.5
1310.043	1172.83333
1313.28	1154.83333
1316.515	1132.5
1319.747	1161.16667
1322.977	1138.83333
1326.204	1152.16667
1329.429	1129.5
1332.652	1109.83333
1335.872	1124.5
1339.09	1116.5
1342.306	1100.83333
1345.519	1104.5
1348.729	1082.16667
1351.938	1095.83333
1355.144	1081.83333
1358.347	1051.5
1361.548	1057.16667
1364.747	1075.83333
1367.944	1036.83333
1371.138	1054.83333
1374.329	1047.5
1377.518	1050.83333
1380.705	1056.83333
1383.89	1045.5
1387.072	1013.16667
1390.252	982.16667
1393.429	964.16667
1396.605	936.16667
1399.777	903.83333
1402.948	889.83333
1406.116	885.16667
1409.282	906.16667
1412.445	888.16667
1415.606	907.5
1418.765	908.16667
1421.921	910.16667
1425.075	932.16667
1428.227	950.83333
1431.376	988.83333
1434.524	1019.83333
1437.668	1045.16667
1440.811	1041.5
1443.951	1054.5
1447.089	1057.5
1450.224	1075.5
1453.357	1057.83333
1456.488	1042.16667
1459.617	1036.5
1462.743	1034.16667
1465.867	996.5
1468.989	995.5
1472.108	979.5
1475.225	973.16667
1478.34	949.16667
1481.453	949.16667
1484.563	938.83333
1487.671	958.16667
1490.776	970.83333
1493.88	973.16667
1496.981	992.16667
1500.08	995.5
1503.176	1000.83333
1506.271	1022.16667
1509.363	1017.16667
1512.452	1021.83333
1515.54	1033.5
1518.625	1039.5
1521.708	1080.16667
1524.789	1118.5
1527.867	1144.16667
1530.944	1187.16667
1534.018	1226.16667
1537.089	1285.16667
1540.159	1296.16667
1543.226	1300.16667
1546.291	1251.5
1549.354	1240.83333
1552.415	1220.83333
1555.473	1182.16667
1558.529	1178.16667
1561.583	1164.16667
1564.634	1155.83333
1567.684	1147.16667
1570.731	1160.16667
1573.776	1161.5
1576.819	1176.83333
1579.859	1168.16667
1582.898	1186.5
1585.934	1211.83333
1588.968	1216.16667
1591.999	1187.5
1595.029	1180.5
1598.056	1194.83333
1601.081	1220.16667
1604.104	1210.5
1607.125	1202.16667
1610.144	1169.16667
1613.16	1137.16667
1616.174	1126.16667
1619.186	1117.83333
1622.196	1079.16667
1625.203	1052.83333
1628.209	1056.5
1631.212	1050.16667
1634.213	1036.16667
1637.212	1064.16667
1640.209	1059.16667
1643.203	1018.5
1646.196	998.5
1649.186	947.83333
1652.174	930.83333
1655.16	885.16667
1658.144	886.5
1661.125	841.5
1664.105	820.16667
1667.082	796.16667
1670.057	747.16667
1673.03	710.16667
1676.001	679.5
1678.97	634.5
1681.937	603.16667
1684.901	564.83333
1687.863	571.5
1690.824	538.5
1693.782	535.83333
1696.738	509.16667
1699.692	501.5
1702.643	499.16667
1705.593	487.16667
1708.54	492.16667
1711.486	493.5
1714.429	473.16667
1717.37	478.83333
1720.309	461.16667
1723.246	470.16667
1726.181	453.83333
1729.113	449.83333
1732.044	457.5
1734.972	455.5
1737.899	479.5
1740.823	472.16667
1743.745	480.5
1746.665	435.16667
1749.583	431.16667
1752.499	431.5
1755.413	432.83333
1758.325	415.16667
1761.235	422.83333
1764.142	404.83333
1767.048	412.83333
1769.951	407.5
1772.852	401.16667
1775.752	412.5
1778.649	411.5
1781.544	417.83333
1784.437	388.5
1787.328	408.83333
1790.217	397.5
1793.104	375.5
1795.989	391.5
1798.872	378.83333
1801.753	395.5
1804.631	386.16667
1807.508	390.5
1810.383	385.16667
1813.255	387.83333
1816.126	376.5
1818.994	387.5
1821.861	379.83333
1824.725	381.83333
1827.587	379.83333
1830.448	374.83333
1833.306	364.5
1836.162	375.16667
1839.017	365.5
1841.869	364.83333
1844.719	364.16667
1847.567	349.16667
1850.414	348.5
1853.258	349.5
1856.1	362.16667
1858.94	366.83333
1861.778	365.5
1864.614	343.83333
1867.448	364.83333
1870.28	344.5
1873.111	363.5
1875.939	353.83333
1878.765	364.5
1881.589	343.83333
1884.411	352.5
1887.231	358.83333
1890.049	352.83333
1892.865	359.83333
1895.68	339.16667
1898.492	356.83333
1901.302	346.5
1904.11	336.83333
1906.916	340.16667
1909.721	332.16667
1912.523	344.16667
1915.323	322.83333
1918.122	325.16667
1920.918	344.83333
1923.712	332.83333
1926.505	334.5
1929.295	318.5
1932.084	335.5
1934.87	330.16667
1937.655	323.83333
1940.438	315.16667
1943.218	321.16667
1945.997	326.83333
1948.774	339.16667
1951.549	333.5
1954.322	316.16667
1957.093	330.16667
1959.862	324.16667
1962.629	322.83333
1965.394	318.16667
1968.157	308.16667
1970.918	317.83333
1973.678	310.16667
1976.435	312.16667
1979.19	314.5
1981.944	298.5
1984.696	300.16667
1987.445	296.16667
1990.193	312.5
1992.939	312.5
1995.683	313.16667
1998.425	292.83333
2001.165	319.16667
2003.903	290.16667
2006.639	304.16667
2009.374	304.83333
2012.106	306.16667
2014.837	271.5
2017.566	312.83333
2020.292	298.5
2023.017	299.5
2025.74	287.83333
2028.461	281.16667
2031.18	294.83333
2033.898	288.5
2036.613	292.5
2039.327	296.5
2042.038	280.83333
2044.748	289.5
2047.456	289.16667
2050.162	272.16667
2052.866	283.16667
2055.568	287.16667
2058.268	282.5
2060.967	295.83333
2063.663	269.16667
2066.358	272.5
2069.051	272.16667
2071.742	272.83333
2074.431	291.5
2077.118	269.5
2079.804	272.16667
2082.487	268.16667
2085.169	290.16667
2087.849	296.5
2090.527	268.16667
2093.203	269.16667
2095.877	269.16667
2098.55	273.83333
2101.22	286.16667
2103.889	289.83333
2106.556	278.16667
2109.221	291.83333
2111.884	287.5
2114.546	306.16667
2117.205	305.83333
2119.863	329.16667
2122.519	327.16667
2125.173	351.16667
2127.825	374.16667
2130.475	385.16667
2133.124	365.16667
2135.771	351.5
2138.416	358.16667
2141.059	322.5
2143.7	331.5
2146.339	306.83333
2148.977	279.5
2151.613	290.83333
2154.247	281.16667
2156.879	281.83333
2159.51	271.5
2162.138	273.16667
2164.765	266.83333
2167.39	253.83333
2170.013	275.16667
2172.634	265.83333
2175.254	261.16667
2177.872	294.16667
2180.488	247.5
2183.102	252.5
2185.714	256.5
2188.325	242.83333
2190.934	250.16667
2193.541	250.83333
2196.146	248.16667
2198.75	243.5
2201.351	239.5
2203.951	225.16667
2206.549	241.83333
2209.146	233.16667
2211.74	231.83333
2214.333	238.83333
2216.924	226.83333
2219.514	234.83333
2222.101	229.83333
2224.687	241.16667
2227.271	224.5
2229.853	227.5
2232.433	214.16667
2235.012	233.83333
2237.589	228.83333
2240.164	240.5
2242.738	229.16667
2245.309	215.5
2247.879	234.5
2250.448	223.5
2253.014	215.83333
2255.579	211.16667
2258.142	210.16667
2260.703	215.83333
2263.262	204.5
2265.82	200.16667
2268.376	221.16667
2270.93	212.83333
2273.483	207.5
2276.033	217.83333
2278.583	206.5
2281.13	204.83333
2283.675	198.16667
2286.219	207.16667
2288.761	210.16667
2291.302	205.5
2293.841	215.83333
2296.377	193.5
2298.913	207.83333
2301.446	213.5
2303.978	206.83333
2306.508	199.83333
2309.037	203.5
2311.563	205.5
2314.088	207.16667
2316.612	192.16667
2319.133	205.83333
2321.653	204.16667
2324.171	195.83333
2326.688	209.5
2329.202	199.83333
2331.715	201.16667
2334.227	192.5
2336.736	197.83333
2339.244	188.5
2341.751	182.5
2344.255	201.5
2346.758	195.16667
2349.259	180.5
2351.759	190.16667
2354.257	183.83333
2356.753	180.5
2359.247	186.83333
2361.74	183.83333
2364.231	183.83333
2366.721	194.83333
2369.209	181.83333
2371.695	187.83333
2374.179	178.16667
2376.662	175.5
2379.143	199.5
2381.622	181.5
2384.1	185.83333
2386.576	177.83333
2389.051	196.16667
2391.524	192.16667
2393.995	188.16667
2396.464	182.5
2398.932	174.5
2401.398	181.83333
2403.863	171.16667
2406.325	179.5
2408.787	176.5
2411.246	180.5
2413.704	182.16667
2416.16	174.83333
2418.615	175.83333
2421.068	172.83333
2423.519	178.83333
2425.969	171.16667
2428.417	185.16667
2430.863	197.83333
2433.308	178.83333
2435.751	177.5
2438.193	176.5
2440.633	177.16667
2443.071	188.16667
2445.508	167.83333
2447.943	169.5
2450.376	168.83333
2452.808	182.16667
2455.238	165.16667
2457.667	194.83333
2460.093	164.16667
2462.519	164.83333
2464.942	165.83333
2467.365	169.5
2469.785	169.16667
2472.204	162.5
2474.621	167.16667
2477.037	182.83333
2479.451	155.5
2481.863	154.83333
2484.274	164.5
2486.683	157.83333
2489.091	171.5
2491.497	172.5
2493.901	163.83333
2496.304	160.83333
2498.705	173.5
2501.105	167.83333
2503.503	183.5
2505.899	158.83333
2508.294	177.5
2510.687	154.5
2513.079	164.16667
2515.469	153.16667
2517.858	158.5
2520.245	172.16667
2522.63	162.16667
2525.014	157.5
2527.396	157.83333
2529.776	158.16667
2532.156	161.83333
2534.533	153.5
2536.909	150.5
2539.283	140.5
2541.656	150.16667
2544.027	171.83333
2546.397	157.16667
2548.765	153.5
2551.131	157.5
2553.496	159.5
2555.86	159.83333
2558.221	160.83333
2560.582	147.5
2562.94	143.5
2565.298	156.83333
2567.653	168.5
2570.007	144.16667
2572.36	159.83333
2574.711	150.5
2577.06	164.5
2579.408	154.16667
2581.754	151.5
2584.099	151.83333
2586.442	149.5
2588.784	159.83333
2591.124	154.16667
2593.463	152.16667
2595.8	160.83333
2598.135	135.83333
2600.469	143.83333
2602.802	162.83333
2605.133	157.5
2607.462	136.5
2609.79	138.16667
2612.116	157.83333
2614.441	147.83333
2616.764	148.5
2619.086	152.83333
2621.406	140.16667
2623.725	159.5
2626.042	150.5
2628.358	141.5
2630.672	148.83333
2632.985	152.83333
2635.296	147.83333
2637.606	149.5
2639.914	146.83333
2642.22	144.5
2644.525	145.83333
2646.829	153.83333
2649.131	164.16667
2651.432	155.83333
2653.731	147.16667
2656.028	155.5
2658.324	152.16667
2660.619	141.16667
2662.912	158.5
2665.204	131.16667
2667.494	151.5
2669.782	145.83333
2672.07	157.16667
2674.355	156.83333
2676.639	150.83333
2678.922	145.16667
2681.203	157.16667
2683.483	142.5
2685.761	135.83333
2688.038	158.16667
2690.313	162.5
2692.587	149.83333
2694.859	142.83333
2697.13	147.5
2699.399	154.5
2701.667	160.5
2703.933	154.16667
2706.198	163.16667
2708.461	157.5
2710.723	157.5
2712.984	153.83333
2715.243	159.5
2717.5	153.16667
2719.757	167.16667
2722.011	153.16667
2724.264	165.16667
2726.516	167.16667
2728.766	148.16667
2731.015	162.16667
2733.262	153.16667
2735.508	151.83333
2737.753	157.5
2739.996	147.5
2742.237	145.16667
2744.477	164.16667
2746.716	166.5
2748.953	161.16667
2751.189	157.16667
2753.423	158.83333
2755.656	145.83333
2757.887	147.83333
2760.117	145.83333
2762.346	143.16667
2764.573	135.5
2766.798	141.16667
2769.022	153.5
2771.245	147.83333
2773.467	148.16667
2775.686	143.83333
2777.905	147.5
2780.122	144.5
2782.337	148.5
2784.552	149.5
2786.764	144.5
2788.976	138.5
2791.186	146.16667
2793.394	148.16667
2795.601	154.5
2797.807	155.83333
2800.011	156.16667
2802.214	162.5
2804.415	162.5
2806.615	158.16667
2808.814	161.16667
2811.011	159.83333
2813.206	169.16667
2815.401	169.83333
2817.594	170.5
2819.785	168.83333
2821.975	159.83333
2824.164	168.5
2826.351	161.83333
2828.537	179.5
2830.722	175.16667
2832.905	174.5
2835.086	181.16667
2837.267	202.16667
2839.445	196.16667
2841.623	198.5
2843.799	206.5
2845.974	210.5
2848.147	216.16667
2850.319	223.5
2852.489	236.5
2854.659	234.5
2856.826	239.83333
2858.993	253.83333
2861.158	240.5
2863.321	236.5
2865.483	254.5
2867.644	249.16667
2869.804	251.83333
2871.962	249.16667
2874.118	249.16667
2876.274	251.83333
2878.428	248.16667
2880.58	254.5
2882.731	236.5
2884.881	249.5
2887.03	256.83333
2889.177	248.5
2891.322	259.16667
2893.467	241.16667
2895.61	243.5
2897.751	261.83333
2899.892	249.83333
2902.03	253.5
2904.168	250.83333
2906.304	247.5
2908.439	272.5
2910.572	254.16667
2912.704	259.5
2914.835	268.83333
2916.965	262.83333
2919.093	274.16667
2921.219	240.5
2923.345	268.83333
2925.469	253.83333
2927.591	252.16667
2929.712	241.83333
2931.832	252.83333
2933.951	242.83333
2936.068	233.83333
2938.184	233.83333
2940.299	229.16667
2942.412	221.5
2944.524	201.83333
2946.634	215.16667
2948.744	190.5
2950.851	225.5
2952.958	192.5
2955.063	203.83333
2957.167	191.16667
2959.269	181.5
2961.371	209.5
2963.471	180.83333
2965.569	193.5
2967.666	166.83333
2969.762	162.83333
2971.857	161.5
2973.95	154.5
2976.042	169.5
2978.133	160.5
2980.222	159.16667
2982.31	145.83333
2984.396	129.5
2986.482	142.83333
2988.566	147.16667
2990.648	138.83333
2992.73	145.16667
2994.81	122.16667
2996.889	145.16667
2998.966	136.16667
3001.042	145.5
3003.117	137.16667
3005.191	135.16667
3007.263	143.5
3009.334	133.83333
3011.403	140.83333
3013.472	133.83333
3015.539	147.16667
3017.604	152.16667
3019.669	119.83333
3021.732	125.5
3023.794	126.83333
3025.854	117.83333
3027.914	113.83333
3029.971	123.16667
3032.028	118.83333
3034.083	126.16667
3036.137	125.16667
3038.19	109.5
3040.242	106.5
3042.292	109.5
3044.341	107.83333
3046.388	124.83333
3048.435	104.5
3050.48	124.83333
3052.524	111.16667
3054.566	96.5
3056.607	106.16667
3058.647	110.5
3060.686	94.16667
3062.723	85.83333
3064.759	91.83333
3066.794	0.5
3068.828	-1.16667
3070.86	4.5
