-0.839	476.29167
3.438	501.625
7.711	136.29167
11.981	51.29167
16.247	42.95833
20.509	45.29167
24.768	45.95833
29.024	46.95833
33.276	41.95833
37.524	51.29167
41.769	42.29167
46.01	34.625
50.247	55.29167
54.481	62.29167
58.712	69.29167
62.939	48.29167
67.162	57.29167
71.382	56.625
75.599	49.29167
79.812	60.95833
84.021	78.625
88.227	57.95833
92.429	62.95833
96.628	44.95833
100.823	66.625
105.015	73.95833
109.204	72.29167
113.388	70.95833
117.57	72.625
121.748	87.625
125.922	80.95833
130.093	99.95833
134.261	106.625
138.425	98.625
142.585	137.29167
146.742	136.625
150.896	166.29167
155.046	200.625
159.193	321.29167
163.336	551.29167
167.476	1010.95833
171.613	1868.95833
175.746	3094.95833
179.875	4571.95833
184.002	5924.625
188.124	6842.625
192.244	7154.95833
196.36	7023.95833
200.472	6792.625
204.581	6554.625
208.687	6339.625
212.79	6242.625
216.889	6211.29167
220.984	6239.29167
225.077	6256.95833
229.165	6284.625
233.251	6286.29167
237.333	6269.625
241.412	6269.29167
245.487	6167.625
249.559	6086.95833
253.628	6016.29167
257.694	5945.95833
261.756	5903.29167
265.814	5769.625
269.87	5570.29167
273.922	5429.625
277.97	5322.95833
282.016	5260.95833
286.058	5264.625
290.097	5288.95833
294.132	5303.29167
298.164	5205.95833
302.193	4964.625
306.219	4618.625
310.241	4222.625
314.26	3895.29167
318.276	3548.625
322.288	3357.29167
326.297	3162.625
330.303	3041.29167
334.305	2937.29167
338.305	2888.625
342.301	2847.29167
346.294	2835.95833
350.283	2783.625
354.269	2738.625
358.252	2731.625
362.232	2720.625
366.209	2689.29167
370.182	2675.625
374.152	2663.95833
378.119	2673.625
382.083	2648.29167
386.043	2662.95833
390	2612.95833
393.954	2605.29167
397.905	2570.95833
401.852	2578.95833
405.797	2548.95833
409.738	2521.95833
413.676	2521.95833
417.61	2462.625
421.542	2464.95833
425.47	2433.95833
429.396	2422.95833
433.318	2413.95833
437.236	2408.625
441.152	2411.95833
445.065	2349.95833
448.974	2345.29167
452.88	2324.95833
456.783	2297.95833
460.683	2306.625
464.58	2315.29167
468.473	2306.29167
472.364	2297.625
476.251	2313.95833
480.135	2340.95833
484.016	2356.95833
487.894	2375.625
491.769	2363.95833
495.641	2383.29167
499.509	2384.95833
503.375	2409.29167
507.237	2374.29167
511.096	2396.95833
514.952	2447.95833
518.805	2529.29167
522.655	2547.95833
526.502	2442.625
530.346	2356.29167
534.187	2366.625
538.024	2357.29167
541.859	2358.95833
545.69	2369.625
549.519	2360.95833
553.344	2351.95833
557.166	2311.625
560.985	2290.625
564.802	2260.625
568.615	2223.29167
572.425	2182.95833
576.232	2201.95833
580.036	2164.625
583.836	2200.95833
587.634	2183.95833
591.429	2189.625
595.221	2235.95833
599.01	2237.95833
602.796	2296.95833
606.578	2299.625
610.358	2298.95833
614.135	2281.625
617.909	2290.95833
621.679	2279.29167
625.447	2255.95833
629.212	2273.95833
632.973	2260.29167
636.732	2252.29167
640.488	2247.95833
644.241	2225.625
647.991	2215.625
651.737	2247.29167
655.481	2208.625
659.222	2200.29167
662.96	2198.29167
666.695	2245.625
670.427	2231.29167
674.156	2236.95833
677.882	2252.29167
681.605	2264.625
685.325	2193.625
689.043	2223.625
692.757	2223.625
696.468	2229.29167
700.177	2231.95833
703.882	2236.95833
707.585	2232.625
711.284	2230.625
714.981	2232.29167
718.675	2229.625
722.366	2265.95833
726.054	2235.29167
729.739	2230.29167
733.421	2240.95833
737.1	2218.29167
740.777	2254.29167
744.45	2253.625
748.121	2267.625
751.789	2327.95833
755.453	2322.95833
759.115	2321.95833
762.774	2347.29167
766.431	2360.625
770.084	2369.29167
773.734	2436.95833
777.382	2474.29167
781.027	2496.625
784.669	2492.625
788.308	2538.625
791.944	2535.29167
795.577	2556.625
799.208	2576.95833
802.835	2593.625
806.46	2612.29167
810.082	2630.95833
813.701	2631.95833
817.317	2652.625
820.931	2636.625
824.542	2669.29167
828.149	2625.29167
831.754	2588.95833
835.357	2602.625
838.956	2595.625
842.553	2586.29167
846.146	2574.29167
849.737	2562.29167
853.326	2596.29167
856.911	2582.29167
860.493	2644.95833
864.073	2638.625
867.65	2686.625
871.225	2719.95833
874.796	2717.95833
878.365	2729.29167
881.931	2752.625
885.494	2751.29167
889.054	2781.29167
892.612	2782.29167
896.166	2743.95833
899.719	2709.625
903.268	2695.625
906.814	2680.625
910.358	2656.95833
913.899	2625.625
917.438	2651.625
920.973	2634.95833
924.506	2668.625
928.036	2726.625
931.564	2735.95833
935.088	2785.29167
938.61	2779.625
942.129	2801.95833
945.646	2862.625
949.16	2933.29167
952.671	2979.625
956.179	3004.625
959.685	2965.625
963.188	2945.95833
966.688	2909.95833
970.185	2842.625
973.68	2784.29167
977.173	2777.625
980.662	2748.95833
984.149	2773.29167
987.633	2744.95833
991.114	2824.625
994.593	2899.625
998.069	2998.29167
1001.542	3071.29167
1005.013	2997.95833
1008.481	2830.29167
1011.947	2795.625
1015.409	2758.29167
1018.869	2779.95833
1022.327	2777.625
1025.782	2742.625
1029.234	2761.29167
1032.683	2726.95833
1036.13	2632.29167
1039.574	2543.95833
1043.016	2465.29167
1046.455	2433.95833
1049.891	2377.625
1053.325	2409.625
1056.756	2395.29167
1060.184	2420.95833
1063.61	2433.29167
1067.033	2430.29167
1070.454	2432.29167
1073.872	2484.625
1077.287	2464.95833
1080.7	2443.625
1084.11	2475.95833
1087.517	2456.625
1090.922	2435.95833
1094.325	2401.95833
1097.724	2385.29167
1101.122	2391.29167
1104.516	2398.95833
1107.908	2404.29167
1111.298	2433.29167
1114.684	2445.29167
1118.069	2495.625
1121.45	2522.95833
1124.83	2496.29167
1128.206	2544.29167
1131.58	2573.625
1134.951	2659.625
1138.32	2742.95833
1141.687	2856.625
1145.05	2929.625
1148.412	2939.625
1151.77	2927.95833
1155.126	2905.625
1158.48	2886.625
1161.831	2929.625
1165.18	2966.625
1168.525	2999.625
1171.869	3038.29167
1175.21	3055.29167
1178.548	3092.29167
1181.884	3121.95833
1185.217	3157.29167
1188.548	3193.95833
1191.877	3246.29167
1195.202	3336.29167
1198.526	3372.29167
1201.846	3396.29167
1205.165	3378.95833
1208.48	3361.95833
1211.794	3354.29167
1215.104	3355.95833
1218.413	3377.95833
1221.719	3372.625
1225.022	3358.625
1228.323	3301.625
1231.621	3301.95833
1234.917	3300.625
1238.21	3306.625
1241.501	3325.625
1244.79	3300.625
1248.076	3296.95833
1251.359	3329.625
1254.64	3408.95833
1257.919	3420.95833
1261.195	3504.29167
1264.468	3544.95833
1267.74	3616.95833
1271.008	3588.95833
1274.275	3571.625
1277.538	3535.95833
1280.8	3528.625
1284.059	3529.625
1287.315	3572.29167
1290.569	3595.29167
1293.821	3617.625
1297.07	3621.95833
1300.317	3655.625
1303.562	3619.95833
1306.803	3608.625
1310.043	3538.625
1313.28	3501.625
1316.515	3471.29167
1319.747	3429.95833
1322.977	3383.95833
1326.204	3353.29167
1329.429	3305.625
1332.652	3286.29167
1335.872	3268.95833
1339.09	3253.625
1342.306	3225.625
1345.519	3224.625
1348.729	3200.29167
1351.938	3206.29167
1355.144	3129.625
1358.347	3131.29167
1361.548	3107.625
1364.747	3131.29167
1367.944	3090.29167
1371.138	3112.29167
1374.329	3177.95833
1377.518	3184.29167
1380.705	3232.625
1383.89	3203.625
1387.072	3120.625
1390.252	3008.95833
1393.429	2900.625
1396.605	2797.625
1399.777	2733.625
1402.948	2714.625
1406.116	2683.625
1409.282	2682.29167
1412.445	2657.29167
1415.606	2714.29167
1418.765	2749.95833
1421.921	2812.29167
1425.075	2876.29167
1428.227	2964.95833
1431.376	3127.29167
1434.524	3184.625
1437.668	3267.29167
1440.811	3322.95833
1443.951	3353.625
1447.089	3332.625
1450.224	3332.29167
1453.357	3322.29167
1456.488	3285.625
1459.617	3242.625
1462.743	3208.95833
1465.867	3132.95833
1468.989	3095.95833
1472.108	3046.29167
1475.225	2997.29167
1478.34	2932.95833
1481.453	2957.29167
1484.563	2988.625
1487.671	2995.95833
1490.776	3082.29167
1493.88	3134.29167
1496.981	3203.625
1500.08	3286.95833
1503.176	3319.95833
1506.271	3366.625
1509.363	3427.95833
1512.452	3443.29167
1515.54	3485.625
1518.625	3599.29167
1521.708	3699.95833
1524.789	3842.95833
1527.867	4075.625
1530.944	4336.625
1534.018	4572.625
1537.089	4680.95833
1540.159	4708.625
1543.226	4621.625
1546.291	4491.95833
1549.354	4344.95833
1552.415	4226.625
1555.473	4106.95833
1558.529	4022.95833
1561.583	3975.625
1564.634	3926.625
1567.684	3916.625
1570.731	3908.625
1573.776	3949.625
1576.819	3975.29167
1579.859	4021.95833
1582.898	4056.29167
1585.934	4104.625
1588.968	4106.95833
1591.999	4108.95833
1595.029	4119.625
1598.056	4128.625
1601.081	4163.625
1604.104	4126.625
1607.125	4100.625
1610.144	3994.625
1613.16	3907.29167
1616.174	3814.29167
1619.186	3706.29167
1622.196	3631.95833
1625.203	3547.625
1628.209	3484.95833
1631.212	3467.29167
1634.213	3416.625
1637.212	3399.95833
1640.209	3314.625
1643.203	3230.29167
1646.196	3160.625
1649.186	3035.625
1652.174	2936.625
1655.16	2838.625
1658.144	2758.95833
1661.125	2625.95833
1664.105	2507.29167
1667.082	2397.95833
1670.057	2281.95833
1673.03	2130.625
1676.001	1999.625
1678.97	1890.625
1681.937	1777.29167
1684.901	1667.29167
1687.863	1618.29167
1690.824	1549.625
1693.782	1539.95833
1696.738	1470.95833
1699.692	1457.95833
1702.643	1413.29167
1705.593	1416.625
1708.54	1378.29167
1711.486	1366.625
1714.429	1332.29167
1717.37	1319.625
1720.309	1318.95833
1723.246	1298.625
1726.181	1263.95833
1729.113	1273.625
1732.044	1242.95833
1734.972	1242.29167
1737.899	1246.29167
1740.823	1234.625
1743.745	1240.95833
1746.665	1191.95833
1749.583	1164.625
1752.499	1160.95833
1755.413	1138.29167
1758.325	1098.95833
1761.235	1109.95833
1764.142	1072.29167
1767.048	1071.625
1769.951	1079.625
1772.852	1072.29167
1775.752	1054.95833
1778.649	1052.29167
1781.544	1060.29167
1784.437	1039.95833
1787.328	1037.625
1790.217	1022.29167
1793.104	1015.95833
1795.989	1016.29167
1798.872	992.625
1801.753	1020.29167
1804.631	1017.625
1807.508	1024.625
1810.383	1013.95833
1813.255	992.95833
1816.126	1002.95833
1818.994	992.29167
1821.861	978.625
1824.725	979.95833
1827.587	984.29167
1830.448	973.625
1833.306	955.625
1836.162	968.625
1839.017	956.625
1841.869	953.625
1844.719	944.95833
1847.567	943.95833
1850.414	933.95833
1853.258	927.95833
1856.1	955.625
1858.94	949.625
1861.778	938.29167
1864.614	928.95833
1867.448	929.95833
1870.28	924.29167
1873.111	949.29167
1875.939	926.29167
1878.765	948.29167
1881.589	926.29167
1884.411	923.95833
1887.231	927.95833
1890.049	914.95833
1892.865	923.95833
1895.68	914.29167
1898.492	911.95833
1901.302	903.29167
1904.11	898.29167
1906.916	893.95833
1909.721	895.625
1912.523	899.95833
1915.323	880.29167
1918.122	894.29167
1920.918	874.29167
1923.712	886.625
1926.505	894.95833
1929.295	860.29167
1932.084	881.625
1934.87	887.95833
1937.655	867.95833
1940.438	865.625
1943.218	869.625
1945.997	881.95833
1948.774	889.95833
1951.549	884.29167
1954.322	868.29167
1957.093	873.29167
1959.862	857.29167
1962.629	858.29167
1965.394	856.29167
1968.157	842.29167
1970.918	863.95833
1973.678	841.29167
1976.435	861.95833
1979.19	850.95833
1981.944	840.95833
1984.696	842.625
1987.445	830.625
1990.193	832.625
1992.939	856.95833
1995.683	847.29167
1998.425	822.29167
2001.165	848.29167
2003.903	830.95833
2006.639	828.95833
2009.374	827.95833
2012.106	838.29167
2014.837	821.95833
2017.566	837.95833
2020.292	828.29167
2023.017	818.95833
2025.74	810.625
2028.461	810.95833
2031.18	818.95833
2033.898	809.625
2036.613	813.625
2039.327	818.29167
2042.038	799.29167
2044.748	812.95833
2047.456	812.625
2050.162	799.29167
2052.866	813.625
2055.568	798.95833
2058.268	794.29167
2060.967	807.29167
2063.663	790.625
2066.358	805.29167
2069.051	795.625
2071.742	807.29167
2074.431	809.29167
2077.118	797.29167
2079.804	795.95833
2082.487	799.625
2085.169	815.95833
2087.849	821.95833
2090.527	801.29167
2093.203	838.29167
2095.877	826.95833
2098.55	822.95833
2101.22	853.29167
2103.889	864.29167
2106.556	860.625
2109.221	901.95833
2111.884	940.95833
2114.546	1019.29167
2117.205	1080.625
2119.863	1202.625
2122.519	1287.95833
2125.173	1383.625
2127.825	1493.625
2130.475	1504.95833
2133.124	1455.29167
2135.771	1395.95833
2138.416	1341.95833
2141.059	1237.625
2143.7	1190.625
2146.339	1103.625
2148.977	1046.625
2151.613	1030.625
2154.247	996.625
2156.879	955.95833
2159.51	938.95833
2162.138	913.95833
2164.765	929.29167
2167.39	901.95833
2170.013	914.625
2172.634	905.625
2175.254	895.625
2177.872	924.29167
2180.488	889.625
2183.102	878.625
2185.714	853.29167
2188.325	840.625
2190.934	841.29167
2193.541	825.95833
2196.146	820.625
2198.75	806.29167
2201.351	786.625
2203.951	777.95833
2206.549	789.95833
2209.146	766.625
2211.74	754.625
2214.333	771.625
2216.924	741.95833
2219.514	744.625
2222.101	730.29167
2224.687	752.625
2227.271	731.625
2229.853	726.625
2232.433	725.95833
2235.012	742.95833
2237.589	734.625
2240.164	746.29167
2242.738	728.95833
2245.309	712.625
2247.879	716.625
2250.448	725.95833
2253.014	693.29167
2255.579	689.625
2258.142	692.625
2260.703	680.625
2263.262	677.95833
2265.82	682.625
2268.376	684.29167
2270.93	670.95833
2273.483	662.95833
2276.033	678.29167
2278.583	667.625
2281.13	661.29167
2283.675	656.625
2286.219	669.625
2288.761	656.95833
2291.302	666.95833
2293.841	662.29167
2296.377	647.625
2298.913	659.625
2301.446	665.95833
2303.978	654.625
2306.508	641.625
2309.037	645.95833
2311.563	661.95833
2314.088	654.625
2316.612	626.95833
2319.133	641.95833
2321.653	641.625
2324.171	634.625
2326.688	650.625
2329.202	625.625
2331.715	641.625
2334.227	641.29167
2336.736	627.625
2339.244	626.625
2341.751	605.95833
2344.255	633.29167
2346.758	613.29167
2349.259	626.29167
2351.759	612.95833
2354.257	619.95833
2356.753	624.29167
2359.247	621.625
2361.74	621.625
2364.231	620.95833
2366.721	635.95833
2369.209	619.29167
2371.695	620.29167
2374.179	613.29167
2376.662	604.625
2379.143	633.625
2381.622	620.625
2384.1	628.625
2386.576	618.625
2389.051	635.625
2391.524	630.625
2393.995	628.625
2396.464	609.95833
2398.932	613.95833
2401.398	629.29167
2403.863	607.29167
2406.325	615.95833
2408.787	621.29167
2411.246	610.625
2413.704	606.95833
2416.16	603.29167
2418.615	624.625
2421.068	618.29167
2423.519	605.29167
2425.969	608.625
2428.417	627.95833
2430.863	634.625
2433.308	624.29167
2435.751	610.625
2438.193	610.625
2440.633	627.625
2443.071	615.95833
2445.508	607.625
2447.943	619.625
2450.376	604.625
2452.808	605.95833
2455.238	602.29167
2457.667	640.29167
2460.093	606.29167
2462.519	601.29167
2464.942	598.95833
2467.365	619.95833
2469.785	620.625
2472.204	607.625
2474.621	602.625
2477.037	623.625
2479.451	593.29167
2481.863	598.625
2484.274	597.29167
2486.683	612.95833
2489.091	615.625
2491.497	613.29167
2493.901	601.95833
2496.304	600.95833
2498.705	603.29167
2501.105	610.95833
2503.503	636.625
2505.899	592.29167
2508.294	628.625
2510.687	604.625
2513.079	608.95833
2515.469	607.625
2517.858	593.625
2520.245	620.625
2522.63	594.95833
2525.014	604.95833
2527.396	599.29167
2529.776	602.625
2532.156	609.95833
2534.533	598.29167
2536.909	607.625
2539.283	594.95833
2541.656	601.625
2544.027	619.29167
2546.397	610.29167
2548.765	600.95833
2551.131	594.95833
2553.496	610.625
2555.86	615.95833
2558.221	621.29167
2560.582	606.95833
2562.94	589.95833
2565.298	608.625
2567.653	624.29167
2570.007	595.95833
2572.36	609.95833
2574.711	604.625
2577.06	622.625
2579.408	614.29167
2581.754	609.95833
2584.099	611.95833
2586.442	607.29167
2588.784	626.95833
2591.124	617.625
2593.463	610.95833
2595.8	612.625
2598.135	601.625
2600.469	622.625
2602.802	622.625
2605.133	627.625
2607.462	620.625
2609.79	611.29167
2612.116	618.95833
2614.441	615.29167
2616.764	628.29167
2619.086	619.625
2621.406	612.95833
2623.725	634.625
2626.042	632.95833
2628.358	623.625
2630.672	631.29167
2632.985	646.29167
2635.296	635.625
2637.606	628.95833
2639.914	624.95833
2642.22	637.625
2644.525	624.29167
2646.829	649.29167
2649.131	662.95833
2651.432	653.625
2653.731	639.625
2656.028	658.625
2658.324	639.95833
2660.619	644.625
2662.912	663.29167
2665.204	641.625
2667.494	653.95833
2669.782	644.625
2672.07	664.29167
2674.355	666.625
2676.639	653.625
2678.922	661.625
2681.203	669.625
2683.483	644.625
2685.761	635.95833
2688.038	666.29167
2690.313	683.95833
2692.587	658.95833
2694.859	664.29167
2697.13	652.29167
2699.399	667.29167
2701.667	687.95833
2703.933	684.29167
2706.198	686.95833
2708.461	689.29167
2710.723	697.95833
2712.984	697.29167
2715.243	716.29167
2717.5	708.625
2719.757	715.95833
2722.011	711.95833
2724.264	712.29167
2726.516	738.625
2728.766	715.29167
2731.015	732.29167
2733.262	718.625
2735.508	721.95833
2737.753	712.29167
2739.996	707.29167
2742.237	714.29167
2744.477	721.29167
2746.716	718.95833
2748.953	708.95833
2751.189	714.29167
2753.423	702.625
2755.656	706.95833
2757.887	700.625
2760.117	706.95833
2762.346	701.95833
2764.573	699.95833
2766.798	699.625
2769.022	709.95833
2771.245	718.29167
2773.467	695.625
2775.686	711.95833
2777.905	718.29167
2780.122	731.29167
2782.337	730.29167
2784.552	723.29167
2786.764	744.625
2788.976	740.95833
2791.186	755.625
2793.394	751.95833
2795.601	772.29167
2797.807	782.95833
2800.011	772.95833
2802.214	796.625
2804.415	793.95833
2806.615	797.29167
2808.814	803.29167
2811.011	818.625
2813.206	813.625
2815.401	838.625
2817.594	841.95833
2819.785	852.29167
2821.975	828.95833
2824.164	856.29167
2826.351	865.29167
2828.537	894.95833
2830.722	903.95833
2832.905	902.625
2835.086	940.95833
2837.267	975.95833
2839.445	986.95833
2841.623	1004.95833
2843.799	1037.29167
2845.974	1078.29167
2848.147	1122.95833
2850.319	1133.625
2852.489	1177.95833
2854.659	1177.95833
2856.826	1180.95833
2858.993	1210.625
2861.158	1213.95833
2863.321	1214.95833
2865.483	1219.29167
2867.644	1221.29167
2869.804	1216.29167
2871.962	1221.625
2874.118	1205.625
2876.274	1211.29167
2878.428	1214.625
2880.58	1188.625
2882.731	1191.95833
2884.881	1198.95833
2887.03	1197.625
2889.177	1205.29167
2891.322	1235.95833
2893.467	1198.95833
2895.61	1208.95833
2897.751	1223.29167
2899.892	1231.95833
2902.03	1243.625
2904.168	1256.95833
2906.304	1247.95833
2908.439	1265.625
2910.572	1240.29167
2912.704	1269.95833
2914.835	1271.625
2916.965	1275.29167
2919.093	1279.95833
2921.219	1246.29167
2923.345	1261.625
2925.469	1237.29167
2927.591	1226.95833
2929.712	1193.95833
2931.832	1180.95833
2933.951	1175.95833
2936.068	1143.625
2938.184	1114.625
2940.299	1082.95833
2942.412	1075.95833
2944.524	1034.95833
2946.634	1016.95833
2948.744	973.625
2950.851	1003.95833
2952.958	958.29167
2955.063	953.625
2957.167	946.29167
2959.269	915.625
2961.371	936.29167
2963.471	901.625
2965.569	897.625
2967.666	859.625
2969.762	877.29167
2971.857	836.29167
2973.95	829.95833
2976.042	826.29167
2978.133	800.29167
2980.222	780.29167
2982.31	764.29167
2984.396	747.95833
2986.482	758.29167
2988.566	750.29167
2990.648	738.29167
2992.73	744.29167
2994.81	733.625
2996.889	729.625
2998.966	719.95833
3001.042	726.625
3003.117	712.625
3005.191	730.95833
3007.263	718.625
3009.334	714.625
3011.403	701.95833
3013.472	687.95833
3015.539	678.95833
3017.604	698.625
3019.669	649.95833
3021.732	658.625
3023.794	668.29167
3025.854	645.95833
3027.914	653.625
3029.971	668.95833
3032.028	653.625
3034.083	655.29167
3036.137	654.625
3038.19	622.29167
3040.242	612.29167
3042.292	595.29167
3044.341	585.95833
3046.388	601.29167
3048.435	585.625
3050.48	605.625
3052.524	598.625
3054.566	565.29167
3056.607	587.29167
3058.647	565.625
3060.686	538.29167
3062.723	534.625
3064.759	507.29167
3066.794	-1.375
3068.828	-1.70833
3070.86	-2.04167
