-0.839	505.375
3.438	541.04167
7.711	143.70833
11.981	55.04167
16.247	49.04167
20.509	45.375
24.768	44.70833
29.024	46.70833
33.276	43.375
37.524	51.70833
41.769	37.375
46.01	35.375
50.247	50.375
54.481	58.04167
58.712	62.04167
62.939	47.70833
67.162	59.375
71.382	54.04167
75.599	44.70833
79.812	62.70833
84.021	78.375
88.227	56.04167
92.429	59.04167
96.628	47.375
100.823	65.70833
105.015	75.375
109.204	70.70833
113.388	75.375
117.57	67.70833
121.748	84.70833
125.922	79.375
130.093	94.04167
134.261	98.70833
138.425	93.375
142.585	129.70833
146.742	133.375
150.896	159.375
155.046	187.375
159.193	316.04167
163.336	538.375
167.476	1002.375
171.613	1841.04167
175.746	3047.375
179.875	4458.04167
184.002	5740.70833
188.124	6528.04167
192.244	6789.04167
196.36	6639.70833
200.472	6387.04167
204.581	6121.04167
208.687	5871.70833
212.79	5767.04167
216.889	5697.375
220.984	5669.04167
225.077	5678.70833
229.165	5703.375
233.251	5682.04167
237.333	5669.04167
241.412	5618.70833
245.487	5590.375
249.559	5546.375
253.628	5506.375
257.694	5428.375
261.756	5375.04167
265.814	5299.375
269.87	5142.70833
273.922	5010.70833
277.97	4943.70833
282.016	4915.04167
286.058	4892.70833
290.097	4954.375
294.132	4935.375
298.164	4875.375
302.193	4680.375
306.219	4346.70833
310.241	3963.375
314.26	3608.70833
318.276	3315.70833
322.288	3102.04167
326.297	2924.70833
330.303	2786.04167
334.305	2683.375
338.305	2626.04167
342.301	2606.04167
346.294	2546.70833
350.283	2528.70833
354.269	2481.70833
358.252	2462.375
362.232	2453.70833
366.209	2410.375
370.182	2394.04167
374.152	2374.70833
378.119	2368.70833
382.083	2373.70833
386.043	2381.70833
390	2329.375
393.954	2330.70833
397.905	2298.04167
401.852	2299.70833
405.797	2273.70833
409.738	2244.04167
413.676	2253.04167
417.61	2224.70833
421.542	2207.70833
425.47	2195.04167
429.396	2186.375
433.318	2160.70833
437.236	2155.70833
441.152	2181.04167
445.065	2110.375
448.974	2125.70833
452.88	2085.70833
456.783	2082.04167
460.683	2069.70833
464.58	2071.70833
468.473	2075.375
472.364	2084.04167
476.251	2079.04167
480.135	2096.04167
484.016	2102.04167
487.894	2144.04167
491.769	2126.04167
495.641	2128.04167
499.509	2145.70833
503.375	2135.375
507.237	2139.04167
511.096	2154.375
514.952	2213.70833
518.805	2244.375
522.655	2282.70833
526.502	2184.70833
530.346	2129.04167
534.187	2157.04167
538.024	2143.375
541.859	2147.70833
545.69	2159.375
549.519	2144.70833
553.344	2152.70833
557.166	2120.04167
560.985	2086.04167
564.802	2069.70833
568.615	2028.04167
572.425	2003.70833
576.232	2001.70833
580.036	1985.04167
583.836	1990.70833
587.634	2001.375
591.429	1993.70833
595.221	2045.04167
599.01	2070.70833
602.796	2085.70833
606.578	2109.375
610.358	2110.70833
614.135	2095.70833
617.909	2093.375
621.679	2071.375
625.447	2050.70833
629.212	2064.04167
632.973	2064.70833
636.732	2048.70833
640.488	2073.04167
644.241	2049.375
647.991	2026.375
651.737	2055.375
655.481	2046.375
659.222	2055.04167
662.96	2053.70833
666.695	2087.70833
670.427	2086.375
674.156	2098.04167
677.882	2083.70833
681.605	2055.04167
685.325	2035.04167
689.043	2037.375
692.757	2035.375
696.468	2039.04167
700.177	2035.04167
703.882	2027.04167
707.585	2034.04167
711.284	2030.04167
714.981	2032.70833
718.675	2050.70833
722.366	2069.70833
726.054	2032.04167
729.739	2035.04167
733.421	2032.04167
737.1	2026.70833
740.777	2045.375
744.45	2043.375
748.121	2067.375
751.789	2106.04167
755.453	2088.04167
759.115	2110.375
762.774	2143.04167
766.431	2156.04167
770.084	2169.70833
773.734	2217.04167
777.382	2222.375
781.027	2259.375
784.669	2280.70833
788.308	2294.04167
791.944	2322.04167
795.577	2348.70833
799.208	2382.375
802.835	2384.375
806.46	2403.04167
810.082	2415.04167
813.701	2438.375
817.317	2450.70833
820.931	2453.375
824.542	2430.375
828.149	2411.04167
831.754	2376.04167
835.357	2363.375
838.956	2355.04167
842.553	2333.70833
846.146	2309.375
849.737	2295.70833
853.326	2317.04167
856.911	2284.04167
860.493	2345.04167
864.073	2375.375
867.65	2409.70833
871.225	2405.375
874.796	2428.375
878.365	2459.70833
881.931	2463.04167
885.494	2463.70833
889.054	2459.375
892.612	2447.375
896.166	2431.70833
899.719	2407.70833
903.268	2381.70833
906.814	2359.04167
910.358	2380.375
913.899	2362.70833
917.438	2386.375
920.973	2350.375
924.506	2409.04167
928.036	2451.70833
931.564	2484.70833
935.088	2519.04167
938.61	2503.70833
942.129	2542.04167
945.646	2610.70833
949.16	2634.375
952.671	2703.04167
956.179	2719.04167
959.685	2736.04167
963.188	2721.70833
966.688	2688.04167
970.185	2645.70833
973.68	2542.70833
977.173	2508.04167
980.662	2460.70833
984.149	2447.04167
987.633	2430.70833
991.114	2461.375
994.593	2544.70833
998.069	2598.375
1001.542	2713.70833
1005.013	2647.04167
1008.481	2491.04167
1011.947	2450.375
1015.409	2430.70833
1018.869	2461.375
1022.327	2448.04167
1025.782	2433.04167
1029.234	2427.375
1032.683	2439.04167
1036.13	2347.04167
1039.574	2247.04167
1043.016	2189.70833
1046.455	2177.70833
1049.891	2161.04167
1053.325	2153.70833
1056.756	2185.375
1060.184	2186.70833
1063.61	2203.70833
1067.033	2204.70833
1070.454	2204.04167
1073.872	2242.70833
1077.287	2225.70833
1080.7	2249.70833
1084.11	2253.375
1087.517	2232.70833
1090.922	2226.70833
1094.325	2192.375
1097.724	2155.70833
1101.122	2169.04167
1104.516	2146.375
1107.908	2157.04167
1111.298	2195.70833
1114.684	2216.375
1118.069	2249.375
1121.45	2282.375
1124.83	2268.70833
1128.206	2277.375
1131.58	2321.04167
1134.951	2376.375
1138.32	2450.04167
1141.687	2539.04167
1145.05	2619.04167
1148.412	2612.70833
1151.77	2604.375
1155.126	2598.04167
1158.48	2602.70833
1161.831	2622.375
1165.18	2613.70833
1168.525	2667.04167
1171.869	2711.04167
1175.21	2732.04167
1178.548	2757.04167
1181.884	2784.70833
1185.217	2826.04167
1188.548	2888.70833
1191.877	2963.70833
1195.202	3011.70833
1198.526	3113.04167
1201.846	3096.375
1205.165	3131.04167
1208.48	3090.70833
1211.794	3110.375
1215.104	3105.04167
1218.413	3098.04167
1221.719	3082.70833
1225.022	3055.04167
1228.323	3021.375
1231.621	3023.04167
1234.917	3005.04167
1238.21	3012.70833
1241.501	3003.70833
1244.79	3011.04167
1248.076	2991.375
1251.359	3011.375
1254.64	3081.70833
1257.919	3093.04167
1261.195	3117.04167
1264.468	3161.375
1267.74	3199.375
1271.008	3241.70833
1274.275	3211.70833
1277.538	3174.04167
1280.8	3185.04167
1284.059	3174.70833
1287.315	3210.04167
1290.569	3241.375
1293.821	3285.375
1297.07	3301.04167
1300.317	3325.70833
1303.562	3307.375
1306.803	3264.375
1310.043	3256.70833
1313.28	3198.375
1316.515	3194.04167
1319.747	3160.04167
1322.977	3133.70833
1326.204	3068.375
1329.429	3035.70833
1332.652	3017.70833
1335.872	3024.04167
1339.09	2967.70833
1342.306	2970.04167
1345.519	2939.70833
1348.729	2915.70833
1351.938	2878.70833
1355.144	2859.375
1358.347	2825.375
1361.548	2812.375
1364.747	2813.04167
1367.944	2780.70833
1371.138	2807.04167
1374.329	2810.375
1377.518	2796.04167
1380.705	2853.04167
1383.89	2827.70833
1387.072	2735.70833
1390.252	2634.70833
1393.429	2551.70833
1396.605	2468.04167
1399.777	2398.70833
1402.948	2389.70833
1406.116	2380.375
1409.282	2385.70833
1412.445	2381.375
1415.606	2426.70833
1418.765	2472.375
1421.921	2525.70833
1425.075	2558.04167
1428.227	2657.04167
1431.376	2801.04167
1434.524	2891.375
1437.668	2953.375
1440.811	2978.375
1443.951	2974.70833
1447.089	3020.70833
1450.224	2986.375
1453.357	2973.70833
1456.488	2974.04167
1459.617	2915.375
1462.743	2878.375
1465.867	2803.70833
1468.989	2770.04167
1472.108	2739.375
1475.225	2720.375
1478.34	2670.375
1481.453	2677.04167
1484.563	2692.04167
1487.671	2702.04167
1490.776	2749.375
1493.88	2813.375
1496.981	2857.70833
1500.08	2904.04167
1503.176	2938.375
1506.271	2957.04167
1509.363	3013.70833
1512.452	3055.375
1515.54	3079.04167
1518.625	3158.04167
1521.708	3253.375
1524.789	3380.375
1527.867	3554.70833
1530.944	3776.375
1534.018	3910.375
1537.089	4024.04167
1540.159	4020.04167
1543.226	3931.70833
1546.291	3828.70833
1549.354	3703.70833
1552.415	3594.04167
1555.473	3494.70833
1558.529	3454.375
1561.583	3424.70833
1564.634	3425.04167
1567.684	3443.70833
1570.731	3450.70833
1573.776	3490.04167
1576.819	3533.375
1579.859	3566.04167
1582.898	3613.375
1585.934	3641.04167
1588.968	3695.375
1591.999	3674.375
1595.029	3682.70833
1598.056	3726.04167
1601.081	3768.04167
1604.104	3755.375
1607.125	3699.70833
1610.144	3606.04167
1613.16	3534.375
1616.174	3454.04167
1619.186	3352.04167
1622.196	3252.04167
1625.203	3172.04167
1628.209	3129.04167
1631.212	3123.375
1634.213	3111.70833
1637.212	3133.04167
1640.209	3081.04167
1643.203	3019.04167
1646.196	2896.04167
1649.186	2777.375
1652.174	2694.375
1655.16	2599.04167
1658.144	2517.70833
1661.125	2370.04167
1664.105	2227.375
1667.082	2134.375
1670.057	2000.70833
1673.03	1874.375
1676.001	1779.70833
1678.97	1651.70833
1681.937	1572.375
1684.901	1496.70833
1687.863	1443.375
1690.824	1382.04167
1693.782	1359.375
1696.738	1300.70833
1699.692	1275.04167
1702.643	1237.04167
1705.593	1222.04167
1708.54	1215.04167
1711.486	1220.70833
1714.429	1185.70833
1717.37	1174.04167
1720.309	1150.375
1723.246	1174.04167
1726.181	1140.375
1729.113	1133.70833
1732.044	1099.70833
1734.972	1099.04167
1737.899	1116.04167
1740.823	1088.04167
1743.745	1092.70833
1746.665	1043.70833
1749.583	1031.04167
1752.499	1010.70833
1755.413	1004.375
1758.325	972.375
1761.235	985.375
1764.142	941.04167
1767.048	959.04167
1769.951	953.70833
1772.852	943.70833
1775.752	929.04167
1778.649	930.375
1781.544	926.04167
1784.437	907.70833
1787.328	913.04167
1790.217	886.375
1793.104	878.375
1795.989	882.04167
1798.872	878.375
1801.753	885.70833
1804.631	889.70833
1807.508	883.04167
1810.383	888.375
1813.255	879.04167
1816.126	872.04167
1818.994	865.375
1821.861	862.375
1824.725	852.70833
1827.587	850.04167
1830.448	858.70833
1833.306	826.375
1836.162	842.375
1839.017	830.04167
1841.869	825.04167
1844.719	834.70833
1847.567	807.375
1850.414	804.04167
1853.258	806.04167
1856.1	826.04167
1858.94	828.70833
1861.778	823.04167
1864.614	806.04167
1867.448	813.04167
1870.28	800.375
1873.111	819.04167
1875.939	811.04167
1878.765	823.04167
1881.589	805.375
1884.411	814.70833
1887.231	810.04167
1890.049	789.375
1892.865	806.04167
1895.68	786.375
1898.492	790.70833
1901.302	776.70833
1904.11	785.04167
1906.916	779.04167
1909.721	779.70833
1912.523	786.70833
1915.323	743.375
1918.122	772.375
1920.918	777.04167
1923.712	757.70833
1926.505	760.04167
1929.295	759.04167
1932.084	768.375
1934.87	763.375
1937.655	763.04167
1940.438	743.70833
1943.218	741.70833
1945.997	765.70833
1948.774	764.70833
1951.549	767.375
1954.322	754.375
1957.093	755.375
1959.862	740.04167
1962.629	742.70833
1965.394	737.04167
1968.157	730.375
1970.918	725.70833
1973.678	723.70833
1976.435	728.375
1979.19	736.375
1981.944	723.04167
1984.696	719.70833
1987.445	704.70833
1990.193	704.70833
1992.939	740.04167
1995.683	727.375
1998.425	693.70833
2001.165	734.70833
2003.903	708.375
2006.639	711.70833
2009.374	701.375
2012.106	706.04167
2014.837	690.04167
2017.566	714.375
2020.292	703.70833
2023.017	717.04167
2025.74	707.375
2028.461	688.04167
2031.18	687.70833
2033.898	673.04167
2036.613	705.70833
2039.327	700.70833
2042.038	687.04167
2044.748	682.375
2047.456	695.04167
2050.162	669.375
2052.866	664.70833
2055.568	687.70833
2058.268	673.70833
2060.967	680.70833
2063.663	660.04167
2066.358	678.70833
2069.051	672.70833
2071.742	678.70833
2074.431	675.375
2077.118	683.04167
2079.804	662.04167
2082.487	674.375
2085.169	680.375
2087.849	694.375
2090.527	662.04167
2093.203	679.70833
2095.877	672.70833
2098.55	669.04167
2101.22	692.375
2103.889	696.04167
2106.556	690.04167
2109.221	732.70833
2111.884	732.375
2114.546	790.70833
2117.205	831.04167
2119.863	893.04167
2122.519	945.70833
2125.173	1012.04167
2127.825	1049.04167
2130.475	1072.04167
2133.124	1022.375
2135.771	992.04167
2138.416	959.70833
2141.059	884.70833
2143.7	874.04167
2146.339	819.70833
2148.977	761.70833
2151.613	762.70833
2154.247	739.04167
2156.879	722.70833
2159.51	714.04167
2162.138	695.04167
2164.765	692.375
2167.39	673.04167
2170.013	702.70833
2172.634	692.375
2175.254	671.375
2177.872	704.375
2180.488	663.70833
2183.102	662.70833
2185.714	640.375
2188.325	635.70833
2190.934	639.70833
2193.541	636.04167
2196.146	629.70833
2198.75	618.375
2201.351	613.70833
2203.951	594.375
2206.549	618.04167
2209.146	605.70833
2211.74	604.70833
2214.333	611.375
2216.924	585.375
2219.514	599.70833
2222.101	586.04167
2224.687	599.375
2227.271	586.04167
2229.853	587.70833
2232.433	567.375
2235.012	592.375
2237.589	583.375
2240.164	592.70833
2242.738	586.70833
2245.309	567.375
2247.879	591.70833
2250.448	582.375
2253.014	561.375
2255.579	547.70833
2258.142	544.70833
2260.703	539.04167
2263.262	545.70833
2265.82	549.04167
2268.376	561.04167
2270.93	528.375
2273.483	531.375
2276.033	552.70833
2278.583	525.70833
2281.13	520.70833
2283.675	523.70833
2286.219	526.70833
2288.761	533.04167
2291.302	530.375
2293.841	530.375
2296.377	500.375
2298.913	526.375
2301.446	534.375
2303.978	514.375
2306.508	498.375
2309.037	515.70833
2311.563	521.70833
2314.088	522.04167
2316.612	496.70833
2319.133	521.04167
2321.653	501.375
2324.171	496.70833
2326.688	510.70833
2329.202	495.04167
2331.715	508.70833
2334.227	511.04167
2336.736	501.375
2339.244	496.375
2341.751	484.04167
2344.255	510.04167
2346.758	493.375
2349.259	486.70833
2351.759	488.375
2354.257	486.70833
2356.753	475.375
2359.247	489.04167
2361.74	500.04167
2364.231	476.70833
2366.721	498.375
2369.209	479.70833
2371.695	491.04167
2374.179	473.70833
2376.662	485.375
2379.143	495.04167
2381.622	468.375
2384.1	490.70833
2386.576	482.375
2389.051	503.04167
2391.524	495.04167
2393.995	491.375
2396.464	479.375
2398.932	471.70833
2401.398	485.375
2403.863	482.04167
2406.325	467.04167
2408.787	474.70833
2411.246	476.70833
2413.704	473.375
2416.16	465.375
2418.615	473.70833
2421.068	487.375
2423.519	464.70833
2425.969	466.375
2428.417	481.375
2430.863	488.375
2433.308	485.70833
2435.751	476.04167
2438.193	473.70833
2440.633	480.70833
2443.071	477.375
2445.508	458.70833
2447.943	463.04167
2450.376	457.375
2452.808	471.70833
2455.238	465.70833
2457.667	489.04167
2460.093	464.04167
2462.519	457.04167
2464.942	459.04167
2467.365	472.375
2469.785	467.70833
2472.204	462.70833
2474.621	447.375
2477.037	476.04167
2479.451	451.375
2481.863	454.04167
2484.274	446.70833
2486.683	448.04167
2489.091	471.70833
2491.497	463.04167
2493.901	451.04167
2496.304	459.375
2498.705	456.04167
2501.105	452.375
2503.503	481.375
2505.899	450.375
2508.294	467.70833
2510.687	442.70833
2513.079	456.375
2515.469	454.04167
2517.858	441.04167
2520.245	472.70833
2522.63	447.04167
2525.014	440.375
2527.396	447.04167
2529.776	444.375
2532.156	459.04167
2534.533	437.04167
2536.909	443.70833
2539.283	430.375
2541.656	449.70833
2544.027	476.375
2546.397	453.375
2548.765	449.70833
2551.131	455.375
2553.496	454.375
2555.86	453.375
2558.221	452.04167
2560.582	447.04167
2562.94	435.04167
2565.298	440.375
2567.653	465.04167
2570.007	436.70833
2572.36	455.70833
2574.711	438.70833
2577.06	462.04167
2579.408	456.70833
2581.754	458.04167
2584.099	445.375
2586.442	442.04167
2588.784	453.375
2591.124	450.04167
2593.463	445.375
2595.8	447.04167
2598.135	433.375
2600.469	438.70833
2602.802	464.375
2605.133	455.375
2607.462	449.04167
2609.79	441.04167
2612.116	457.70833
2614.441	451.375
2616.764	454.70833
2619.086	452.70833
2621.406	445.70833
2623.725	466.375
2626.042	454.375
2628.358	447.04167
2630.672	451.04167
2632.985	459.04167
2635.296	458.375
2637.606	459.04167
2639.914	445.70833
2642.22	457.04167
2644.525	461.04167
2646.829	464.04167
2649.131	469.70833
2651.432	475.04167
2653.731	459.375
2656.028	482.375
2658.324	467.70833
2660.619	465.04167
2662.912	475.375
2665.204	463.375
2667.494	474.375
2669.782	459.70833
2672.07	471.04167
2674.355	470.70833
2676.639	462.375
2678.922	463.375
2681.203	481.70833
2683.483	459.70833
2685.761	461.04167
2688.038	480.70833
2690.313	491.375
2692.587	469.375
2694.859	473.375
2697.13	475.70833
2699.399	478.04167
2701.667	486.04167
2703.933	493.375
2706.198	485.375
2708.461	497.04167
2710.723	498.375
2712.984	491.375
2715.243	512.375
2717.5	507.04167
2719.757	512.04167
2722.011	503.70833
2724.264	519.375
2726.516	532.04167
2728.766	516.04167
2731.015	511.375
2733.262	510.375
2735.508	516.70833
2737.753	513.70833
2739.996	506.04167
2742.237	505.04167
2744.477	515.70833
2746.716	515.375
2748.953	510.375
2751.189	502.04167
2753.423	497.375
2755.656	490.70833
2757.887	486.04167
2760.117	496.04167
2762.346	500.375
2764.573	486.375
2766.798	488.04167
2769.022	490.70833
2771.245	495.04167
2773.467	493.70833
2775.686	504.04167
2777.905	506.70833
2780.122	509.70833
2782.337	509.04167
2784.552	504.04167
2786.764	510.04167
2788.976	521.04167
2791.186	537.375
2793.394	530.70833
2795.601	542.04167
2797.807	542.04167
2800.011	557.04167
2802.214	564.70833
2804.415	566.04167
2806.615	567.375
2808.814	571.375
2811.011	584.375
2813.206	575.04167
2815.401	597.375
2817.594	616.70833
2819.785	617.70833
2821.975	602.70833
2824.164	614.04167
2826.351	632.04167
2828.537	651.04167
2830.722	658.70833
2832.905	664.04167
2835.086	688.375
2837.267	717.70833
2839.445	734.70833
2841.623	753.375
2843.799	789.375
2845.974	808.04167
2848.147	845.70833
2850.319	862.04167
2852.489	894.04167
2854.659	909.70833
2856.826	925.04167
2858.993	941.375
2861.158	944.04167
2863.321	932.375
2865.483	944.375
2867.644	952.375
2869.804	947.70833
2871.962	943.04167
2874.118	929.04167
2876.274	939.375
2878.428	942.70833
2880.58	925.70833
2882.731	922.375
2884.881	934.04167
2887.03	907.04167
2889.177	915.04167
2891.322	938.70833
2893.467	928.04167
2895.61	923.04167
2897.751	947.70833
2899.892	939.375
2902.03	942.70833
2904.168	960.04167
2906.304	952.375
2908.439	986.04167
2910.572	967.70833
2912.704	978.70833
2914.835	981.70833
2916.965	964.04167
2919.093	997.04167
2921.219	953.04167
2923.345	966.70833
2925.469	952.375
2927.591	931.04167
2929.712	912.04167
2931.832	915.375
2933.951	895.04167
2936.068	876.375
2938.184	851.70833
2940.299	825.70833
2942.412	814.375
2944.524	791.70833
2946.634	783.04167
2948.744	733.70833
2950.851	757.04167
2952.958	709.375
2955.063	701.375
2957.167	700.375
2959.269	668.70833
2961.371	692.04167
2963.471	649.70833
2965.569	655.04167
2967.666	636.70833
2969.762	624.04167
2971.857	597.70833
2973.95	591.375
2976.042	598.70833
2978.133	570.70833
2980.222	566.04167
2982.31	547.04167
2984.396	535.04167
2986.482	525.70833
2988.566	528.375
2990.648	523.375
2992.73	513.04167
2994.81	503.375
2996.889	508.04167
2998.966	509.70833
3001.042	514.375
3003.117	511.04167
3005.191	509.70833
3007.263	498.375
3009.334	493.375
3011.403	499.375
3013.472	471.375
3015.539	475.375
3017.604	493.04167
3019.669	455.04167
3021.732	453.70833
3023.794	460.04167
3025.854	445.04167
3027.914	444.04167
3029.971	457.70833
3032.028	439.04167
3034.083	452.70833
3036.137	451.375
3038.19	425.375
3040.242	420.04167
3042.292	415.375
3044.341	403.70833
3046.388	409.04167
3048.435	393.375
3050.48	415.04167
3052.524	411.70833
3054.566	388.70833
3056.607	399.70833
3058.647	386.375
3060.686	373.70833
3062.723	359.375
3064.759	350.375
3066.794	-0.95833
3068.828	-0.95833
3070.86	-1.95833
