-0.839	421.91667
3.438	454.25
7.711	131.25
11.981	56.91667
16.247	51.25
20.509	48.25
24.768	44.91667
29.024	46.25
33.276	40.25
37.524	52.25
41.769	41.91667
46.01	36.91667
50.247	49.91667
54.481	65.25
58.712	62.91667
62.939	54.91667
67.162	60.25
71.382	55.58333
75.599	48.91667
79.812	66.58333
84.021	82.91667
88.227	62.25
92.429	64.58333
96.628	54.91667
100.823	71.25
105.015	73.25
109.204	81.25
113.388	82.25
117.57	79.58333
121.748	95.58333
125.922	85.25
130.093	103.91667
134.261	117.91667
138.425	108.58333
142.585	151.91667
146.742	149.58333
150.896	180.91667
155.046	223.25
159.193	354.58333
163.336	609.91667
167.476	1127.91667
171.613	2071.58333
175.746	3507.58333
179.875	5191.91667
184.002	6721.25
188.124	7804.25
192.244	8165.91667
196.36	8099.25
200.472	7888.91667
204.581	7697.25
208.687	7574.25
212.79	7507.58333
216.889	7586.91667
220.984	7664.91667
225.077	7737.58333
229.165	7878.25
233.251	7950.91667
237.333	8032.25
241.412	7963.25
245.487	7904.91667
249.559	7860.58333
253.628	7760.25
257.694	7628.58333
261.756	7565.25
265.814	7411.25
269.87	7192.91667
273.922	6959.58333
277.97	6854.25
282.016	6805.25
286.058	6802.58333
290.097	6889.91667
294.132	6911.25
298.164	6734.25
302.193	6413.25
306.219	5886.25
310.241	5363.91667
314.26	4896.91667
318.276	4497.91667
322.288	4216.25
326.297	3976.91667
330.303	3775.58333
334.305	3671.58333
338.305	3573.25
342.301	3538.58333
346.294	3510.91667
350.283	3468.25
354.269	3449.91667
358.252	3421.25
362.232	3368.25
366.209	3364.58333
370.182	3316.58333
374.152	3294.91667
378.119	3349.58333
382.083	3315.58333
386.043	3336.25
390	3258.25
393.954	3244.91667
397.905	3211.25
401.852	3221.91667
405.797	3149.25
409.738	3125.58333
413.676	3114.25
417.61	3079.25
421.542	3061.25
425.47	3020.58333
429.396	2996.25
433.318	2977.25
437.236	2969.25
441.152	2998.58333
445.065	2911.91667
448.974	2906.25
452.88	2900.91667
456.783	2875.25
460.683	2870.91667
464.58	2887.25
468.473	2872.25
472.364	2872.58333
476.251	2882.25
480.135	2911.25
484.016	2935.91667
487.894	2970.91667
491.769	2960.91667
495.641	2984.58333
499.509	2972.58333
503.375	2958.58333
507.237	2956.25
511.096	2914.91667
514.952	2930.91667
518.805	2946.58333
522.655	2925.58333
526.502	2906.58333
530.346	2900.91667
534.187	2919.25
538.024	2918.91667
541.859	2927.91667
545.69	2931.25
549.519	2906.25
553.344	2900.25
557.166	2838.91667
560.985	2835.58333
564.802	2810.25
568.615	2771.58333
572.425	2722.91667
576.232	2736.58333
580.036	2700.91667
583.836	2714.58333
587.634	2717.91667
591.429	2722.91667
595.221	2795.91667
599.01	2807.58333
602.796	2842.91667
606.578	2864.25
610.358	2873.25
614.135	2858.25
617.909	2841.25
621.679	2804.91667
625.447	2809.58333
629.212	2810.91667
632.973	2831.25
636.732	2812.58333
640.488	2784.25
644.241	2776.58333
647.991	2805.91667
651.737	2777.58333
655.481	2746.91667
659.222	2780.25
662.96	2776.91667
666.695	2785.58333
670.427	2801.25
674.156	2814.25
677.882	2796.25
681.605	2798.58333
685.325	2771.58333
689.043	2776.25
692.757	2773.25
696.468	2759.91667
700.177	2786.25
703.882	2775.25
707.585	2792.91667
711.284	2815.91667
714.981	2805.25
718.675	2820.91667
722.366	2823.91667
726.054	2791.25
729.739	2796.25
733.421	2798.91667
737.1	2802.91667
740.777	2810.58333
744.45	2832.58333
748.121	2845.91667
751.789	2927.25
755.453	2925.25
759.115	2917.91667
762.774	2982.58333
766.431	2989.58333
770.084	3016.58333
773.734	3074.25
777.382	3117.91667
781.027	3137.25
784.669	3161.25
788.308	3175.25
791.944	3195.91667
795.577	3241.91667
799.208	3285.91667
802.835	3278.91667
806.46	3295.58333
810.082	3326.91667
813.701	3339.91667
817.317	3361.58333
820.931	3369.91667
824.542	3361.25
828.149	3314.25
831.754	3300.25
835.357	3288.25
838.956	3285.91667
842.553	3287.91667
846.146	3251.58333
849.737	3227.25
853.326	3273.58333
856.911	3280.91667
860.493	3321.58333
864.073	3358.25
867.65	3424.25
871.225	3452.25
874.796	3420.58333
878.365	3445.58333
881.931	3463.91667
885.494	3498.58333
889.054	3495.58333
892.612	3455.25
896.166	3457.25
899.719	3433.25
903.268	3390.91667
906.814	3363.25
910.358	3366.91667
913.899	3347.25
917.438	3359.91667
920.973	3360.25
924.506	3384.25
928.036	3430.25
931.564	3440.58333
935.088	3504.25
938.61	3499.25
942.129	3552.91667
945.646	3628.25
949.16	3709.25
952.671	3797.58333
956.179	3807.58333
959.685	3789.58333
963.188	3762.91667
966.688	3695.91667
970.185	3617.91667
973.68	3547.91667
977.173	3522.91667
980.662	3521.58333
984.149	3533.91667
987.633	3548.91667
991.114	3604.58333
994.593	3738.58333
998.069	3847.91667
1001.542	3944.58333
1005.013	3859.25
1008.481	3656.91667
1011.947	3573.58333
1015.409	3572.25
1018.869	3558.91667
1022.327	3561.25
1025.782	3513.25
1029.234	3531.58333
1032.683	3480.58333
1036.13	3382.58333
1039.574	3261.91667
1043.016	3170.25
1046.455	3110.91667
1049.891	3046.58333
1053.325	3062.58333
1056.756	3071.25
1060.184	3101.25
1063.61	3111.58333
1067.033	3144.91667
1070.454	3140.25
1073.872	3196.58333
1077.287	3201.25
1080.7	3190.25
1084.11	3200.91667
1087.517	3161.25
1090.922	3156.58333
1094.325	3108.58333
1097.724	3051.58333
1101.122	3069.25
1104.516	3062.58333
1107.908	3071.58333
1111.298	3123.91667
1114.684	3149.91667
1118.069	3183.91667
1121.45	3197.91667
1124.83	3195.91667
1128.206	3226.58333
1131.58	3286.25
1134.951	3369.58333
1138.32	3459.91667
1141.687	3622.58333
1145.05	3666.91667
1148.412	3703.91667
1151.77	3686.91667
1155.126	3677.91667
1158.48	3680.91667
1161.831	3699.25
1165.18	3741.91667
1168.525	3814.58333
1171.869	3855.58333
1175.21	3915.58333
1178.548	3944.91667
1181.884	3991.58333
1185.217	4000.25
1188.548	4077.58333
1191.877	4131.58333
1195.202	4226.58333
1198.526	4313.91667
1201.846	4321.25
1205.165	4303.91667
1208.48	4292.25
1211.794	4286.25
1215.104	4278.91667
1218.413	4291.58333
1221.719	4277.25
1225.022	4234.58333
1228.323	4196.58333
1231.621	4207.91667
1234.917	4171.25
1238.21	4230.91667
1241.501	4211.25
1244.79	4211.25
1248.076	4202.58333
1251.359	4266.25
1254.64	4325.25
1257.919	4351.58333
1261.195	4423.58333
1264.468	4464.25
1267.74	4517.91667
1271.008	4528.58333
1274.275	4515.58333
1277.538	4488.25
1280.8	4459.91667
1284.059	4466.25
1287.315	4522.91667
1290.569	4528.91667
1293.821	4587.91667
1297.07	4596.91667
1300.317	4572.91667
1303.562	4607.91667
1306.803	4570.91667
1310.043	4509.25
1313.28	4434.25
1316.515	4416.91667
1319.747	4344.58333
1322.977	4310.58333
1326.204	4236.58333
1329.429	4172.91667
1332.652	4146.25
1335.872	4130.25
1339.09	4113.58333
1342.306	4110.25
1345.519	4090.25
1348.729	4079.25
1351.938	4031.25
1355.144	3988.91667
1358.347	3958.25
1361.548	3933.58333
1364.747	3938.58333
1367.944	3897.58333
1371.138	3948.58333
1374.329	3964.58333
1377.518	4022.91667
1380.705	4036.58333
1383.89	4009.25
1387.072	3891.25
1390.252	3756.25
1393.429	3639.58333
1396.605	3547.25
1399.777	3452.91667
1402.948	3396.58333
1406.116	3381.58333
1409.282	3407.58333
1412.445	3412.58333
1415.606	3447.91667
1418.765	3490.58333
1421.921	3571.25
1425.075	3656.58333
1428.227	3789.91667
1431.376	3921.91667
1434.524	4071.58333
1437.668	4177.91667
1440.811	4228.91667
1443.951	4256.91667
1447.089	4240.58333
1450.224	4215.91667
1453.357	4200.58333
1456.488	4176.58333
1459.617	4112.91667
1462.743	4060.25
1465.867	3984.25
1468.989	3929.25
1472.108	3824.58333
1475.225	3775.58333
1478.34	3733.91667
1481.453	3720.25
1484.563	3752.91667
1487.671	3788.58333
1490.776	3887.91667
1493.88	3932.91667
1496.981	4025.25
1500.08	4090.25
1503.176	4121.58333
1506.271	4219.58333
1509.363	4276.91667
1512.452	4331.25
1515.54	4416.91667
1518.625	4534.58333
1521.708	4703.25
1524.789	4928.25
1527.867	5222.25
1530.944	5544.25
1534.018	5845.58333
1537.089	6001.25
1540.159	5972.58333
1543.226	5881.25
1546.291	5609.91667
1549.354	5470.25
1552.415	5290.58333
1555.473	5104.91667
1558.529	5026.25
1561.583	4958.58333
1564.634	4900.25
1567.684	4919.25
1570.731	4898.91667
1573.776	4938.91667
1576.819	4989.58333
1579.859	5068.25
1582.898	5092.58333
1585.934	5140.25
1588.968	5186.91667
1591.999	5125.58333
1595.029	5120.25
1598.056	5166.91667
1601.081	5180.58333
1604.104	5173.58333
1607.125	5098.25
1610.144	5034.25
1613.16	4895.91667
1616.174	4771.91667
1619.186	4628.25
1622.196	4546.91667
1625.203	4393.58333
1628.209	4355.91667
1631.212	4310.58333
1634.213	4280.25
1637.212	4237.58333
1640.209	4172.58333
1643.203	4093.91667
1646.196	3978.25
1649.186	3824.58333
1652.174	3701.91667
1655.16	3558.58333
1658.144	3465.91667
1661.125	3319.91667
1664.105	3150.25
1667.082	3010.58333
1670.057	2853.25
1673.03	2662.25
1676.001	2504.58333
1678.97	2353.25
1681.937	2206.58333
1684.901	2107.25
1687.863	2026.58333
1690.824	1956.25
1693.782	1900.25
1696.738	1847.25
1699.692	1805.58333
1702.643	1769.91667
1705.593	1737.58333
1708.54	1707.91667
1711.486	1708.25
1714.429	1676.58333
1717.37	1640.91667
1720.309	1638.58333
1723.246	1622.58333
1726.181	1592.58333
1729.113	1579.91667
1732.044	1577.91667
1734.972	1550.58333
1737.899	1549.91667
1740.823	1531.91667
1743.745	1538.91667
1746.665	1488.58333
1749.583	1464.91667
1752.499	1425.25
1755.413	1438.91667
1758.325	1390.58333
1761.235	1395.91667
1764.142	1364.91667
1767.048	1345.58333
1769.951	1335.91667
1772.852	1333.91667
1775.752	1331.58333
1778.649	1322.91667
1781.544	1329.25
1784.437	1286.25
1787.328	1315.25
1790.217	1278.25
1793.104	1259.58333
1795.989	1257.25
1798.872	1256.25
1801.753	1275.91667
1804.631	1264.25
1807.508	1258.58333
1810.383	1255.91667
1813.255	1238.91667
1816.126	1253.91667
1818.994	1238.58333
1821.861	1225.58333
1824.725	1222.25
1827.587	1215.25
1830.448	1217.25
1833.306	1193.58333
1836.162	1203.91667
1839.017	1187.25
1841.869	1180.58333
1844.719	1174.25
1847.567	1160.91667
1850.414	1158.58333
1853.258	1176.91667
1856.1	1181.25
1858.94	1180.25
1861.778	1170.91667
1864.614	1152.58333
1867.448	1157.25
1870.28	1148.58333
1873.111	1154.91667
1875.939	1162.25
1878.765	1175.91667
1881.589	1141.25
1884.411	1149.91667
1887.231	1161.25
1890.049	1144.25
1892.865	1137.91667
1895.68	1121.58333
1898.492	1124.91667
1901.302	1120.25
1904.11	1111.25
1906.916	1105.25
1909.721	1092.25
1912.523	1111.91667
1915.323	1083.91667
1918.122	1082.58333
1920.918	1105.91667
1923.712	1075.25
1926.505	1098.58333
1929.295	1070.58333
1932.084	1086.91667
1934.87	1086.58333
1937.655	1078.58333
1940.438	1074.25
1943.218	1060.91667
1945.997	1072.58333
1948.774	1084.91667
1951.549	1080.91667
1954.322	1070.25
1957.093	1063.25
1959.862	1067.25
1962.629	1063.58333
1965.394	1043.25
1968.157	1039.58333
1970.918	1054.58333
1973.678	1031.91667
1976.435	1041.91667
1979.19	1025.91667
1981.944	1019.25
1984.696	1023.91667
1987.445	1016.58333
1990.193	1031.58333
1992.939	1029.25
1995.683	1022.91667
1998.425	995.25
2001.165	1027.58333
2003.903	1016.25
2006.639	1008.91667
2009.374	1013.58333
2012.106	1008.25
2014.837	986.91667
2017.566	1014.25
2020.292	1016.91667
2023.017	1001.25
2025.74	996.58333
2028.461	976.25
2031.18	989.25
2033.898	983.91667
2036.613	992.91667
2039.327	989.91667
2042.038	970.25
2044.748	982.25
2047.456	981.91667
2050.162	962.25
2052.866	965.91667
2055.568	974.25
2058.268	963.91667
2060.967	967.25
2063.663	953.58333
2066.358	962.25
2069.051	945.58333
2071.742	965.58333
2074.431	968.25
2077.118	951.58333
2079.804	944.58333
2082.487	962.58333
2085.169	983.58333
2087.849	981.25
2090.527	953.58333
2093.203	977.91667
2095.877	985.58333
2098.55	1001.58333
2101.22	1013.25
2103.889	1035.91667
2106.556	1048.91667
2109.221	1097.58333
2111.884	1138.58333
2114.546	1224.58333
2117.205	1337.58333
2119.863	1478.25
2122.519	1598.91667
2125.173	1727.91667
2127.825	1834.58333
2130.475	1845.91667
2133.124	1808.25
2135.771	1720.91667
2138.416	1641.58333
2141.059	1513.25
2143.7	1442.91667
2146.339	1322.25
2148.977	1268.58333
2151.613	1228.25
2154.247	1179.91667
2156.879	1137.91667
2159.51	1120.91667
2162.138	1092.91667
2164.765	1087.58333
2167.39	1057.58333
2170.013	1070.58333
2172.634	1060.91667
2175.254	1038.58333
2177.872	1052.25
2180.488	1008.58333
2183.102	1024.58333
2185.714	994.25
2188.325	956.58333
2190.934	964.58333
2193.541	959.91667
2196.146	936.91667
2198.75	923.91667
2201.351	920.58333
2203.951	905.58333
2206.549	899.91667
2209.146	885.25
2211.74	881.25
2214.333	872.58333
2216.924	851.25
2219.514	861.25
2222.101	840.58333
2224.687	852.58333
2227.271	838.91667
2229.853	833.58333
2232.433	810.58333
2235.012	842.58333
2237.589	834.58333
2240.164	835.58333
2242.738	824.58333
2245.309	798.58333
2247.879	824.58333
2250.448	808.58333
2253.014	793.58333
2255.579	774.58333
2258.142	771.58333
2260.703	755.58333
2263.262	756.25
2265.82	747.25
2268.376	761.58333
2270.93	738.91667
2273.483	744.58333
2276.033	747.91667
2278.583	717.91667
2281.13	735.25
2283.675	725.58333
2286.219	734.58333
2288.761	721.58333
2291.302	727.91667
2293.841	716.91667
2296.377	696.91667
2298.913	706.25
2301.446	713.91667
2303.978	697.25
2306.508	703.25
2309.037	695.58333
2311.563	712.25
2314.088	698.58333
2316.612	681.91667
2319.133	686.25
2321.653	683.58333
2324.171	673.25
2326.688	696.91667
2329.202	686.25
2331.715	682.25
2334.227	679.58333
2336.736	669.25
2339.244	669.58333
2341.751	656.91667
2344.255	666.58333
2346.758	655.58333
2349.259	655.25
2351.759	664.91667
2354.257	656.25
2356.753	643.58333
2359.247	649.25
2361.74	653.25
2364.231	654.25
2366.721	664.91667
2369.209	642.58333
2371.695	649.91667
2374.179	629.91667
2376.662	632.91667
2379.143	652.25
2381.622	645.91667
2384.1	630.91667
2386.576	623.25
2389.051	650.91667
2391.524	639.58333
2393.995	636.91667
2396.464	615.91667
2398.932	617.91667
2401.398	612.25
2403.863	619.58333
2406.325	619.58333
2408.787	623.25
2411.246	617.58333
2413.704	610.58333
2416.16	602.91667
2418.615	599.25
2421.068	618.58333
2423.519	610.25
2425.969	607.91667
2428.417	599.91667
2430.863	623.91667
2433.308	613.25
2435.751	606.91667
2438.193	599.25
2440.633	608.25
2443.071	604.25
2445.508	589.58333
2447.943	589.25
2450.376	576.58333
2452.808	587.91667
2455.238	579.25
2457.667	607.25
2460.093	594.25
2462.519	561.25
2464.942	573.58333
2467.365	584.25
2469.785	579.91667
2472.204	588.58333
2474.621	568.25
2477.037	589.25
2479.451	566.25
2481.863	553.91667
2484.274	559.91667
2486.683	572.58333
2489.091	580.58333
2491.497	562.25
2493.901	554.25
2496.304	559.58333
2498.705	556.91667
2501.105	551.25
2503.503	585.91667
2505.899	542.58333
2508.294	567.25
2510.687	553.58333
2513.079	542.58333
2515.469	547.25
2517.858	540.58333
2520.245	551.58333
2522.63	543.25
2525.014	536.25
2527.396	536.58333
2529.776	535.58333
2532.156	540.58333
2534.533	533.58333
2536.909	530.91667
2539.283	525.91667
2541.656	520.25
2544.027	547.25
2546.397	522.58333
2548.765	526.91667
2551.131	527.58333
2553.496	530.25
2555.86	534.58333
2558.221	524.58333
2560.582	529.25
2562.94	517.25
2565.298	528.25
2567.653	539.91667
2570.007	498.91667
2572.36	527.91667
2574.711	519.58333
2577.06	523.58333
2579.408	513.58333
2581.754	513.91667
2584.099	512.58333
2586.442	511.58333
2588.784	516.25
2591.124	518.25
2593.463	505.91667
2595.8	512.25
2598.135	501.58333
2600.469	501.25
2602.802	521.25
2605.133	515.58333
2607.462	502.25
2609.79	503.25
2612.116	507.25
2614.441	510.25
2616.764	507.25
2619.086	503.58333
2621.406	500.91667
2623.725	512.91667
2626.042	503.25
2628.358	494.91667
2630.672	510.58333
2632.985	510.25
2635.296	506.58333
2637.606	504.25
2639.914	505.58333
2642.22	493.91667
2644.525	504.91667
2646.829	510.58333
2649.131	511.91667
2651.432	517.58333
2653.731	503.58333
2656.028	521.58333
2658.324	498.25
2660.619	498.25
2662.912	509.58333
2665.204	496.91667
2667.494	514.91667
2669.782	501.58333
2672.07	507.58333
2674.355	523.91667
2676.639	510.58333
2678.922	499.91667
2681.203	510.91667
2683.483	493.25
2685.761	493.58333
2688.038	510.58333
2690.313	513.58333
2692.587	509.91667
2694.859	514.25
2697.13	527.91667
2699.399	517.25
2701.667	531.91667
2703.933	529.25
2706.198	528.91667
2708.461	539.25
2710.723	539.58333
2712.984	538.91667
2715.243	550.25
2717.5	538.91667
2719.757	558.58333
2722.011	539.25
2724.264	547.25
2726.516	580.58333
2728.766	561.58333
2731.015	559.91667
2733.262	550.25
2735.508	542.25
2737.753	544.25
2739.996	536.25
2742.237	520.25
2744.477	540.91667
2746.716	540.91667
2748.953	529.58333
2751.189	531.91667
2753.423	523.58333
2755.656	503.58333
2757.887	509.25
2760.117	503.25
2762.346	506.58333
2764.573	504.25
2766.798	511.91667
2769.022	520.58333
2771.245	502.25
2773.467	511.58333
2775.686	520.91667
2777.905	524.58333
2780.122	527.25
2782.337	535.91667
2784.552	533.58333
2786.764	541.58333
2788.976	546.91667
2791.186	552.58333
2793.394	559.91667
2795.601	574.25
2797.807	576.58333
2800.011	587.91667
2802.214	601.91667
2804.415	604.58333
2806.615	606.58333
2808.814	613.58333
2811.011	633.25
2813.206	634.58333
2815.401	655.25
2817.594	669.58333
2819.785	678.91667
2821.975	668.58333
2824.164	673.25
2826.351	706.25
2828.537	729.58333
2830.722	748.25
2832.905	751.25
2835.086	790.58333
2837.267	828.91667
2839.445	864.58333
2841.623	887.25
2843.799	920.91667
2845.974	968.91667
2848.147	1020.91667
2850.319	1046.91667
2852.489	1070.91667
2854.659	1090.58333
2856.826	1105.91667
2858.993	1149.58333
2861.158	1112.25
2863.321	1113.58333
2865.483	1138.25
2867.644	1147.25
2869.804	1150.91667
2871.962	1139.91667
2874.118	1137.58333
2876.274	1116.91667
2878.428	1126.25
2880.58	1119.25
2882.731	1104.91667
2884.881	1105.58333
2887.03	1121.25
2889.177	1110.91667
2891.322	1125.58333
2893.467	1112.25
2895.61	1130.91667
2897.751	1148.91667
2899.892	1142.25
2902.03	1156.91667
2904.168	1159.91667
2906.304	1155.58333
2908.439	1190.58333
2910.572	1156.25
2912.704	1176.25
2914.835	1168.91667
2916.965	1175.58333
2919.093	1188.58333
2921.219	1148.58333
2923.345	1154.91667
2925.469	1130.91667
2927.591	1117.58333
2929.712	1078.58333
2931.832	1080.25
2933.951	1037.91667
2936.068	1008.25
2938.184	975.25
2940.299	942.25
2942.412	907.58333
2944.524	863.91667
2946.634	858.25
2948.744	785.91667
2950.851	801.58333
2952.958	755.91667
2955.063	733.58333
2957.167	716.25
2959.269	684.25
2961.371	695.58333
2963.471	643.25
2965.569	645.91667
2967.666	609.58333
2969.762	598.25
2971.857	574.91667
2973.95	547.58333
2976.042	552.91667
2978.133	528.91667
2980.222	517.25
2982.31	489.91667
2984.396	465.25
2986.482	466.25
2988.566	460.25
2990.648	452.91667
2992.73	443.91667
2994.81	421.91667
2996.889	425.91667
2998.966	419.91667
3001.042	422.58333
3003.117	413.91667
3005.191	419.25
3007.263	397.25
3009.334	398.91667
3011.403	385.58333
3013.472	377.25
3015.539	370.58333
3017.604	385.25
3019.669	343.58333
3021.732	349.58333
3023.794	360.25
3025.854	332.25
3027.914	332.58333
3029.971	341.91667
3032.028	332.25
3034.083	329.58333
3036.137	333.25
3038.19	316.25
3040.242	311.25
3042.292	299.91667
3044.341	302.58333
3046.388	305.58333
3048.435	282.25
3050.48	308.58333
3052.524	300.25
3054.566	272.58333
3056.607	296.58333
3058.647	276.58333
3060.686	277.25
3062.723	255.91667
3064.759	247.91667
3066.794	0.91667
3068.828	-1.41667
3070.86	-2.41667
