-0.839	472.58333
3.438	501.91667
7.711	139.25
11.981	54.25
16.247	45.25
20.509	47.58333
24.768	40.91667
29.024	43.58333
33.276	41.58333
37.524	46.58333
41.769	37.58333
46.01	36.91667
50.247	54.25
54.481	63.58333
58.712	64.91667
62.939	49.91667
67.162	61.91667
71.382	55.25
75.599	44.25
79.812	63.91667
84.021	75.25
88.227	53.58333
92.429	62.25
96.628	51.91667
100.823	67.25
105.015	76.25
109.204	75.25
113.388	71.91667
117.57	69.91667
121.748	87.58333
125.922	80.91667
130.093	94.91667
134.261	100.25
138.425	94.58333
142.585	139.91667
146.742	133.91667
150.896	166.91667
155.046	203.91667
159.193	323.91667
163.336	562.25
167.476	1024.58333
171.613	1881.91667
175.746	3131.91667
179.875	4598.58333
184.002	5947.58333
188.124	6832.91667
192.244	7141.25
196.36	7025.58333
200.472	6783.58333
204.581	6573.58333
208.687	6374.25
212.79	6243.91667
216.889	6233.91667
220.984	6264.58333
225.077	6250.91667
229.165	6305.91667
233.251	6276.58333
237.333	6318.25
241.412	6249.91667
245.487	6224.25
249.559	6118.25
253.628	6064.25
257.694	5969.91667
261.756	5926.58333
265.814	5773.25
269.87	5607.58333
273.922	5441.25
277.97	5369.25
282.016	5270.25
286.058	5307.25
290.097	5326.25
294.132	5323.91667
298.164	5203.91667
302.193	4994.58333
306.219	4623.58333
310.241	4221.25
314.26	3881.91667
318.276	3565.25
322.288	3355.58333
326.297	3177.25
330.303	3047.58333
334.305	2973.58333
338.305	2888.25
342.301	2849.58333
346.294	2832.58333
350.283	2803.91667
354.269	2779.58333
358.252	2734.58333
362.232	2728.91667
366.209	2720.58333
370.182	2697.25
374.152	2670.58333
378.119	2682.91667
382.083	2668.91667
386.043	2697.25
390	2649.91667
393.954	2628.58333
397.905	2611.91667
401.852	2593.58333
405.797	2553.91667
409.738	2528.58333
413.676	2528.91667
417.61	2504.58333
421.542	2471.58333
425.47	2449.91667
429.396	2453.58333
433.318	2418.91667
437.236	2416.58333
441.152	2423.91667
445.065	2367.25
448.974	2374.58333
452.88	2353.25
456.783	2334.25
460.683	2314.91667
464.58	2328.58333
468.473	2329.58333
472.364	2321.58333
476.251	2333.58333
480.135	2353.91667
484.016	2392.25
487.894	2413.58333
491.769	2397.91667
495.641	2386.91667
499.509	2393.91667
503.375	2411.25
507.237	2415.58333
511.096	2392.25
514.952	2483.91667
518.805	2542.58333
522.655	2599.25
526.502	2413.25
530.346	2374.25
534.187	2394.58333
538.024	2389.58333
541.859	2367.25
545.69	2398.25
549.519	2389.91667
553.344	2351.91667
557.166	2340.58333
560.985	2299.58333
564.802	2272.25
568.615	2239.91667
572.425	2216.91667
576.232	2199.25
580.036	2180.25
583.836	2204.91667
587.634	2205.91667
591.429	2186.25
595.221	2250.91667
599.01	2262.25
602.796	2279.91667
606.578	2307.58333
610.358	2321.58333
614.135	2319.25
617.909	2303.25
621.679	2284.25
625.447	2270.91667
629.212	2280.58333
632.973	2279.91667
636.732	2261.25
640.488	2262.58333
644.241	2236.91667
647.991	2243.91667
651.737	2288.91667
655.481	2234.58333
659.222	2246.91667
662.96	2227.91667
666.695	2263.25
670.427	2251.25
674.156	2259.58333
677.882	2256.58333
681.605	2256.58333
685.325	2234.25
689.043	2256.58333
692.757	2237.91667
696.468	2257.25
700.177	2259.25
703.882	2239.91667
707.585	2244.25
711.284	2239.58333
714.981	2253.58333
718.675	2252.25
722.366	2289.58333
726.054	2262.25
729.739	2244.58333
733.421	2251.25
737.1	2234.25
740.777	2276.91667
744.45	2274.91667
748.121	2286.91667
751.789	2355.58333
755.453	2333.25
759.115	2359.91667
762.774	2363.25
766.431	2389.25
770.084	2418.25
773.734	2428.25
777.382	2501.91667
781.027	2515.58333
784.669	2510.58333
788.308	2536.58333
791.944	2558.25
795.577	2558.91667
799.208	2600.58333
802.835	2586.91667
806.46	2624.25
810.082	2627.25
813.701	2654.25
817.317	2693.91667
820.931	2685.58333
824.542	2664.58333
828.149	2634.58333
831.754	2601.91667
835.357	2605.58333
838.956	2612.25
842.553	2593.91667
846.146	2581.58333
849.737	2580.58333
853.326	2596.91667
856.911	2589.25
860.493	2620.25
864.073	2651.58333
867.65	2703.58333
871.225	2722.58333
874.796	2707.91667
878.365	2726.91667
881.931	2734.25
885.494	2782.25
889.054	2778.58333
892.612	2777.58333
896.166	2747.91667
899.719	2731.25
903.268	2711.58333
906.814	2668.91667
910.358	2666.91667
913.899	2640.91667
917.438	2639.25
920.973	2647.91667
924.506	2689.58333
928.036	2722.58333
931.564	2754.58333
935.088	2779.58333
938.61	2779.91667
942.129	2835.25
945.646	2874.58333
949.16	2948.58333
952.671	2998.25
956.179	3035.58333
959.685	2972.91667
963.188	2986.58333
966.688	2939.58333
970.185	2872.91667
973.68	2811.91667
977.173	2811.25
980.662	2762.91667
984.149	2765.25
987.633	2793.58333
991.114	2806.91667
994.593	2902.58333
998.069	3000.58333
1001.542	3095.91667
1005.013	3014.58333
1008.481	2857.25
1011.947	2800.25
1015.409	2793.58333
1018.869	2759.25
1022.327	2787.91667
1025.782	2771.91667
1029.234	2776.25
1032.683	2742.91667
1036.13	2647.58333
1039.574	2535.25
1043.016	2472.58333
1046.455	2445.58333
1049.891	2394.25
1053.325	2402.58333
1056.756	2397.25
1060.184	2432.25
1063.61	2435.58333
1067.033	2462.58333
1070.454	2450.25
1073.872	2488.91667
1077.287	2468.58333
1080.7	2476.91667
1084.11	2486.58333
1087.517	2484.25
1090.922	2464.25
1094.325	2422.91667
1097.724	2400.58333
1101.122	2391.25
1104.516	2403.58333
1107.908	2411.58333
1111.298	2440.25
1114.684	2485.91667
1118.069	2487.58333
1121.45	2529.25
1124.83	2517.58333
1128.206	2526.25
1131.58	2578.25
1134.951	2648.25
1138.32	2724.58333
1141.687	2844.91667
1145.05	2921.91667
1148.412	2970.58333
1151.77	2932.25
1155.126	2919.58333
1158.48	2926.25
1161.831	2946.25
1165.18	2951.58333
1168.525	2995.91667
1171.869	3018.91667
1175.21	3072.91667
1178.548	3094.25
1181.884	3107.25
1185.217	3134.58333
1188.548	3186.58333
1191.877	3254.25
1195.202	3326.91667
1198.526	3396.25
1201.846	3395.25
1205.165	3408.58333
1208.48	3390.58333
1211.794	3360.58333
1215.104	3370.91667
1218.413	3388.25
1221.719	3361.91667
1225.022	3358.91667
1228.323	3304.58333
1231.621	3319.25
1234.917	3291.58333
1238.21	3339.58333
1241.501	3306.25
1244.79	3319.58333
1248.076	3297.91667
1251.359	3346.25
1254.64	3423.58333
1257.919	3438.91667
1261.195	3496.25
1264.468	3533.58333
1267.74	3591.25
1271.008	3600.58333
1274.275	3571.91667
1277.538	3559.58333
1280.8	3523.91667
1284.059	3544.25
1287.315	3573.91667
1290.569	3559.58333
1293.821	3614.25
1297.07	3637.91667
1300.317	3643.58333
1303.562	3591.25
1306.803	3573.58333
1310.043	3562.91667
1313.28	3503.58333
1316.515	3474.25
1319.747	3435.91667
1322.977	3414.58333
1326.204	3353.25
1329.429	3315.58333
1332.652	3316.25
1335.872	3292.58333
1339.09	3261.58333
1342.306	3269.91667
1345.519	3253.25
1348.729	3227.58333
1351.938	3216.25
1355.144	3159.58333
1358.347	3107.91667
1361.548	3138.91667
1364.747	3126.91667
1367.944	3106.58333
1371.138	3127.58333
1374.329	3137.91667
1377.518	3185.25
1380.705	3234.91667
1383.89	3225.58333
1387.072	3116.91667
1390.252	3020.58333
1393.429	2905.25
1396.605	2836.91667
1399.777	2728.58333
1402.948	2703.25
1406.116	2682.25
1409.282	2684.58333
1412.445	2671.58333
1415.606	2722.91667
1418.765	2765.25
1421.921	2817.25
1425.075	2894.91667
1428.227	3018.91667
1431.376	3063.91667
1434.524	3195.91667
1437.668	3315.25
1440.811	3285.58333
1443.951	3338.25
1447.089	3356.91667
1450.224	3338.25
1453.357	3313.25
1456.488	3292.91667
1459.617	3233.25
1462.743	3211.58333
1465.867	3131.58333
1468.989	3095.25
1472.108	3033.91667
1475.225	2996.58333
1478.34	2972.58333
1481.453	2961.58333
1484.563	2985.58333
1487.671	3016.58333
1490.776	3064.91667
1493.88	3139.58333
1496.981	3216.58333
1500.08	3266.58333
1503.176	3319.25
1506.271	3347.25
1509.363	3428.58333
1512.452	3436.25
1515.54	3523.25
1518.625	3578.25
1521.708	3724.91667
1524.789	3869.91667
1527.867	4062.25
1530.944	4319.58333
1534.018	4517.25
1537.089	4687.25
1540.159	4692.58333
1543.226	4613.58333
1546.291	4429.25
1549.354	4339.58333
1552.415	4207.58333
1555.473	4101.58333
1558.529	4016.25
1561.583	3950.58333
1564.634	3909.58333
1567.684	3913.58333
1570.731	3918.58333
1573.776	3969.58333
1576.819	3985.25
1579.859	4008.25
1582.898	4044.91667
1585.934	4079.58333
1588.968	4124.91667
1591.999	4082.25
1595.029	4085.58333
1598.056	4091.91667
1601.081	4128.25
1604.104	4105.58333
1607.125	4086.58333
1610.144	3973.91667
1613.16	3894.25
1616.174	3824.25
1619.186	3716.58333
1622.196	3652.91667
1625.203	3531.25
1628.209	3508.25
1631.212	3461.58333
1634.213	3443.91667
1637.212	3419.91667
1640.209	3386.58333
1643.203	3290.58333
1646.196	3187.58333
1649.186	3065.91667
1652.174	2979.58333
1655.16	2865.58333
1658.144	2781.58333
1661.125	2651.58333
1664.105	2525.58333
1667.082	2432.58333
1670.057	2306.25
1673.03	2163.58333
1676.001	2016.58333
1678.97	1885.91667
1681.937	1783.91667
1684.901	1686.58333
1687.863	1642.91667
1690.824	1563.91667
1693.782	1533.91667
1696.738	1489.58333
1699.692	1447.58333
1702.643	1423.25
1705.593	1392.25
1708.54	1378.91667
1711.486	1383.25
1714.429	1339.25
1717.37	1330.58333
1720.309	1298.25
1723.246	1319.58333
1726.181	1276.91667
1729.113	1277.25
1732.044	1254.58333
1734.972	1244.91667
1737.899	1245.91667
1740.823	1229.91667
1743.745	1236.91667
1746.665	1199.58333
1749.583	1165.91667
1752.499	1150.58333
1755.413	1152.25
1758.325	1107.25
1761.235	1114.91667
1764.142	1090.58333
1767.048	1096.91667
1769.951	1079.91667
1772.852	1070.91667
1775.752	1073.25
1778.649	1061.58333
1781.544	1060.58333
1784.437	1033.58333
1787.328	1042.58333
1790.217	1026.91667
1793.104	1004.58333
1795.989	1012.58333
1798.872	998.58333
1801.753	1017.91667
1804.631	1022.25
1807.508	1026.91667
1810.383	1013.91667
1813.255	997.58333
1816.126	1001.58333
1818.994	989.58333
1821.861	992.58333
1824.725	988.25
1827.587	987.58333
1830.448	983.25
1833.306	953.91667
1836.162	981.58333
1839.017	954.91667
1841.869	974.58333
1844.719	952.91667
1847.567	934.25
1850.414	943.25
1853.258	955.25
1856.1	950.91667
1858.94	947.25
1861.778	935.58333
1864.614	938.25
1867.448	953.25
1870.28	923.91667
1873.111	941.58333
1875.939	932.25
1878.765	952.25
1881.589	935.91667
1884.411	929.58333
1887.231	935.25
1890.049	923.58333
1892.865	921.58333
1895.68	920.58333
1898.492	922.91667
1901.302	911.58333
1904.11	906.91667
1906.916	904.25
1909.721	898.91667
1912.523	904.58333
1915.323	888.25
1918.122	895.58333
1920.918	887.58333
1923.712	871.58333
1926.505	893.58333
1929.295	880.58333
1932.084	899.25
1934.87	890.91667
1937.655	874.58333
1940.438	875.91667
1943.218	882.58333
1945.997	870.58333
1948.774	896.25
1951.549	879.25
1954.322	875.91667
1957.093	872.58333
1959.862	862.91667
1962.629	873.58333
1965.394	863.25
1968.157	848.25
1970.918	859.91667
1973.678	858.91667
1976.435	866.58333
1979.19	844.91667
1981.944	851.25
1984.696	838.91667
1987.445	837.25
1990.193	843.91667
1992.939	858.25
1995.683	858.25
1998.425	831.91667
2001.165	847.58333
2003.903	825.58333
2006.639	830.58333
2009.374	841.91667
2012.106	841.58333
2014.837	815.25
2017.566	843.25
2020.292	842.58333
2023.017	835.58333
2025.74	829.25
2028.461	830.25
2031.18	824.58333
2033.898	812.58333
2036.613	831.25
2039.327	831.91667
2042.038	804.58333
2044.748	817.58333
2047.456	813.25
2050.162	797.58333
2052.866	807.58333
2055.568	817.25
2058.268	800.25
2060.967	806.91667
2063.663	788.91667
2066.358	801.91667
2069.051	790.91667
2071.742	809.91667
2074.431	809.91667
2077.118	813.91667
2079.804	798.91667
2082.487	801.58333
2085.169	822.91667
2087.849	831.91667
2090.527	817.91667
2093.203	835.25
2095.877	818.58333
2098.55	831.58333
2101.22	858.25
2103.889	863.91667
2106.556	869.58333
2109.221	906.58333
2111.884	938.58333
2114.546	1005.91667
2117.205	1081.25
2119.863	1207.25
2122.519	1296.58333
2125.173	1378.58333
2127.825	1461.91667
2130.475	1488.58333
2133.124	1433.58333
2135.771	1398.91667
2138.416	1320.58333
2141.059	1246.58333
2143.7	1198.91667
2146.339	1106.91667
2148.977	1035.91667
2151.613	1026.25
2154.247	995.91667
2156.879	965.91667
2159.51	950.25
2162.138	920.25
2164.765	932.58333
2167.39	902.91667
2170.013	928.25
2172.634	917.91667
2175.254	897.91667
2177.872	919.25
2180.488	893.91667
2183.102	896.91667
2185.714	872.91667
2188.325	839.58333
2190.934	848.25
2193.541	833.91667
2196.146	812.58333
2198.75	800.91667
2201.351	790.91667
2203.951	765.58333
2206.549	783.25
2209.146	765.91667
2211.74	752.58333
2214.333	776.91667
2216.924	744.25
2219.514	750.25
2222.101	741.58333
2224.687	750.91667
2227.271	726.58333
2229.853	729.25
2232.433	717.25
2235.012	740.58333
2237.589	739.58333
2240.164	743.91667
2242.738	723.25
2245.309	718.25
2247.879	722.25
2250.448	729.91667
2253.014	692.25
2255.579	702.58333
2258.142	698.58333
2260.703	677.91667
2263.262	689.91667
2265.82	682.58333
2268.376	681.25
2270.93	680.25
2273.483	667.91667
2276.033	681.58333
2278.583	674.25
2281.13	655.25
2283.675	653.25
2286.219	661.91667
2288.761	659.25
2291.302	665.58333
2293.841	656.58333
2296.377	647.25
2298.913	645.91667
2301.446	651.58333
2303.978	649.91667
2306.508	641.58333
2309.037	647.25
2311.563	641.25
2314.088	662.91667
2316.612	633.58333
2319.133	648.25
2321.653	641.25
2324.171	636.58333
2326.688	643.58333
2329.202	627.58333
2331.715	643.25
2334.227	643.25
2336.736	627.58333
2339.244	628.91667
2341.751	627.91667
2344.255	630.58333
2346.758	624.91667
2349.259	613.91667
2351.759	621.25
2354.257	622.58333
2356.753	616.25
2359.247	628.91667
2361.74	636.91667
2364.231	623.58333
2366.721	619.91667
2369.209	629.25
2371.695	626.25
2374.179	620.25
2376.662	627.91667
2379.143	647.91667
2381.622	620.91667
2384.1	627.58333
2386.576	615.58333
2389.051	623.25
2391.524	633.25
2393.995	628.25
2396.464	615.25
2398.932	613.58333
2401.398	620.25
2403.863	620.25
2406.325	601.25
2408.787	617.91667
2411.246	617.91667
2413.704	618.58333
2416.16	610.25
2418.615	603.91667
2421.068	619.25
2423.519	621.58333
2425.969	608.91667
2428.417	623.25
2430.863	637.91667
2433.308	630.91667
2435.751	617.91667
2438.193	617.91667
2440.633	616.91667
2443.071	614.91667
2445.508	608.58333
2447.943	609.58333
2450.376	595.25
2452.808	612.25
2455.238	595.91667
2457.667	637.58333
2460.093	611.25
2462.519	599.58333
2464.942	603.25
2467.365	616.58333
2469.785	602.25
2472.204	616.25
2474.621	597.58333
2477.037	621.58333
2479.451	595.25
2481.863	596.25
2484.274	600.58333
2486.683	607.25
2489.091	610.58333
2491.497	602.91667
2493.901	593.25
2496.304	601.25
2498.705	619.91667
2501.105	600.91667
2503.503	631.58333
2505.899	595.58333
2508.294	625.91667
2510.687	597.58333
2513.079	599.25
2515.469	601.58333
2517.858	605.25
2520.245	623.25
2522.63	597.91667
2525.014	596.91667
2527.396	596.91667
2529.776	592.25
2532.156	617.25
2534.533	593.25
2536.909	604.91667
2539.283	589.91667
2541.656	595.91667
2544.027	619.25
2546.397	617.25
2548.765	602.91667
2551.131	593.25
2553.496	598.58333
2555.86	604.91667
2558.221	618.25
2560.582	609.91667
2562.94	600.25
2565.298	600.91667
2567.653	622.58333
2570.007	595.91667
2572.36	614.58333
2574.711	598.25
2577.06	625.91667
2579.408	605.25
2581.754	612.25
2584.099	613.91667
2586.442	599.25
2588.784	611.25
2591.124	606.91667
2593.463	597.91667
2595.8	602.25
2598.135	593.25
2600.469	602.91667
2602.802	630.58333
2605.133	618.91667
2607.462	604.91667
2609.79	610.58333
2612.116	613.91667
2614.441	622.25
2616.764	626.25
2619.086	617.25
2621.406	619.91667
2623.725	633.91667
2626.042	618.25
2628.358	629.91667
2630.672	619.58333
2632.985	640.25
2635.296	637.58333
2637.606	641.58333
2639.914	625.25
2642.22	628.58333
2644.525	623.25
2646.829	641.25
2649.131	647.58333
2651.432	647.91667
2653.731	646.58333
2656.028	657.25
2658.324	651.25
2660.619	637.25
2662.912	654.91667
2665.204	642.91667
2667.494	657.25
2669.782	645.91667
2672.07	649.58333
2674.355	666.91667
2676.639	654.25
2678.922	649.25
2681.203	652.91667
2683.483	645.25
2685.761	646.58333
2688.038	656.25
2690.313	663.58333
2692.587	656.25
2694.859	662.25
2697.13	666.58333
2699.399	672.91667
2701.667	687.58333
2703.933	684.91667
2706.198	676.25
2708.461	685.91667
2710.723	700.25
2712.984	695.91667
2715.243	705.25
2717.5	697.91667
2719.757	712.25
2722.011	712.58333
2724.264	726.91667
2726.516	737.91667
2728.766	714.91667
2731.015	721.91667
2733.262	722.91667
2735.508	721.25
2737.753	710.58333
2739.996	697.25
2742.237	703.91667
2744.477	713.91667
2746.716	711.58333
2748.953	711.25
2751.189	708.91667
2753.423	700.58333
2755.656	697.91667
2757.887	695.58333
2760.117	705.25
2762.346	699.91667
2764.573	684.58333
2766.798	694.58333
2769.022	709.91667
2771.245	707.91667
2773.467	713.25
2775.686	697.91667
2777.905	704.91667
2780.122	718.91667
2782.337	721.58333
2784.552	720.58333
2786.764	727.25
2788.976	739.91667
2791.186	739.25
2793.394	747.25
2795.601	763.91667
2797.807	762.25
2800.011	770.25
2802.214	786.58333
2804.415	786.25
2806.615	784.58333
2808.814	802.25
2811.011	811.91667
2813.206	806.91667
2815.401	827.25
2817.594	832.58333
2819.785	843.91667
2821.975	826.25
2824.164	847.58333
2826.351	848.25
2828.537	878.91667
2830.722	887.91667
2832.905	901.25
2835.086	938.91667
2837.267	966.58333
2839.445	997.58333
2841.623	997.91667
2843.799	1044.58333
2845.974	1061.58333
2848.147	1096.91667
2850.319	1132.25
2852.489	1156.25
2854.659	1163.91667
2856.826	1180.58333
2858.993	1204.58333
2861.158	1196.25
2863.321	1190.91667
2865.483	1207.25
2867.644	1211.58333
2869.804	1213.25
2871.962	1200.58333
2874.118	1201.25
2876.274	1195.91667
2878.428	1193.58333
2880.58	1179.25
2882.731	1172.25
2884.881	1183.25
2887.03	1204.58333
2889.177	1190.25
2891.322	1203.58333
2893.467	1194.58333
2895.61	1201.58333
2897.751	1219.25
2899.892	1201.25
2902.03	1226.58333
2904.168	1235.91667
2906.304	1241.25
2908.439	1272.91667
2910.572	1246.58333
2912.704	1258.25
2914.835	1267.25
2916.965	1267.91667
2919.093	1283.25
2921.219	1245.91667
2923.345	1255.25
2925.469	1219.25
2927.591	1228.25
2929.712	1169.25
2931.832	1173.25
2933.951	1161.25
2936.068	1139.91667
2938.184	1128.91667
2940.299	1084.91667
2942.412	1068.91667
2944.524	1030.91667
2946.634	1036.91667
2948.744	973.25
2950.851	1010.58333
2952.958	959.91667
2955.063	958.58333
2957.167	941.91667
2959.269	908.58333
2961.371	920.91667
2963.471	886.25
2965.569	890.91667
2967.666	854.91667
2969.762	855.58333
2971.857	839.58333
2973.95	816.25
2976.042	820.25
2978.133	796.25
2980.222	783.91667
2982.31	763.91667
2984.396	733.91667
2986.482	746.91667
2988.566	751.91667
2990.648	731.91667
2992.73	734.91667
2994.81	714.58333
2996.889	729.91667
2998.966	720.58333
3001.042	733.25
3003.117	712.58333
3005.191	720.58333
3007.263	708.58333
3009.334	712.25
3011.403	699.91667
3013.472	671.91667
3015.539	676.25
3017.604	681.25
3019.669	656.25
3021.732	651.58333
3023.794	668.25
3025.854	653.25
3027.914	647.91667
3029.971	645.58333
3032.028	648.58333
3034.083	640.25
3036.137	641.25
3038.19	613.25
3040.242	607.25
3042.292	592.91667
3044.341	591.91667
3046.388	603.91667
3048.435	565.58333
3050.48	593.25
3052.524	578.91667
3054.566	562.25
3056.607	570.58333
3058.647	551.91667
3060.686	528.58333
3062.723	517.58333
3064.759	509.58333
3066.794	0.58333
3068.828	-1.41667
3070.86	-2.08333
