-0.839	465.5
3.438	501.83333
7.711	144.5
11.981	52.83333
16.247	42.5
20.509	45.83333
24.768	43.16667
29.024	44.16667
33.276	43.83333
37.524	47.5
41.769	38.83333
46.01	33.5
50.247	47.16667
54.481	54.16667
58.712	63.83333
62.939	47.83333
67.162	60.5
71.382	54.83333
75.599	48.16667
79.812	60.5
84.021	79.5
88.227	54.83333
92.429	62.16667
96.628	50.16667
100.823	64.5
105.015	75.16667
109.204	75.5
113.388	79.5
117.57	69.83333
121.748	88.83333
125.922	78.16667
130.093	100.5
134.261	109.16667
138.425	99.16667
142.585	135.16667
146.742	139.16667
150.896	159.16667
155.046	198.83333
159.193	320.5
163.336	552.83333
167.476	1021.5
171.613	1864.5
175.746	3121.16667
179.875	4592.83333
184.002	5965.16667
188.124	6842.83333
192.244	7148.5
196.36	7064.5
200.472	6801.5
204.581	6575.5
208.687	6327.16667
212.79	6272.83333
216.889	6231.5
220.984	6257.83333
225.077	6282.16667
229.165	6286.16667
233.251	6318.16667
237.333	6317.16667
241.412	6287.16667
245.487	6229.16667
249.559	6124.83333
253.628	6093.5
257.694	5982.16667
261.756	5906.83333
265.814	5801.5
269.87	5603.5
273.922	5460.83333
277.97	5341.16667
282.016	5275.16667
286.058	5264.16667
290.097	5331.16667
294.132	5327.16667
298.164	5213.5
302.193	4974.16667
306.219	4625.5
310.241	4236.5
314.26	3863.16667
318.276	3578.5
322.288	3351.83333
326.297	3190.83333
330.303	3054.83333
334.305	2954.83333
338.305	2911.16667
342.301	2862.16667
346.294	2818.83333
350.283	2822.5
354.269	2789.83333
358.252	2771.16667
362.232	2753.5
366.209	2737.16667
370.182	2704.16667
374.152	2688.16667
378.119	2696.83333
382.083	2666.16667
386.043	2709.83333
390	2674.16667
393.954	2651.5
397.905	2606.83333
401.852	2602.16667
405.797	2562.5
409.738	2530.83333
413.676	2536.5
417.61	2504.5
421.542	2481.5
425.47	2475.16667
429.396	2439.5
433.318	2435.5
437.236	2418.5
441.152	2429.5
445.065	2357.83333
448.974	2379.83333
452.88	2353.5
456.783	2331.16667
460.683	2334.83333
464.58	2341.5
468.473	2340.83333
472.364	2336.83333
476.251	2347.83333
480.135	2391.83333
484.016	2388.16667
487.894	2418.16667
491.769	2423.16667
495.641	2407.16667
499.509	2403.16667
503.375	2388.5
507.237	2393.83333
511.096	2431.5
514.952	2495.83333
518.805	2573.83333
522.655	2586.5
526.502	2469.83333
530.346	2386.83333
534.187	2409.16667
538.024	2370.5
541.859	2386.16667
545.69	2420.83333
549.519	2391.83333
553.344	2388.16667
557.166	2333.83333
560.985	2313.83333
564.802	2285.5
568.615	2240.5
572.425	2223.5
576.232	2211.83333
580.036	2197.16667
583.836	2227.83333
587.634	2206.16667
591.429	2202.16667
595.221	2251.16667
599.01	2274.83333
602.796	2291.5
606.578	2338.16667
610.358	2324.16667
614.135	2287.16667
617.909	2299.83333
621.679	2319.5
625.447	2268.5
629.212	2282.83333
632.973	2287.5
636.732	2283.5
640.488	2281.16667
644.241	2255.83333
647.991	2256.83333
651.737	2275.83333
655.481	2243.16667
659.222	2245.16667
662.96	2235.83333
666.695	2268.5
670.427	2261.5
674.156	2265.16667
677.882	2257.5
681.605	2241.83333
685.325	2262.83333
689.043	2239.83333
692.757	2262.5
696.468	2264.83333
700.177	2259.5
703.882	2242.5
707.585	2253.83333
711.284	2256.83333
714.981	2250.83333
718.675	2282.83333
722.366	2275.83333
726.054	2255.16667
729.739	2263.16667
733.421	2261.16667
737.1	2239.5
740.777	2266.5
744.45	2287.83333
748.121	2312.16667
751.789	2337.16667
755.453	2350.5
759.115	2339.83333
762.774	2381.5
766.431	2403.5
770.084	2417.5
773.734	2453.83333
777.382	2502.16667
781.027	2514.16667
784.669	2522.83333
788.308	2529.16667
791.944	2540.5
795.577	2558.16667
799.208	2602.16667
802.835	2615.16667
806.46	2619.83333
810.082	2639.16667
813.701	2644.5
817.317	2690.5
820.931	2696.5
824.542	2696.16667
828.149	2646.16667
831.754	2626.16667
835.357	2603.5
838.956	2602.83333
842.553	2586.83333
846.146	2586.16667
849.737	2573.5
853.326	2574.83333
856.911	2603.83333
860.493	2647.16667
864.073	2646.5
867.65	2695.83333
871.225	2724.83333
874.796	2718.83333
878.365	2737.16667
881.931	2765.16667
885.494	2775.5
889.054	2768.83333
892.612	2762.83333
896.166	2739.83333
899.719	2726.5
903.268	2705.5
906.814	2670.5
910.358	2678.16667
913.899	2642.83333
917.438	2661.5
920.973	2655.5
924.506	2680.5
928.036	2728.16667
931.564	2748.5
935.088	2785.83333
938.61	2781.83333
942.129	2833.83333
945.646	2874.16667
949.16	2953.83333
952.671	3019.83333
956.179	3023.5
959.685	2995.83333
963.188	2952.83333
966.688	2940.16667
970.185	2832.16667
973.68	2826.83333
977.173	2803.5
980.662	2755.16667
984.149	2775.83333
987.633	2792.83333
991.114	2831.83333
994.593	2924.83333
998.069	3005.5
1001.542	3081.83333
1005.013	3014.83333
1008.481	2860.83333
1011.947	2794.83333
1015.409	2786.5
1018.869	2784.16667
1022.327	2794.5
1025.782	2761.16667
1029.234	2782.83333
1032.683	2743.5
1036.13	2643.83333
1039.574	2548.16667
1043.016	2475.5
1046.455	2429.16667
1049.891	2391.16667
1053.325	2409.16667
1056.756	2426.83333
1060.184	2445.16667
1063.61	2437.5
1067.033	2463.16667
1070.454	2458.5
1073.872	2504.83333
1077.287	2492.5
1080.7	2507.16667
1084.11	2504.83333
1087.517	2485.5
1090.922	2463.83333
1094.325	2416.5
1097.724	2423.5
1101.122	2423.16667
1104.516	2390.5
1107.908	2415.83333
1111.298	2458.83333
1114.684	2442.83333
1118.069	2484.83333
1121.45	2536.5
1124.83	2500.83333
1128.206	2523.83333
1131.58	2572.83333
1134.951	2655.5
1138.32	2712.16667
1141.687	2861.5
1145.05	2915.16667
1148.412	2939.16667
1151.77	2938.83333
1155.126	2931.5
1158.48	2914.16667
1161.831	2939.83333
1165.18	2955.16667
1168.525	3001.5
1171.869	3033.83333
1175.21	3073.16667
1178.548	3110.5
1181.884	3114.5
1185.217	3140.16667
1188.548	3192.16667
1191.877	3244.83333
1195.202	3305.83333
1198.526	3377.16667
1201.846	3361.5
1205.165	3377.5
1208.48	3353.83333
1211.794	3369.16667
1215.104	3357.16667
1218.413	3383.83333
1221.719	3381.16667
1225.022	3335.83333
1228.323	3305.5
1231.621	3281.83333
1234.917	3314.16667
1238.21	3318.5
1241.501	3294.16667
1244.79	3286.5
1248.076	3307.16667
1251.359	3337.16667
1254.64	3419.83333
1257.919	3420.16667
1261.195	3453.16667
1264.468	3550.16667
1267.74	3600.83333
1271.008	3593.5
1274.275	3587.5
1277.538	3554.83333
1280.8	3548.5
1284.059	3561.83333
1287.315	3561.83333
1290.569	3616.5
1293.821	3623.83333
1297.07	3617.5
1300.317	3649.83333
1303.562	3614.5
1306.803	3604.16667
1310.043	3551.16667
1313.28	3504.5
1316.515	3469.83333
1319.747	3451.16667
1322.977	3408.16667
1326.204	3365.5
1329.429	3298.5
1332.652	3301.83333
1335.872	3304.16667
1339.09	3277.5
1342.306	3277.5
1345.519	3244.5
1348.729	3220.83333
1351.938	3221.5
1355.144	3158.83333
1358.347	3127.16667
1361.548	3136.83333
1364.747	3117.5
1367.944	3116.83333
1371.138	3136.83333
1374.329	3162.16667
1377.518	3193.16667
1380.705	3251.83333
1383.89	3217.5
1387.072	3117.16667
1390.252	3007.83333
1393.429	2893.83333
1396.605	2823.16667
1399.777	2739.83333
1402.948	2690.5
1406.116	2650.16667
1409.282	2686.16667
1412.445	2684.16667
1415.606	2725.5
1418.765	2726.5
1421.921	2812.83333
1425.075	2886.5
1428.227	2983.83333
1431.376	3104.5
1434.524	3233.5
1437.668	3271.5
1440.811	3337.5
1443.951	3354.83333
1447.089	3360.83333
1450.224	3325.83333
1453.357	3329.83333
1456.488	3315.16667
1459.617	3248.5
1462.743	3227.83333
1465.867	3127.83333
1468.989	3088.5
1472.108	3040.83333
1475.225	3015.16667
1478.34	2968.5
1481.453	2959.16667
1484.563	2980.83333
1487.671	3035.83333
1490.776	3067.5
1493.88	3124.83333
1496.981	3217.83333
1500.08	3262.16667
1503.176	3300.83333
1506.271	3361.16667
1509.363	3416.83333
1512.452	3433.83333
1515.54	3502.16667
1518.625	3564.83333
1521.708	3732.5
1524.789	3858.16667
1527.867	4065.83333
1530.944	4307.83333
1534.018	4515.83333
1537.089	4693.5
1540.159	4680.16667
1543.226	4603.83333
1546.291	4458.5
1549.354	4345.16667
1552.415	4209.5
1555.473	4075.83333
1558.529	3984.83333
1561.583	3948.16667
1564.634	3905.5
1567.684	3916.83333
1570.731	3909.83333
1573.776	3947.83333
1576.819	3978.5
1579.859	4016.5
1582.898	4055.16667
1585.934	4080.83333
1588.968	4114.16667
1591.999	4103.16667
1595.029	4060.83333
1598.056	4110.16667
1601.081	4123.83333
1604.104	4121.16667
1607.125	4058.5
1610.144	3990.5
1613.16	3911.5
1616.174	3823.83333
1619.186	3729.16667
1622.196	3643.83333
1625.203	3551.5
1628.209	3475.16667
1631.212	3467.16667
1634.213	3435.16667
1637.212	3432.16667
1640.209	3380.83333
1643.203	3298.16667
1646.196	3193.16667
1649.186	3064.83333
1652.174	2989.83333
1655.16	2884.83333
1658.144	2805.5
1661.125	2675.83333
1664.105	2542.5
1667.082	2435.5
1670.057	2291.16667
1673.03	2159.83333
1676.001	2026.5
1678.97	1878.16667
1681.937	1788.83333
1684.901	1702.16667
1687.863	1636.83333
1690.824	1554.16667
1693.782	1545.5
1696.738	1481.16667
1699.692	1460.83333
1702.643	1420.5
1705.593	1403.83333
1708.54	1377.16667
1711.486	1383.16667
1714.429	1340.83333
1717.37	1335.5
1720.309	1305.16667
1723.246	1318.5
1726.181	1271.16667
1729.113	1288.16667
1732.044	1257.5
1734.972	1259.5
1737.899	1255.5
1740.823	1243.83333
1743.745	1251.16667
1746.665	1212.16667
1749.583	1181.83333
1752.499	1164.83333
1755.413	1164.16667
1758.325	1127.16667
1761.235	1118.83333
1764.142	1111.83333
1767.048	1091.5
1769.951	1079.83333
1772.852	1073.83333
1775.752	1067.83333
1778.649	1069.5
1781.544	1068.83333
1784.437	1025.83333
1787.328	1062.16667
1790.217	1042.16667
1793.104	1008.83333
1795.989	1018.5
1798.872	1007.16667
1801.753	1022.16667
1804.631	1020.83333
1807.508	1039.16667
1810.383	1009.16667
1813.255	1005.83333
1816.126	1005.5
1818.994	1000.5
1821.861	993.16667
1824.725	993.16667
1827.587	987.5
1830.448	978.83333
1833.306	960.5
1836.162	970.16667
1839.017	953.5
1841.869	967.83333
1844.719	956.5
1847.567	951.83333
1850.414	946.5
1853.258	942.5
1856.1	959.5
1858.94	954.5
1861.778	953.83333
1864.614	947.16667
1867.448	952.83333
1870.28	940.83333
1873.111	955.83333
1875.939	938.5
1878.765	947.16667
1881.589	933.16667
1884.411	932.16667
1887.231	940.5
1890.049	934.16667
1892.865	942.5
1895.68	915.83333
1898.492	922.83333
1901.302	919.83333
1904.11	910.5
1906.916	896.5
1909.721	899.5
1912.523	917.83333
1915.323	891.83333
1918.122	899.5
1920.918	910.5
1923.712	883.5
1926.505	904.16667
1929.295	867.5
1932.084	889.5
1934.87	902.83333
1937.655	882.16667
1940.438	864.16667
1943.218	882.83333
1945.997	890.83333
1948.774	889.16667
1951.549	884.5
1954.322	879.16667
1957.093	886.83333
1959.862	870.5
1962.629	867.83333
1965.394	874.16667
1968.157	852.83333
1970.918	872.16667
1973.678	865.16667
1976.435	855.5
1979.19	859.16667
1981.944	853.16667
1984.696	853.83333
1987.445	845.16667
1990.193	843.16667
1992.939	864.5
1995.683	844.16667
1998.425	823.83333
2001.165	852.83333
2003.903	823.5
2006.639	836.83333
2009.374	833.5
2012.106	848.16667
2014.837	823.16667
2017.566	842.83333
2020.292	850.16667
2023.017	822.16667
2025.74	826.5
2028.461	828.16667
2031.18	822.83333
2033.898	822.5
2036.613	825.83333
2039.327	819.16667
2042.038	820.5
2044.748	811.16667
2047.456	818.5
2050.162	797.5
2052.866	801.16667
2055.568	813.83333
2058.268	807.5
2060.967	808.83333
2063.663	790.5
2066.358	795.83333
2069.051	800.83333
2071.742	803.16667
2074.431	809.16667
2077.118	802.83333
2079.804	793.83333
2082.487	806.5
2085.169	819.83333
2087.849	829.16667
2090.527	796.83333
2093.203	825.16667
2095.877	824.83333
2098.55	830.5
2101.22	863.83333
2103.889	864.5
2106.556	871.16667
2109.221	907.16667
2111.884	945.83333
2114.546	1017.83333
2117.205	1097.83333
2119.863	1180.16667
2122.519	1275.16667
2125.173	1393.5
2127.825	1464.83333
2130.475	1496.5
2133.124	1446.5
2135.771	1397.83333
2138.416	1337.16667
2141.059	1246.5
2143.7	1195.5
2146.339	1105.5
2148.977	1046.16667
2151.613	1021.5
2154.247	994.16667
2156.879	966.83333
2159.51	947.5
2162.138	923.16667
2164.765	927.5
2167.39	907.83333
2170.013	920.16667
2172.634	925.5
2175.254	901.16667
2177.872	923.5
2180.488	882.16667
2183.102	892.83333
2185.714	854.5
2188.325	838.5
2190.934	837.5
2193.541	852.16667
2196.146	821.5
2198.75	804.83333
2201.351	798.5
2203.951	764.5
2206.549	793.16667
2209.146	772.5
2211.74	768.16667
2214.333	766.5
2216.924	746.5
2219.514	759.83333
2222.101	739.16667
2224.687	743.16667
2227.271	722.83333
2229.853	736.83333
2232.433	727.5
2235.012	745.5
2237.589	734.16667
2240.164	738.16667
2242.738	726.16667
2245.309	728.5
2247.879	724.16667
2250.448	719.5
2253.014	707.83333
2255.579	696.83333
2258.142	697.5
2260.703	676.5
2263.262	683.16667
2265.82	676.83333
2268.376	689.16667
2270.93	689.16667
2273.483	670.16667
2276.033	672.83333
2278.583	663.83333
2281.13	672.5
2283.675	660.16667
2286.219	677.83333
2288.761	663.16667
2291.302	662.5
2293.841	669.5
2296.377	641.5
2298.913	657.16667
2301.446	663.16667
2303.978	652.83333
2306.508	651.16667
2309.037	641.5
2311.563	651.83333
2314.088	657.83333
2316.612	640.5
2319.133	650.5
2321.653	640.5
2324.171	642.16667
2326.688	647.83333
2329.202	635.83333
2331.715	642.16667
2334.227	638.16667
2336.736	624.5
2339.244	624.5
2341.751	621.83333
2344.255	627.16667
2346.758	622.16667
2349.259	615.16667
2351.759	627.83333
2354.257	624.5
2356.753	614.16667
2359.247	620.5
2361.74	636.83333
2364.231	612.16667
2366.721	623.83333
2369.209	621.16667
2371.695	623.83333
2374.179	616.83333
2376.662	624.5
2379.143	629.83333
2381.622	616.83333
2384.1	619.5
2386.576	609.16667
2389.051	631.16667
2391.524	636.16667
2393.995	634.83333
2396.464	621.83333
2398.932	607.83333
2401.398	630.16667
2403.863	612.5
2406.325	614.16667
2408.787	603.83333
2411.246	609.5
2413.704	605.5
2416.16	604.5
2418.615	620.16667
2421.068	611.5
2423.519	614.83333
2425.969	605.5
2428.417	622.83333
2430.863	641.83333
2433.308	626.83333
2435.751	614.5
2438.193	610.83333
2440.633	616.16667
2443.071	619.5
2445.508	605.83333
2447.943	610.16667
2450.376	602.16667
2452.808	610.16667
2455.238	592.83333
2457.667	626.16667
2460.093	606.5
2462.519	603.83333
2464.942	605.5
2467.365	607.83333
2469.785	617.5
2472.204	607.16667
2474.621	598.5
2477.037	622.16667
2479.451	591.5
2481.863	592.83333
2484.274	605.5
2486.683	611.16667
2489.091	612.16667
2491.497	611.5
2493.901	601.16667
2496.304	607.5
2498.705	615.16667
2501.105	595.83333
2503.503	632.83333
2505.899	603.16667
2508.294	617.83333
2510.687	595.5
2513.079	594.83333
2515.469	595.16667
2517.858	600.5
2520.245	622.16667
2522.63	605.16667
2525.014	591.5
2527.396	596.83333
2529.776	600.83333
2532.156	601.83333
2534.533	587.16667
2536.909	599.16667
2539.283	588.83333
2541.656	596.16667
2544.027	619.5
2546.397	613.5
2548.765	602.5
2551.131	606.83333
2553.496	608.16667
2555.86	608.5
2558.221	601.5
2560.582	598.83333
2562.94	583.5
2565.298	607.83333
2567.653	620.5
2570.007	590.5
2572.36	615.5
2574.711	599.83333
2577.06	624.83333
2579.408	616.5
2581.754	621.83333
2584.099	604.5
2586.442	609.5
2588.784	611.83333
2591.124	614.16667
2593.463	605.83333
2595.8	620.83333
2598.135	597.5
2600.469	609.5
2602.802	621.16667
2605.133	619.16667
2607.462	602.16667
2609.79	612.5
2612.116	612.5
2614.441	616.16667
2616.764	622.5
2619.086	610.16667
2621.406	610.16667
2623.725	629.16667
2626.042	627.5
2628.358	618.83333
2630.672	623.83333
2632.985	635.16667
2635.296	628.16667
2637.606	627.83333
2639.914	620.5
2642.22	627.5
2644.525	624.5
2646.829	642.16667
2649.131	643.5
2651.432	654.5
2653.731	633.5
2656.028	655.83333
2658.324	637.5
2660.619	641.83333
2662.912	660.5
2665.204	634.83333
2667.494	657.16667
2669.782	643.83333
2672.07	653.16667
2674.355	660.5
2676.639	648.83333
2678.922	651.83333
2681.203	663.5
2683.483	646.5
2685.761	643.5
2688.038	662.83333
2690.313	669.83333
2692.587	664.16667
2694.859	658.83333
2697.13	662.16667
2699.399	659.83333
2701.667	684.16667
2703.933	689.5
2706.198	681.16667
2708.461	687.5
2710.723	694.5
2712.984	680.16667
2715.243	699.16667
2717.5	707.5
2719.757	711.5
2722.011	701.83333
2724.264	707.5
2726.516	731.16667
2728.766	711.5
2731.015	715.83333
2733.262	709.16667
2735.508	709.83333
2737.753	715.83333
2739.996	704.5
2742.237	704.5
2744.477	718.5
2746.716	710.5
2748.953	706.16667
2751.189	713.5
2753.423	713.16667
2755.656	693.16667
2757.887	691.16667
2760.117	686.16667
2762.346	679.83333
2764.573	682.83333
2766.798	692.5
2769.022	694.16667
2771.245	689.5
2773.467	694.5
2775.686	697.83333
2777.905	698.5
2780.122	724.83333
2782.337	724.83333
2784.552	720.83333
2786.764	732.16667
2788.976	735.83333
2791.186	736.16667
2793.394	742.5
2795.601	744.5
2797.807	760.16667
2800.011	774.5
2802.214	777.16667
2804.415	774.5
2806.615	770.5
2808.814	788.5
2811.011	803.16667
2813.206	800.16667
2815.401	829.16667
2817.594	838.5
2819.785	853.83333
2821.975	827.5
2824.164	831.16667
2826.351	858.83333
2828.537	880.16667
2830.722	886.83333
2832.905	904.5
2835.086	932.5
2837.267	959.5
2839.445	988.16667
2841.623	994.83333
2843.799	1029.16667
2845.974	1079.83333
2848.147	1088.16667
2850.319	1122.16667
2852.489	1147.5
2854.659	1159.5
2856.826	1194.16667
2858.993	1204.83333
2861.158	1201.16667
2863.321	1198.16667
2865.483	1223.16667
2867.644	1204.16667
2869.804	1204.83333
2871.962	1187.5
2874.118	1217.16667
2876.274	1192.83333
2878.428	1192.16667
2880.58	1185.5
2882.731	1174.83333
2884.881	1179.83333
2887.03	1179.16667
2889.177	1202.83333
2891.322	1193.16667
2893.467	1192.16667
2895.61	1195.16667
2897.751	1236.16667
2899.892	1215.5
2902.03	1233.83333
2904.168	1235.16667
2906.304	1228.16667
2908.439	1249.16667
2910.572	1231.5
2912.704	1264.16667
2914.835	1262.83333
2916.965	1259.5
2919.093	1273.83333
2921.219	1241.5
2923.345	1254.16667
2925.469	1225.5
2927.591	1212.16667
2929.712	1176.16667
2931.832	1179.16667
2933.951	1154.83333
2936.068	1130.5
2938.184	1102.5
2940.299	1076.16667
2942.412	1077.16667
2944.524	1032.16667
2946.634	1015.16667
2948.744	963.16667
2950.851	996.83333
2952.958	954.16667
2955.063	945.16667
2957.167	932.83333
2959.269	908.83333
2961.371	934.16667
2963.471	892.83333
2965.569	891.16667
2967.666	851.16667
2969.762	852.5
2971.857	836.83333
2973.95	815.83333
2976.042	815.5
2978.133	795.83333
2980.222	787.5
2982.31	761.5
2984.396	744.5
2986.482	744.5
2988.566	748.5
2990.648	740.83333
2992.73	733.5
2994.81	721.16667
2996.889	729.5
2998.966	717.83333
3001.042	725.5
3003.117	721.16667
3005.191	714.83333
3007.263	710.5
3009.334	702.83333
3011.403	701.5
3013.472	675.16667
3015.539	679.83333
3017.604	696.83333
3019.669	644.83333
3021.732	660.83333
3023.794	657.16667
3025.854	644.83333
3027.914	637.83333
3029.971	648.83333
3032.028	639.83333
3034.083	640.83333
3036.137	634.5
3038.19	612.83333
3040.242	606.5
3042.292	592.5
3044.341	582.5
3046.388	597.16667
3048.435	576.83333
3050.48	594.5
3052.524	581.83333
3054.566	556.83333
3056.607	566.5
3058.647	565.83333
3060.686	530.16667
3062.723	523.83333
3064.759	506.16667
3066.794	0.16667
3068.828	-0.16667
3070.86	-1.5
