-0.839	424.70833
3.438	456.375
7.711	127.70833
11.981	56.375
16.247	44.04167
20.509	46.70833
24.768	48.70833
29.024	45.04167
33.276	45.70833
37.524	50.04167
41.769	42.375
46.01	38.375
50.247	51.04167
54.481	62.70833
58.712	65.04167
62.939	50.70833
67.162	61.375
71.382	61.70833
75.599	50.04167
79.812	67.04167
84.021	82.04167
88.227	63.70833
92.429	65.70833
96.628	53.375
100.823	72.70833
105.015	77.04167
109.204	83.04167
113.388	82.04167
117.57	77.04167
121.748	95.375
125.922	86.04167
130.093	147.70833
134.261	131.04167
138.425	115.70833
142.585	148.04167
146.742	157.375
150.896	175.375
155.046	220.70833
159.193	353.375
163.336	617.375
167.476	1126.70833
171.613	2055.04167
175.746	3457.04167
179.875	5174.70833
184.002	6704.70833
188.124	7795.375
192.244	8141.70833
196.36	8075.04167
200.472	7879.70833
204.581	7692.04167
208.687	7541.70833
212.79	7467.04167
216.889	7509.375
220.984	7595.70833
225.077	7727.375
229.165	7813.375
233.251	7915.375
237.333	7950.70833
241.412	7896.375
245.487	7885.375
249.559	7769.375
253.628	7704.70833
257.694	7596.70833
261.756	7495.375
265.814	7374.70833
269.87	7126.04167
273.922	6956.04167
277.97	6830.70833
282.016	6787.375
286.058	6757.70833
290.097	6846.04167
294.132	6883.04167
298.164	6705.70833
302.193	6378.70833
306.219	5886.375
310.241	5329.04167
314.26	4869.04167
318.276	4465.70833
322.288	4166.375
326.297	3938.70833
330.303	3773.04167
334.305	3629.375
338.305	3550.04167
342.301	3512.70833
346.294	3469.04167
350.283	3449.70833
354.269	3385.375
358.252	3373.375
362.232	3353.04167
366.209	3327.04167
370.182	3285.375
374.152	3271.70833
378.119	3263.04167
382.083	3264.04167
386.043	3274.70833
390	3222.04167
393.954	3225.04167
397.905	3173.375
401.852	3132.04167
405.797	3108.04167
409.738	3053.04167
413.676	3085.375
417.61	3042.375
421.542	3010.70833
425.47	2979.375
429.396	2945.70833
433.318	2951.04167
437.236	2928.04167
441.152	2936.04167
445.065	2885.70833
448.974	2884.375
452.88	2865.04167
456.783	2835.04167
460.683	2811.04167
464.58	2837.04167
468.473	2842.70833
472.364	2832.375
476.251	2849.04167
480.135	2872.04167
484.016	2893.70833
487.894	2890.375
491.769	2931.375
495.641	2942.70833
499.509	2922.04167
503.375	2923.04167
507.237	2916.375
511.096	2892.70833
514.952	2908.70833
518.805	2893.70833
522.655	2886.70833
526.502	2845.375
530.346	2852.04167
534.187	2864.04167
538.024	2877.04167
541.859	2883.375
545.69	2899.04167
549.519	2876.375
553.344	2856.375
557.166	2846.04167
560.985	2803.70833
564.802	2768.04167
568.615	2713.375
572.425	2702.70833
576.232	2694.375
580.036	2666.70833
583.836	2686.375
587.634	2658.70833
591.429	2685.04167
595.221	2737.04167
599.01	2784.375
602.796	2813.70833
606.578	2823.04167
610.358	2829.04167
614.135	2801.375
617.909	2808.375
621.679	2792.04167
625.447	2771.04167
629.212	2783.375
632.973	2789.04167
636.732	2764.70833
640.488	2753.70833
644.241	2750.04167
647.991	2715.375
651.737	2768.04167
655.481	2709.375
659.222	2702.375
662.96	2724.375
666.695	2757.70833
670.427	2757.04167
674.156	2748.04167
677.882	2765.04167
681.605	2747.375
685.325	2729.04167
689.043	2746.375
692.757	2708.04167
696.468	2734.04167
700.177	2749.70833
703.882	2753.04167
707.585	2745.375
711.284	2759.04167
714.981	2757.04167
718.675	2782.375
722.366	2785.375
726.054	2750.04167
729.739	2763.04167
733.421	2756.70833
737.1	2752.04167
740.777	2783.375
744.45	2809.70833
748.121	2842.70833
751.789	2895.70833
755.453	2880.70833
759.115	2874.70833
762.774	2929.70833
766.431	2938.04167
770.084	2988.375
773.734	3036.04167
777.382	3071.70833
781.027	3115.04167
784.669	3113.04167
788.308	3159.70833
791.944	3191.04167
795.577	3203.70833
799.208	3239.04167
802.835	3230.04167
806.46	3247.375
810.082	3310.04167
813.701	3299.375
817.317	3320.70833
820.931	3323.70833
824.542	3315.70833
828.149	3288.70833
831.754	3264.375
835.357	3249.375
838.956	3257.375
842.553	3254.04167
846.146	3241.375
849.737	3230.04167
853.326	3242.04167
856.911	3244.04167
860.493	3286.70833
864.073	3313.375
867.65	3363.04167
871.225	3416.04167
874.796	3406.04167
878.365	3438.375
881.931	3458.70833
885.494	3477.70833
889.054	3455.04167
892.612	3489.70833
896.166	3432.04167
899.719	3407.04167
903.268	3361.375
906.814	3362.70833
910.358	3337.04167
913.899	3324.04167
917.438	3328.375
920.973	3307.70833
924.506	3370.04167
928.036	3406.375
931.564	3434.375
935.088	3477.70833
938.61	3494.375
942.129	3513.04167
945.646	3591.70833
949.16	3678.70833
952.671	3768.70833
956.179	3796.04167
959.685	3737.04167
963.188	3711.04167
966.688	3665.70833
970.185	3583.04167
973.68	3516.375
977.173	3501.04167
980.662	3473.375
984.149	3516.70833
987.633	3493.375
991.114	3560.04167
994.593	3679.70833
998.069	3804.70833
1001.542	3901.375
1005.013	3792.70833
1008.481	3596.375
1011.947	3537.04167
1015.409	3518.04167
1018.869	3506.70833
1022.327	3525.70833
1025.782	3499.04167
1029.234	3511.04167
1032.683	3485.04167
1036.13	3337.70833
1039.574	3230.70833
1043.016	3137.375
1046.455	3076.70833
1049.891	3039.375
1053.325	3041.375
1056.756	3043.04167
1060.184	3074.04167
1063.61	3088.04167
1067.033	3117.04167
1070.454	3113.70833
1073.872	3144.70833
1077.287	3152.375
1080.7	3144.04167
1084.11	3151.375
1087.517	3124.375
1090.922	3105.375
1094.325	3072.375
1097.724	3018.375
1101.122	3018.375
1104.516	3040.04167
1107.908	3052.04167
1111.298	3094.70833
1114.684	3129.04167
1118.069	3138.375
1121.45	3173.70833
1124.83	3177.375
1128.206	3209.70833
1131.58	3252.70833
1134.951	3338.04167
1138.32	3419.375
1141.687	3554.04167
1145.05	3668.04167
1148.412	3688.04167
1151.77	3671.04167
1155.126	3675.04167
1158.48	3666.04167
1161.831	3696.70833
1165.18	3755.04167
1168.525	3802.70833
1171.869	3856.375
1175.21	3869.70833
1178.548	3907.70833
1181.884	3999.04167
1185.217	4006.375
1188.548	4079.375
1191.877	4129.375
1195.202	4236.04167
1198.526	4274.04167
1201.846	4320.04167
1205.165	4282.70833
1208.48	4235.70833
1211.794	4247.375
1215.104	4238.70833
1218.413	4273.375
1221.719	4256.04167
1225.022	4196.375
1228.323	4211.70833
1231.621	4190.375
1234.917	4165.70833
1238.21	4204.375
1241.501	4184.70833
1244.79	4190.375
1248.076	4195.70833
1251.359	4234.70833
1254.64	4315.04167
1257.919	4349.375
1261.195	4383.375
1264.468	4481.04167
1267.74	4517.04167
1271.008	4528.04167
1274.275	4522.375
1277.538	4466.375
1280.8	4459.70833
1284.059	4443.04167
1287.315	4504.70833
1290.569	4537.04167
1293.821	4552.70833
1297.07	4575.70833
1300.317	4582.375
1303.562	4564.04167
1306.803	4557.70833
1310.043	4511.375
1313.28	4414.70833
1316.515	4376.70833
1319.747	4305.70833
1322.977	4281.375
1326.204	4200.04167
1329.429	4141.04167
1332.652	4124.70833
1335.872	4086.70833
1339.09	4077.70833
1342.306	4056.375
1345.519	4063.04167
1348.729	4043.04167
1351.938	4003.04167
1355.144	3934.70833
1358.347	3895.04167
1361.548	3892.70833
1364.747	3914.375
1367.944	3878.375
1371.138	3879.04167
1374.329	3952.04167
1377.518	3991.04167
1380.705	3981.375
1383.89	3955.375
1387.072	3834.375
1390.252	3716.70833
1393.429	3601.70833
1396.605	3530.04167
1399.777	3409.375
1402.948	3365.04167
1406.116	3364.70833
1409.282	3372.70833
1412.445	3371.04167
1415.606	3401.04167
1418.765	3463.04167
1421.921	3541.375
1425.075	3617.375
1428.227	3755.04167
1431.376	3914.375
1434.524	4031.04167
1437.668	4129.375
1440.811	4191.375
1443.951	4185.70833
1447.089	4228.375
1450.224	4193.04167
1453.357	4182.04167
1456.488	4147.375
1459.617	4087.375
1462.743	4024.375
1465.867	3957.04167
1468.989	3889.04167
1472.108	3820.375
1475.225	3768.375
1478.34	3709.375
1481.453	3716.70833
1484.563	3721.375
1487.671	3785.70833
1490.776	3829.04167
1493.88	3891.375
1496.981	4004.375
1500.08	4082.70833
1503.176	4144.375
1506.271	4221.375
1509.363	4284.70833
1512.452	4317.375
1515.54	4401.70833
1518.625	4500.375
1521.708	4669.375
1524.789	4895.70833
1527.867	5213.70833
1530.944	5538.04167
1534.018	5796.04167
1537.089	6002.375
1540.159	6011.375
1543.226	5839.04167
1546.291	5630.70833
1549.354	5470.70833
1552.415	5284.70833
1555.473	5131.04167
1558.529	5031.375
1561.583	4974.70833
1564.634	4916.375
1567.684	4881.70833
1570.731	4910.04167
1573.776	4962.70833
1576.819	5004.04167
1579.859	5055.375
1582.898	5081.04167
1585.934	5144.70833
1588.968	5156.375
1591.999	5126.375
1595.029	5120.04167
1598.056	5168.04167
1601.081	5198.04167
1604.104	5157.375
1607.125	5140.375
1610.144	4977.375
1613.16	4902.04167
1616.174	4770.375
1619.186	4619.70833
1622.196	4485.04167
1625.203	4370.70833
1628.209	4343.70833
1631.212	4277.04167
1634.213	4236.04167
1637.212	4170.70833
1640.209	4122.375
1643.203	4040.04167
1646.196	3916.375
1649.186	3766.04167
1652.174	3649.04167
1655.16	3532.70833
1658.144	3399.70833
1661.125	3240.70833
1664.105	3102.70833
1667.082	2972.375
1670.057	2801.375
1673.03	2626.375
1676.001	2489.70833
1678.97	2321.70833
1681.937	2195.04167
1684.901	2072.04167
1687.863	2006.70833
1690.824	1926.04167
1693.782	1894.70833
1696.738	1830.375
1699.692	1776.375
1702.643	1737.375
1705.593	1723.375
1708.54	1696.04167
1711.486	1696.04167
1714.429	1656.04167
1717.37	1656.70833
1720.309	1607.70833
1723.246	1601.375
1726.181	1565.04167
1729.113	1589.04167
1732.044	1559.70833
1734.972	1535.375
1737.899	1547.04167
1740.823	1514.04167
1743.745	1512.375
1746.665	1459.70833
1749.583	1460.04167
1752.499	1433.04167
1755.413	1405.70833
1758.325	1376.04167
1761.235	1368.375
1764.142	1341.70833
1767.048	1343.375
1769.951	1332.70833
1772.852	1316.375
1775.752	1291.70833
1778.649	1305.70833
1781.544	1301.04167
1784.437	1264.70833
1787.328	1274.70833
1790.217	1266.04167
1793.104	1252.04167
1795.989	1242.04167
1798.872	1247.70833
1801.753	1262.70833
1804.631	1233.04167
1807.508	1241.04167
1810.383	1229.375
1813.255	1216.04167
1816.126	1220.70833
1818.994	1216.04167
1821.861	1201.70833
1824.725	1192.04167
1827.587	1208.70833
1830.448	1201.70833
1833.306	1160.04167
1836.162	1190.375
1839.017	1169.375
1841.869	1171.375
1844.719	1167.04167
1847.567	1141.04167
1850.414	1138.375
1853.258	1147.375
1856.1	1155.04167
1858.94	1157.04167
1861.778	1153.04167
1864.614	1149.04167
1867.448	1148.04167
1870.28	1126.04167
1873.111	1170.375
1875.939	1147.04167
1878.765	1162.04167
1881.589	1126.70833
1884.411	1139.04167
1887.231	1133.70833
1890.049	1124.70833
1892.865	1135.375
1895.68	1120.70833
1898.492	1113.375
1901.302	1112.04167
1904.11	1092.04167
1906.916	1103.70833
1909.721	1081.04167
1912.523	1089.375
1915.323	1072.70833
1918.122	1073.70833
1920.918	1078.04167
1923.712	1069.375
1926.505	1074.70833
1929.295	1060.375
1932.084	1075.375
1934.87	1077.04167
1937.655	1058.70833
1940.438	1053.375
1943.218	1056.375
1945.997	1067.375
1948.774	1083.04167
1951.549	1068.70833
1954.322	1057.375
1957.093	1056.04167
1959.862	1052.375
1962.629	1032.375
1965.394	1036.70833
1968.157	1023.70833
1970.918	1029.375
1973.678	1036.04167
1976.435	1029.04167
1979.19	1007.04167
1981.944	1013.375
1984.696	1006.04167
1987.445	994.70833
1990.193	1018.375
1992.939	1026.375
1995.683	1011.375
1998.425	988.04167
2001.165	1004.375
2003.903	998.70833
2006.639	991.70833
2009.374	991.375
2012.106	1007.04167
2014.837	983.70833
2017.566	997.04167
2020.292	995.375
2023.017	998.70833
2025.74	981.04167
2028.461	983.70833
2031.18	975.70833
2033.898	962.375
2036.613	971.70833
2039.327	991.375
2042.038	955.04167
2044.748	962.375
2047.456	967.375
2050.162	954.70833
2052.866	966.375
2055.568	977.375
2058.268	953.375
2060.967	951.70833
2063.663	936.375
2066.358	942.375
2069.051	935.04167
2071.742	947.70833
2074.431	963.70833
2077.118	953.375
2079.804	947.375
2082.487	944.70833
2085.169	970.375
2087.849	986.375
2090.527	960.04167
2093.203	981.70833
2095.877	986.70833
2098.55	978.375
2101.22	1006.375
2103.889	1021.375
2106.556	1026.375
2109.221	1103.70833
2111.884	1127.04167
2114.546	1242.375
2117.205	1332.04167
2119.863	1460.375
2122.519	1599.70833
2125.173	1719.04167
2127.825	1831.04167
2130.475	1834.70833
2133.124	1792.375
2135.771	1716.70833
2138.416	1624.04167
2141.059	1522.70833
2143.7	1432.70833
2146.339	1345.375
2148.977	1256.375
2151.613	1223.375
2154.247	1186.375
2156.879	1158.70833
2159.51	1113.375
2162.138	1090.04167
2164.765	1071.70833
2167.39	1050.375
2170.013	1064.70833
2172.634	1059.04167
2175.254	1036.04167
2177.872	1040.04167
2180.488	995.04167
2183.102	994.70833
2185.714	998.04167
2188.325	954.04167
2190.934	953.70833
2193.541	945.70833
2196.146	917.70833
2198.75	908.70833
2201.351	921.70833
2203.951	883.04167
2206.549	904.375
2209.146	874.375
2211.74	871.04167
2214.333	867.375
2216.924	842.04167
2219.514	846.04167
2222.101	835.70833
2224.687	842.375
2227.271	820.375
2229.853	831.70833
2232.433	811.04167
2235.012	843.04167
2237.589	818.04167
2240.164	830.70833
2242.738	806.04167
2245.309	810.70833
2247.879	807.04167
2250.448	806.70833
2253.014	779.70833
2255.579	763.375
2258.142	781.04167
2260.703	756.70833
2263.262	744.70833
2265.82	749.70833
2268.376	746.70833
2270.93	741.04167
2273.483	733.04167
2276.033	732.70833
2278.583	738.70833
2281.13	719.04167
2283.675	719.375
2286.219	730.04167
2288.761	719.70833
2291.302	719.70833
2293.841	726.70833
2296.377	695.70833
2298.913	696.70833
2301.446	717.70833
2303.978	696.04167
2306.508	691.70833
2309.037	701.375
2311.563	698.04167
2314.088	712.375
2316.612	675.375
2319.133	686.04167
2321.653	673.375
2324.171	662.375
2326.688	692.70833
2329.202	668.375
2331.715	680.70833
2334.227	670.04167
2336.736	665.04167
2339.244	649.04167
2341.751	649.375
2344.255	662.375
2346.758	649.70833
2349.259	649.70833
2351.759	651.375
2354.257	644.04167
2356.753	641.375
2359.247	653.04167
2361.74	643.375
2364.231	635.70833
2366.721	652.04167
2369.209	637.04167
2371.695	631.375
2374.179	634.04167
2376.662	637.04167
2379.143	633.70833
2381.622	629.04167
2384.1	632.04167
2386.576	628.70833
2389.051	641.04167
2391.524	642.04167
2393.995	641.04167
2396.464	626.70833
2398.932	607.375
2401.398	617.04167
2403.863	619.04167
2406.325	612.04167
2408.787	612.375
2411.246	604.04167
2413.704	595.04167
2416.16	610.04167
2418.615	613.04167
2421.068	613.375
2423.519	596.70833
2425.969	602.04167
2428.417	601.375
2430.863	627.04167
2433.308	607.70833
2435.751	602.04167
2438.193	603.375
2440.633	600.375
2443.071	596.375
2445.508	576.375
2447.943	575.375
2450.376	581.375
2452.808	585.70833
2455.238	574.70833
2457.667	599.375
2460.093	590.70833
2462.519	568.70833
2464.942	577.70833
2467.365	592.375
2469.785	579.375
2472.204	577.70833
2474.621	562.70833
2477.037	588.04167
2479.451	551.70833
2481.863	551.70833
2484.274	550.375
2486.683	563.375
2489.091	564.375
2491.497	558.70833
2493.901	561.70833
2496.304	555.70833
2498.705	558.70833
2501.105	547.375
2503.503	585.375
2505.899	543.375
2508.294	568.04167
2510.687	543.70833
2513.079	548.375
2515.469	532.04167
2517.858	535.70833
2520.245	555.375
2522.63	540.70833
2525.014	536.04167
2527.396	531.375
2529.776	527.375
2532.156	538.375
2534.533	525.375
2536.909	529.04167
2539.283	509.70833
2541.656	518.04167
2544.027	544.04167
2546.397	537.70833
2548.765	521.375
2551.131	526.375
2553.496	525.375
2555.86	538.375
2558.221	526.375
2560.582	524.04167
2562.94	508.375
2565.298	521.04167
2567.653	538.04167
2570.007	510.375
2572.36	526.04167
2574.711	514.375
2577.06	527.375
2579.408	517.375
2581.754	517.70833
2584.099	515.375
2586.442	513.70833
2588.784	515.375
2591.124	510.375
2593.463	508.04167
2595.8	510.70833
2598.135	487.375
2600.469	501.04167
2602.802	521.04167
2605.133	515.375
2607.462	497.375
2609.79	489.70833
2612.116	510.70833
2614.441	507.04167
2616.764	504.70833
2619.086	498.04167
2621.406	490.375
2623.725	503.375
2626.042	507.375
2628.358	500.70833
2630.672	493.375
2632.985	515.04167
2635.296	504.375
2637.606	500.375
2639.914	497.375
2642.22	500.375
2644.525	505.375
2646.829	499.04167
2649.131	510.70833
2651.432	510.70833
2653.731	501.04167
2656.028	526.375
2658.324	510.04167
2660.619	488.04167
2662.912	520.04167
2665.204	495.04167
2667.494	514.04167
2669.782	494.04167
2672.07	510.04167
2674.355	513.70833
2676.639	512.04167
2678.922	505.70833
2681.203	511.375
2683.483	499.375
2685.761	499.375
2688.038	512.04167
2690.313	528.375
2692.587	512.70833
2694.859	496.375
2697.13	514.04167
2699.399	513.375
2701.667	537.04167
2703.933	520.04167
2706.198	530.375
2708.461	536.04167
2710.723	535.375
2712.984	537.04167
2715.243	548.04167
2717.5	544.375
2719.757	539.70833
2722.011	540.04167
2724.264	546.375
2726.516	559.375
2728.766	556.04167
2731.015	560.70833
2733.262	550.70833
2735.508	548.04167
2737.753	537.375
2739.996	529.70833
2742.237	525.70833
2744.477	538.04167
2746.716	533.375
2748.953	524.70833
2751.189	529.70833
2753.423	518.375
2755.656	515.70833
2757.887	504.04167
2760.117	513.04167
2762.346	500.04167
2764.573	506.04167
2766.798	504.375
2769.022	507.375
2771.245	513.04167
2773.467	508.375
2775.686	525.70833
2777.905	524.04167
2780.122	544.70833
2782.337	537.04167
2784.552	531.70833
2786.764	548.70833
2788.976	554.375
2791.186	563.70833
2793.394	560.70833
2795.601	572.70833
2797.807	584.04167
2800.011	589.04167
2802.214	600.70833
2804.415	599.04167
2806.615	608.04167
2808.814	621.04167
2811.011	629.375
2813.206	634.375
2815.401	644.375
2817.594	665.70833
2819.785	680.70833
2821.975	674.04167
2824.164	684.375
2826.351	708.04167
2828.537	723.04167
2830.722	753.04167
2832.905	754.70833
2835.086	795.04167
2837.267	832.375
2839.445	864.375
2841.623	876.375
2843.799	929.04167
2845.974	975.70833
2848.147	1013.375
2850.319	1042.375
2852.489	1085.04167
2854.659	1089.04167
2856.826	1118.375
2858.993	1126.70833
2861.158	1131.70833
2863.321	1127.70833
2865.483	1154.70833
2867.644	1138.70833
2869.804	1147.375
2871.962	1122.375
2874.118	1139.04167
2876.274	1128.04167
2878.428	1125.375
2880.58	1106.04167
2882.731	1107.04167
2884.881	1101.70833
2887.03	1107.375
2889.177	1107.375
2891.322	1137.375
2893.467	1117.70833
2895.61	1133.04167
2897.751	1147.375
2899.892	1147.375
2902.03	1154.04167
2904.168	1166.04167
2906.304	1156.70833
2908.439	1174.375
2910.572	1152.375
2912.704	1180.375
2914.835	1181.70833
2916.965	1175.04167
2919.093	1179.375
2921.219	1136.70833
2923.345	1166.04167
2925.469	1116.04167
2927.591	1121.70833
2929.712	1070.375
2931.832	1057.04167
2933.951	1028.04167
2936.068	1015.70833
2938.184	975.70833
2940.299	942.04167
2942.412	913.70833
2944.524	863.70833
2946.634	847.375
2948.744	778.04167
2950.851	805.70833
2952.958	750.70833
2955.063	731.375
2957.167	706.04167
2959.269	672.70833
2961.371	697.375
2963.471	639.375
2965.569	647.70833
2967.666	607.375
2969.762	588.70833
2971.857	561.04167
2973.95	563.375
2976.042	544.375
2978.133	533.04167
2980.222	507.375
2982.31	481.375
2984.396	468.70833
2986.482	470.04167
2988.566	466.70833
2990.648	449.04167
2992.73	439.70833
2994.81	426.70833
2996.889	436.70833
2998.966	422.70833
3001.042	419.70833
3003.117	414.04167
3005.191	411.375
3007.263	401.70833
3009.334	395.375
3011.403	394.375
3013.472	373.375
3015.539	374.70833
3017.604	384.70833
3019.669	349.375
3021.732	351.375
3023.794	358.70833
3025.854	339.375
3027.914	338.04167
3029.971	337.04167
3032.028	325.375
3034.083	335.375
3036.137	333.04167
3038.19	312.375
3040.242	305.70833
3042.292	293.04167
3044.341	304.70833
3046.388	306.70833
3048.435	285.04167
3050.48	304.04167
3052.524	297.04167
3054.566	272.04167
3056.607	285.04167
3058.647	285.70833
3060.686	262.04167
3062.723	255.70833
3064.759	250.04167
3066.794	0.375
3068.828	-0.95833
3070.86	-3.95833
