-0.839	479.08333
3.438	501.41667
7.711	144.08333
11.981	58.41667
16.247	46.08333
20.509	44.41667
24.768	42.41667
29.024	46.08333
33.276	43.08333
37.524	46.08333
41.769	39.75
46.01	35.08333
50.247	54.08333
54.481	58.08333
58.712	67.08333
62.939	49.41667
67.162	61.75
71.382	57.41667
75.599	47.08333
79.812	67.75
84.021	81.08333
88.227	57.08333
92.429	61.75
96.628	47.75
100.823	69.75
105.015	77.75
109.204	78.41667
113.388	77.41667
117.57	71.75
121.748	87.41667
125.922	81.08333
130.093	99.41667
134.261	102.41667
138.425	99.08333
142.585	133.75
146.742	137.41667
150.896	159.08333
155.046	197.41667
159.193	324.41667
163.336	549.75
167.476	1017.75
171.613	1870.75
175.746	3077.08333
179.875	4574.08333
184.002	5941.41667
188.124	6843.41667
192.244	7143.08333
196.36	7030.08333
200.472	6785.41667
204.581	6567.75
208.687	6335.08333
212.79	6244.08333
216.889	6223.75
220.984	6230.75
225.077	6258.08333
229.165	6283.75
233.251	6290.08333
237.333	6313.08333
241.412	6248.75
245.487	6193.08333
249.559	6127.75
253.628	6032.75
257.694	5942.75
261.756	5889.41667
265.814	5784.41667
269.87	5604.41667
273.922	5410.75
277.97	5325.75
282.016	5283.08333
286.058	5244.41667
290.097	5322.08333
294.132	5321.75
298.164	5201.75
302.193	4971.75
306.219	4611.41667
310.241	4206.08333
314.26	3877.41667
318.276	3565.41667
322.288	3364.41667
326.297	3178.75
330.303	3034.41667
334.305	2965.75
338.305	2886.75
342.301	2840.08333
346.294	2813.41667
350.283	2792.41667
354.269	2751.41667
358.252	2738.41667
362.232	2723.08333
366.209	2694.41667
370.182	2681.75
374.152	2668.75
378.119	2682.08333
382.083	2680.08333
386.043	2678.08333
390	2638.41667
393.954	2618.41667
397.905	2594.75
401.852	2577.08333
405.797	2524.41667
409.738	2522.08333
413.676	2515.75
417.61	2489.08333
421.542	2478.08333
425.47	2457.08333
429.396	2426.41667
433.318	2398.08333
437.236	2399.41667
441.152	2421.08333
445.065	2347.41667
448.974	2367.08333
452.88	2321.75
456.783	2341.41667
460.683	2319.08333
464.58	2295.08333
468.473	2332.08333
472.364	2319.41667
476.251	2327.41667
480.135	2354.41667
484.016	2378.75
487.894	2385.75
491.769	2382.41667
495.641	2404.41667
499.509	2395.75
503.375	2392.08333
507.237	2392.41667
511.096	2403.75
514.952	2491.08333
518.805	2568.08333
522.655	2568.75
526.502	2429.75
530.346	2356.75
534.187	2373.75
538.024	2364.08333
541.859	2361.75
545.69	2394.41667
549.519	2378.41667
553.344	2351.41667
557.166	2310.08333
560.985	2304.75
564.802	2267.08333
568.615	2249.41667
572.425	2196.08333
576.232	2192.08333
580.036	2195.75
583.836	2218.41667
587.634	2179.75
591.429	2179.75
595.221	2234.41667
599.01	2259.08333
602.796	2295.41667
606.578	2299.75
610.358	2320.08333
614.135	2300.08333
617.909	2289.75
621.679	2270.75
625.447	2255.75
629.212	2260.08333
632.973	2281.75
636.732	2267.08333
640.488	2262.08333
644.241	2232.75
647.991	2244.41667
651.737	2254.41667
655.481	2213.75
659.222	2226.08333
662.96	2216.75
666.695	2250.41667
670.427	2262.08333
674.156	2237.41667
677.882	2262.41667
681.605	2246.41667
685.325	2240.41667
689.043	2249.08333
692.757	2210.41667
696.468	2239.75
700.177	2250.08333
703.882	2237.41667
707.585	2222.08333
711.284	2209.08333
714.981	2230.41667
718.675	2258.41667
722.366	2255.75
726.054	2227.08333
729.739	2245.08333
733.421	2250.75
737.1	2232.75
740.777	2247.75
744.45	2266.41667
748.121	2303.41667
751.789	2334.41667
755.453	2327.08333
759.115	2348.75
762.774	2354.08333
766.431	2382.41667
770.084	2388.41667
773.734	2423.41667
777.382	2483.41667
781.027	2498.08333
784.669	2503.08333
788.308	2512.75
791.944	2534.75
795.577	2550.41667
799.208	2592.41667
802.835	2598.08333
806.46	2612.08333
810.082	2641.75
813.701	2645.75
817.317	2655.08333
820.931	2651.41667
824.542	2674.08333
828.149	2645.41667
831.754	2619.08333
835.357	2603.08333
838.956	2614.75
842.553	2562.08333
846.146	2577.75
849.737	2557.41667
853.326	2596.41667
856.911	2587.41667
860.493	2634.08333
864.073	2637.41667
867.65	2674.75
871.225	2704.75
874.796	2715.41667
878.365	2745.75
881.931	2738.75
885.494	2759.08333
889.054	2755.75
892.612	2766.75
896.166	2745.08333
899.719	2710.41667
903.268	2702.75
906.814	2693.75
910.358	2681.75
913.899	2624.75
917.438	2651.08333
920.973	2621.08333
924.506	2662.08333
928.036	2744.75
931.564	2739.08333
935.088	2783.41667
938.61	2794.41667
942.129	2813.75
945.646	2883.08333
949.16	2940.08333
952.671	2978.75
956.179	2991.41667
959.685	2960.75
963.188	2959.75
966.688	2907.75
970.185	2841.08333
973.68	2809.08333
977.173	2776.75
980.662	2747.41667
984.149	2779.75
987.633	2786.41667
991.114	2837.75
994.593	2894.08333
998.069	2985.08333
1001.542	3063.41667
1005.013	2986.08333
1008.481	2826.75
1011.947	2790.75
1015.409	2780.75
1018.869	2801.08333
1022.327	2793.41667
1025.782	2764.41667
1029.234	2766.08333
1032.683	2723.75
1036.13	2655.41667
1039.574	2532.75
1043.016	2481.41667
1046.455	2438.08333
1049.891	2404.08333
1053.325	2401.41667
1056.756	2408.41667
1060.184	2409.08333
1063.61	2433.41667
1067.033	2444.41667
1070.454	2442.41667
1073.872	2485.75
1077.287	2441.08333
1080.7	2488.75
1084.11	2489.41667
1087.517	2460.75
1090.922	2441.08333
1094.325	2431.41667
1097.724	2400.75
1101.122	2383.75
1104.516	2404.75
1107.908	2387.08333
1111.298	2438.41667
1114.684	2479.08333
1118.069	2485.08333
1121.45	2497.41667
1124.83	2503.41667
1128.206	2528.75
1131.58	2564.08333
1134.951	2654.75
1138.32	2718.08333
1141.687	2834.41667
1145.05	2920.41667
1148.412	2924.41667
1151.77	2910.08333
1155.126	2932.41667
1158.48	2926.41667
1161.831	2958.08333
1165.18	2962.08333
1168.525	3027.08333
1171.869	3032.41667
1175.21	3068.08333
1178.548	3103.41667
1181.884	3126.41667
1185.217	3162.08333
1188.548	3219.08333
1191.877	3251.75
1195.202	3314.41667
1198.526	3382.41667
1201.846	3380.75
1205.165	3382.08333
1208.48	3347.41667
1211.794	3379.75
1215.104	3369.75
1218.413	3380.41667
1221.719	3385.75
1225.022	3334.41667
1228.323	3320.75
1231.621	3297.08333
1234.917	3308.08333
1238.21	3313.41667
1241.501	3290.08333
1244.79	3315.08333
1248.076	3300.08333
1251.359	3375.41667
1254.64	3406.08333
1257.919	3411.75
1261.195	3482.41667
1264.468	3529.08333
1267.74	3590.08333
1271.008	3611.41667
1274.275	3590.41667
1277.538	3524.75
1280.8	3521.08333
1284.059	3522.08333
1287.315	3562.41667
1290.569	3560.75
1293.821	3618.08333
1297.07	3630.75
1300.317	3635.75
1303.562	3607.08333
1306.803	3582.75
1310.043	3543.75
1313.28	3512.41667
1316.515	3485.41667
1319.747	3446.08333
1322.977	3406.75
1326.204	3342.75
1329.429	3301.08333
1332.652	3279.75
1335.872	3272.08333
1339.09	3260.41667
1342.306	3245.41667
1345.519	3249.41667
1348.729	3228.75
1351.938	3188.08333
1355.144	3139.75
1358.347	3109.08333
1361.548	3119.75
1364.747	3133.41667
1367.944	3113.08333
1371.138	3138.41667
1374.329	3154.08333
1377.518	3188.75
1380.705	3227.41667
1383.89	3189.75
1387.072	3126.08333
1390.252	2989.75
1393.429	2889.75
1396.605	2813.41667
1399.777	2738.41667
1402.948	2700.75
1406.116	2668.41667
1409.282	2673.75
1412.445	2678.08333
1415.606	2704.75
1418.765	2753.75
1421.921	2808.08333
1425.075	2893.41667
1428.227	2982.08333
1431.376	3088.41667
1434.524	3200.08333
1437.668	3277.41667
1440.811	3308.41667
1443.951	3338.41667
1447.089	3346.41667
1450.224	3372.75
1453.357	3322.41667
1456.488	3291.08333
1459.617	3242.08333
1462.743	3201.08333
1465.867	3120.41667
1468.989	3118.08333
1472.108	3055.41667
1475.225	2966.41667
1478.34	2957.41667
1481.453	2955.08333
1484.563	2972.08333
1487.671	3011.41667
1490.776	3086.41667
1493.88	3139.75
1496.981	3205.08333
1500.08	3260.75
1503.176	3284.75
1506.271	3349.75
1509.363	3423.75
1512.452	3449.08333
1515.54	3518.08333
1518.625	3570.08333
1521.708	3710.41667
1524.789	3853.41667
1527.867	4071.41667
1530.944	4325.08333
1534.018	4548.75
1537.089	4685.75
1540.159	4676.41667
1543.226	4664.41667
1546.291	4462.41667
1549.354	4361.41667
1552.415	4207.75
1555.473	4122.41667
1558.529	4018.41667
1561.583	3972.08333
1564.634	3926.08333
1567.684	3901.75
1570.731	3933.41667
1573.776	3974.75
1576.819	3978.08333
1579.859	4030.41667
1582.898	4057.75
1585.934	4081.08333
1588.968	4092.75
1591.999	4093.08333
1595.029	4098.08333
1598.056	4117.75
1601.081	4130.08333
1604.104	4108.41667
1607.125	4065.75
1610.144	3990.08333
1613.16	3873.08333
1616.174	3797.41667
1619.186	3740.08333
1622.196	3630.41667
1625.203	3527.41667
1628.209	3484.08333
1631.212	3451.75
1634.213	3431.08333
1637.212	3394.75
1640.209	3357.41667
1643.203	3271.41667
1646.196	3154.41667
1649.186	3048.75
1652.174	2954.41667
1655.16	2845.75
1658.144	2767.41667
1661.125	2631.41667
1664.105	2534.41667
1667.082	2415.75
1670.057	2277.75
1673.03	2126.08333
1676.001	2020.41667
1678.97	1886.41667
1681.937	1785.41667
1684.901	1683.41667
1687.863	1622.41667
1690.824	1563.41667
1693.782	1546.41667
1696.738	1469.41667
1699.692	1439.75
1702.643	1408.41667
1705.593	1386.75
1708.54	1374.75
1711.486	1355.75
1714.429	1328.41667
1717.37	1331.08333
1720.309	1310.75
1723.246	1307.41667
1726.181	1274.75
1729.113	1286.08333
1732.044	1257.75
1734.972	1242.75
1737.899	1252.08333
1740.823	1216.08333
1743.745	1229.41667
1746.665	1191.41667
1749.583	1172.75
1752.499	1149.75
1755.413	1138.08333
1758.325	1105.08333
1761.235	1122.41667
1764.142	1084.75
1767.048	1085.08333
1769.951	1080.41667
1772.852	1053.41667
1775.752	1061.08333
1778.649	1060.75
1781.544	1060.08333
1784.437	1025.75
1787.328	1031.41667
1790.217	1023.75
1793.104	1000.75
1795.989	1018.08333
1798.872	1014.08333
1801.753	1011.75
1804.631	1005.08333
1807.508	1020.41667
1810.383	1014.08333
1813.255	1000.41667
1816.126	996.08333
1818.994	989.41667
1821.861	990.41667
1824.725	985.08333
1827.587	978.41667
1830.448	977.08333
1833.306	954.75
1836.162	960.41667
1839.017	941.75
1841.869	943.41667
1844.719	948.75
1847.567	941.08333
1850.414	920.08333
1853.258	937.41667
1856.1	947.08333
1858.94	958.41667
1861.778	939.08333
1864.614	933.75
1867.448	943.41667
1870.28	925.75
1873.111	942.08333
1875.939	946.75
1878.765	944.75
1881.589	931.08333
1884.411	920.41667
1887.231	926.75
1890.049	923.41667
1892.865	926.08333
1895.68	901.41667
1898.492	917.41667
1901.302	893.08333
1904.11	921.08333
1906.916	891.08333
1909.721	895.75
1912.523	897.75
1915.323	882.08333
1918.122	893.41667
1920.918	895.75
1923.712	881.41667
1926.505	890.75
1929.295	874.75
1932.084	890.08333
1934.87	885.41667
1937.655	865.41667
1940.438	873.41667
1943.218	878.75
1945.997	882.08333
1948.774	885.75
1951.549	877.08333
1954.322	876.08333
1957.093	877.41667
1959.862	871.41667
1962.629	870.75
1965.394	856.08333
1968.157	854.08333
1970.918	859.08333
1973.678	852.75
1976.435	862.08333
1979.19	848.75
1981.944	843.75
1984.696	833.75
1987.445	839.08333
1990.193	839.08333
1992.939	846.08333
1995.683	840.08333
1998.425	822.41667
2001.165	850.41667
2003.903	819.41667
2006.639	825.75
2009.374	827.75
2012.106	834.75
2014.837	801.08333
2017.566	830.41667
2020.292	823.41667
2023.017	819.41667
2025.74	819.41667
2028.461	823.75
2031.18	833.41667
2033.898	812.41667
2036.613	832.08333
2039.327	833.41667
2042.038	806.41667
2044.748	813.41667
2047.456	820.08333
2050.162	800.75
2052.866	810.41667
2055.568	805.08333
2058.268	801.41667
2060.967	806.75
2063.663	791.75
2066.358	813.08333
2069.051	794.75
2071.742	790.08333
2074.431	805.75
2077.118	788.75
2079.804	798.08333
2082.487	799.75
2085.169	813.08333
2087.849	826.75
2090.527	805.75
2093.203	829.41667
2095.877	823.41667
2098.55	832.08333
2101.22	848.41667
2103.889	854.75
2106.556	862.75
2109.221	908.08333
2111.884	929.41667
2114.546	1013.08333
2117.205	1076.75
2119.863	1190.41667
2122.519	1292.08333
2125.173	1390.75
2127.825	1480.41667
2130.475	1492.41667
2133.124	1448.75
2135.771	1397.41667
2138.416	1333.41667
2141.059	1229.41667
2143.7	1188.41667
2146.339	1113.41667
2148.977	1041.75
2151.613	1026.75
2154.247	986.08333
2156.879	958.08333
2159.51	951.41667
2162.138	919.08333
2164.765	909.08333
2167.39	909.41667
2170.013	922.75
2172.634	916.08333
2175.254	908.75
2177.872	934.75
2180.488	872.75
2183.102	880.08333
2185.714	867.75
2188.325	848.08333
2190.934	842.75
2193.541	840.08333
2196.146	821.08333
2198.75	803.41667
2201.351	797.41667
2203.951	763.41667
2206.549	788.75
2209.146	769.41667
2211.74	759.08333
2214.333	764.75
2216.924	747.08333
2219.514	747.41667
2222.101	734.41667
2224.687	751.41667
2227.271	736.08333
2229.853	719.41667
2232.433	725.08333
2235.012	739.41667
2237.589	737.41667
2240.164	748.08333
2242.738	743.41667
2245.309	716.41667
2247.879	722.08333
2250.448	719.08333
2253.014	694.41667
2255.579	684.41667
2258.142	688.08333
2260.703	681.75
2263.262	687.08333
2265.82	664.08333
2268.376	690.41667
2270.93	671.75
2273.483	665.75
2276.033	684.08333
2278.583	667.75
2281.13	661.75
2283.675	652.75
2286.219	665.41667
2288.761	659.75
2291.302	670.75
2293.841	664.08333
2296.377	636.75
2298.913	655.75
2301.446	664.41667
2303.978	648.75
2306.508	642.41667
2309.037	649.41667
2311.563	647.41667
2314.088	659.75
2316.612	644.41667
2319.133	651.41667
2321.653	650.41667
2324.171	632.41667
2326.688	645.75
2329.202	639.08333
2331.715	638.75
2334.227	641.41667
2336.736	627.75
2339.244	634.41667
2341.751	620.08333
2344.255	638.41667
2346.758	627.41667
2349.259	640.41667
2351.759	616.75
2354.257	616.75
2356.753	618.75
2359.247	626.08333
2361.74	634.41667
2364.231	620.41667
2366.721	621.41667
2369.209	612.08333
2371.695	616.75
2374.179	619.41667
2376.662	609.41667
2379.143	627.75
2381.622	614.08333
2384.1	632.41667
2386.576	614.08333
2389.051	627.75
2391.524	629.75
2393.995	632.08333
2396.464	612.75
2398.932	607.75
2401.398	610.41667
2403.863	604.08333
2406.325	611.75
2408.787	609.08333
2411.246	607.75
2413.704	608.75
2416.16	612.75
2418.615	612.41667
2421.068	621.08333
2423.519	622.08333
2425.969	601.41667
2428.417	615.75
2430.863	630.41667
2433.308	622.75
2435.751	612.75
2438.193	609.41667
2440.633	619.08333
2443.071	617.75
2445.508	601.08333
2447.943	604.08333
2450.376	609.41667
2452.808	618.41667
2455.238	609.75
2457.667	631.41667
2460.093	609.08333
2462.519	594.41667
2464.942	599.41667
2467.365	615.08333
2469.785	611.41667
2472.204	604.08333
2474.621	596.08333
2477.037	626.75
2479.451	598.08333
2481.863	592.75
2484.274	598.08333
2486.683	601.08333
2489.091	618.41667
2491.497	617.75
2493.901	595.75
2496.304	597.08333
2498.705	616.75
2501.105	591.41667
2503.503	623.41667
2505.899	592.75
2508.294	622.41667
2510.687	609.75
2513.079	604.41667
2515.469	589.41667
2517.858	600.08333
2520.245	615.41667
2522.63	600.41667
2525.014	595.08333
2527.396	604.41667
2529.776	591.75
2532.156	602.41667
2534.533	588.41667
2536.909	594.08333
2539.283	592.75
2541.656	599.41667
2544.027	628.75
2546.397	601.75
2548.765	602.75
2551.131	598.75
2553.496	605.41667
2555.86	615.41667
2558.221	607.75
2560.582	594.75
2562.94	594.41667
2565.298	610.75
2567.653	627.08333
2570.007	590.75
2572.36	608.41667
2574.711	605.75
2577.06	628.75
2579.408	612.75
2581.754	610.41667
2584.099	616.41667
2586.442	604.75
2588.784	614.41667
2591.124	610.75
2593.463	613.08333
2595.8	614.41667
2598.135	602.41667
2600.469	616.41667
2602.802	619.75
2605.133	630.41667
2607.462	605.75
2609.79	608.41667
2612.116	618.75
2614.441	618.41667
2616.764	623.41667
2619.086	623.08333
2621.406	620.41667
2623.725	636.08333
2626.042	632.75
2628.358	621.41667
2630.672	615.75
2632.985	634.41667
2635.296	621.08333
2637.606	623.75
2639.914	632.08333
2642.22	633.75
2644.525	632.41667
2646.829	635.08333
2649.131	645.08333
2651.432	649.41667
2653.731	644.75
2656.028	664.41667
2658.324	653.08333
2660.619	635.08333
2662.912	660.08333
2665.204	642.41667
2667.494	654.41667
2669.782	641.08333
2672.07	665.08333
2674.355	666.75
2676.639	646.75
2678.922	646.75
2681.203	660.41667
2683.483	647.08333
2685.761	655.08333
2688.038	661.75
2690.313	686.75
2692.587	678.08333
2694.859	656.75
2697.13	672.41667
2699.399	673.41667
2701.667	678.75
2703.933	683.08333
2706.198	692.41667
2708.461	681.08333
2710.723	702.08333
2712.984	689.08333
2715.243	713.08333
2717.5	698.41667
2719.757	711.08333
2722.011	702.41667
2724.264	721.41667
2726.516	734.75
2728.766	717.08333
2731.015	719.75
2733.262	723.41667
2735.508	717.08333
2737.753	718.75
2739.996	711.41667
2742.237	699.75
2744.477	715.75
2746.716	709.08333
2748.953	714.75
2751.189	714.75
2753.423	697.41667
2755.656	700.41667
2757.887	706.08333
2760.117	702.75
2762.346	689.08333
2764.573	691.41667
2766.798	700.08333
2769.022	700.75
2771.245	689.08333
2773.467	707.41667
2775.686	695.75
2777.905	716.75
2780.122	720.08333
2782.337	735.41667
2784.552	720.08333
2786.764	738.75
2788.976	751.75
2791.186	756.41667
2793.394	752.08333
2795.601	771.75
2797.807	766.08333
2800.011	778.75
2802.214	789.75
2804.415	785.75
2806.615	796.75
2808.814	814.75
2811.011	815.08333
2813.206	805.41667
2815.401	828.08333
2817.594	825.41667
2819.785	845.08333
2821.975	827.08333
2824.164	859.75
2826.351	871.08333
2828.537	879.75
2830.722	904.08333
2832.905	903.08333
2835.086	935.75
2837.267	972.75
2839.445	990.41667
2841.623	1008.41667
2843.799	1031.41667
2845.974	1075.08333
2848.147	1114.08333
2850.319	1135.41667
2852.489	1159.41667
2854.659	1162.75
2856.826	1196.75
2858.993	1211.08333
2861.158	1203.75
2863.321	1203.41667
2865.483	1219.41667
2867.644	1221.75
2869.804	1219.75
2871.962	1198.08333
2874.118	1217.75
2876.274	1198.41667
2878.428	1194.08333
2880.58	1191.41667
2882.731	1188.08333
2884.881	1174.75
2887.03	1184.75
2889.177	1200.08333
2891.322	1219.08333
2893.467	1201.08333
2895.61	1204.41667
2897.751	1231.75
2899.892	1217.08333
2902.03	1238.41667
2904.168	1248.41667
2906.304	1246.08333
2908.439	1277.08333
2910.572	1247.08333
2912.704	1268.08333
2914.835	1268.41667
2916.965	1257.75
2919.093	1271.41667
2921.219	1236.41667
2923.345	1267.41667
2925.469	1229.41667
2927.591	1222.41667
2929.712	1198.08333
2931.832	1186.75
2933.951	1169.75
2936.068	1150.75
2938.184	1117.75
2940.299	1082.75
2942.412	1070.41667
2944.524	1030.41667
2946.634	1026.41667
2948.744	982.08333
2950.851	1003.75
2952.958	953.41667
2955.063	958.08333
2957.167	936.08333
2959.269	902.08333
2961.371	926.41667
2963.471	886.08333
2965.569	888.41667
2967.666	869.41667
2969.762	852.75
2971.857	829.08333
2973.95	827.75
2976.042	803.08333
2978.133	813.08333
2980.222	778.75
2982.31	760.75
2984.396	745.41667
2986.482	753.41667
2988.566	755.41667
2990.648	741.41667
2992.73	735.08333
2994.81	718.41667
2996.889	742.41667
2998.966	724.75
3001.042	721.75
3003.117	720.41667
3005.191	718.75
3007.263	708.08333
3009.334	707.08333
3011.403	692.08333
3013.472	682.41667
3015.539	683.41667
3017.604	697.08333
3019.669	664.41667
3021.732	668.41667
3023.794	662.75
3025.854	646.08333
3027.914	657.75
3029.971	660.08333
3032.028	645.41667
3034.083	652.75
3036.137	638.08333
3038.19	621.41667
3040.242	613.75
3042.292	597.08333
3044.341	583.75
3046.388	600.75
3048.435	574.08333
3050.48	603.75
3052.524	582.41667
3054.566	564.08333
3056.607	577.08333
3058.647	565.75
3060.686	533.41667
3062.723	534.75
3064.759	508.41667
3066.794	-0.91667
3068.828	-1.25
3070.86	-2.91667
