-0.839	454.125
3.438	470.125
7.711	134.79167
11.981	53.79167
16.247	44.79167
20.509	44.79167
24.768	45.45833
29.024	50.125
33.276	42.79167
37.524	50.45833
41.769	44.125
46.01	39.125
50.247	50.125
54.481	57.45833
58.712	67.45833
62.939	48.79167
67.162	62.79167
71.382	58.45833
75.599	49.45833
79.812	64.45833
84.021	80.79167
88.227	60.79167
92.429	63.79167
96.628	52.45833
100.823	71.45833
105.015	74.79167
109.204	80.79167
113.388	80.125
117.57	73.45833
121.748	91.79167
125.922	83.79167
130.093	105.45833
134.261	111.79167
138.425	101.125
142.585	145.79167
146.742	145.125
150.896	166.45833
155.046	212.125
159.193	330.125
163.336	562.125
167.476	1040.125
171.613	1892.45833
175.746	3184.45833
179.875	4737.79167
184.002	6171.45833
188.124	7192.79167
192.244	7513.45833
196.36	7435.45833
200.472	7276.45833
204.581	7101.125
208.687	6914.79167
212.79	6867.79167
216.889	6934.125
220.984	7020.45833
225.077	7098.125
229.165	7200.45833
233.251	7277.45833
237.333	7312.79167
241.412	7319.125
245.487	7334.45833
249.559	7311.45833
253.628	7212.45833
257.694	7145.79167
261.756	7104.45833
265.814	6977.45833
269.87	6827.45833
273.922	6653.79167
277.97	6574.45833
282.016	6493.125
286.058	6493.45833
290.097	6579.45833
294.132	6602.79167
298.164	6525.79167
302.193	6234.79167
306.219	5760.125
310.241	5254.79167
314.26	4821.45833
318.276	4402.45833
322.288	4082.45833
326.297	3856.45833
330.303	3707.45833
334.305	3582.125
338.305	3503.45833
342.301	3451.45833
346.294	3437.125
350.283	3387.45833
354.269	3322.45833
358.252	3328.79167
362.232	3296.79167
366.209	3229.125
370.182	3227.45833
374.152	3215.79167
378.119	3206.45833
382.083	3188.79167
386.043	3220.125
390	3154.125
393.954	3144.79167
397.905	3119.125
401.852	3104.79167
405.797	3086.45833
409.738	3057.125
413.676	3038.45833
417.61	3054.125
421.542	3008.45833
425.47	2987.45833
429.396	2954.45833
433.318	2958.125
437.236	2954.125
441.152	2962.79167
445.065	2888.125
448.974	2886.45833
452.88	2847.45833
456.783	2839.79167
460.683	2846.79167
464.58	2834.79167
468.473	2833.45833
472.364	2876.79167
476.251	2851.79167
480.135	2885.45833
484.016	2917.79167
487.894	2931.125
491.769	2943.125
495.641	2953.45833
499.509	2926.45833
503.375	2923.125
507.237	2947.79167
511.096	2918.45833
514.952	2959.45833
518.805	2992.125
522.655	2993.79167
526.502	2914.45833
530.346	2898.45833
534.187	2908.45833
538.024	2908.79167
541.859	2914.79167
545.69	2965.125
549.519	2954.79167
553.344	2917.125
557.166	2862.79167
560.985	2807.125
564.802	2817.125
568.615	2741.125
572.425	2723.79167
576.232	2716.45833
580.036	2707.125
583.836	2687.45833
587.634	2716.45833
591.429	2697.125
595.221	2744.79167
599.01	2784.79167
602.796	2811.45833
606.578	2833.45833
610.358	2837.45833
614.135	2821.79167
617.909	2806.79167
621.679	2778.79167
625.447	2775.79167
629.212	2792.79167
632.973	2800.125
636.732	2768.125
640.488	2781.125
644.241	2737.45833
647.991	2748.45833
651.737	2754.79167
655.481	2732.79167
659.222	2751.125
662.96	2740.79167
666.695	2770.79167
670.427	2767.125
674.156	2788.45833
677.882	2776.125
681.605	2775.125
685.325	2737.45833
689.043	2766.45833
692.757	2749.79167
696.468	2756.125
700.177	2745.79167
703.882	2740.79167
707.585	2737.79167
711.284	2741.125
714.981	2747.45833
718.675	2753.79167
722.366	2771.79167
726.054	2743.45833
729.739	2731.45833
733.421	2755.125
737.1	2711.79167
740.777	2774.45833
744.45	2775.79167
748.121	2786.79167
751.789	2842.45833
755.453	2839.45833
759.115	2861.45833
762.774	2883.79167
766.431	2877.79167
770.084	2918.45833
773.734	2952.45833
777.382	2990.125
781.027	3041.125
784.669	3023.125
788.308	3066.79167
791.944	3072.125
795.577	3118.79167
799.208	3123.125
802.835	3149.125
806.46	3164.79167
810.082	3168.79167
813.701	3181.45833
817.317	3217.45833
820.931	3217.79167
824.542	3213.79167
828.149	3172.45833
831.754	3128.125
835.357	3120.79167
838.956	3131.125
842.553	3102.45833
846.146	3077.45833
849.737	3069.125
853.326	3092.45833
856.911	3088.79167
860.493	3133.125
864.073	3139.45833
867.65	3185.125
871.225	3212.79167
874.796	3190.79167
878.365	3236.79167
881.931	3252.125
885.494	3271.125
889.054	3261.45833
892.612	3255.125
896.166	3232.45833
899.719	3203.125
903.268	3170.79167
906.814	3169.125
910.358	3127.45833
913.899	3110.125
917.438	3132.45833
920.973	3112.79167
924.506	3171.79167
928.036	3218.79167
931.564	3235.45833
935.088	3277.125
938.61	3291.125
942.129	3323.45833
945.646	3379.79167
949.16	3473.79167
952.671	3538.125
956.179	3601.125
959.685	3562.125
963.188	3546.125
966.688	3485.125
970.185	3396.125
973.68	3347.125
977.173	3316.125
980.662	3276.125
984.149	3273.45833
987.633	3272.125
991.114	3350.79167
994.593	3417.125
998.069	3518.125
1001.542	3629.45833
1005.013	3545.79167
1008.481	3359.125
1011.947	3304.125
1015.409	3264.125
1018.869	3289.45833
1022.327	3280.45833
1025.782	3258.79167
1029.234	3269.45833
1032.683	3237.125
1036.13	3143.125
1039.574	3018.79167
1043.016	2940.79167
1046.455	2907.125
1049.891	2859.45833
1053.325	2868.79167
1056.756	2872.125
1060.184	2892.45833
1063.61	2895.125
1067.033	2912.45833
1070.454	2904.45833
1073.872	2953.125
1077.287	2941.79167
1080.7	2976.45833
1084.11	2984.79167
1087.517	2969.79167
1090.922	2929.45833
1094.325	2878.79167
1097.724	2850.125
1101.122	2839.125
1104.516	2826.45833
1107.908	2850.45833
1111.298	2888.45833
1114.684	2922.125
1118.069	2930.45833
1121.45	2949.45833
1124.83	2948.45833
1128.206	2988.125
1131.58	3034.79167
1134.951	3120.125
1138.32	3199.79167
1141.687	3325.79167
1145.05	3396.125
1148.412	3400.45833
1151.77	3382.45833
1155.126	3370.79167
1158.48	3382.79167
1161.831	3403.45833
1165.18	3395.79167
1168.525	3463.79167
1171.869	3494.45833
1175.21	3520.79167
1178.548	3580.45833
1181.884	3595.79167
1185.217	3631.125
1188.548	3712.79167
1191.877	3752.45833
1195.202	3848.79167
1198.526	3926.79167
1201.846	3931.45833
1205.165	3933.45833
1208.48	3933.45833
1211.794	3903.125
1215.104	3894.79167
1218.413	3926.125
1221.719	3908.79167
1225.022	3885.125
1228.323	3825.45833
1231.621	3824.45833
1234.917	3793.79167
1238.21	3831.125
1241.501	3808.125
1244.79	3832.45833
1248.076	3819.45833
1251.359	3853.125
1254.64	3906.125
1257.919	3946.125
1261.195	4011.125
1264.468	4085.125
1267.74	4116.125
1271.008	4162.79167
1274.275	4123.79167
1277.538	4110.79167
1280.8	4105.45833
1284.059	4076.45833
1287.315	4145.79167
1290.569	4139.125
1293.821	4191.125
1297.07	4182.45833
1300.317	4192.45833
1303.562	4154.45833
1306.803	4117.125
1310.043	4079.79167
1313.28	4040.79167
1316.515	4017.45833
1319.747	3975.45833
1322.977	3915.125
1326.204	3885.125
1329.429	3816.79167
1332.652	3806.79167
1335.872	3775.79167
1339.09	3777.79167
1342.306	3795.125
1345.519	3754.45833
1348.729	3688.45833
1351.938	3689.45833
1355.144	3669.45833
1358.347	3609.45833
1361.548	3613.79167
1364.747	3629.125
1367.944	3590.79167
1371.138	3611.125
1374.329	3652.79167
1377.518	3674.79167
1380.705	3724.125
1383.89	3727.79167
1387.072	3595.45833
1390.252	3481.45833
1393.429	3344.45833
1396.605	3235.45833
1399.777	3161.125
1402.948	3112.45833
1406.116	3111.45833
1409.282	3116.79167
1412.445	3133.79167
1415.606	3159.45833
1418.765	3218.79167
1421.921	3273.79167
1425.075	3332.79167
1428.227	3486.125
1431.376	3641.79167
1434.524	3739.79167
1437.668	3821.79167
1440.811	3871.79167
1443.951	3869.125
1447.089	3871.125
1450.224	3866.79167
1453.357	3849.45833
1456.488	3809.45833
1459.617	3770.79167
1462.743	3707.45833
1465.867	3628.79167
1468.989	3604.79167
1472.108	3523.45833
1475.225	3473.125
1478.34	3419.45833
1481.453	3428.79167
1484.563	3414.125
1487.671	3467.45833
1490.776	3519.45833
1493.88	3579.45833
1496.981	3644.125
1500.08	3693.45833
1503.176	3764.125
1506.271	3805.125
1509.363	3893.45833
1512.452	3922.79167
1515.54	3976.45833
1518.625	4072.125
1521.708	4230.125
1524.789	4395.45833
1527.867	4654.125
1530.944	4943.79167
1534.018	5168.45833
1537.089	5333.79167
1540.159	5353.79167
1543.226	5245.125
1546.291	5097.79167
1549.354	4933.79167
1552.415	4801.125
1555.473	4642.79167
1558.529	4528.125
1561.583	4454.125
1564.634	4392.79167
1567.684	4415.79167
1570.731	4388.125
1573.776	4417.79167
1576.819	4453.125
1579.859	4492.125
1582.898	4533.45833
1585.934	4553.45833
1588.968	4577.45833
1591.999	4560.125
1595.029	4522.79167
1598.056	4571.125
1601.081	4593.45833
1604.104	4589.125
1607.125	4538.45833
1610.144	4417.125
1613.16	4317.45833
1616.174	4221.45833
1619.186	4121.45833
1622.196	4079.45833
1625.203	3968.125
1628.209	3916.45833
1631.212	3926.45833
1634.213	3941.125
1637.212	3923.125
1640.209	3862.79167
1643.203	3779.79167
1646.196	3655.125
1649.186	3518.125
1652.174	3437.125
1655.16	3365.45833
1658.144	3242.125
1661.125	3098.79167
1664.105	2968.45833
1667.082	2867.45833
1670.057	2680.125
1673.03	2519.79167
1676.001	2359.79167
1678.97	2198.125
1681.937	2079.45833
1684.901	1934.79167
1687.863	1883.79167
1690.824	1796.79167
1693.782	1780.79167
1696.738	1701.79167
1699.692	1691.79167
1702.643	1660.79167
1705.593	1644.125
1708.54	1579.45833
1711.486	1590.79167
1714.429	1569.45833
1717.37	1568.79167
1720.309	1532.125
1723.246	1530.45833
1726.181	1483.45833
1729.113	1498.79167
1732.044	1475.125
1734.972	1445.125
1737.899	1460.79167
1740.823	1447.79167
1743.745	1448.79167
1746.665	1399.45833
1749.583	1388.125
1752.499	1369.45833
1755.413	1351.45833
1758.325	1320.125
1761.235	1334.125
1764.142	1292.125
1767.048	1285.125
1769.951	1286.79167
1772.852	1264.79167
1775.752	1254.125
1778.649	1255.125
1781.544	1262.45833
1784.437	1233.125
1787.328	1245.79167
1790.217	1225.45833
1793.104	1205.125
1795.989	1191.45833
1798.872	1192.45833
1801.753	1209.125
1804.631	1207.45833
1807.508	1204.125
1810.383	1207.45833
1813.255	1194.45833
1816.126	1172.79167
1818.994	1195.79167
1821.861	1176.125
1824.725	1168.45833
1827.587	1174.45833
1830.448	1161.125
1833.306	1143.79167
1836.162	1148.45833
1839.017	1141.79167
1841.869	1143.45833
1844.719	1142.45833
1847.567	1124.125
1850.414	1106.125
1853.258	1120.79167
1856.1	1122.125
1858.94	1125.79167
1861.778	1124.45833
1864.614	1100.79167
1867.448	1122.125
1870.28	1081.45833
1873.111	1121.79167
1875.939	1112.79167
1878.765	1129.79167
1881.589	1097.45833
1884.411	1109.45833
1887.231	1106.45833
1890.049	1095.45833
1892.865	1101.45833
1895.68	1079.45833
1898.492	1090.125
1901.302	1059.125
1904.11	1059.45833
1906.916	1054.45833
1909.721	1055.45833
1912.523	1071.45833
1915.323	1044.79167
1918.122	1054.125
1920.918	1057.79167
1923.712	1044.45833
1926.505	1054.125
1929.295	1026.45833
1932.084	1058.79167
1934.87	1054.79167
1937.655	1038.45833
1940.438	1035.79167
1943.218	1032.79167
1945.997	1036.79167
1948.774	1049.79167
1951.549	1036.125
1954.322	1024.45833
1957.093	1036.45833
1959.862	1012.79167
1962.629	1016.125
1965.394	994.45833
1968.157	996.125
1970.918	1015.79167
1973.678	997.45833
1976.435	1013.45833
1979.19	998.79167
1981.944	991.79167
1984.696	982.45833
1987.445	966.45833
1990.193	973.45833
1992.939	991.125
1995.683	985.45833
1998.425	956.79167
2001.165	995.45833
2003.903	966.45833
2006.639	966.79167
2009.374	965.45833
2012.106	986.79167
2014.837	951.125
2017.566	970.45833
2020.292	963.79167
2023.017	961.45833
2025.74	969.125
2028.461	953.125
2031.18	975.45833
2033.898	942.79167
2036.613	948.45833
2039.327	957.45833
2042.038	938.125
2044.748	933.45833
2047.456	950.125
2050.162	914.45833
2052.866	929.125
2055.568	939.125
2058.268	924.125
2060.967	926.45833
2063.663	899.45833
2066.358	917.45833
2069.051	920.125
2071.742	927.125
2074.431	928.79167
2077.118	924.125
2079.804	919.125
2082.487	905.45833
2085.169	934.45833
2087.849	932.125
2090.527	914.45833
2093.203	932.79167
2095.877	939.45833
2098.55	934.45833
2101.22	943.79167
2103.889	953.79167
2106.556	959.125
2109.221	987.79167
2111.884	1014.45833
2114.546	1069.45833
2117.205	1140.125
2119.863	1207.79167
2122.519	1278.79167
2125.173	1353.45833
2127.825	1431.45833
2130.475	1464.125
2133.124	1419.45833
2135.771	1362.45833
2138.416	1323.125
2141.059	1233.45833
2143.7	1190.125
2146.339	1114.45833
2148.977	1059.125
2151.613	1059.45833
2154.247	1027.45833
2156.879	1004.79167
2159.51	996.125
2162.138	956.125
2164.765	960.125
2167.39	947.79167
2170.013	952.45833
2172.634	949.125
2175.254	921.79167
2177.872	949.45833
2180.488	915.79167
2183.102	910.79167
2185.714	891.45833
2188.325	874.45833
2190.934	872.45833
2193.541	869.45833
2196.146	868.79167
2198.75	841.79167
2201.351	843.79167
2203.951	832.45833
2206.549	849.45833
2209.146	831.79167
2211.74	830.45833
2214.333	828.125
2216.924	804.45833
2219.514	816.45833
2222.101	798.79167
2224.687	818.125
2227.271	806.79167
2229.853	786.79167
2232.433	781.45833
2235.012	799.125
2237.589	797.79167
2240.164	808.125
2242.738	799.45833
2245.309	785.125
2247.879	786.79167
2250.448	800.125
2253.014	751.79167
2255.579	744.79167
2258.142	763.45833
2260.703	736.45833
2263.262	739.79167
2265.82	727.79167
2268.376	749.45833
2270.93	725.125
2273.483	722.45833
2276.033	732.79167
2278.583	716.79167
2281.13	714.125
2283.675	715.125
2286.219	724.45833
2288.761	707.125
2291.302	709.79167
2293.841	719.79167
2296.377	700.45833
2298.913	685.45833
2301.446	707.79167
2303.978	697.79167
2306.508	699.125
2309.037	695.45833
2311.563	707.125
2314.088	701.125
2316.612	673.79167
2319.133	691.125
2321.653	684.79167
2324.171	674.45833
2326.688	680.125
2329.202	669.125
2331.715	678.45833
2334.227	675.125
2336.736	671.79167
2339.244	660.125
2341.751	653.45833
2344.255	666.79167
2346.758	658.45833
2349.259	650.125
2351.759	653.79167
2354.257	643.79167
2356.753	645.45833
2359.247	654.45833
2361.74	655.45833
2364.231	650.125
2366.721	651.79167
2369.209	635.45833
2371.695	645.45833
2374.179	639.45833
2376.662	640.79167
2379.143	662.45833
2381.622	644.45833
2384.1	642.45833
2386.576	642.125
2389.051	647.45833
2391.524	649.125
2393.995	647.125
2396.464	628.45833
2398.932	634.125
2401.398	631.125
2403.863	628.79167
2406.325	619.125
2408.787	625.125
2411.246	629.45833
2413.704	625.45833
2416.16	609.45833
2418.615	609.45833
2421.068	632.125
2423.519	624.45833
2425.969	611.125
2428.417	622.125
2430.863	634.79167
2433.308	628.125
2435.751	617.45833
2438.193	613.125
2440.633	624.125
2443.071	609.79167
2445.508	604.79167
2447.943	600.125
2450.376	610.79167
2452.808	604.79167
2455.238	595.45833
2457.667	631.125
2460.093	595.125
2462.519	595.45833
2464.942	591.79167
2467.365	606.79167
2469.785	588.45833
2472.204	589.79167
2474.621	583.125
2477.037	609.125
2479.451	572.125
2481.863	579.79167
2484.274	577.79167
2486.683	584.125
2489.091	600.125
2491.497	589.45833
2493.901	577.45833
2496.304	578.79167
2498.705	589.79167
2501.105	583.125
2503.503	606.45833
2505.899	581.45833
2508.294	587.125
2510.687	577.125
2513.079	585.125
2515.469	575.125
2517.858	567.125
2520.245	585.45833
2522.63	565.125
2525.014	563.79167
2527.396	563.79167
2529.776	564.79167
2532.156	566.125
2534.533	552.45833
2536.909	565.79167
2539.283	548.125
2541.656	554.125
2544.027	585.125
2546.397	568.45833
2548.765	551.45833
2551.131	563.45833
2553.496	567.79167
2555.86	573.125
2558.221	561.125
2560.582	558.45833
2562.94	538.79167
2565.298	550.125
2567.653	579.125
2570.007	543.79167
2572.36	557.79167
2574.711	547.79167
2577.06	567.125
2579.408	561.125
2581.754	558.79167
2584.099	556.79167
2586.442	551.125
2588.784	558.125
2591.124	557.125
2593.463	549.125
2595.8	552.45833
2598.135	538.45833
2600.469	547.45833
2602.802	565.79167
2605.133	554.45833
2607.462	540.125
2609.79	542.125
2612.116	558.79167
2614.441	539.125
2616.764	558.45833
2619.086	551.125
2621.406	543.45833
2623.725	560.79167
2626.042	560.79167
2628.358	546.125
2630.672	553.45833
2632.985	564.125
2635.296	562.125
2637.606	558.125
2639.914	540.125
2642.22	550.79167
2644.525	547.79167
2646.829	563.125
2649.131	574.125
2651.432	575.125
2653.731	558.125
2656.028	575.45833
2658.324	559.45833
2660.619	562.125
2662.912	574.79167
2665.204	552.79167
2667.494	571.79167
2669.782	559.125
2672.07	562.125
2674.355	572.45833
2676.639	557.79167
2678.922	564.79167
2681.203	566.79167
2683.483	556.125
2685.761	562.79167
2688.038	571.79167
2690.313	583.125
2692.587	563.125
2694.859	566.45833
2697.13	566.45833
2699.399	576.125
2701.667	585.125
2703.933	583.79167
2706.198	588.45833
2708.461	592.125
2710.723	600.125
2712.984	592.45833
2715.243	606.79167
2717.5	598.125
2719.757	618.45833
2722.011	616.79167
2724.264	617.125
2726.516	635.125
2728.766	608.79167
2731.015	619.45833
2733.262	612.125
2735.508	605.79167
2737.753	619.125
2739.996	599.79167
2742.237	591.79167
2744.477	617.125
2746.716	604.79167
2748.953	595.45833
2751.189	600.125
2753.423	589.45833
2755.656	589.79167
2757.887	579.79167
2760.117	583.45833
2762.346	582.79167
2764.573	577.125
2766.798	575.125
2769.022	584.79167
2771.245	593.79167
2773.467	587.125
2775.686	602.79167
2777.905	594.45833
2780.122	600.79167
2782.337	614.45833
2784.552	614.45833
2786.764	620.125
2788.976	619.125
2791.186	630.45833
2793.394	628.125
2795.601	642.125
2797.807	650.79167
2800.011	668.125
2802.214	676.79167
2804.415	680.45833
2806.615	679.45833
2808.814	692.125
2811.011	694.79167
2813.206	684.79167
2815.401	723.45833
2817.594	722.125
2819.785	741.79167
2821.975	724.79167
2824.164	741.79167
2826.351	755.79167
2828.537	790.45833
2830.722	799.79167
2832.905	809.79167
2835.086	832.45833
2837.267	876.79167
2839.445	916.45833
2841.623	936.79167
2843.799	961.45833
2845.974	1016.125
2848.147	1039.45833
2850.319	1076.125
2852.489	1125.45833
2854.659	1118.45833
2856.826	1155.45833
2858.993	1178.125
2861.158	1144.79167
2863.321	1161.79167
2865.483	1168.125
2867.644	1176.125
2869.804	1165.45833
2871.962	1155.79167
2874.118	1169.79167
2876.274	1157.125
2878.428	1161.45833
2880.58	1145.45833
2882.731	1133.45833
2884.881	1143.79167
2887.03	1144.79167
2889.177	1138.45833
2891.322	1144.45833
2893.467	1162.79167
2895.61	1167.45833
2897.751	1181.45833
2899.892	1167.125
2902.03	1185.45833
2904.168	1200.45833
2906.304	1196.45833
2908.439	1219.45833
2910.572	1193.125
2912.704	1218.79167
2914.835	1213.45833
2916.965	1195.125
2919.093	1216.45833
2921.219	1170.79167
2923.345	1190.45833
2925.469	1157.45833
2927.591	1159.79167
2929.712	1111.125
2931.832	1098.79167
2933.951	1080.79167
2936.068	1044.45833
2938.184	1023.45833
2940.299	981.79167
2942.412	963.45833
2944.524	929.45833
2946.634	907.79167
2948.744	849.125
2950.851	873.45833
2952.958	818.45833
2955.063	800.125
2957.167	792.125
2959.269	759.79167
2961.371	780.125
2963.471	736.79167
2965.569	722.79167
2967.666	700.45833
2969.762	687.125
2971.857	681.125
2973.95	640.79167
2976.042	641.45833
2978.133	620.125
2980.222	609.125
2982.31	575.79167
2984.396	564.45833
2986.482	562.79167
2988.566	550.45833
2990.648	564.45833
2992.73	550.79167
2994.81	535.45833
2996.889	538.125
2998.966	524.79167
3001.042	523.45833
3003.117	517.79167
3005.191	525.125
3007.263	513.79167
3009.334	504.79167
3011.403	502.45833
3013.472	484.125
3015.539	479.79167
3017.604	494.79167
3019.669	450.125
3021.732	467.125
3023.794	468.125
3025.854	450.79167
3027.914	438.79167
3029.971	458.125
3032.028	446.125
3034.083	449.79167
3036.137	441.79167
3038.19	420.125
3040.242	416.45833
3042.292	404.125
3044.341	401.125
3046.388	407.125
3048.435	391.45833
3050.48	415.79167
3052.524	393.125
3054.566	374.125
3056.607	391.125
3058.647	377.79167
3060.686	358.79167
3062.723	350.79167
3064.759	335.125
3066.794	0.45833
3068.828	0.125
3070.86	-3.20833
