-0.839	507.33333
3.438	517.66667
7.711	138.66667
11.981	54.66667
16.247	46
20.509	45.66667
24.768	48.66667
29.024	45.33333
33.276	39
37.524	46.66667
41.769	38.66667
46.01	35
50.247	49.66667
54.481	56
58.712	68.66667
62.939	47.33333
67.162	59
71.382	54.33333
75.599	47.66667
79.812	63.66667
84.021	80.33333
88.227	58.33333
92.429	63.33333
96.628	48.66667
100.823	62.66667
105.015	72
109.204	74
113.388	74
117.57	74
121.748	82
125.922	75
130.093	97.33333
134.261	100.33333
138.425	91.33333
142.585	135
146.742	131.66667
150.896	162
155.046	204.66667
159.193	323.66667
163.336	557.33333
167.476	1012.66667
171.613	1843
175.746	3065.33333
179.875	4508.33333
184.002	5839.66667
188.124	6678
192.244	6899
196.36	6778.33333
200.472	6534.33333
204.581	6250.66667
208.687	6014.66667
212.79	5881
216.889	5839.66667
220.984	5836
225.077	5838.66667
229.165	5845
233.251	5867.66667
237.333	5831.66667
241.412	5782.33333
245.487	5779.66667
249.559	5710
253.628	5623.66667
257.694	5595.33333
261.756	5559.66667
265.814	5453
269.87	5292.33333
273.922	5130
277.97	5079
282.016	5020.33333
286.058	4990
290.097	5008.33333
294.132	5057.66667
298.164	4972.66667
302.193	4782.33333
306.219	4423.33333
310.241	4068.66667
314.26	3717.33333
318.276	3393
322.288	3201.66667
326.297	3012
330.303	2880.33333
334.305	2820
338.305	2723
342.301	2695
346.294	2662.33333
350.283	2627
354.269	2622
358.252	2575.33333
362.232	2558.66667
366.209	2540
370.182	2509.33333
374.152	2481
378.119	2505
382.083	2483
386.043	2507.66667
390	2456
393.954	2462.33333
397.905	2435
401.852	2417
405.797	2385.33333
409.738	2355
413.676	2376
417.61	2330
421.542	2312.33333
425.47	2315
429.396	2310.66667
433.318	2273.66667
437.236	2279
441.152	2288.33333
445.065	2242
448.974	2251.33333
452.88	2209
456.783	2209.33333
460.683	2203.66667
464.58	2206.33333
468.473	2201.33333
472.364	2199
476.251	2212.66667
480.135	2206
484.016	2240.33333
487.894	2265.33333
491.769	2253.66667
495.641	2254
499.509	2268.33333
503.375	2258.66667
507.237	2254.33333
511.096	2257.33333
514.952	2305.33333
518.805	2383.33333
522.655	2394.66667
526.502	2298
530.346	2257.33333
534.187	2266.66667
538.024	2274
541.859	2268.66667
545.69	2279
549.519	2238
553.344	2234
557.166	2211
560.985	2188
564.802	2170
568.615	2135
572.425	2102.66667
576.232	2079.33333
580.036	2091.33333
583.836	2099
587.634	2098.66667
591.429	2097
595.221	2144.33333
599.01	2170.66667
602.796	2185
606.578	2212.66667
610.358	2227.33333
614.135	2214.33333
617.909	2211
621.679	2175
625.447	2155.66667
629.212	2166.66667
632.973	2167.33333
636.732	2165.66667
640.488	2165.33333
644.241	2126.66667
647.991	2155.33333
651.737	2178
655.481	2160.33333
659.222	2205
662.96	2191.66667
666.695	2230
670.427	2223.33333
674.156	2232.66667
677.882	2197.33333
681.605	2156.33333
685.325	2149
689.043	2155
692.757	2136
696.468	2148.33333
700.177	2140
703.882	2145.33333
707.585	2138
711.284	2140
714.981	2134
718.675	2148.33333
722.366	2160
726.054	2134
729.739	2130.66667
733.421	2128.33333
737.1	2135.33333
740.777	2163.33333
744.45	2162.66667
748.121	2170.33333
751.789	2212
755.453	2196.66667
759.115	2205.33333
762.774	2236.33333
766.431	2254.66667
770.084	2287
773.734	2290.66667
777.382	2336.33333
781.027	2360
784.669	2349.66667
788.308	2384.33333
791.944	2437.66667
795.577	2459.33333
799.208	2488.33333
802.835	2491.66667
806.46	2496
810.082	2542.33333
813.701	2599.66667
817.317	2596
820.931	2544
824.542	2547.66667
828.149	2510
831.754	2471
835.357	2443
838.956	2445.66667
842.553	2411.33333
846.146	2406.33333
849.737	2384
853.326	2393
856.911	2395
860.493	2427
864.073	2433.66667
867.65	2488.66667
871.225	2513
874.796	2488.66667
878.365	2514.66667
881.931	2524.66667
885.494	2537.33333
889.054	2530
892.612	2562
896.166	2519
899.719	2479
903.268	2485.66667
906.814	2462
910.358	2439.66667
913.899	2429.66667
917.438	2459
920.973	2425.33333
924.506	2505.33333
928.036	2541.66667
931.564	2572
935.088	2592.33333
938.61	2609
942.129	2625.66667
945.646	2679.33333
949.16	2736
952.671	2792.66667
956.179	2833
959.685	2839
963.188	2867
966.688	2831.33333
970.185	2754.66667
973.68	2648.33333
977.173	2597.33333
980.662	2565.66667
984.149	2547
987.633	2543.66667
991.114	2575
994.593	2630.33333
998.069	2706.33333
1001.542	2778
1005.013	2724.33333
1008.481	2604.33333
1011.947	2545.33333
1015.409	2537.33333
1018.869	2562.66667
1022.327	2537.66667
1025.782	2529.66667
1029.234	2541
1032.683	2526.33333
1036.13	2434.33333
1039.574	2371.33333
1043.016	2282.66667
1046.455	2259.33333
1049.891	2253
1053.325	2259.66667
1056.756	2220.33333
1060.184	2262
1063.61	2277.66667
1067.033	2286.33333
1070.454	2281.33333
1073.872	2344.66667
1077.287	2330
1080.7	2351.33333
1084.11	2345.66667
1087.517	2329
1090.922	2305.66667
1094.325	2259
1097.724	2231.66667
1101.122	2224.66667
1104.516	2212
1107.908	2237.66667
1111.298	2286.33333
1114.684	2311.33333
1118.069	2328.66667
1121.45	2347
1124.83	2342.66667
1128.206	2354.33333
1131.58	2366.33333
1134.951	2448.66667
1138.32	2519.66667
1141.687	2630.33333
1145.05	2688
1148.412	2704.33333
1151.77	2693.66667
1155.126	2663
1158.48	2650
1161.831	2686.33333
1165.18	2704
1168.525	2725
1171.869	2761.66667
1175.21	2777.33333
1178.548	2804.66667
1181.884	2872.33333
1185.217	2867.33333
1188.548	2910.33333
1191.877	2999
1195.202	3075.33333
1198.526	3114
1201.846	3150
1205.165	3173
1208.48	3158.66667
1211.794	3151.66667
1215.104	3150
1218.413	3184.33333
1221.719	3137
1225.022	3119
1228.323	3106.66667
1231.621	3091.33333
1234.917	3056.33333
1238.21	3096
1241.501	3068
1244.79	3050.66667
1248.076	3030.33333
1251.359	3092.66667
1254.64	3125
1257.919	3147
1261.195	3187.33333
1264.468	3243.66667
1267.74	3283.33333
1271.008	3283.33333
1274.275	3284
1277.538	3249.33333
1280.8	3254.66667
1284.059	3287
1287.315	3309
1290.569	3307.33333
1293.821	3335.66667
1297.07	3339.33333
1300.317	3378
1303.562	3363.66667
1306.803	3335.66667
1310.043	3307.33333
1313.28	3276.33333
1316.515	3253.66667
1319.747	3240
1322.977	3218
1326.204	3138.33333
1329.429	3118.66667
1332.652	3121.33333
1335.872	3101
1339.09	3067.66667
1342.306	3061
1345.519	3026.33333
1348.729	3012.66667
1351.938	3003.33333
1355.144	2980
1358.347	2919
1361.548	2920
1364.747	2929.66667
1367.944	2907.66667
1371.138	2899.33333
1374.329	2886.66667
1377.518	2929.33333
1380.705	2943.66667
1383.89	2932.33333
1387.072	2835
1390.252	2725.33333
1393.429	2653.66667
1396.605	2555.33333
1399.777	2494.33333
1402.948	2479
1406.116	2449
1409.282	2460.33333
1412.445	2442.33333
1415.606	2496
1418.765	2540.66667
1421.921	2593.33333
1425.075	2648.66667
1428.227	2749.33333
1431.376	2871.66667
1434.524	2977.33333
1437.668	3043.33333
1440.811	3096.66667
1443.951	3085.33333
1447.089	3122.66667
1450.224	3100
1453.357	3054.66667
1456.488	3036
1459.617	2993
1462.743	2954.33333
1465.867	2899.66667
1468.989	2868.33333
1472.108	2810
1475.225	2763.66667
1478.34	2747.66667
1481.453	2734.33333
1484.563	2757.66667
1487.671	2796.33333
1490.776	2801.66667
1493.88	2867
1496.981	2926.66667
1500.08	2979
1503.176	3000.66667
1506.271	3009.33333
1509.363	3098.66667
1512.452	3113.66667
1515.54	3171.66667
1518.625	3213
1521.708	3308.33333
1524.789	3468.66667
1527.867	3658.66667
1530.944	3827.66667
1534.018	3985
1537.089	4104.33333
1540.159	4081.33333
1543.226	3998.66667
1546.291	3854.66667
1549.354	3774
1552.415	3638.66667
1555.473	3563
1558.529	3528.33333
1561.583	3504
1564.634	3431.66667
1567.684	3473.33333
1570.731	3498
1573.776	3552
1576.819	3601.66667
1579.859	3655
1582.898	3697.33333
1585.934	3721
1588.968	3733.66667
1591.999	3744
1595.029	3747
1598.056	3773.33333
1601.081	3806.33333
1604.104	3785
1607.125	3749
1610.144	3669
1613.16	3585.33333
1616.174	3491.33333
1619.186	3420
1622.196	3339.33333
1625.203	3260.33333
1628.209	3261
1631.212	3256
1634.213	3252.66667
1637.212	3296
1640.209	3269.66667
1643.203	3192.33333
1646.196	3106.66667
1649.186	2938
1652.174	2828.66667
1655.16	2729.33333
1658.144	2660.66667
1661.125	2508.33333
1664.105	2354
1667.082	2206.66667
1670.057	2081
1673.03	1954
1676.001	1847.33333
1678.97	1719.66667
1681.937	1626
1684.901	1537.66667
1687.863	1496
1690.824	1437
1693.782	1411
1696.738	1363
1699.692	1336.33333
1702.643	1302
1705.593	1277.33333
1708.54	1267.66667
1711.486	1276.66667
1714.429	1233.66667
1717.37	1227
1720.309	1204.66667
1723.246	1199.66667
1726.181	1183.66667
1729.113	1186.66667
1732.044	1164.33333
1734.972	1152.33333
1737.899	1159.33333
1740.823	1139.33333
1743.745	1165
1746.665	1112.66667
1749.583	1086.33333
1752.499	1066.66667
1755.413	1057.66667
1758.325	1013
1761.235	1029.33333
1764.142	1000
1767.048	994.66667
1769.951	994.66667
1772.852	988.33333
1775.752	979.33333
1778.649	978
1781.544	986.33333
1784.437	960.33333
1787.328	956.66667
1790.217	955.33333
1793.104	930.33333
1795.989	935
1798.872	919
1801.753	948.66667
1804.631	933.33333
1807.508	931.33333
1810.383	924
1813.255	920
1816.126	917.33333
1818.994	909.66667
1821.861	901.33333
1824.725	900.66667
1827.587	895
1830.448	893.33333
1833.306	867.66667
1836.162	888.33333
1839.017	872
1841.869	874.66667
1844.719	875.66667
1847.567	859.33333
1850.414	848
1853.258	853.66667
1856.1	865.66667
1858.94	869.66667
1861.778	867.66667
1864.614	860.33333
1867.448	858.33333
1870.28	838.66667
1873.111	867.66667
1875.939	852.33333
1878.765	879
1881.589	848
1884.411	844.66667
1887.231	849
1890.049	843.33333
1892.865	826
1895.68	827.66667
1898.492	827
1901.302	833.66667
1904.11	828.66667
1906.916	816
1909.721	816.33333
1912.523	827.33333
1915.323	806.33333
1918.122	818
1920.918	811.66667
1923.712	794.33333
1926.505	810.33333
1929.295	792.66667
1932.084	799
1934.87	795.33333
1937.655	793
1940.438	793.66667
1943.218	795
1945.997	806
1948.774	799
1951.549	796
1954.322	787.66667
1957.093	785.33333
1959.862	785.66667
1962.629	775
1965.394	754.66667
1968.157	760.33333
1970.918	769.66667
1973.678	762
1976.435	778.33333
1979.19	756
1981.944	753
1984.696	760.66667
1987.445	755
1990.193	751.33333
1992.939	764
1995.683	753.33333
1998.425	738
2001.165	762.66667
2003.903	739.66667
2006.639	734.66667
2009.374	748.66667
2012.106	741
2014.837	706
2017.566	743.33333
2020.292	740.33333
2023.017	743
2025.74	720.66667
2028.461	742
2031.18	723
2033.898	708.66667
2036.613	732
2039.327	732.66667
2042.038	713
2044.748	729.66667
2047.456	715.66667
2050.162	698.66667
2052.866	708.66667
2055.568	715.66667
2058.268	703.33333
2060.967	710
2063.663	697
2066.358	702
2069.051	704.33333
2071.742	703.33333
2074.431	708
2077.118	703.66667
2079.804	684.33333
2082.487	692.66667
2085.169	711.66667
2087.849	720
2090.527	689.33333
2093.203	709.66667
2095.877	708.33333
2098.55	705.66667
2101.22	715
2103.889	717
2106.556	719.33333
2109.221	739.33333
2111.884	759
2114.546	805.66667
2117.205	845.33333
2119.863	912
2122.519	941.66667
2125.173	1019.66667
2127.825	1081.33333
2130.475	1077
2133.124	1046.66667
2135.771	1020
2138.416	987.33333
2141.059	926.66667
2143.7	893.33333
2146.339	834.33333
2148.977	796
2151.613	787.33333
2154.247	765.33333
2156.879	742
2159.51	728.66667
2162.138	720.66667
2164.765	722.33333
2167.39	696.66667
2170.013	726.33333
2172.634	722.66667
2175.254	690
2177.872	724.66667
2180.488	692.33333
2183.102	687
2185.714	668.33333
2188.325	645.33333
2190.934	653.66667
2193.541	662.33333
2196.146	650
2198.75	641.33333
2201.351	634.33333
2203.951	618
2206.549	630.66667
2209.146	623.66667
2211.74	622
2214.333	628.66667
2216.924	613.66667
2219.514	615
2222.101	599.33333
2224.687	620.66667
2227.271	610.66667
2229.853	600
2232.433	600
2235.012	615.66667
2237.589	615.66667
2240.164	621.33333
2242.738	612.33333
2245.309	596
2247.879	602
2250.448	598.33333
2253.014	575
2255.579	570
2258.142	570
2260.703	566.66667
2263.262	568.66667
2265.82	559
2268.376	567.66667
2270.93	546.33333
2273.483	553.33333
2276.033	556.33333
2278.583	551.33333
2281.13	547.66667
2283.675	537.66667
2286.219	549
2288.761	538
2291.302	549
2293.841	552.33333
2296.377	528
2298.913	529.33333
2301.446	544.33333
2303.978	540.66667
2306.508	520
2309.037	534.33333
2311.563	534
2314.088	541.33333
2316.612	516.66667
2319.133	524.33333
2321.653	517
2324.171	518
2326.688	533.66667
2329.202	515.33333
2331.715	506.33333
2334.227	521.33333
2336.736	514
2339.244	513
2341.751	501.33333
2344.255	515
2346.758	501.66667
2349.259	498.33333
2351.759	504
2354.257	497
2356.753	496
2359.247	501
2361.74	511.33333
2364.231	500.66667
2366.721	508.33333
2369.209	497
2371.695	485.33333
2374.179	487
2376.662	494
2379.143	514.66667
2381.622	481
2384.1	498.66667
2386.576	484.33333
2389.051	508.33333
2391.524	510
2393.995	506
2396.464	488.33333
2398.932	481
2401.398	488
2403.863	488
2406.325	483.66667
2408.787	491.66667
2411.246	486
2413.704	488
2416.16	483.66667
2418.615	479.66667
2421.068	488.66667
2423.519	486.33333
2425.969	475.33333
2428.417	484.33333
2430.863	503.66667
2433.308	491.66667
2435.751	482
2438.193	470
2440.633	486.66667
2443.071	482.66667
2445.508	460
2447.943	472
2450.376	470
2452.808	474.66667
2455.238	468
2457.667	492.66667
2460.093	472.33333
2462.519	454
2464.942	472.33333
2467.365	472.66667
2469.785	473
2472.204	468.33333
2474.621	467
2477.037	475.33333
2479.451	452.33333
2481.863	451.33333
2484.274	456.33333
2486.683	465
2489.091	467.66667
2491.497	471
2493.901	470.66667
2496.304	462
2498.705	467.66667
2501.105	456.66667
2503.503	474.33333
2505.899	460.66667
2508.294	473
2510.687	450
2513.079	454.66667
2515.469	453
2517.858	449
2520.245	466.66667
2522.63	452.66667
2525.014	450
2527.396	453.66667
2529.776	447.66667
2532.156	459
2534.533	446.66667
2536.909	451
2539.283	438.33333
2541.656	443.33333
2544.027	470.66667
2546.397	458
2548.765	451
2551.131	448.33333
2553.496	448.33333
2555.86	457.66667
2558.221	447.66667
2560.582	453
2562.94	429.66667
2565.298	440.33333
2567.653	462.33333
2570.007	435.66667
2572.36	457
2574.711	448.33333
2577.06	465.66667
2579.408	447
2581.754	450.66667
2584.099	446
2586.442	447.66667
2588.784	445.66667
2591.124	446.33333
2593.463	448.66667
2595.8	446.33333
2598.135	442.66667
2600.469	444.66667
2602.802	448
2605.133	454
2607.462	431.66667
2609.79	440
2612.116	448.33333
2614.441	441.66667
2616.764	451.66667
2619.086	449.33333
2621.406	441.33333
2623.725	456
2626.042	446.66667
2628.358	442.66667
2630.672	445
2632.985	456
2635.296	455.33333
2637.606	450
2639.914	446
2642.22	458.66667
2644.525	446
2646.829	459
2649.131	479
2651.432	470.33333
2653.731	453.66667
2656.028	469
2658.324	461.66667
2660.619	455.66667
2662.912	469.33333
2665.204	452.33333
2667.494	468.33333
2669.782	451.66667
2672.07	464.66667
2674.355	483.66667
2676.639	464
2678.922	448.66667
2681.203	475.33333
2683.483	454
2685.761	456.33333
2688.038	475.66667
2690.313	487.33333
2692.587	471.66667
2694.859	462
2697.13	470.66667
2699.399	478
2701.667	489.66667
2703.933	486.33333
2706.198	488
2708.461	488.33333
2710.723	498
2712.984	494.66667
2715.243	493.33333
2717.5	497
2719.757	509.33333
2722.011	505.33333
2724.264	511.66667
2726.516	530
2728.766	503.66667
2731.015	513.66667
2733.262	503
2735.508	506
2737.753	508.66667
2739.996	490.33333
2742.237	491.66667
2744.477	506.66667
2746.716	502.33333
2748.953	492.66667
2751.189	495.33333
2753.423	489.33333
2755.656	491.66667
2757.887	489.66667
2760.117	494.66667
2762.346	478.33333
2764.573	472.66667
2766.798	473
2769.022	481
2771.245	488
2773.467	483
2775.686	483
2777.905	489
2780.122	495.66667
2782.337	511
2784.552	488.66667
2786.764	506
2788.976	517.33333
2791.186	515
2793.394	514.33333
2795.601	522.33333
2797.807	535.66667
2800.011	537
2802.214	542.33333
2804.415	562.66667
2806.615	543.66667
2808.814	561.33333
2811.011	566
2813.206	567
2815.401	578.33333
2817.594	591
2819.785	597.66667
2821.975	580.66667
2824.164	590.33333
2826.351	611.66667
2828.537	632.33333
2830.722	638
2832.905	639.33333
2835.086	665.33333
2837.267	700.33333
2839.445	728.66667
2841.623	740.66667
2843.799	763.66667
2845.974	804
2848.147	838.66667
2850.319	835.66667
2852.489	891
2854.659	890
2856.826	908
2858.993	912.33333
2861.158	916.66667
2863.321	909.33333
2865.483	932.66667
2867.644	932
2869.804	929
2871.962	916.33333
2874.118	913
2876.274	914
2878.428	923.66667
2880.58	913
2882.731	903
2884.881	916.66667
2887.03	904.66667
2889.177	908
2891.322	929.66667
2893.467	916.66667
2895.61	915
2897.751	952
2899.892	938.66667
2902.03	947
2904.168	934
2906.304	945.33333
2908.439	972
2910.572	951.66667
2912.704	974
2914.835	974.33333
2916.965	966.33333
2919.093	974.33333
2921.219	941
2923.345	962.66667
2925.469	942
2927.591	937
2929.712	902.33333
2931.832	901
2933.951	870.33333
2936.068	856.33333
2938.184	845.66667
2940.299	817.33333
2942.412	791.33333
2944.524	763.66667
2946.634	769
2948.744	715.66667
2950.851	732.66667
2952.958	698
2955.063	693.33333
2957.167	688
2959.269	649.33333
2961.371	669.66667
2963.471	639.66667
2965.569	651
2967.666	607.66667
2969.762	597
2971.857	592
2973.95	576.33333
2976.042	577
2978.133	556
2980.222	544.66667
2982.31	523
2984.396	514
2986.482	523
2988.566	520.33333
2990.648	514.33333
2992.73	497.33333
2994.81	487.33333
2996.889	498.33333
2998.966	490.33333
3001.042	493.66667
3003.117	482.66667
3005.191	496.33333
3007.263	482.33333
3009.334	476.33333
3011.403	483
3013.472	455.33333
3015.539	457.66667
3017.604	472
3019.669	435.33333
3021.732	448
3023.794	449.33333
3025.854	429.66667
3027.914	441
3029.971	435.66667
3032.028	429.66667
3034.083	438.66667
3036.137	424
3038.19	404.66667
3040.242	408.66667
3042.292	391
3044.341	382
3046.388	408.66667
3048.435	376.33333
3050.48	400
3052.524	389
3054.566	373
3056.607	384
3058.647	375.66667
3060.686	363
3062.723	347.66667
3064.759	339
3066.794	-0.66667
3068.828	-1.66667
3070.86	-0.66667
