-0.839	482.83333
3.438	516.5
7.711	139.83333
11.981	56.5
16.247	44.83333
20.509	43.83333
24.768	44.16667
29.024	45.16667
33.276	47.83333
37.524	48.16667
41.769	42.83333
46.01	33.16667
50.247	52.83333
54.481	60.83333
58.712	61.5
62.939	48.83333
67.162	59.83333
71.382	57.16667
75.599	47.5
79.812	60.83333
84.021	78.16667
88.227	60.5
92.429	60.5
96.628	46.16667
100.823	66.5
105.015	73.5
109.204	75.5
113.388	70.5
117.57	73.16667
121.748	88.16667
125.922	80.83333
130.093	97.5
134.261	107.16667
138.425	94.5
142.585	138.5
146.742	135.5
150.896	162.83333
155.046	199.83333
159.193	324.16667
163.336	552.16667
167.476	1025.5
171.613	1861.16667
175.746	3120.16667
179.875	4600.5
184.002	5962.16667
188.124	6860.5
192.244	7166.83333
196.36	7049.5
200.472	6792.5
204.581	6569.5
208.687	6365.5
212.79	6262.16667
216.889	6269.83333
220.984	6278.16667
225.077	6305.5
229.165	6303.16667
233.251	6313.83333
237.333	6319.83333
241.412	6291.16667
245.487	6258.83333
249.559	6124.83333
253.628	6103.16667
257.694	6010.83333
261.756	5939.83333
265.814	5768.83333
269.87	5620.16667
273.922	5455.83333
277.97	5368.83333
282.016	5319.16667
286.058	5247.5
290.097	5316.5
294.132	5320.5
298.164	5272.5
302.193	5001.16667
306.219	4646.5
310.241	4222.83333
314.26	3872.16667
318.276	3596.83333
322.288	3372.83333
326.297	3216.83333
330.303	3062.5
334.305	2973.16667
338.305	2907.5
342.301	2869.5
346.294	2854.16667
350.283	2790.16667
354.269	2789.83333
358.252	2788.83333
362.232	2757.83333
366.209	2738.5
370.182	2714.16667
374.152	2691.5
378.119	2707.83333
382.083	2697.5
386.043	2727.5
390	2674.83333
393.954	2672.16667
397.905	2611.5
401.852	2609.5
405.797	2591.83333
409.738	2547.16667
413.676	2548.83333
417.61	2513.16667
421.542	2509.83333
425.47	2485.83333
429.396	2468.83333
433.318	2445.16667
437.236	2435.16667
441.152	2450.83333
445.065	2385.5
448.974	2393.83333
452.88	2368.83333
456.783	2349.5
460.683	2321.16667
464.58	2331.83333
468.473	2346.16667
472.364	2340.5
476.251	2356.5
480.135	2353.16667
484.016	2419.16667
487.894	2398.5
491.769	2406.16667
495.641	2402.83333
499.509	2429.16667
503.375	2414.16667
507.237	2419.83333
511.096	2432.16667
514.952	2501.83333
518.805	2571.83333
522.655	2584.83333
526.502	2460.16667
530.346	2402.83333
534.187	2401.5
538.024	2397.16667
541.859	2391.5
545.69	2424.5
549.519	2385.16667
553.344	2388.83333
557.166	2346.5
560.985	2318.16667
564.802	2304.5
568.615	2263.83333
572.425	2243.5
576.232	2210.16667
580.036	2205.5
583.836	2210.5
587.634	2220.16667
591.429	2214.16667
595.221	2265.5
599.01	2298.16667
602.796	2305.83333
606.578	2316.83333
610.358	2339.83333
614.135	2324.5
617.909	2309.5
621.679	2291.5
625.447	2279.5
629.212	2282.16667
632.973	2304.5
636.732	2286.5
640.488	2295.5
644.241	2241.83333
647.991	2271.5
651.737	2291.83333
655.481	2244.83333
659.222	2252.5
662.96	2264.16667
666.695	2267.16667
670.427	2294.16667
674.156	2278.16667
677.882	2275.16667
681.605	2278.5
685.325	2278.16667
689.043	2268.16667
692.757	2262.16667
696.468	2267.83333
700.177	2282.83333
703.882	2263.5
707.585	2260.83333
711.284	2282.16667
714.981	2258.5
718.675	2268.5
722.366	2300.83333
726.054	2259.83333
729.739	2251.16667
733.421	2250.16667
737.1	2278.5
740.777	2285.5
744.45	2286.16667
748.121	2291.83333
751.789	2362.83333
755.453	2336.83333
759.115	2358.83333
762.774	2379.5
766.431	2394.5
770.084	2413.16667
773.734	2450.83333
777.382	2508.83333
781.027	2511.5
784.669	2542.83333
788.308	2550.16667
791.944	2565.83333
795.577	2599.83333
799.208	2607.5
802.835	2617.83333
806.46	2632.83333
810.082	2647.83333
813.701	2659.83333
817.317	2688.83333
820.931	2688.5
824.542	2687.83333
828.149	2649.83333
831.754	2636.83333
835.357	2610.83333
838.956	2625.83333
842.553	2625.83333
846.146	2585.83333
849.737	2576.5
853.326	2576.16667
856.911	2602.83333
860.493	2653.83333
864.073	2640.83333
867.65	2704.16667
871.225	2739.16667
874.796	2719.5
878.365	2758.5
881.931	2754.5
885.494	2782.83333
889.054	2775.83333
892.612	2765.16667
896.166	2739.16667
899.719	2734.16667
903.268	2696.83333
906.814	2702.5
910.358	2668.5
913.899	2644.16667
917.438	2676.5
920.973	2642.16667
924.506	2689.16667
928.036	2730.5
931.564	2732.83333
935.088	2790.5
938.61	2791.16667
942.129	2828.5
945.646	2867.5
949.16	2952.83333
952.671	2992.16667
956.179	3027.83333
959.685	2980.83333
963.188	2992.5
966.688	2952.83333
970.185	2848.5
973.68	2828.83333
977.173	2805.83333
980.662	2780.5
984.149	2790.5
987.633	2787.5
991.114	2820.5
994.593	2900.83333
998.069	3020.5
1001.542	3109.83333
1005.013	3040.83333
1008.481	2846.5
1011.947	2818.5
1015.409	2791.83333
1018.869	2793.5
1022.327	2783.16667
1025.782	2778.16667
1029.234	2771.83333
1032.683	2755.83333
1036.13	2666.16667
1039.574	2555.16667
1043.016	2486.16667
1046.455	2455.16667
1049.891	2391.16667
1053.325	2411.5
1056.756	2412.83333
1060.184	2435.5
1063.61	2465.5
1067.033	2478.5
1070.454	2464.16667
1073.872	2499.83333
1077.287	2496.83333
1080.7	2509.16667
1084.11	2507.5
1087.517	2502.5
1090.922	2454.5
1094.325	2433.5
1097.724	2398.83333
1101.122	2390.83333
1104.516	2403.16667
1107.908	2414.16667
1111.298	2443.16667
1114.684	2470.16667
1118.069	2497.5
1121.45	2527.16667
1124.83	2507.83333
1128.206	2544.16667
1131.58	2588.5
1134.951	2645.16667
1138.32	2737.83333
1141.687	2864.16667
1145.05	2918.16667
1148.412	2958.83333
1151.77	2918.16667
1155.126	2923.5
1158.48	2910.5
1161.831	2933.5
1165.18	2933.16667
1168.525	3007.83333
1171.869	3029.5
1175.21	3040.16667
1178.548	3105.16667
1181.884	3108.5
1185.217	3134.5
1188.548	3201.83333
1191.877	3238.83333
1195.202	3313.5
1198.526	3376.5
1201.846	3397.83333
1205.165	3389.5
1208.48	3357.83333
1211.794	3401.16667
1215.104	3357.5
1218.413	3381.5
1221.719	3380.16667
1225.022	3368.5
1228.323	3324.83333
1231.621	3304.5
1234.917	3297.83333
1238.21	3318.16667
1241.501	3303.83333
1244.79	3318.16667
1248.076	3307.83333
1251.359	3352.5
1254.64	3432.16667
1257.919	3441.83333
1261.195	3489.16667
1264.468	3544.5
1267.74	3609.83333
1271.008	3593.5
1274.275	3579.16667
1277.538	3574.5
1280.8	3540.16667
1284.059	3529.16667
1287.315	3578.16667
1290.569	3586.83333
1293.821	3629.83333
1297.07	3640.16667
1300.317	3616.16667
1303.562	3622.5
1306.803	3599.5
1310.043	3544.16667
1313.28	3515.83333
1316.515	3473.5
1319.747	3435.5
1322.977	3407.5
1326.204	3374.16667
1329.429	3332.5
1332.652	3297.5
1335.872	3300.83333
1339.09	3306.16667
1342.306	3271.83333
1345.519	3254.83333
1348.729	3239.16667
1351.938	3250.83333
1355.144	3152.16667
1358.347	3136.16667
1361.548	3132.5
1364.747	3150.83333
1367.944	3132.16667
1371.138	3177.16667
1374.329	3178.16667
1377.518	3210.16667
1380.705	3242.5
1383.89	3210.16667
1387.072	3128.16667
1390.252	3011.83333
1393.429	2912.83333
1396.605	2829.5
1399.777	2739.16667
1402.948	2722.16667
1406.116	2680.83333
1409.282	2687.16667
1412.445	2688.16667
1415.606	2739.83333
1418.765	2770.16667
1421.921	2839.5
1425.075	2886.16667
1428.227	2989.83333
1431.376	3105.83333
1434.524	3214.5
1437.668	3291.16667
1440.811	3316.16667
1443.951	3359.83333
1447.089	3345.5
1450.224	3341.83333
1453.357	3342.5
1456.488	3323.5
1459.617	3289.83333
1462.743	3205.16667
1465.867	3132.5
1468.989	3114.5
1472.108	3056.16667
1475.225	2989.16667
1478.34	2952.83333
1481.453	2968.16667
1484.563	2987.16667
1487.671	3020.83333
1490.776	3069.83333
1493.88	3148.16667
1496.981	3235.83333
1500.08	3272.83333
1503.176	3300.83333
1506.271	3353.5
1509.363	3418.5
1512.452	3432.83333
1515.54	3501.16667
1518.625	3568.83333
1521.708	3693.83333
1524.789	3838.16667
1527.867	4051.5
1530.944	4335.16667
1534.018	4557.83333
1537.089	4698.83333
1540.159	4697.83333
1543.226	4581.5
1546.291	4476.83333
1549.354	4348.5
1552.415	4195.16667
1555.473	4079.16667
1558.529	3988.5
1561.583	3970.83333
1564.634	3901.16667
1567.684	3894.16667
1570.731	3884.5
1573.776	3942.16667
1576.819	3978.16667
1579.859	4018.5
1582.898	4079.16667
1585.934	4068.5
1588.968	4090.5
1591.999	4057.5
1595.029	4077.83333
1598.056	4125.16667
1601.081	4113.16667
1604.104	4112.16667
1607.125	4064.16667
1610.144	3973.16667
1613.16	3898.5
1616.174	3842.5
1619.186	3723.5
1622.196	3621.83333
1625.203	3563.83333
1628.209	3501.5
1631.212	3479.5
1634.213	3481.5
1637.212	3470.16667
1640.209	3393.16667
1643.203	3329.5
1646.196	3197.16667
1649.186	3083.83333
1652.174	3003.16667
1655.16	2899.5
1658.144	2824.83333
1661.125	2674.83333
1664.105	2543.16667
1667.082	2430.5
1670.057	2307.16667
1673.03	2168.16667
1676.001	2028.83333
1678.97	1897.5
1681.937	1793.16667
1684.901	1708.83333
1687.863	1641.16667
1690.824	1585.16667
1693.782	1551.83333
1696.738	1495.16667
1699.692	1458.16667
1702.643	1427.83333
1705.593	1404.83333
1708.54	1382.83333
1711.486	1375.16667
1714.429	1344.83333
1717.37	1342.16667
1720.309	1311.83333
1723.246	1292.16667
1726.181	1267.5
1729.113	1298.5
1732.044	1266.5
1734.972	1244.16667
1737.899	1256.16667
1740.823	1244.5
1743.745	1248.16667
1746.665	1204.5
1749.583	1180.5
1752.499	1164.16667
1755.413	1154.83333
1758.325	1125.83333
1761.235	1126.16667
1764.142	1103.5
1767.048	1102.16667
1769.951	1097.16667
1772.852	1078.83333
1775.752	1077.83333
1778.649	1068.83333
1781.544	1062.83333
1784.437	1031.16667
1787.328	1058.5
1790.217	1052.5
1793.104	1026.5
1795.989	1023.5
1798.872	1013.16667
1801.753	1036.83333
1804.631	1044.83333
1807.508	1028.83333
1810.383	1011.83333
1813.255	998.5
1816.126	1001.5
1818.994	1002.83333
1821.861	1001.83333
1824.725	1007.83333
1827.587	998.16667
1830.448	990.83333
1833.306	960.16667
1836.162	980.5
1839.017	967.83333
1841.869	967.5
1844.719	965.5
1847.567	951.83333
1850.414	938.83333
1853.258	933.83333
1856.1	959.16667
1858.94	960.5
1861.778	943.16667
1864.614	947.5
1867.448	948.83333
1870.28	945.16667
1873.111	966.5
1875.939	956.5
1878.765	955.5
1881.589	936.5
1884.411	943.83333
1887.231	956.83333
1890.049	935.83333
1892.865	938.83333
1895.68	926.83333
1898.492	926.83333
1901.302	909.5
1904.11	924.83333
1906.916	894.83333
1909.721	898.5
1912.523	909.83333
1915.323	898.83333
1918.122	885.5
1920.918	905.83333
1923.712	892.16667
1926.505	893.16667
1929.295	886.16667
1932.084	891.5
1934.87	896.5
1937.655	885.5
1940.438	873.83333
1943.218	894.16667
1945.997	891.16667
1948.774	900.5
1951.549	895.16667
1954.322	875.83333
1957.093	891.5
1959.862	887.16667
1962.629	871.16667
1965.394	867.83333
1968.157	851.16667
1970.918	869.5
1973.678	854.16667
1976.435	851.16667
1979.19	864.5
1981.944	852.5
1984.696	853.16667
1987.445	843.16667
1990.193	854.5
1992.939	855.83333
1995.683	859.5
1998.425	832.16667
2001.165	855.5
2003.903	839.5
2006.639	828.16667
2009.374	836.83333
2012.106	842.16667
2014.837	816.5
2017.566	842.5
2020.292	834.16667
2023.017	846.16667
2025.74	817.5
2028.461	826.5
2031.18	821.83333
2033.898	811.83333
2036.613	828.83333
2039.327	838.16667
2042.038	817.16667
2044.748	817.5
2047.456	824.16667
2050.162	795.83333
2052.866	807.83333
2055.568	826.16667
2058.268	803.16667
2060.967	815.83333
2063.663	796.5
2066.358	812.16667
2069.051	798.5
2071.742	811.83333
2074.431	807.5
2077.118	804.83333
2079.804	805.16667
2082.487	814.16667
2085.169	827.16667
2087.849	833.83333
2090.527	817.83333
2093.203	832.83333
2095.877	836.83333
2098.55	834.16667
2101.22	857.16667
2103.889	847.5
2106.556	874.5
2109.221	911.5
2111.884	936.5
2114.546	1002.83333
2117.205	1089.83333
2119.863	1191.83333
2122.519	1288.5
2125.173	1385.5
2127.825	1465.83333
2130.475	1486.83333
2133.124	1462.83333
2135.771	1406.16667
2138.416	1330.5
2141.059	1238.83333
2143.7	1196.16667
2146.339	1110.16667
2148.977	1045.5
2151.613	1022.16667
2154.247	988.5
2156.879	967.83333
2159.51	951.83333
2162.138	922.16667
2164.765	922.83333
2167.39	901.16667
2170.013	922.5
2172.634	918.16667
2175.254	907.5
2177.872	927.16667
2180.488	895.16667
2183.102	890.16667
2185.714	870.16667
2188.325	854.16667
2190.934	851.83333
2193.541	845.83333
2196.146	822.16667
2198.75	798.5
2201.351	812.5
2203.951	762.16667
2206.549	790.16667
2209.146	758.5
2211.74	760.83333
2214.333	775.83333
2216.924	740.5
2219.514	753.5
2222.101	735.16667
2224.687	760.83333
2227.271	740.16667
2229.853	740.5
2232.433	721.5
2235.012	737.16667
2237.589	725.5
2240.164	747.5
2242.738	736.16667
2245.309	718.83333
2247.879	719.16667
2250.448	726.5
2253.014	702.16667
2255.579	700.5
2258.142	699.16667
2260.703	683.5
2263.262	690.16667
2265.82	676.83333
2268.376	683.5
2270.93	667.16667
2273.483	664.5
2276.033	684.5
2278.583	669.5
2281.13	670.83333
2283.675	650.16667
2286.219	670.83333
2288.761	668.5
2291.302	663.5
2293.841	663.5
2296.377	643.83333
2298.913	644.5
2301.446	667.16667
2303.978	655.16667
2306.508	647.83333
2309.037	652.83333
2311.563	650.16667
2314.088	656.5
2316.612	636.83333
2319.133	638.16667
2321.653	645.83333
2324.171	633.83333
2326.688	648.16667
2329.202	628.5
2331.715	639.16667
2334.227	641.83333
2336.736	635.16667
2339.244	631.5
2341.751	623.83333
2344.255	629.5
2346.758	624.5
2349.259	624.5
2351.759	629.83333
2354.257	611.83333
2356.753	618.83333
2359.247	628.16667
2361.74	633.5
2364.231	614.83333
2366.721	629.16667
2369.209	603.5
2371.695	616.83333
2374.179	614.16667
2376.662	618.83333
2379.143	638.16667
2381.622	609.5
2384.1	623.83333
2386.576	617.5
2389.051	635.83333
2391.524	626.16667
2393.995	621.5
2396.464	615.16667
2398.932	604.5
2401.398	619.5
2403.863	627.16667
2406.325	618.83333
2408.787	608.16667
2411.246	611.16667
2413.704	600.5
2416.16	611.16667
2418.615	611.16667
2421.068	630.16667
2423.519	615.16667
2425.969	613.5
2428.417	623.5
2430.863	636.16667
2433.308	631.83333
2435.751	623.5
2438.193	610.16667
2440.633	621.16667
2443.071	616.83333
2445.508	603.5
2447.943	608.16667
2450.376	590.83333
2452.808	607.5
2455.238	609.5
2457.667	634.83333
2460.093	605.5
2462.519	601.5
2464.942	607.5
2467.365	615.5
2469.785	611.16667
2472.204	615.16667
2474.621	594.16667
2477.037	633.83333
2479.451	592.5
2481.863	596.83333
2484.274	605.5
2486.683	598.5
2489.091	612.16667
2491.497	615.83333
2493.901	605.16667
2496.304	607.83333
2498.705	608.5
2501.105	596.5
2503.503	626.5
2505.899	597.5
2508.294	625.5
2510.687	603.16667
2513.079	611.5
2515.469	596.16667
2517.858	601.16667
2520.245	629.16667
2522.63	595.83333
2525.014	596.16667
2527.396	601.5
2529.776	591.83333
2532.156	613.16667
2534.533	591.5
2536.909	606.83333
2539.283	582.16667
2541.656	593.5
2544.027	614.5
2546.397	605.16667
2548.765	594.5
2551.131	602.16667
2553.496	595.5
2555.86	606.5
2558.221	608.83333
2560.582	602.16667
2562.94	578.83333
2565.298	604.5
2567.653	616.5
2570.007	597.5
2572.36	611.83333
2574.711	595.5
2577.06	627.16667
2579.408	603.83333
2581.754	600.83333
2584.099	609.83333
2586.442	615.83333
2588.784	617.83333
2591.124	610.5
2593.463	598.16667
2595.8	605.16667
2598.135	597.5
2600.469	605.83333
2602.802	628.5
2605.133	620.16667
2607.462	604.5
2609.79	610.83333
2612.116	625.83333
2614.441	618.16667
2616.764	618.83333
2619.086	608.83333
2621.406	609.5
2623.725	629.16667
2626.042	617.83333
2628.358	618.83333
2630.672	616.83333
2632.985	629.83333
2635.296	625.5
2637.606	628.16667
2639.914	612.5
2642.22	632.5
2644.525	624.83333
2646.829	631.83333
2649.131	640.83333
2651.432	643.83333
2653.731	642.16667
2656.028	654.16667
2658.324	648.83333
2660.619	638.83333
2662.912	656.5
2665.204	640.5
2667.494	656.5
2669.782	642.5
2672.07	647.16667
2674.355	658.83333
2676.639	648.83333
2678.922	648.5
2681.203	658.83333
2683.483	634.83333
2685.761	642.83333
2688.038	653.5
2690.313	671.5
2692.587	655.5
2694.859	655.5
2697.13	664.83333
2699.399	666.16667
2701.667	680.16667
2703.933	680.83333
2706.198	670.16667
2708.461	687.83333
2710.723	699.5
2712.984	692.83333
2715.243	701.16667
2717.5	693.83333
2719.757	704.83333
2722.011	703.83333
2724.264	711.16667
2726.516	733.16667
2728.766	707.5
2731.015	718.5
2733.262	713.5
2735.508	707.16667
2737.753	718.5
2739.996	692.83333
2742.237	695.5
2744.477	711.5
2746.716	709.16667
2748.953	706.83333
2751.189	704.5
2753.423	687.5
2755.656	681.5
2757.887	692.16667
2760.117	685.5
2762.346	687.83333
2764.573	687.16667
2766.798	689.16667
2769.022	699.16667
2771.245	696.5
2773.467	702.83333
2775.686	699.16667
2777.905	713.5
2780.122	717.16667
2782.337	719.5
2784.552	715.5
2786.764	722.83333
2788.976	722.16667
2791.186	740.5
2793.394	739.16667
2795.601	762.16667
2797.807	762.16667
2800.011	766.83333
2802.214	787.83333
2804.415	783.83333
2806.615	780.5
2808.814	794.16667
2811.011	794.5
2813.206	797.83333
2815.401	802.5
2817.594	827.16667
2819.785	835.5
2821.975	831.83333
2824.164	827.5
2826.351	861.5
2828.537	874.83333
2830.722	884.16667
2832.905	893.5
2835.086	923.83333
2837.267	949.5
2839.445	976.16667
2841.623	992.5
2843.799	1023.83333
2845.974	1071.83333
2848.147	1099.16667
2850.319	1108.5
2852.489	1157.16667
2854.659	1156.16667
2856.826	1182.83333
2858.993	1204.83333
2861.158	1177.16667
2863.321	1168.16667
2865.483	1201.16667
2867.644	1212.16667
2869.804	1210.16667
2871.962	1191.16667
2874.118	1206.83333
2876.274	1187.16667
2878.428	1189.83333
2880.58	1187.83333
2882.731	1171.16667
2884.881	1184.83333
2887.03	1191.16667
2889.177	1186.83333
2891.322	1203.83333
2893.467	1184.83333
2895.61	1196.83333
2897.751	1221.16667
2899.892	1212.16667
2902.03	1219.83333
2904.168	1238.5
2906.304	1228.5
2908.439	1276.5
2910.572	1246.16667
2912.704	1264.5
2914.835	1266.5
2916.965	1250.16667
2919.093	1261.83333
2921.219	1229.83333
2923.345	1254.16667
2925.469	1230.5
2927.591	1222.16667
2929.712	1182.5
2931.832	1183.83333
2933.951	1153.16667
2936.068	1133.5
2938.184	1110.83333
2940.299	1078.16667
2942.412	1064.83333
2944.524	1043.83333
2946.634	1013.83333
2948.744	966.5
2950.851	1004.5
2952.958	944.5
2955.063	927.83333
2957.167	933.83333
2959.269	908.16667
2961.371	926.83333
2963.471	877.83333
2965.569	900.16667
2967.666	854.5
2969.762	847.83333
2971.857	825.5
2973.95	816.16667
2976.042	812.5
2978.133	798.83333
2980.222	770.16667
2982.31	751.83333
2984.396	736.16667
2986.482	739.5
2988.566	745.16667
2990.648	719.83333
2992.73	723.5
2994.81	718.5
2996.889	722.5
2998.966	716.16667
3001.042	720.83333
3003.117	718.83333
3005.191	726.16667
3007.263	714.16667
3009.334	695.5
3011.403	694.83333
3013.472	679.5
3015.539	672.5
3017.604	678.16667
3019.669	645.5
3021.732	654.83333
3023.794	656.16667
3025.854	630.16667
3027.914	634.83333
3029.971	653.5
3032.028	635.5
3034.083	642.5
3036.137	628.5
3038.19	612.5
3040.242	599.5
3042.292	592.83333
3044.341	584.5
3046.388	599.16667
3048.435	567.5
3050.48	588.83333
3052.524	584.5
3054.566	553.5
3056.607	568.83333
3058.647	559.16667
3060.686	534.16667
3062.723	519.16667
3064.759	507.5
3066.794	1.83333
3068.828	0.16667
3070.86	0.16667
