-0.839	478.25
3.438	499.91667
7.711	141.25
11.981	53.25
16.247	46.25
20.509	44.58333
24.768	45.91667
29.024	44.25
33.276	44.58333
37.524	51.58333
41.769	39.91667
46.01	35.25
50.247	51.25
54.481	58.58333
58.712	64.25
62.939	49.58333
67.162	57.91667
71.382	60.58333
75.599	46.58333
79.812	61.25
84.021	82.58333
88.227	61.58333
92.429	65.58333
96.628	47.58333
100.823	64.58333
105.015	74.58333
109.204	72.91667
113.388	79.58333
117.57	73.25
121.748	85.58333
125.922	80.25
130.093	95.58333
134.261	104.25
138.425	93.25
142.585	139.25
146.742	141.91667
150.896	162.58333
155.046	201.25
159.193	315.58333
163.336	552.91667
167.476	1015.58333
171.613	1875.25
175.746	3090.91667
179.875	4585.91667
184.002	5958.91667
188.124	6870.25
192.244	7147.58333
196.36	7026.58333
200.472	6809.58333
204.581	6566.91667
208.687	6358.91667
212.79	6226.25
216.889	6187.25
220.984	6238.91667
225.077	6244.91667
229.165	6290.25
233.251	6301.91667
237.333	6264.58333
241.412	6274.91667
245.487	6202.58333
249.559	6102.58333
253.628	6016.91667
257.694	5966.58333
261.756	5895.91667
265.814	5755.58333
269.87	5542.58333
273.922	5415.91667
277.97	5297.25
282.016	5280.91667
286.058	5270.58333
290.097	5284.91667
294.132	5302.58333
298.164	5238.58333
302.193	4979.58333
306.219	4608.25
310.241	4248.91667
314.26	3854.25
318.276	3567.25
322.288	3364.91667
326.297	3170.58333
330.303	3030.58333
334.305	2929.25
338.305	2876.91667
342.301	2838.91667
346.294	2789.25
350.283	2800.58333
354.269	2754.58333
358.252	2750.58333
362.232	2710.25
366.209	2701.25
370.182	2690.58333
374.152	2674.91667
378.119	2675.25
382.083	2658.25
386.043	2675.58333
390	2634.91667
393.954	2624.58333
397.905	2592.91667
401.852	2578.25
405.797	2527.25
409.738	2509.58333
413.676	2490.25
417.61	2503.25
421.542	2461.91667
425.47	2435.91667
429.396	2418.91667
433.318	2406.91667
437.236	2407.58333
441.152	2408.91667
445.065	2346.58333
448.974	2367.25
452.88	2320.25
456.783	2313.91667
460.683	2292.58333
464.58	2314.58333
468.473	2306.58333
472.364	2312.25
476.251	2323.91667
480.135	2332.91667
484.016	2362.58333
487.894	2373.91667
491.769	2392.58333
495.641	2381.91667
499.509	2391.58333
503.375	2380.91667
507.237	2385.25
511.096	2370.25
514.952	2459.25
518.805	2529.91667
522.655	2556.25
526.502	2428.25
530.346	2365.58333
534.187	2378.91667
538.024	2364.58333
541.859	2350.25
545.69	2381.25
549.519	2354.91667
553.344	2347.25
557.166	2314.25
560.985	2305.58333
564.802	2263.91667
568.615	2222.58333
572.425	2205.58333
576.232	2191.25
580.036	2174.25
583.836	2182.58333
587.634	2201.58333
591.429	2181.58333
595.221	2249.25
599.01	2253.58333
602.796	2293.58333
606.578	2293.91667
610.358	2316.25
614.135	2295.91667
617.909	2287.58333
621.679	2269.25
625.447	2249.91667
629.212	2270.58333
632.973	2269.25
636.732	2273.25
640.488	2277.91667
644.241	2232.91667
647.991	2223.91667
651.737	2256.91667
655.481	2205.91667
659.222	2216.25
662.96	2204.91667
666.695	2229.25
670.427	2231.58333
674.156	2236.58333
677.882	2253.25
681.605	2244.25
685.325	2213.58333
689.043	2238.91667
692.757	2211.25
696.468	2238.58333
700.177	2239.58333
703.882	2216.58333
707.585	2226.91667
711.284	2241.25
714.981	2226.25
718.675	2250.25
722.366	2246.91667
726.054	2231.91667
729.739	2219.58333
733.421	2227.58333
737.1	2230.91667
740.777	2251.25
744.45	2253.25
748.121	2264.91667
751.789	2329.91667
755.453	2314.91667
759.115	2342.91667
762.774	2367.25
766.431	2368.91667
770.084	2391.91667
773.734	2416.58333
777.382	2478.58333
781.027	2486.25
784.669	2508.58333
788.308	2514.25
791.944	2533.25
795.577	2570.58333
799.208	2586.25
802.835	2574.58333
806.46	2598.58333
810.082	2633.25
813.701	2635.58333
817.317	2656.58333
820.931	2651.91667
824.542	2649.25
828.149	2619.58333
831.754	2612.58333
835.357	2610.25
838.956	2601.58333
842.553	2570.91667
846.146	2574.91667
849.737	2585.58333
853.326	2594.91667
856.911	2592.25
860.493	2616.58333
864.073	2642.58333
867.65	2683.91667
871.225	2702.91667
874.796	2707.58333
878.365	2717.91667
881.931	2727.91667
885.494	2749.58333
889.054	2782.91667
892.612	2771.58333
896.166	2732.25
899.719	2695.91667
903.268	2676.91667
906.814	2664.58333
910.358	2653.58333
913.899	2633.58333
917.438	2641.25
920.973	2634.91667
924.506	2665.91667
928.036	2712.58333
931.564	2748.58333
935.088	2773.91667
938.61	2765.58333
942.129	2810.91667
945.646	2864.25
949.16	2932.25
952.671	2981.58333
956.179	3009.25
959.685	2964.58333
963.188	2943.58333
966.688	2914.58333
970.185	2847.58333
973.68	2785.58333
977.173	2764.91667
980.662	2757.91667
984.149	2761.25
987.633	2787.58333
991.114	2827.58333
994.593	2912.91667
998.069	3003.25
1001.542	3091.25
1005.013	2994.25
1008.481	2832.58333
1011.947	2803.91667
1015.409	2771.58333
1018.869	2778.25
1022.327	2749.58333
1025.782	2751.58333
1029.234	2761.58333
1032.683	2721.25
1036.13	2641.58333
1039.574	2512.58333
1043.016	2470.58333
1046.455	2437.91667
1049.891	2399.25
1053.325	2374.91667
1056.756	2394.25
1060.184	2419.58333
1063.61	2426.91667
1067.033	2450.25
1070.454	2427.58333
1073.872	2456.25
1077.287	2481.25
1080.7	2480.91667
1084.11	2461.91667
1087.517	2463.25
1090.922	2419.25
1094.325	2411.58333
1097.724	2410.25
1101.122	2392.58333
1104.516	2403.58333
1107.908	2394.91667
1111.298	2444.91667
1114.684	2450.58333
1118.069	2488.25
1121.45	2522.91667
1124.83	2512.25
1128.206	2555.91667
1131.58	2586.91667
1134.951	2628.25
1138.32	2722.91667
1141.687	2834.58333
1145.05	2905.58333
1148.412	2908.91667
1151.77	2914.91667
1155.126	2920.25
1158.48	2898.91667
1161.831	2946.58333
1165.18	2959.91667
1168.525	3004.91667
1171.869	3039.91667
1175.21	3068.58333
1178.548	3087.58333
1181.884	3128.25
1185.217	3139.25
1188.548	3223.58333
1191.877	3267.25
1195.202	3315.58333
1198.526	3361.91667
1201.846	3397.58333
1205.165	3376.58333
1208.48	3398.25
1211.794	3366.58333
1215.104	3374.25
1218.413	3369.25
1221.719	3386.58333
1225.022	3345.25
1228.323	3330.91667
1231.621	3294.25
1234.917	3289.25
1238.21	3317.58333
1241.501	3316.58333
1244.79	3289.91667
1248.076	3310.91667
1251.359	3334.25
1254.64	3417.25
1257.919	3398.58333
1261.195	3476.58333
1264.468	3537.58333
1267.74	3610.91667
1271.008	3603.25
1274.275	3584.91667
1277.538	3546.25
1280.8	3528.91667
1284.059	3515.25
1287.315	3557.25
1290.569	3570.58333
1293.821	3614.58333
1297.07	3610.25
1300.317	3640.25
1303.562	3617.25
1306.803	3586.58333
1310.043	3569.91667
1313.28	3527.25
1316.515	3475.25
1319.747	3415.58333
1322.977	3398.25
1326.204	3367.25
1329.429	3314.91667
1332.652	3278.25
1335.872	3283.25
1339.09	3251.25
1342.306	3239.25
1345.519	3251.58333
1348.729	3194.91667
1351.938	3185.25
1355.144	3173.91667
1358.347	3112.91667
1361.548	3122.91667
1364.747	3116.91667
1367.944	3104.25
1371.138	3117.25
1374.329	3157.58333
1377.518	3199.25
1380.705	3232.25
1383.89	3220.58333
1387.072	3105.58333
1390.252	2992.25
1393.429	2880.91667
1396.605	2777.91667
1399.777	2725.25
1402.948	2683.58333
1406.116	2667.25
1409.282	2672.91667
1412.445	2669.58333
1415.606	2715.25
1418.765	2749.91667
1421.921	2804.25
1425.075	2857.58333
1428.227	2966.58333
1431.376	3104.58333
1434.524	3215.25
1437.668	3265.25
1440.811	3306.58333
1443.951	3356.25
1447.089	3335.91667
1450.224	3337.25
1453.357	3323.25
1456.488	3281.58333
1459.617	3237.25
1462.743	3201.25
1465.867	3125.91667
1468.989	3092.91667
1472.108	3046.58333
1475.225	2990.25
1478.34	2952.91667
1481.453	2958.25
1484.563	2976.25
1487.671	3006.91667
1490.776	3093.25
1493.88	3129.91667
1496.981	3222.25
1500.08	3250.58333
1503.176	3317.25
1506.271	3367.25
1509.363	3413.91667
1512.452	3458.25
1515.54	3517.25
1518.625	3602.58333
1521.708	3684.58333
1524.789	3867.58333
1527.867	4074.58333
1530.944	4328.58333
1534.018	4543.91667
1537.089	4692.58333
1540.159	4724.91667
1543.226	4654.25
1546.291	4443.58333
1549.354	4379.91667
1552.415	4229.91667
1555.473	4106.91667
1558.529	3996.58333
1561.583	3961.91667
1564.634	3920.25
1567.684	3903.91667
1570.731	3930.91667
1573.776	3943.25
1576.819	3959.25
1579.859	4022.58333
1582.898	4088.25
1585.934	4102.58333
1588.968	4113.25
1591.999	4081.91667
1595.029	4095.58333
1598.056	4124.58333
1601.081	4147.91667
1604.104	4129.25
1607.125	4082.25
1610.144	3987.58333
1613.16	3898.25
1616.174	3819.25
1619.186	3730.58333
1622.196	3634.58333
1625.203	3531.91667
1628.209	3482.91667
1631.212	3454.58333
1634.213	3428.91667
1637.212	3376.58333
1640.209	3339.91667
1643.203	3258.58333
1646.196	3159.58333
1649.186	3060.58333
1652.174	2940.25
1655.16	2838.58333
1658.144	2761.25
1661.125	2634.91667
1664.105	2505.91667
1667.082	2396.91667
1670.057	2287.58333
1673.03	2124.91667
1676.001	2014.91667
1678.97	1874.91667
1681.937	1779.25
1684.901	1692.91667
1687.863	1613.25
1690.824	1564.58333
1693.782	1541.91667
1696.738	1480.25
1699.692	1441.25
1702.643	1417.91667
1705.593	1398.91667
1708.54	1379.25
1711.486	1368.58333
1714.429	1326.58333
1717.37	1332.58333
1720.309	1294.91667
1723.246	1298.91667
1726.181	1265.91667
1729.113	1266.25
1732.044	1254.58333
1734.972	1237.58333
1737.899	1235.91667
1740.823	1236.25
1743.745	1232.25
1746.665	1186.25
1749.583	1173.91667
1752.499	1143.91667
1755.413	1149.58333
1758.325	1113.25
1761.235	1113.58333
1764.142	1082.91667
1767.048	1081.91667
1769.951	1077.91667
1772.852	1056.25
1775.752	1057.58333
1778.649	1069.58333
1781.544	1064.25
1784.437	1033.91667
1787.328	1044.58333
1790.217	1030.25
1793.104	1010.91667
1795.989	998.58333
1798.872	1006.58333
1801.753	1024.25
1804.631	1001.58333
1807.508	1020.58333
1810.383	1007.91667
1813.255	1002.25
1816.126	999.91667
1818.994	993.58333
1821.861	973.25
1824.725	986.25
1827.587	980.58333
1830.448	973.58333
1833.306	966.91667
1836.162	976.25
1839.017	951.91667
1841.869	947.25
1844.719	950.91667
1847.567	930.91667
1850.414	924.91667
1853.258	937.58333
1856.1	959.58333
1858.94	953.91667
1861.778	926.25
1864.614	925.91667
1867.448	934.58333
1870.28	938.25
1873.111	948.25
1875.939	930.25
1878.765	952.58333
1881.589	919.58333
1884.411	920.25
1887.231	930.91667
1890.049	928.58333
1892.865	928.91667
1895.68	909.91667
1898.492	913.91667
1901.302	901.91667
1904.11	900.58333
1906.916	896.25
1909.721	893.25
1912.523	908.25
1915.323	883.91667
1918.122	882.58333
1920.918	889.25
1923.712	879.58333
1926.505	886.58333
1929.295	877.25
1932.084	879.58333
1934.87	895.58333
1937.655	871.58333
1940.438	871.58333
1943.218	873.91667
1945.997	878.91667
1948.774	887.58333
1951.549	876.25
1954.322	879.25
1957.093	871.58333
1959.862	854.58333
1962.629	866.58333
1965.394	860.91667
1968.157	850.25
1970.918	866.58333
1973.678	843.91667
1976.435	864.58333
1979.19	850.25
1981.944	847.91667
1984.696	829.91667
1987.445	841.25
1990.193	839.91667
1992.939	854.25
1995.683	840.91667
1998.425	819.58333
2001.165	848.91667
2003.903	841.25
2006.639	831.91667
2009.374	836.25
2012.106	839.25
2014.837	809.58333
2017.566	836.91667
2020.292	830.91667
2023.017	846.58333
2025.74	821.91667
2028.461	813.91667
2031.18	815.91667
2033.898	812.25
2036.613	824.91667
2039.327	821.25
2042.038	816.58333
2044.748	815.58333
2047.456	799.58333
2050.162	788.58333
2052.866	790.91667
2055.568	819.25
2058.268	800.58333
2060.967	800.91667
2063.663	786.91667
2066.358	808.91667
2069.051	780.25
2071.742	799.25
2074.431	808.25
2077.118	798.25
2079.804	793.58333
2082.487	813.25
2085.169	821.25
2087.849	831.91667
2090.527	812.58333
2093.203	829.91667
2095.877	825.25
2098.55	829.58333
2101.22	847.25
2103.889	862.25
2106.556	857.58333
2109.221	904.58333
2111.884	929.25
2114.546	1015.58333
2117.205	1100.58333
2119.863	1200.25
2122.519	1295.58333
2125.173	1369.58333
2127.825	1479.25
2130.475	1479.91667
2133.124	1458.25
2135.771	1393.91667
2138.416	1335.25
2141.059	1252.91667
2143.7	1189.25
2146.339	1112.25
2148.977	1049.91667
2151.613	1028.58333
2154.247	987.91667
2156.879	969.25
2159.51	943.25
2162.138	924.58333
2164.765	920.91667
2167.39	904.25
2170.013	923.91667
2172.634	909.58333
2175.254	886.91667
2177.872	925.91667
2180.488	877.91667
2183.102	886.58333
2185.714	855.91667
2188.325	839.91667
2190.934	850.91667
2193.541	827.91667
2196.146	813.25
2198.75	798.25
2201.351	800.58333
2203.951	767.58333
2206.549	791.91667
2209.146	765.58333
2211.74	755.25
2214.333	765.91667
2216.924	742.58333
2219.514	754.91667
2222.101	745.58333
2224.687	753.25
2227.271	714.25
2229.853	734.25
2232.433	722.91667
2235.012	741.25
2237.589	733.25
2240.164	743.91667
2242.738	719.25
2245.309	715.58333
2247.879	713.58333
2250.448	718.58333
2253.014	696.25
2255.579	678.25
2258.142	692.58333
2260.703	673.91667
2263.262	684.91667
2265.82	673.58333
2268.376	685.58333
2270.93	660.91667
2273.483	655.25
2276.033	667.91667
2278.583	661.25
2281.13	655.58333
2283.675	669.58333
2286.219	661.91667
2288.761	672.58333
2291.302	664.58333
2293.841	666.25
2296.377	638.25
2298.913	648.91667
2301.446	665.58333
2303.978	650.25
2306.508	636.25
2309.037	655.25
2311.563	659.25
2314.088	666.25
2316.612	630.58333
2319.133	641.91667
2321.653	645.25
2324.171	628.58333
2326.688	633.58333
2329.202	626.91667
2331.715	651.58333
2334.227	637.91667
2336.736	630.25
2339.244	632.25
2341.751	618.58333
2344.255	631.91667
2346.758	623.58333
2349.259	629.91667
2351.759	618.91667
2354.257	621.58333
2356.753	612.91667
2359.247	621.58333
2361.74	627.25
2364.231	619.25
2366.721	619.91667
2369.209	621.25
2371.695	616.91667
2374.179	609.25
2376.662	616.58333
2379.143	635.58333
2381.622	613.91667
2384.1	628.58333
2386.576	622.25
2389.051	634.91667
2391.524	632.25
2393.995	636.91667
2396.464	615.25
2398.932	614.58333
2401.398	623.25
2403.863	611.25
2406.325	619.25
2408.787	612.91667
2411.246	611.58333
2413.704	603.58333
2416.16	612.25
2418.615	612.91667
2421.068	624.25
2423.519	612.58333
2425.969	610.91667
2428.417	613.25
2430.863	638.91667
2433.308	631.58333
2435.751	617.91667
2438.193	614.25
2440.633	619.58333
2443.071	618.91667
2445.508	608.91667
2447.943	617.91667
2450.376	607.91667
2452.808	611.25
2455.238	597.91667
2457.667	631.58333
2460.093	617.91667
2462.519	599.58333
2464.942	598.25
2467.365	619.91667
2469.785	614.91667
2472.204	602.91667
2474.621	606.58333
2477.037	630.25
2479.451	600.25
2481.863	596.58333
2484.274	602.91667
2486.683	599.91667
2489.091	605.25
2491.497	612.91667
2493.901	605.91667
2496.304	593.58333
2498.705	615.58333
2501.105	603.25
2503.503	634.58333
2505.899	599.25
2508.294	617.58333
2510.687	600.25
2513.079	608.25
2515.469	604.25
2517.858	603.25
2520.245	619.58333
2522.63	612.91667
2525.014	600.58333
2527.396	611.25
2529.776	595.91667
2532.156	603.91667
2534.533	598.58333
2536.909	607.91667
2539.283	585.25
2541.656	598.91667
2544.027	620.58333
2546.397	605.91667
2548.765	608.91667
2551.131	605.25
2553.496	603.91667
2555.86	611.91667
2558.221	609.58333
2560.582	614.25
2562.94	598.58333
2565.298	606.58333
2567.653	625.58333
2570.007	600.91667
2572.36	618.25
2574.711	604.91667
2577.06	625.58333
2579.408	618.91667
2581.754	604.58333
2584.099	605.25
2586.442	610.91667
2588.784	605.25
2591.124	614.58333
2593.463	610.58333
2595.8	615.25
2598.135	600.58333
2600.469	609.25
2602.802	620.91667
2605.133	624.58333
2607.462	609.91667
2609.79	606.25
2612.116	612.58333
2614.441	616.91667
2616.764	624.25
2619.086	621.25
2621.406	610.91667
2623.725	631.58333
2626.042	618.91667
2628.358	616.25
2630.672	620.91667
2632.985	629.25
2635.296	627.58333
2637.606	635.58333
2639.914	630.25
2642.22	633.91667
2644.525	631.58333
2646.829	635.91667
2649.131	640.91667
2651.432	654.58333
2653.731	642.25
2656.028	655.58333
2658.324	648.91667
2660.619	646.91667
2662.912	642.91667
2665.204	636.58333
2667.494	660.58333
2669.782	654.58333
2672.07	664.58333
2674.355	666.25
2676.639	657.91667
2678.922	649.58333
2681.203	666.25
2683.483	651.58333
2685.761	654.58333
2688.038	670.91667
2690.313	682.58333
2692.587	672.25
2694.859	671.91667
2697.13	662.25
2699.399	670.91667
2701.667	671.91667
2703.933	685.25
2706.198	683.91667
2708.461	692.25
2710.723	687.58333
2712.984	698.58333
2715.243	707.91667
2717.5	694.25
2719.757	716.58333
2722.011	708.91667
2724.264	725.91667
2726.516	732.58333
2728.766	714.25
2731.015	721.25
2733.262	725.25
2735.508	728.25
2737.753	723.25
2739.996	704.58333
2742.237	707.91667
2744.477	709.25
2746.716	733.91667
2748.953	710.91667
2751.189	717.25
2753.423	696.91667
2755.656	695.91667
2757.887	696.91667
2760.117	698.91667
2762.346	689.25
2764.573	694.91667
2766.798	694.58333
2769.022	708.58333
2771.245	709.58333
2773.467	705.25
2775.686	706.25
2777.905	715.25
2780.122	730.25
2782.337	724.91667
2784.552	721.25
2786.764	746.25
2788.976	740.91667
2791.186	746.25
2793.394	741.58333
2795.601	766.58333
2797.807	773.25
2800.011	778.58333
2802.214	797.91667
2804.415	792.58333
2806.615	808.91667
2808.814	804.25
2811.011	808.58333
2813.206	811.58333
2815.401	834.91667
2817.594	839.58333
2819.785	843.25
2821.975	831.58333
2824.164	863.25
2826.351	864.91667
2828.537	884.58333
2830.722	905.58333
2832.905	916.58333
2835.086	941.91667
2837.267	977.25
2839.445	991.25
2841.623	1003.91667
2843.799	1043.58333
2845.974	1067.58333
2848.147	1113.91667
2850.319	1135.58333
2852.489	1173.91667
2854.659	1172.91667
2856.826	1188.25
2858.993	1212.91667
2861.158	1209.91667
2863.321	1196.58333
2865.483	1221.58333
2867.644	1225.25
2869.804	1214.25
2871.962	1207.91667
2874.118	1210.25
2876.274	1198.58333
2878.428	1203.58333
2880.58	1203.91667
2882.731	1199.25
2884.881	1183.91667
2887.03	1192.25
2889.177	1198.58333
2891.322	1205.58333
2893.467	1207.58333
2895.61	1209.58333
2897.751	1229.25
2899.892	1216.25
2902.03	1225.25
2904.168	1239.91667
2906.304	1237.58333
2908.439	1267.91667
2910.572	1242.58333
2912.704	1280.58333
2914.835	1349.25
2916.965	1420.58333
2919.093	1292.25
2921.219	1231.25
2923.345	1270.58333
2925.469	1229.25
2927.591	1228.58333
2929.712	1193.58333
2931.832	1191.25
2933.951	1172.58333
2936.068	1155.58333
2938.184	1114.25
2940.299	1101.58333
2942.412	1079.58333
2944.524	1025.25
2946.634	1028.25
2948.744	983.91667
2950.851	1013.25
2952.958	956.91667
2955.063	951.58333
2957.167	942.91667
2959.269	908.58333
2961.371	928.25
2963.471	888.58333
2965.569	908.91667
2967.666	864.25
2969.762	859.25
2971.857	843.25
2973.95	824.58333
2976.042	828.58333
2978.133	802.25
2980.222	786.58333
2982.31	765.25
2984.396	750.91667
2986.482	754.25
2988.566	750.91667
2990.648	737.91667
2992.73	739.91667
2994.81	716.91667
2996.889	731.91667
2998.966	719.91667
3001.042	724.25
3003.117	729.91667
3005.191	723.58333
3007.263	708.91667
3009.334	712.91667
3011.403	708.91667
3013.472	689.25
3015.539	694.58333
3017.604	689.91667
3019.669	656.91667
3021.732	658.91667
3023.794	664.25
3025.854	653.58333
3027.914	647.91667
3029.971	650.58333
3032.028	656.25
3034.083	662.25
3036.137	639.91667
3038.19	619.58333
3040.242	599.25
3042.292	598.58333
3044.341	598.25
3046.388	617.58333
3048.435	579.25
3050.48	591.91667
3052.524	596.58333
3054.566	568.25
3056.607	575.58333
3058.647	570.25
3060.686	540.25
3062.723	520.91667
3064.759	512.25
3066.794	-0.41667
3068.828	-1.41667
3070.86	-2.75
