-0.839	501.29167
3.438	548.95833
7.711	143.625
11.981	55.95833
16.247	42.625
20.509	42.625
24.768	47.95833
29.024	47.29167
33.276	39.29167
37.524	48.625
41.769	38.29167
46.01	32.95833
50.247	49.95833
54.481	62.625
58.712	64.95833
62.939	47.95833
67.162	59.29167
71.382	56.95833
75.599	46.29167
79.812	59.95833
84.021	85.29167
88.227	56.95833
92.429	58.95833
96.628	44.29167
100.823	66.95833
105.015	72.29167
109.204	71.95833
113.388	73.29167
117.57	72.625
121.748	86.625
125.922	72.95833
130.093	93.29167
134.261	101.625
138.425	92.625
142.585	134.625
146.742	129.29167
150.896	160.95833
155.046	193.95833
159.193	316.95833
163.336	546.29167
167.476	1000.29167
171.613	1840.29167
175.746	3041.625
179.875	4443.625
184.002	5723.29167
188.124	6550.95833
192.244	6780.625
196.36	6659.29167
200.472	6356.625
204.581	6129.625
208.687	5891.95833
212.79	5780.625
216.889	5735.625
220.984	5700.95833
225.077	5706.95833
229.165	5704.625
233.251	5693.625
237.333	5677.95833
241.412	5626.29167
245.487	5592.29167
249.559	5545.29167
253.628	5483.29167
257.694	5433.625
261.756	5366.625
265.814	5299.625
269.87	5137.29167
273.922	5004.95833
277.97	4958.95833
282.016	4885.29167
286.058	4863.95833
290.097	4949.625
294.132	4937.95833
298.164	4876.625
302.193	4674.29167
306.219	4333.95833
310.241	3965.95833
314.26	3608.625
318.276	3302.95833
322.288	3094.625
326.297	2919.29167
330.303	2775.29167
334.305	2691.29167
338.305	2642.95833
342.301	2592.95833
346.294	2532.95833
350.283	2505.29167
354.269	2499.29167
358.252	2455.95833
362.232	2440.95833
366.209	2412.29167
370.182	2381.29167
374.152	2395.95833
378.119	2370.29167
382.083	2357.625
386.043	2406.95833
390	2370.95833
393.954	2327.625
397.905	2299.95833
401.852	2306.95833
405.797	2281.95833
409.738	2255.29167
413.676	2236.29167
417.61	2252.625
421.542	2209.95833
425.47	2186.29167
429.396	2179.29167
433.318	2178.625
437.236	2165.95833
441.152	2170.29167
445.065	2130.29167
448.974	2130.95833
452.88	2108.29167
456.783	2075.625
460.683	2066.29167
464.58	2064.625
468.473	2067.625
472.364	2076.95833
476.251	2081.95833
480.135	2102.95833
484.016	2116.29167
487.894	2131.29167
491.769	2119.95833
495.641	2124.625
499.509	2141.625
503.375	2130.625
507.237	2132.625
511.096	2130.625
514.952	2205.625
518.805	2269.625
522.655	2276.29167
526.502	2189.625
530.346	2127.625
534.187	2155.29167
538.024	2158.95833
541.859	2166.95833
545.69	2185.95833
549.519	2166.95833
553.344	2148.95833
557.166	2103.29167
560.985	2082.95833
564.802	2046.95833
568.615	2016.95833
572.425	2008.625
576.232	1993.29167
580.036	1964.95833
583.836	1998.29167
587.634	1991.95833
591.429	1982.95833
595.221	2039.29167
599.01	2057.95833
602.796	2065.95833
606.578	2097.29167
610.358	2117.95833
614.135	2093.95833
617.909	2094.625
621.679	2059.95833
625.447	2065.95833
629.212	2065.625
632.973	2067.95833
636.732	2062.29167
640.488	2085.625
644.241	2053.95833
647.991	2039.95833
651.737	2078.95833
655.481	2025.625
659.222	2066.95833
662.96	2064.95833
666.695	2064.95833
670.427	2091.625
674.156	2092.95833
677.882	2096.95833
681.605	2061.29167
685.325	2047.625
689.043	2063.29167
692.757	2032.95833
696.468	2040.95833
700.177	2041.95833
703.882	2006.95833
707.585	2031.29167
711.284	2021.95833
714.981	2051.95833
718.675	2079.625
722.366	2079.625
726.054	2039.95833
729.739	2040.625
733.421	2045.29167
737.1	2018.95833
740.777	2072.95833
744.45	2055.625
748.121	2089.625
751.789	2119.29167
755.453	2097.29167
759.115	2108.95833
762.774	2131.625
766.431	2155.29167
770.084	2180.95833
773.734	2204.29167
777.382	2247.29167
781.027	2262.625
784.669	2288.625
788.308	2288.625
791.944	2325.95833
795.577	2332.625
799.208	2373.29167
802.835	2384.625
806.46	2404.95833
810.082	2418.29167
813.701	2413.625
817.317	2450.95833
820.931	2443.625
824.542	2445.625
828.149	2409.95833
831.754	2355.95833
835.357	2348.29167
838.956	2355.29167
842.553	2313.95833
846.146	2310.625
849.737	2298.29167
853.326	2308.29167
856.911	2306.625
860.493	2346.625
864.073	2357.625
867.65	2386.29167
871.225	2406.95833
874.796	2423.625
878.365	2429.625
881.931	2444.95833
885.494	2461.95833
889.054	2468.95833
892.612	2455.625
896.166	2426.29167
899.719	2396.625
903.268	2380.29167
906.814	2387.29167
910.358	2385.95833
913.899	2358.29167
917.438	2367.625
920.973	2359.625
924.506	2410.29167
928.036	2458.29167
931.564	2485.95833
935.088	2521.625
938.61	2521.625
942.129	2535.625
945.646	2617.29167
949.16	2647.625
952.671	2708.95833
956.179	2736.625
959.685	2711.29167
963.188	2757.29167
966.688	2721.29167
970.185	2635.95833
973.68	2560.625
977.173	2528.625
980.662	2457.95833
984.149	2446.625
987.633	2448.29167
991.114	2449.95833
994.593	2546.95833
998.069	2603.29167
1001.542	2696.625
1005.013	2637.625
1008.481	2490.625
1011.947	2468.95833
1015.409	2449.95833
1018.869	2438.625
1022.327	2469.29167
1025.782	2451.625
1029.234	2447.95833
1032.683	2430.29167
1036.13	2348.95833
1039.574	2256.95833
1043.016	2193.95833
1046.455	2182.625
1049.891	2153.29167
1053.325	2172.625
1056.756	2160.95833
1060.184	2182.29167
1063.61	2186.95833
1067.033	2211.95833
1070.454	2235.29167
1073.872	2235.29167
1077.287	2252.95833
1080.7	2264.29167
1084.11	2272.625
1087.517	2219.29167
1090.922	2212.29167
1094.325	2162.29167
1097.724	2162.95833
1101.122	2161.625
1104.516	2147.29167
1107.908	2175.95833
1111.298	2208.95833
1114.684	2202.95833
1118.069	2269.95833
1121.45	2290.29167
1124.83	2253.29167
1128.206	2287.625
1131.58	2328.625
1134.951	2375.95833
1138.32	2449.95833
1141.687	2542.95833
1145.05	2599.29167
1148.412	2612.29167
1151.77	2605.625
1155.126	2613.625
1158.48	2608.29167
1161.831	2631.625
1165.18	2634.625
1168.525	2671.95833
1171.869	2696.625
1175.21	2709.29167
1178.548	2761.95833
1181.884	2779.625
1185.217	2814.95833
1188.548	2878.29167
1191.877	2927.625
1195.202	3031.625
1198.526	3098.29167
1201.846	3112.29167
1205.165	3102.95833
1208.48	3075.95833
1211.794	3093.95833
1215.104	3105.95833
1218.413	3101.625
1221.719	3094.29167
1225.022	3071.95833
1228.323	3017.95833
1231.621	3013.95833
1234.917	2995.625
1238.21	3022.625
1241.501	3011.29167
1244.79	2990.29167
1248.076	2995.95833
1251.359	3009.29167
1254.64	3085.29167
1257.919	3093.625
1261.195	3121.95833
1264.468	3164.95833
1267.74	3222.95833
1271.008	3221.29167
1274.275	3211.625
1277.538	3181.95833
1280.8	3173.625
1284.059	3141.625
1287.315	3212.29167
1290.569	3245.625
1293.821	3264.95833
1297.07	3279.95833
1300.317	3320.625
1303.562	3316.95833
1306.803	3276.95833
1310.043	3242.95833
1313.28	3216.95833
1316.515	3194.95833
1319.747	3166.625
1322.977	3132.29167
1326.204	3072.95833
1329.429	3054.29167
1332.652	3037.29167
1335.872	3005.625
1339.09	2992.95833
1342.306	2977.95833
1345.519	2899.625
1348.729	2928.625
1351.938	2902.29167
1355.144	2847.29167
1358.347	2814.29167
1361.548	2790.29167
1364.747	2808.625
1367.944	2772.95833
1371.138	2793.625
1374.329	2791.625
1377.518	2801.625
1380.705	2830.625
1383.89	2811.625
1387.072	2746.625
1390.252	2631.625
1393.429	2546.29167
1396.605	2453.625
1399.777	2422.29167
1402.948	2376.625
1406.116	2394.625
1409.282	2399.95833
1412.445	2377.95833
1415.606	2423.29167
1418.765	2469.29167
1421.921	2513.625
1425.075	2581.29167
1428.227	2668.95833
1431.376	2799.29167
1434.524	2901.29167
1437.668	2977.95833
1440.811	2994.29167
1443.951	3017.29167
1447.089	3013.95833
1450.224	2988.95833
1453.357	2971.625
1456.488	2940.29167
1459.617	2907.95833
1462.743	2880.625
1465.867	2819.95833
1468.989	2798.29167
1472.108	2734.95833
1475.225	2694.95833
1478.34	2660.95833
1481.453	2678.95833
1484.563	2679.29167
1487.671	2694.625
1490.776	2751.625
1493.88	2810.95833
1496.981	2865.625
1500.08	2880.95833
1503.176	2912.625
1506.271	2970.625
1509.363	3013.29167
1512.452	3032.95833
1515.54	3083.95833
1518.625	3136.29167
1521.708	3256.29167
1524.789	3392.29167
1527.867	3556.95833
1530.944	3763.95833
1534.018	3932.625
1537.089	4071.625
1540.159	4027.95833
1543.226	3933.625
1546.291	3795.95833
1549.354	3715.29167
1552.415	3601.625
1555.473	3520.29167
1558.529	3459.29167
1561.583	3432.625
1564.634	3407.625
1567.684	3429.29167
1570.731	3424.625
1573.776	3486.29167
1576.819	3532.625
1579.859	3561.29167
1582.898	3634.95833
1585.934	3675.29167
1588.968	3669.95833
1591.999	3665.625
1595.029	3682.29167
1598.056	3715.29167
1601.081	3759.625
1604.104	3743.625
1607.125	3707.29167
1610.144	3610.95833
1613.16	3527.29167
1616.174	3433.29167
1619.186	3373.29167
1622.196	3256.29167
1625.203	3164.625
1628.209	3137.95833
1631.212	3117.625
1634.213	3133.95833
1637.212	3138.625
1640.209	3079.625
1643.203	3026.95833
1646.196	2923.625
1649.186	2807.95833
1652.174	2706.29167
1655.16	2617.625
1658.144	2511.95833
1661.125	2365.625
1664.105	2239.95833
1667.082	2136.29167
1670.057	2000.95833
1673.03	1872.29167
1676.001	1775.95833
1678.97	1665.625
1681.937	1554.29167
1684.901	1486.29167
1687.863	1431.29167
1690.824	1370.29167
1693.782	1368.95833
1696.738	1310.95833
1699.692	1278.95833
1702.643	1261.29167
1705.593	1233.625
1708.54	1233.95833
1711.486	1209.95833
1714.429	1192.625
1717.37	1169.29167
1720.309	1152.95833
1723.246	1151.29167
1726.181	1117.625
1729.113	1129.29167
1732.044	1117.95833
1734.972	1093.95833
1737.899	1110.29167
1740.823	1098.95833
1743.745	1100.625
1746.665	1041.95833
1749.583	1044.95833
1752.499	1027.29167
1755.413	997.625
1758.325	985.29167
1761.235	997.95833
1764.142	958.95833
1767.048	948.95833
1769.951	947.95833
1772.852	941.29167
1775.752	927.95833
1778.649	930.29167
1781.544	928.29167
1784.437	908.95833
1787.328	907.95833
1790.217	904.29167
1793.104	895.95833
1795.989	889.95833
1798.872	873.95833
1801.753	890.625
1804.631	891.95833
1807.508	894.95833
1810.383	889.95833
1813.255	882.95833
1816.126	876.95833
1818.994	875.625
1821.861	856.625
1824.725	852.95833
1827.587	863.625
1830.448	855.95833
1833.306	832.29167
1836.162	839.625
1839.017	835.625
1841.869	839.625
1844.719	830.29167
1847.567	813.625
1850.414	816.29167
1853.258	817.95833
1856.1	819.95833
1858.94	820.95833
1861.778	834.29167
1864.614	818.625
1867.448	817.625
1870.28	804.29167
1873.111	827.95833
1875.939	808.29167
1878.765	829.95833
1881.589	815.625
1884.411	809.95833
1887.231	813.625
1890.049	803.625
1892.865	799.95833
1895.68	797.625
1898.492	791.29167
1901.302	778.625
1904.11	772.625
1906.916	772.95833
1909.721	772.625
1912.523	784.625
1915.323	753.625
1918.122	766.29167
1920.918	769.29167
1923.712	770.625
1926.505	770.625
1929.295	754.29167
1932.084	776.625
1934.87	770.29167
1937.655	748.95833
1940.438	749.625
1943.218	748.29167
1945.997	761.625
1948.774	765.625
1951.549	757.625
1954.322	751.95833
1957.093	767.29167
1959.862	746.29167
1962.629	737.625
1965.394	739.95833
1968.157	742.29167
1970.918	732.95833
1973.678	733.29167
1976.435	734.95833
1979.19	728.625
1981.944	717.29167
1984.696	730.29167
1987.445	719.95833
1990.193	718.625
1992.939	726.625
1995.683	732.29167
1998.425	705.95833
2001.165	724.625
2003.903	712.625
2006.639	715.625
2009.374	713.95833
2012.106	721.29167
2014.837	678.29167
2017.566	709.625
2020.292	700.29167
2023.017	706.29167
2025.74	692.625
2028.461	695.95833
2031.18	702.29167
2033.898	686.95833
2036.613	703.95833
2039.327	706.29167
2042.038	681.29167
2044.748	676.29167
2047.456	688.29167
2050.162	668.95833
2052.866	680.95833
2055.568	686.95833
2058.268	677.625
2060.967	692.95833
2063.663	675.625
2066.358	674.29167
2069.051	675.29167
2071.742	670.625
2074.431	668.95833
2077.118	682.625
2079.804	666.625
2082.487	673.95833
2085.169	670.625
2087.849	699.625
2090.527	680.29167
2093.203	679.95833
2095.877	689.29167
2098.55	683.625
2101.22	694.625
2103.889	695.625
2106.556	696.95833
2109.221	722.625
2111.884	732.95833
2114.546	779.95833
2117.205	826.625
2119.863	891.29167
2122.519	945.625
2125.173	986.625
2127.825	1064.29167
2130.475	1059.95833
2133.124	1019.625
2135.771	989.95833
2138.416	947.95833
2141.059	906.95833
2143.7	874.95833
2146.339	814.95833
2148.977	763.95833
2151.613	773.29167
2154.247	741.95833
2156.879	736.29167
2159.51	709.95833
2162.138	690.625
2164.765	706.95833
2167.39	680.625
2170.013	690.29167
2172.634	695.625
2175.254	675.29167
2177.872	694.95833
2180.488	653.95833
2183.102	672.625
2185.714	645.625
2188.325	629.625
2190.934	623.95833
2193.541	629.95833
2196.146	626.625
2198.75	612.29167
2201.351	616.95833
2203.951	599.95833
2206.549	617.625
2209.146	605.625
2211.74	596.29167
2214.333	610.29167
2216.924	586.29167
2219.514	603.29167
2222.101	592.29167
2224.687	599.95833
2227.271	581.95833
2229.853	582.95833
2232.433	573.625
2235.012	596.29167
2237.589	593.625
2240.164	612.625
2242.738	589.95833
2245.309	571.29167
2247.879	581.625
2250.448	587.95833
2253.014	569.95833
2255.579	556.95833
2258.142	552.625
2260.703	542.95833
2263.262	542.625
2265.82	549.625
2268.376	548.95833
2270.93	542.29167
2273.483	543.625
2276.033	532.29167
2278.583	536.29167
2281.13	536.29167
2283.675	519.95833
2286.219	527.29167
2288.761	523.625
2291.302	536.95833
2293.841	532.625
2296.377	515.625
2298.913	520.625
2301.446	531.95833
2303.978	516.29167
2306.508	506.95833
2309.037	517.95833
2311.563	513.95833
2314.088	527.95833
2316.612	502.29167
2319.133	510.29167
2321.653	507.95833
2324.171	499.95833
2326.688	513.95833
2329.202	509.95833
2331.715	507.29167
2334.227	501.95833
2336.736	508.95833
2339.244	493.95833
2341.751	486.625
2344.255	492.95833
2346.758	498.95833
2349.259	490.95833
2351.759	492.95833
2354.257	488.95833
2356.753	491.625
2359.247	488.29167
2361.74	487.29167
2364.231	484.625
2366.721	497.29167
2369.209	483.625
2371.695	489.29167
2374.179	480.625
2376.662	476.95833
2379.143	489.95833
2381.622	481.625
2384.1	489.625
2386.576	479.95833
2389.051	488.625
2391.524	498.95833
2393.995	493.29167
2396.464	478.625
2398.932	471.625
2401.398	480.625
2403.863	464.29167
2406.325	484.625
2408.787	473.625
2411.246	481.95833
2413.704	470.95833
2416.16	466.625
2418.615	467.29167
2421.068	489.29167
2423.519	480.625
2425.969	465.95833
2428.417	487.625
2430.863	491.625
2433.308	485.625
2435.751	470.29167
2438.193	473.29167
2440.633	479.29167
2443.071	471.29167
2445.508	454.625
2447.943	463.29167
2450.376	460.29167
2452.808	474.29167
2455.238	458.29167
2457.667	490.95833
2460.093	477.29167
2462.519	456.625
2464.942	447.95833
2467.365	469.29167
2469.785	462.95833
2472.204	461.625
2474.621	454.29167
2477.037	477.625
2479.451	452.625
2481.863	444.625
2484.274	457.29167
2486.683	464.95833
2489.091	464.95833
2491.497	465.95833
2493.901	462.625
2496.304	451.95833
2498.705	471.625
2501.105	448.29167
2503.503	483.29167
2505.899	446.625
2508.294	471.29167
2510.687	445.625
2513.079	454.29167
2515.469	444.95833
2517.858	451.29167
2520.245	466.29167
2522.63	451.625
2525.014	447.95833
2527.396	442.95833
2529.776	444.95833
2532.156	448.29167
2534.533	442.95833
2536.909	450.625
2539.283	440.95833
2541.656	449.29167
2544.027	475.95833
2546.397	452.95833
2548.765	446.29167
2551.131	445.29167
2553.496	442.625
2555.86	456.29167
2558.221	451.29167
2560.582	446.29167
2562.94	431.625
2565.298	443.95833
2567.653	461.29167
2570.007	436.29167
2572.36	452.29167
2574.711	454.29167
2577.06	468.95833
2579.408	441.29167
2581.754	445.29167
2584.099	455.29167
2586.442	446.95833
2588.784	450.625
2591.124	468.29167
2593.463	439.625
2595.8	452.95833
2598.135	441.95833
2600.469	445.625
2602.802	461.29167
2605.133	465.625
2607.462	445.625
2609.79	444.29167
2612.116	449.29167
2614.441	441.625
2616.764	452.29167
2619.086	451.625
2621.406	442.95833
2623.725	461.29167
2626.042	460.29167
2628.358	445.29167
2630.672	450.625
2632.985	460.29167
2635.296	457.625
2637.606	457.29167
2639.914	444.95833
2642.22	460.625
2644.525	445.625
2646.829	467.95833
2649.131	469.625
2651.432	474.95833
2653.731	467.29167
2656.028	482.95833
2658.324	465.95833
2660.619	463.29167
2662.912	476.625
2665.204	459.95833
2667.494	478.95833
2669.782	454.29167
2672.07	473.95833
2674.355	476.625
2676.639	463.95833
2678.922	460.29167
2681.203	478.95833
2683.483	458.95833
2685.761	463.29167
2688.038	478.29167
2690.313	483.95833
2692.587	481.95833
2694.859	468.95833
2697.13	491.95833
2699.399	478.625
2701.667	494.625
2703.933	496.95833
2706.198	494.29167
2708.461	506.625
2710.723	504.29167
2712.984	502.95833
2715.243	513.29167
2717.5	508.95833
2719.757	516.95833
2722.011	507.95833
2724.264	522.29167
2726.516	530.29167
2728.766	513.29167
2731.015	515.95833
2733.262	521.29167
2735.508	510.95833
2737.753	514.95833
2739.996	494.29167
2742.237	501.29167
2744.477	508.95833
2746.716	520.95833
2748.953	515.95833
2751.189	514.625
2753.423	501.625
2755.656	493.95833
2757.887	497.625
2760.117	500.95833
2762.346	489.625
2764.573	495.29167
2766.798	490.95833
2769.022	501.29167
2771.245	499.625
2773.467	488.29167
2775.686	504.29167
2777.905	507.29167
2780.122	510.625
2782.337	509.95833
2784.552	517.625
2786.764	534.95833
2788.976	522.625
2791.186	528.95833
2793.394	525.625
2795.601	541.29167
2797.807	545.29167
2800.011	553.29167
2802.214	568.95833
2804.415	559.95833
2806.615	556.625
2808.814	576.29167
2811.011	585.625
2813.206	577.29167
2815.401	595.95833
2817.594	616.29167
2819.785	616.625
2821.975	603.625
2824.164	623.625
2826.351	633.95833
2828.537	659.95833
2830.722	668.95833
2832.905	661.95833
2835.086	692.29167
2837.267	714.625
2839.445	748.625
2841.623	760.625
2843.799	783.29167
2845.974	819.29167
2848.147	847.95833
2850.319	877.29167
2852.489	903.29167
2854.659	895.29167
2856.826	924.625
2858.993	937.29167
2861.158	926.29167
2863.321	935.29167
2865.483	948.95833
2867.644	949.29167
2869.804	946.29167
2871.962	926.29167
2874.118	941.29167
2876.274	938.29167
2878.428	929.95833
2880.58	923.625
2882.731	916.29167
2884.881	921.625
2887.03	924.625
2889.177	918.29167
2891.322	943.625
2893.467	922.95833
2895.61	924.95833
2897.751	951.95833
2899.892	945.29167
2902.03	943.95833
2904.168	961.625
2906.304	961.625
2908.439	985.95833
2910.572	962.95833
2912.704	975.29167
2914.835	984.625
2916.965	981.95833
2919.093	985.95833
2921.219	951.95833
2923.345	976.29167
2925.469	960.625
2927.591	945.29167
2929.712	917.625
2931.832	912.95833
2933.951	894.625
2936.068	878.625
2938.184	854.29167
2940.299	829.625
2942.412	820.29167
2944.524	784.95833
2946.634	779.95833
2948.744	725.29167
2950.851	765.95833
2952.958	714.29167
2955.063	705.29167
2957.167	701.29167
2959.269	673.625
2961.371	686.625
2963.471	646.95833
2965.569	661.29167
2967.666	631.29167
2969.762	622.625
2971.857	604.29167
2973.95	583.625
2976.042	583.95833
2978.133	580.29167
2980.222	566.29167
2982.31	539.625
2984.396	523.29167
2986.482	525.95833
2988.566	534.29167
2990.648	523.29167
2992.73	519.625
2994.81	509.29167
2996.889	522.29167
2998.966	511.95833
3001.042	518.625
3003.117	515.625
3005.191	516.625
3007.263	510.29167
3009.334	497.29167
3011.403	488.95833
3013.472	487.625
3015.539	471.29167
3017.604	486.29167
3019.669	452.95833
3021.732	461.95833
3023.794	465.29167
3025.854	440.95833
3027.914	438.95833
3029.971	459.625
3032.028	451.29167
3034.083	447.625
3036.137	449.95833
3038.19	425.625
3040.242	425.95833
3042.292	411.625
3044.341	409.95833
3046.388	424.625
3048.435	394.95833
3050.48	420.625
3052.524	416.29167
3054.566	389.625
3056.607	398.625
3058.647	392.625
3060.686	374.95833
3062.723	359.625
3064.759	349.625
3066.794	-1.375
3068.828	-0.70833
3070.86	-1.375
