-0.839	504.25
3.438	525.91667
7.711	140.91667
11.981	50.58333
16.247	47.25
20.509	43.58333
24.768	44.91667
29.024	43.58333
33.276	40.58333
37.524	47.91667
41.769	38.91667
46.01	35.25
50.247	50.58333
54.481	64.25
58.712	65.58333
62.939	45.91667
67.162	60.25
71.382	55.25
75.599	46.58333
79.812	64.25
84.021	79.58333
88.227	55.58333
92.429	61.25
96.628	46.58333
100.823	65.25
105.015	74.91667
109.204	73.25
113.388	74.25
117.57	70.25
121.748	88.25
125.922	73.91667
130.093	95.25
134.261	100.25
138.425	93.91667
142.585	140.58333
146.742	133.91667
150.896	159.91667
155.046	202.25
159.193	320.58333
163.336	570.91667
167.476	1016.25
171.613	1866.91667
175.746	3101.58333
179.875	4571.25
184.002	5886.25
188.124	6721.91667
192.244	6950.58333
196.36	6828.25
200.472	6553.91667
204.581	6316.25
208.687	6022.58333
212.79	5932.25
216.889	5845.25
220.984	5887.91667
225.077	5882.25
229.165	5887.91667
233.251	5902.58333
237.333	5891.91667
241.412	5864.91667
245.487	5842.58333
249.559	5742.25
253.628	5697.58333
257.694	5655.25
261.756	5616.25
265.814	5480.91667
269.87	5346.58333
273.922	5194.91667
277.97	5114.25
282.016	5080.58333
286.058	5024.58333
290.097	5099.58333
294.132	5083.58333
298.164	5030.91667
302.193	4795.91667
306.219	4485.91667
310.241	4099.91667
314.26	3757.58333
318.276	3459.58333
322.288	3250.25
326.297	3040.58333
330.303	2908.91667
334.305	2843.25
338.305	2787.58333
342.301	2733.58333
346.294	2718.25
350.283	2665.58333
354.269	2611.58333
358.252	2607.25
362.232	2603.25
366.209	2581.91667
370.182	2542.91667
374.152	2548.58333
378.119	2526.91667
382.083	2518.91667
386.043	2552.25
390	2499.58333
393.954	2500.25
397.905	2469.58333
401.852	2471.91667
405.797	2435.91667
409.738	2395.25
413.676	2409.58333
417.61	2385.58333
421.542	2371.25
425.47	2351.91667
429.396	2329.58333
433.318	2337.58333
437.236	2299.25
441.152	2326.91667
445.065	2291.91667
448.974	2280.91667
452.88	2252.25
456.783	2220.91667
460.683	2238.58333
464.58	2239.25
468.473	2242.91667
472.364	2225.91667
476.251	2255.25
480.135	2264.58333
484.016	2286.25
487.894	2302.91667
491.769	2291.58333
495.641	2279.91667
499.509	2322.58333
503.375	2299.91667
507.237	2296.91667
511.096	2294.25
514.952	2343.25
518.805	2393.58333
522.655	2416.58333
526.502	2292.91667
530.346	2293.58333
534.187	2281.25
538.024	2287.25
541.859	2286.91667
545.69	2318.91667
549.519	2311.58333
553.344	2296.58333
557.166	2232.91667
560.985	2211.91667
564.802	2193.25
568.615	2174.91667
572.425	2145.58333
576.232	2128.91667
580.036	2109.25
583.836	2129.25
587.634	2123.25
591.429	2134.25
595.221	2174.58333
599.01	2182.25
602.796	2221.25
606.578	2254.58333
610.358	2230.91667
614.135	2221.58333
617.909	2232.58333
621.679	2217.58333
625.447	2212.91667
629.212	2236.25
632.973	2219.25
636.732	2189.25
640.488	2205.91667
644.241	2191.91667
647.991	2185.91667
651.737	2209.58333
655.481	2203.58333
659.222	2234.25
662.96	2233.25
666.695	2243.25
670.427	2258.58333
674.156	2256.91667
677.882	2251.58333
681.605	2206.91667
685.325	2188.91667
689.043	2200.91667
692.757	2168.91667
696.468	2178.58333
700.177	2170.25
703.882	2188.58333
707.585	2181.58333
711.284	2163.91667
714.981	2191.25
718.675	2206.91667
722.366	2214.25
726.054	2159.91667
729.739	2160.91667
733.421	2159.25
737.1	2177.58333
740.777	2172.25
744.45	2207.91667
748.121	2202.91667
751.789	2258.25
755.453	2252.25
759.115	2264.58333
762.774	2268.58333
766.431	2268.58333
770.084	2303.25
773.734	2331.58333
777.382	2349.25
781.027	2393.58333
784.669	2410.25
788.308	2436.58333
791.944	2438.25
795.577	2471.25
799.208	2532.91667
802.835	2528.91667
806.46	2559.25
810.082	2576.58333
813.701	2591.91667
817.317	2625.91667
820.931	2605.25
824.542	2606.25
828.149	2553.91667
831.754	2510.25
835.357	2466.91667
838.956	2489.58333
842.553	2457.91667
846.146	2432.25
849.737	2428.58333
853.326	2415.58333
856.911	2411.91667
860.493	2457.25
864.073	2473.58333
867.65	2507.58333
871.225	2551.58333
874.796	2546.58333
878.365	2550.58333
881.931	2552.58333
885.494	2580.58333
889.054	2577.25
892.612	2569.25
896.166	2534.91667
899.719	2524.25
903.268	2489.91667
906.814	2475.91667
910.358	2485.25
913.899	2455.25
917.438	2503.58333
920.973	2478.91667
924.506	2522.58333
928.036	2569.91667
931.564	2615.58333
935.088	2652.91667
938.61	2617.91667
942.129	2652.91667
945.646	2715.58333
949.16	2757.58333
952.671	2805.91667
956.179	2852.25
959.685	2868.25
963.188	2870.25
966.688	2872.58333
970.185	2789.58333
973.68	2693.58333
977.173	2617.58333
980.662	2578.25
984.149	2593.91667
987.633	2559.91667
991.114	2605.58333
994.593	2697.58333
998.069	2744.58333
1001.542	2845.91667
1005.013	2741.25
1008.481	2632.58333
1011.947	2576.91667
1015.409	2575.25
1018.869	2574.25
1022.327	2577.58333
1025.782	2568.91667
1029.234	2592.58333
1032.683	2558.58333
1036.13	2445.91667
1039.574	2382.58333
1043.016	2332.91667
1046.455	2276.91667
1049.891	2257.58333
1053.325	2279.58333
1056.756	2261.25
1060.184	2304.58333
1063.61	2295.58333
1067.033	2337.25
1070.454	2328.58333
1073.872	2362.58333
1077.287	2362.58333
1080.7	2387.58333
1084.11	2392.91667
1087.517	2375.58333
1090.922	2338.58333
1094.325	2290.25
1097.724	2261.25
1101.122	2260.25
1104.516	2258.25
1107.908	2266.91667
1111.298	2309.58333
1114.684	2346.25
1118.069	2345.25
1121.45	2374.58333
1124.83	2374.91667
1128.206	2374.91667
1131.58	2419.91667
1134.951	2486.91667
1138.32	2539.25
1141.687	2635.58333
1145.05	2693.91667
1148.412	2706.58333
1151.77	2683.91667
1155.126	2682.91667
1158.48	2664.91667
1161.831	2718.58333
1165.18	2677.25
1168.525	2729.91667
1171.869	2801.58333
1175.21	2796.58333
1178.548	2833.25
1181.884	2868.25
1185.217	2871.25
1188.548	2945.58333
1191.877	3017.25
1195.202	3094.91667
1198.526	3136.58333
1201.846	3183.58333
1205.165	3177.91667
1208.48	3199.25
1211.794	3167.58333
1215.104	3173.25
1218.413	3191.58333
1221.719	3174.91667
1225.022	3142.58333
1228.323	3123.58333
1231.621	3092.25
1234.917	3095.91667
1238.21	3124.25
1241.501	3086.91667
1244.79	3096.25
1248.076	3063.25
1251.359	3108.58333
1254.64	3180.91667
1257.919	3169.25
1261.195	3218.25
1264.468	3254.91667
1267.74	3296.58333
1271.008	3319.25
1274.275	3287.91667
1277.538	3283.91667
1280.8	3260.91667
1284.059	3272.58333
1287.315	3296.25
1290.569	3341.91667
1293.821	3345.91667
1297.07	3399.91667
1300.317	3390.25
1303.562	3373.58333
1306.803	3352.91667
1310.043	3335.25
1313.28	3294.25
1316.515	3288.58333
1319.747	3260.91667
1322.977	3233.25
1326.204	3210.91667
1329.429	3144.25
1332.652	3177.91667
1335.872	3147.91667
1339.09	3095.91667
1342.306	3087.25
1345.519	3068.25
1348.729	3054.91667
1351.938	3078.91667
1355.144	3005.91667
1358.347	2945.25
1361.548	2952.91667
1364.747	2977.58333
1367.944	2924.58333
1371.138	2933.58333
1374.329	2940.91667
1377.518	2945.25
1380.705	2932.25
1383.89	2943.58333
1387.072	2849.91667
1390.252	2772.91667
1393.429	2673.58333
1396.605	2592.58333
1399.777	2531.58333
1402.948	2480.91667
1406.116	2465.58333
1409.282	2494.58333
1412.445	2474.58333
1415.606	2528.58333
1418.765	2547.25
1421.921	2615.25
1425.075	2672.25
1428.227	2768.25
1431.376	2872.58333
1434.524	2991.58333
1437.668	3062.25
1440.811	3106.25
1443.951	3126.91667
1447.089	3126.58333
1450.224	3106.91667
1453.357	3084.25
1456.488	3068.25
1459.617	3037.58333
1462.743	2999.25
1465.867	2916.58333
1468.989	2912.91667
1472.108	2838.91667
1475.225	2801.25
1478.34	2774.58333
1481.453	2788.25
1484.563	2768.58333
1487.671	2821.25
1490.776	2846.25
1493.88	2896.91667
1496.981	2923.58333
1500.08	2968.91667
1503.176	3004.91667
1506.271	3052.25
1509.363	3114.58333
1512.452	3123.91667
1515.54	3187.58333
1518.625	3248.91667
1521.708	3360.58333
1524.789	3498.58333
1527.867	3664.58333
1530.944	3862.25
1534.018	3999.25
1537.089	4123.25
1540.159	4106.58333
1543.226	4032.91667
1546.291	3889.91667
1549.354	3805.58333
1552.415	3663.91667
1555.473	3583.91667
1558.529	3513.25
1561.583	3491.91667
1564.634	3485.58333
1567.684	3502.25
1570.731	3494.91667
1573.776	3567.25
1576.819	3614.58333
1579.859	3647.91667
1582.898	3717.25
1585.934	3755.91667
1588.968	3756.58333
1591.999	3746.25
1595.029	3759.58333
1598.056	3788.58333
1601.081	3817.25
1604.104	3784.58333
1607.125	3781.25
1610.144	3695.91667
1613.16	3630.25
1616.174	3533.91667
1619.186	3442.58333
1622.196	3365.91667
1625.203	3319.58333
1628.209	3275.58333
1631.212	3282.25
1634.213	3300.58333
1637.212	3344.58333
1640.209	3315.91667
1643.203	3256.91667
1646.196	3139.91667
1649.186	2968.58333
1652.174	2889.91667
1655.16	2786.25
1658.144	2687.91667
1661.125	2523.58333
1664.105	2372.58333
1667.082	2230.91667
1670.057	2110.58333
1673.03	1980.25
1676.001	1857.91667
1678.97	1743.25
1681.937	1657.58333
1684.901	1568.25
1687.863	1520.58333
1690.824	1459.91667
1693.782	1416.25
1696.738	1379.25
1699.692	1353.25
1702.643	1321.25
1705.593	1293.58333
1708.54	1269.25
1711.486	1280.91667
1714.429	1235.58333
1717.37	1243.25
1720.309	1222.58333
1723.246	1220.58333
1726.181	1198.25
1729.113	1204.58333
1732.044	1179.25
1734.972	1161.25
1737.899	1174.25
1740.823	1151.25
1743.745	1162.25
1746.665	1108.91667
1749.583	1101.25
1752.499	1081.58333
1755.413	1076.25
1758.325	1040.25
1761.235	1052.58333
1764.142	1020.58333
1767.048	1009.25
1769.951	1004.58333
1772.852	1008.91667
1775.752	985.91667
1778.649	993.25
1781.544	985.25
1784.437	975.91667
1787.328	971.91667
1790.217	970.58333
1793.104	944.91667
1795.989	942.58333
1798.872	940.25
1801.753	962.25
1804.631	949.25
1807.508	960.91667
1810.383	949.91667
1813.255	930.25
1816.126	944.91667
1818.994	928.91667
1821.861	919.91667
1824.725	912.91667
1827.587	912.91667
1830.448	910.25
1833.306	885.25
1836.162	906.25
1839.017	882.25
1841.869	884.25
1844.719	893.58333
1847.567	877.25
1850.414	856.91667
1853.258	857.58333
1856.1	889.25
1858.94	888.25
1861.778	873.91667
1864.614	857.58333
1867.448	877.25
1870.28	859.58333
1873.111	877.25
1875.939	868.91667
1878.765	887.25
1881.589	870.91667
1884.411	851.91667
1887.231	858.25
1890.049	861.25
1892.865	854.91667
1895.68	836.91667
1898.492	842.58333
1901.302	836.25
1904.11	846.25
1906.916	824.25
1909.721	816.25
1912.523	829.91667
1915.323	803.91667
1918.122	812.25
1920.918	826.25
1923.712	815.58333
1926.505	823.91667
1929.295	791.91667
1932.084	820.91667
1934.87	814.58333
1937.655	808.25
1940.438	799.25
1943.218	810.91667
1945.997	802.91667
1948.774	800.91667
1951.549	802.25
1954.322	806.91667
1957.093	802.91667
1959.862	796.58333
1962.629	785.58333
1965.394	781.91667
1968.157	771.58333
1970.918	781.58333
1973.678	760.58333
1976.435	781.58333
1979.19	766.25
1981.944	758.91667
1984.696	758.91667
1987.445	747.25
1990.193	763.91667
1992.939	773.25
1995.683	764.25
1998.425	741.91667
2001.165	777.58333
2003.903	750.91667
2006.639	753.58333
2009.374	750.91667
2012.106	753.25
2014.837	726.91667
2017.566	744.58333
2020.292	751.58333
2023.017	746.58333
2025.74	727.58333
2028.461	738.58333
2031.18	741.58333
2033.898	731.25
2036.613	734.58333
2039.327	741.91667
2042.038	717.25
2044.748	736.25
2047.456	724.91667
2050.162	701.91667
2052.866	717.91667
2055.568	720.91667
2058.268	704.25
2060.967	720.25
2063.663	702.58333
2066.358	710.91667
2069.051	707.91667
2071.742	715.58333
2074.431	701.25
2077.118	707.91667
2079.804	696.58333
2082.487	703.91667
2085.169	712.25
2087.849	731.25
2090.527	714.58333
2093.203	713.58333
2095.877	723.25
2098.55	722.91667
2101.22	731.25
2103.889	729.91667
2106.556	722.58333
2109.221	747.25
2111.884	762.58333
2114.546	800.58333
2117.205	850.25
2119.863	914.91667
2122.519	969.91667
2125.173	1008.25
2127.825	1088.25
2130.475	1090.58333
2133.124	1073.58333
2135.771	1024.25
2138.416	981.91667
2141.059	932.58333
2143.7	914.25
2146.339	849.58333
2148.977	804.58333
2151.613	794.58333
2154.247	763.91667
2156.879	770.58333
2159.51	736.58333
2162.138	733.25
2164.765	730.58333
2167.39	709.25
2170.013	724.91667
2172.634	708.25
2175.254	705.25
2177.872	736.58333
2180.488	688.58333
2183.102	687.25
2185.714	682.91667
2188.325	670.58333
2190.934	672.91667
2193.541	668.25
2196.146	652.58333
2198.75	652.25
2201.351	643.91667
2203.951	628.25
2206.549	659.25
2209.146	625.91667
2211.74	614.58333
2214.333	636.25
2216.924	614.25
2219.514	626.25
2222.101	610.91667
2224.687	635.25
2227.271	613.58333
2229.853	605.58333
2232.433	597.91667
2235.012	619.25
2237.589	608.58333
2240.164	616.25
2242.738	609.58333
2245.309	595.91667
2247.879	594.25
2250.448	611.91667
2253.014	586.25
2255.579	578.58333
2258.142	586.58333
2260.703	567.25
2263.262	566.91667
2265.82	561.58333
2268.376	575.58333
2270.93	553.91667
2273.483	554.58333
2276.033	565.91667
2278.583	550.58333
2281.13	555.58333
2283.675	539.91667
2286.219	556.58333
2288.761	542.25
2291.302	551.25
2293.841	547.58333
2296.377	537.58333
2298.913	544.25
2301.446	543.91667
2303.978	542.58333
2306.508	533.91667
2309.037	542.91667
2311.563	542.58333
2314.088	545.91667
2316.612	522.91667
2319.133	518.25
2321.653	534.25
2324.171	512.58333
2326.688	529.58333
2329.202	525.91667
2331.715	524.25
2334.227	522.25
2336.736	514.25
2339.244	511.91667
2341.751	505.25
2344.255	514.58333
2346.758	504.91667
2349.259	498.25
2351.759	507.58333
2354.257	498.91667
2356.753	509.25
2359.247	491.91667
2361.74	514.58333
2364.231	499.25
2366.721	512.91667
2369.209	506.25
2371.695	502.25
2374.179	501.91667
2376.662	479.91667
2379.143	509.25
2381.622	501.91667
2384.1	491.58333
2386.576	499.91667
2389.051	513.25
2391.524	511.91667
2393.995	506.58333
2396.464	489.91667
2398.932	490.91667
2401.398	480.58333
2403.863	486.25
2406.325	493.25
2408.787	484.58333
2411.246	477.91667
2413.704	485.58333
2416.16	486.25
2418.615	500.25
2421.068	489.25
2423.519	484.25
2425.969	475.91667
2428.417	482.58333
2430.863	502.25
2433.308	490.91667
2435.751	485.91667
2438.193	484.58333
2440.633	484.58333
2443.071	484.91667
2445.508	471.58333
2447.943	476.91667
2450.376	472.58333
2452.808	476.58333
2455.238	475.25
2457.667	496.25
2460.093	472.91667
2462.519	461.58333
2464.942	465.25
2467.365	469.25
2469.785	463.91667
2472.204	464.91667
2474.621	464.58333
2477.037	484.58333
2479.451	449.91667
2481.863	457.91667
2484.274	459.58333
2486.683	465.91667
2489.091	474.58333
2491.497	468.58333
2493.901	461.58333
2496.304	462.58333
2498.705	465.25
2501.105	457.58333
2503.503	492.58333
2505.899	459.25
2508.294	474.25
2510.687	448.58333
2513.079	456.25
2515.469	450.25
2517.858	449.91667
2520.245	473.25
2522.63	449.25
2525.014	443.25
2527.396	441.91667
2529.776	441.91667
2532.156	458.58333
2534.533	444.58333
2536.909	455.91667
2539.283	434.91667
2541.656	451.25
2544.027	472.25
2546.397	452.58333
2548.765	445.91667
2551.131	445.91667
2553.496	449.58333
2555.86	464.58333
2558.221	448.25
2560.582	454.58333
2562.94	437.25
2565.298	448.58333
2567.653	467.91667
2570.007	438.58333
2572.36	453.25
2574.711	443.58333
2577.06	460.58333
2579.408	446.25
2581.754	451.91667
2584.099	450.25
2586.442	449.25
2588.784	457.58333
2591.124	452.58333
2593.463	438.91667
2595.8	447.91667
2598.135	437.25
2600.469	443.25
2602.802	462.25
2605.133	466.25
2607.462	443.25
2609.79	445.25
2612.116	451.25
2614.441	452.25
2616.764	449.91667
2619.086	457.25
2621.406	437.58333
2623.725	467.58333
2626.042	456.58333
2628.358	443.91667
2630.672	443.25
2632.985	458.91667
2635.296	452.91667
2637.606	458.25
2639.914	440.25
2642.22	448.25
2644.525	448.58333
2646.829	454.58333
2649.131	461.58333
2651.432	463.58333
2653.731	459.25
2656.028	469.25
2658.324	458.58333
2660.619	448.58333
2662.912	464.25
2665.204	450.91667
2667.494	466.91667
2669.782	458.25
2672.07	476.25
2674.355	476.91667
2676.639	446.91667
2678.922	456.58333
2681.203	474.25
2683.483	453.58333
2685.761	461.91667
2688.038	469.58333
2690.313	477.91667
2692.587	471.91667
2694.859	466.91667
2697.13	471.91667
2699.399	462.91667
2701.667	486.25
2703.933	483.91667
2706.198	483.58333
2708.461	500.91667
2710.723	490.25
2712.984	492.58333
2715.243	504.25
2717.5	488.91667
2719.757	498.58333
2722.011	492.58333
2724.264	508.25
2726.516	516.25
2728.766	503.58333
2731.015	505.58333
2733.262	512.58333
2735.508	497.58333
2737.753	505.91667
2739.996	489.58333
2742.237	494.25
2744.477	502.91667
2746.716	502.58333
2748.953	493.25
2751.189	490.25
2753.423	490.25
2755.656	475.58333
2757.887	493.58333
2760.117	485.25
2762.346	474.91667
2764.573	473.91667
2766.798	480.25
2769.022	481.25
2771.245	492.91667
2773.467	475.25
2775.686	495.58333
2777.905	490.91667
2780.122	495.91667
2782.337	501.25
2784.552	497.25
2786.764	507.58333
2788.976	505.25
2791.186	511.25
2793.394	515.58333
2795.601	518.91667
2797.807	524.58333
2800.011	534.25
2802.214	541.58333
2804.415	555.91667
2806.615	545.91667
2808.814	560.91667
2811.011	560.58333
2813.206	551.91667
2815.401	568.58333
2817.594	590.58333
2819.785	596.58333
2821.975	579.58333
2824.164	600.58333
2826.351	609.91667
2828.537	628.58333
2830.722	642.91667
2832.905	640.58333
2835.086	662.91667
2837.267	702.25
2839.445	727.58333
2841.623	723.91667
2843.799	766.91667
2845.974	798.58333
2848.147	830.91667
2850.319	843.91667
2852.489	878.58333
2854.659	876.25
2856.826	909.91667
2858.993	934.91667
2861.158	911.91667
2863.321	915.58333
2865.483	938.91667
2867.644	937.58333
2869.804	931.58333
2871.962	909.25
2874.118	927.91667
2876.274	934.91667
2878.428	913.58333
2880.58	913.25
2882.731	894.58333
2884.881	906.91667
2887.03	900.91667
2889.177	903.25
2891.322	926.25
2893.467	910.91667
2895.61	918.58333
2897.751	936.25
2899.892	933.58333
2902.03	939.91667
2904.168	947.91667
2906.304	943.25
2908.439	961.91667
2910.572	960.25
2912.704	959.91667
2914.835	957.25
2916.965	953.58333
2919.093	989.91667
2921.219	941.25
2923.345	974.91667
2925.469	938.91667
2927.591	937.58333
2929.712	896.25
2931.832	903.25
2933.951	889.91667
2936.068	865.58333
2938.184	841.58333
2940.299	818.25
2942.412	802.58333
2944.524	761.58333
2946.634	762.91667
2948.744	711.58333
2950.851	738.25
2952.958	691.25
2955.063	691.91667
2957.167	670.25
2959.269	651.58333
2961.371	672.58333
2963.471	628.58333
2965.569	644.25
2967.666	612.25
2969.762	610.25
2971.857	587.58333
2973.95	578.58333
2976.042	559.58333
2978.133	545.25
2980.222	548.25
2982.31	522.91667
2984.396	504.25
2986.482	517.25
2988.566	514.91667
2990.648	502.25
2992.73	503.58333
2994.81	481.91667
2996.889	482.25
2998.966	490.58333
3001.042	489.25
3003.117	484.58333
3005.191	490.58333
3007.263	487.91667
3009.334	475.25
3011.403	471.58333
3013.472	457.25
3015.539	468.91667
3017.604	461.91667
3019.669	435.25
3021.732	444.58333
3023.794	442.58333
3025.854	429.25
3027.914	429.58333
3029.971	435.25
3032.028	430.91667
3034.083	432.91667
3036.137	424.58333
3038.19	404.58333
3040.242	400.58333
3042.292	395.91667
3044.341	379.25
3046.388	403.58333
3048.435	372.25
3050.48	389.58333
3052.524	399.91667
3054.566	360.58333
3056.607	375.91667
3058.647	367.91667
3060.686	348.58333
3062.723	346.58333
3064.759	333.25
3066.794	2.25
3068.828	-3.08333
3070.86	-2.75
