-0.839	476.45833
3.438	499.125
7.711	135.45833
11.981	57.125
16.247	45.45833
20.509	45.45833
24.768	42.45833
29.024	45.79167
33.276	40.79167
37.524	52.125
41.769	39.125
46.01	35.45833
50.247	51.45833
54.481	59.79167
58.712	68.79167
62.939	49.79167
67.162	57.45833
71.382	58.79167
75.599	48.125
79.812	63.45833
84.021	82.125
88.227	59.79167
92.429	58.125
96.628	46.79167
100.823	65.125
105.015	75.45833
109.204	76.45833
113.388	73.79167
117.57	69.125
121.748	87.45833
125.922	77.125
130.093	97.125
134.261	99.125
138.425	97.125
142.585	136.45833
146.742	133.79167
150.896	162.45833
155.046	196.45833
159.193	321.45833
163.336	555.45833
167.476	1011.79167
171.613	1853.79167
175.746	3057.125
179.875	4564.45833
184.002	5909.45833
188.124	6812.125
192.244	7090.79167
196.36	6966.79167
200.472	6739.45833
204.581	6531.125
208.687	6332.45833
212.79	6220.45833
216.889	6203.45833
220.984	6172.125
225.077	6228.125
229.165	6241.45833
233.251	6253.79167
237.333	6255.125
241.412	6185.79167
245.487	6164.79167
249.559	6091.79167
253.628	6011.79167
257.694	5928.125
261.756	5856.45833
265.814	5758.79167
269.87	5545.45833
273.922	5385.45833
277.97	5324.125
282.016	5243.125
286.058	5230.125
290.097	5293.79167
294.132	5315.125
298.164	5240.125
302.193	4967.79167
306.219	4607.79167
310.241	4207.45833
314.26	3836.45833
318.276	3563.45833
322.288	3331.125
326.297	3176.125
330.303	3037.125
334.305	2937.79167
338.305	2868.79167
342.301	2823.79167
346.294	2785.45833
350.283	2761.45833
354.269	2753.45833
358.252	2706.45833
362.232	2713.125
366.209	2677.125
370.182	2668.125
374.152	2639.79167
378.119	2652.125
382.083	2634.125
386.043	2683.79167
390	2612.125
393.954	2589.79167
397.905	2559.45833
401.852	2575.45833
405.797	2537.45833
409.738	2489.79167
413.676	2491.45833
417.61	2470.79167
421.542	2430.79167
425.47	2432.79167
429.396	2392.79167
433.318	2378.45833
437.236	2369.45833
441.152	2409.79167
445.065	2337.79167
448.974	2341.125
452.88	2295.79167
456.783	2309.79167
460.683	2267.45833
464.58	2286.79167
468.473	2301.125
472.364	2296.79167
476.251	2299.45833
480.135	2339.45833
484.016	2343.45833
487.894	2353.125
491.769	2353.125
495.641	2344.125
499.509	2335.125
503.375	2364.79167
507.237	2352.45833
511.096	2359.79167
514.952	2435.125
518.805	2535.45833
522.655	2554.79167
526.502	2421.79167
530.346	2344.125
534.187	2361.125
538.024	2355.79167
541.859	2349.45833
545.69	2370.79167
549.519	2338.79167
553.344	2334.125
557.166	2300.125
560.985	2271.45833
564.802	2269.79167
568.615	2227.125
572.425	2178.79167
576.232	2171.45833
580.036	2166.125
583.836	2184.125
587.634	2177.125
591.429	2159.79167
595.221	2212.125
599.01	2235.79167
602.796	2259.45833
606.578	2273.45833
610.358	2301.125
614.135	2261.79167
617.909	2273.79167
621.679	2278.125
625.447	2233.45833
629.212	2241.45833
632.973	2237.79167
636.732	2254.79167
640.488	2239.79167
644.241	2199.79167
647.991	2207.79167
651.737	2231.45833
655.481	2168.45833
659.222	2194.79167
662.96	2200.45833
666.695	2203.45833
670.427	2237.79167
674.156	2229.125
677.882	2235.45833
681.605	2218.45833
685.325	2189.79167
689.043	2200.79167
692.757	2196.125
696.468	2204.45833
700.177	2219.79167
703.882	2190.45833
707.585	2212.45833
711.284	2204.79167
714.981	2206.79167
718.675	2209.79167
722.366	2243.45833
726.054	2191.125
729.739	2203.125
733.421	2207.45833
737.1	2219.45833
740.777	2226.45833
744.45	2246.79167
748.121	2261.125
751.789	2322.125
755.453	2296.79167
759.115	2332.125
762.774	2338.79167
766.431	2358.45833
770.084	2391.125
773.734	2396.45833
777.382	2457.45833
781.027	2494.79167
784.669	2499.79167
788.308	2526.79167
791.944	2512.125
795.577	2554.79167
799.208	2571.125
802.835	2562.45833
806.46	2576.79167
810.082	2599.125
813.701	2612.45833
817.317	2660.125
820.931	2615.79167
824.542	2623.79167
828.149	2585.45833
831.754	2599.79167
835.357	2591.45833
838.956	2588.79167
842.553	2594.79167
846.146	2560.79167
849.737	2567.125
853.326	2562.45833
856.911	2584.45833
860.493	2613.125
864.073	2654.79167
867.65	2681.45833
871.225	2698.79167
874.796	2692.125
878.365	2721.45833
881.931	2723.79167
885.494	2753.45833
889.054	2762.79167
892.612	2742.79167
896.166	2736.79167
899.719	2694.45833
903.268	2686.45833
906.814	2668.125
910.358	2635.125
913.899	2657.79167
917.438	2653.45833
920.973	2638.45833
924.506	2663.79167
928.036	2704.45833
931.564	2735.45833
935.088	2740.125
938.61	2766.45833
942.129	2781.79167
945.646	2847.125
949.16	2904.45833
952.671	2982.79167
956.179	2991.79167
959.685	2954.45833
963.188	2939.45833
966.688	2883.45833
970.185	2830.45833
973.68	2763.79167
977.173	2766.125
980.662	2727.79167
984.149	2761.45833
987.633	2766.125
991.114	2804.79167
994.593	2881.125
998.069	2968.45833
1001.542	3066.79167
1005.013	2964.79167
1008.481	2822.125
1011.947	2774.79167
1015.409	2780.45833
1018.869	2766.45833
1022.327	2759.125
1025.782	2750.79167
1029.234	2746.45833
1032.683	2708.79167
1036.13	2619.125
1039.574	2500.125
1043.016	2449.45833
1046.455	2402.125
1049.891	2376.45833
1053.325	2359.45833
1056.756	2383.45833
1060.184	2407.45833
1063.61	2416.45833
1067.033	2412.125
1070.454	2436.79167
1073.872	2472.79167
1077.287	2461.45833
1080.7	2444.79167
1084.11	2450.45833
1087.517	2453.45833
1090.922	2440.45833
1094.325	2402.79167
1097.724	2387.79167
1101.122	2390.45833
1104.516	2375.45833
1107.908	2377.125
1111.298	2428.79167
1114.684	2450.125
1118.069	2475.125
1121.45	2513.79167
1124.83	2483.79167
1128.206	2522.45833
1131.58	2569.45833
1134.951	2625.45833
1138.32	2707.45833
1141.687	2837.125
1145.05	2932.45833
1148.412	2932.45833
1151.77	2929.45833
1155.126	2919.45833
1158.48	2933.45833
1161.831	2942.45833
1165.18	2962.125
1168.525	3012.45833
1171.869	3055.125
1175.21	3070.45833
1178.548	3105.45833
1181.884	3119.79167
1185.217	3147.79167
1188.548	3203.79167
1191.877	3256.125
1195.202	3332.45833
1198.526	3369.125
1201.846	3385.45833
1205.165	3401.79167
1208.48	3382.45833
1211.794	3355.125
1215.104	3360.125
1218.413	3366.45833
1221.719	3380.125
1225.022	3342.79167
1228.323	3288.79167
1231.621	3297.45833
1234.917	3284.125
1238.21	3312.45833
1241.501	3294.125
1244.79	3278.79167
1248.076	3320.79167
1251.359	3346.45833
1254.64	3411.79167
1257.919	3413.45833
1261.195	3465.125
1264.468	3525.45833
1267.74	3593.45833
1271.008	3621.79167
1274.275	3579.79167
1277.538	3546.79167
1280.8	3526.79167
1284.059	3518.45833
1287.315	3562.45833
1290.569	3570.45833
1293.821	3604.45833
1297.07	3609.125
1300.317	3627.79167
1303.562	3613.79167
1306.803	3578.125
1310.043	3537.125
1313.28	3497.79167
1316.515	3463.125
1319.747	3438.79167
1322.977	3363.79167
1326.204	3350.79167
1329.429	3309.125
1332.652	3269.45833
1335.872	3287.125
1339.09	3229.45833
1342.306	3245.79167
1345.519	3206.125
1348.729	3182.79167
1351.938	3169.125
1355.144	3150.79167
1358.347	3095.79167
1361.548	3080.79167
1364.747	3116.125
1367.944	3085.79167
1371.138	3089.79167
1374.329	3151.45833
1377.518	3201.125
1380.705	3205.79167
1383.89	3182.125
1387.072	3079.125
1390.252	2958.125
1393.429	2866.45833
1396.605	2787.125
1399.777	2706.125
1402.948	2687.79167
1406.116	2643.79167
1409.282	2679.125
1412.445	2677.45833
1415.606	2710.79167
1418.765	2717.45833
1421.921	2807.79167
1425.075	2866.125
1428.227	2948.45833
1431.376	3104.79167
1434.524	3198.79167
1437.668	3274.45833
1440.811	3300.45833
1443.951	3329.79167
1447.089	3341.125
1450.224	3293.125
1453.357	3306.125
1456.488	3266.125
1459.617	3227.79167
1462.743	3199.79167
1465.867	3128.125
1468.989	3094.45833
1472.108	3034.45833
1475.225	2987.79167
1478.34	2981.125
1481.453	2966.79167
1484.563	2950.125
1487.671	3002.79167
1490.776	3053.45833
1493.88	3135.45833
1496.981	3210.45833
1500.08	3270.45833
1503.176	3329.125
1506.271	3352.79167
1509.363	3423.45833
1512.452	3461.79167
1515.54	3520.125
1518.625	3566.79167
1521.708	3718.125
1524.789	3854.79167
1527.867	4078.79167
1530.944	4337.79167
1534.018	4523.79167
1537.089	4698.125
1540.159	4735.125
1543.226	4637.79167
1546.291	4493.79167
1549.354	4372.79167
1552.415	4235.45833
1555.473	4110.45833
1558.529	4028.79167
1561.583	3993.45833
1564.634	3939.45833
1567.684	3953.45833
1570.731	3932.125
1573.776	3947.45833
1576.819	4010.125
1579.859	4020.125
1582.898	4085.79167
1585.934	4108.79167
1588.968	4106.79167
1591.999	4130.125
1595.029	4111.125
1598.056	4142.125
1601.081	4151.125
1604.104	4146.125
1607.125	4091.125
1610.144	4006.79167
1613.16	3885.79167
1616.174	3793.125
1619.186	3689.79167
1622.196	3588.125
1625.203	3514.79167
1628.209	3453.45833
1631.212	3430.79167
1634.213	3403.79167
1637.212	3362.79167
1640.209	3302.125
1643.203	3209.125
1646.196	3134.45833
1649.186	3014.125
1652.174	2923.79167
1655.16	2839.79167
1658.144	2733.45833
1661.125	2614.125
1664.105	2484.79167
1667.082	2377.45833
1670.057	2250.125
1673.03	2140.79167
1676.001	1990.125
1678.97	1878.125
1681.937	1768.125
1684.901	1669.125
1687.863	1619.45833
1690.824	1552.125
1693.782	1541.79167
1696.738	1457.45833
1699.692	1433.45833
1702.643	1408.45833
1705.593	1398.125
1708.54	1350.125
1711.486	1368.125
1714.429	1321.45833
1717.37	1330.45833
1720.309	1297.125
1723.246	1298.45833
1726.181	1264.79167
1729.113	1272.45833
1732.044	1245.79167
1734.972	1228.45833
1737.899	1233.79167
1740.823	1224.79167
1743.745	1229.45833
1746.665	1183.125
1749.583	1154.125
1752.499	1139.45833
1755.413	1131.45833
1758.325	1091.79167
1761.235	1099.45833
1764.142	1084.125
1767.048	1068.125
1769.951	1067.79167
1772.852	1047.79167
1775.752	1053.125
1778.649	1061.45833
1781.544	1046.125
1784.437	1022.125
1787.328	1031.45833
1790.217	1026.45833
1793.104	990.125
1795.989	1012.125
1798.872	996.45833
1801.753	1002.79167
1804.631	1002.79167
1807.508	1011.79167
1810.383	997.125
1813.255	999.45833
1816.126	987.125
1818.994	976.79167
1821.861	970.79167
1824.725	970.45833
1827.587	970.125
1830.448	972.125
1833.306	933.125
1836.162	954.79167
1839.017	944.45833
1841.869	932.79167
1844.719	945.79167
1847.567	933.125
1850.414	924.125
1853.258	930.45833
1856.1	938.125
1858.94	939.79167
1861.778	934.45833
1864.614	920.125
1867.448	927.45833
1870.28	928.79167
1873.111	941.125
1875.939	925.125
1878.765	938.45833
1881.589	923.125
1884.411	910.79167
1887.231	926.79167
1890.049	906.79167
1892.865	917.45833
1895.68	896.79167
1898.492	894.79167
1901.302	885.79167
1904.11	892.45833
1906.916	887.125
1909.721	897.79167
1912.523	890.79167
1915.323	870.79167
1918.122	876.79167
1920.918	878.79167
1923.712	866.45833
1926.505	887.125
1929.295	856.45833
1932.084	878.45833
1934.87	880.79167
1937.655	869.79167
1940.438	861.125
1943.218	870.79167
1945.997	866.79167
1948.774	892.125
1951.549	873.125
1954.322	872.125
1957.093	862.45833
1959.862	857.125
1962.629	866.45833
1965.394	848.79167
1968.157	847.125
1970.918	861.125
1973.678	839.125
1976.435	844.125
1979.19	846.125
1981.944	817.125
1984.696	839.45833
1987.445	833.125
1990.193	826.45833
1992.939	845.45833
1995.683	839.125
1998.425	811.45833
2001.165	843.79167
2003.903	822.79167
2006.639	825.45833
2009.374	817.45833
2012.106	830.125
2014.837	807.45833
2017.566	814.45833
2020.292	822.45833
2023.017	818.45833
2025.74	813.79167
2028.461	819.79167
2031.18	826.45833
2033.898	806.45833
2036.613	811.45833
2039.327	819.79167
2042.038	798.125
2044.748	806.125
2047.456	808.125
2050.162	800.125
2052.866	806.125
2055.568	811.79167
2058.268	794.79167
2060.967	795.79167
2063.663	781.79167
2066.358	800.45833
2069.051	781.45833
2071.742	807.45833
2074.431	790.45833
2077.118	805.45833
2079.804	789.79167
2082.487	793.125
2085.169	806.125
2087.849	822.79167
2090.527	805.45833
2093.203	819.125
2095.877	830.79167
2098.55	822.79167
2101.22	835.45833
2103.889	855.79167
2106.556	859.79167
2109.221	902.79167
2111.884	940.125
2114.546	1012.79167
2117.205	1087.45833
2119.863	1210.125
2122.519	1298.125
2125.173	1399.125
2127.825	1503.79167
2130.475	1516.79167
2133.124	1468.125
2135.771	1407.45833
2138.416	1335.125
2141.059	1242.79167
2143.7	1198.45833
2146.339	1107.79167
2148.977	1044.79167
2151.613	1021.79167
2154.247	992.79167
2156.879	959.125
2159.51	953.45833
2162.138	925.79167
2164.765	919.125
2167.39	895.45833
2170.013	905.45833
2172.634	910.125
2175.254	895.79167
2177.872	915.45833
2180.488	872.45833
2183.102	879.125
2185.714	877.79167
2188.325	834.45833
2190.934	843.45833
2193.541	825.125
2196.146	801.125
2198.75	790.125
2201.351	779.79167
2203.951	769.79167
2206.549	786.45833
2209.146	766.45833
2211.74	745.79167
2214.333	756.79167
2216.924	737.45833
2219.514	740.125
2222.101	730.45833
2224.687	758.125
2227.271	734.45833
2229.853	717.79167
2232.433	708.125
2235.012	727.79167
2237.589	743.45833
2240.164	732.45833
2242.738	723.45833
2245.309	699.125
2247.879	727.125
2250.448	728.45833
2253.014	696.79167
2255.579	680.45833
2258.142	685.125
2260.703	674.45833
2263.262	674.125
2265.82	673.45833
2268.376	673.45833
2270.93	671.45833
2273.483	665.45833
2276.033	679.125
2278.583	657.125
2281.13	654.79167
2283.675	650.45833
2286.219	654.79167
2288.761	652.45833
2291.302	661.125
2293.841	663.79167
2296.377	648.125
2298.913	651.125
2301.446	659.79167
2303.978	648.125
2306.508	638.125
2309.037	645.79167
2311.563	641.79167
2314.088	652.79167
2316.612	640.125
2319.133	649.125
2321.653	638.125
2324.171	622.125
2326.688	648.125
2329.202	629.125
2331.715	638.45833
2334.227	649.125
2336.736	630.79167
2339.244	627.125
2341.751	624.45833
2344.255	635.79167
2346.758	623.125
2349.259	610.125
2351.759	625.79167
2354.257	620.125
2356.753	620.79167
2359.247	626.79167
2361.74	630.125
2364.231	619.45833
2366.721	630.125
2369.209	615.79167
2371.695	614.79167
2374.179	609.125
2376.662	618.125
2379.143	633.45833
2381.622	618.79167
2384.1	616.125
2386.576	618.79167
2389.051	630.125
2391.524	627.125
2393.995	616.45833
2396.464	612.45833
2398.932	608.45833
2401.398	615.125
2403.863	617.79167
2406.325	618.125
2408.787	619.45833
2411.246	612.125
2413.704	613.45833
2416.16	608.125
2418.615	615.45833
2421.068	621.45833
2423.519	623.79167
2425.969	607.45833
2428.417	628.45833
2430.863	627.79167
2433.308	624.125
2435.751	612.45833
2438.193	610.79167
2440.633	616.45833
2443.071	609.45833
2445.508	610.125
2447.943	606.45833
2450.376	601.79167
2452.808	605.79167
2455.238	596.79167
2457.667	633.79167
2460.093	607.125
2462.519	595.79167
2464.942	603.45833
2467.365	607.45833
2469.785	620.45833
2472.204	607.125
2474.621	599.79167
2477.037	630.125
2479.451	608.125
2481.863	597.79167
2484.274	599.79167
2486.683	605.45833
2489.091	606.125
2491.497	608.45833
2493.901	606.45833
2496.304	608.79167
2498.705	604.125
2501.105	610.45833
2503.503	635.79167
2505.899	607.125
2508.294	625.45833
2510.687	597.125
2513.079	604.125
2515.469	609.125
2517.858	599.79167
2520.245	619.79167
2522.63	594.45833
2525.014	609.79167
2527.396	599.125
2529.776	606.79167
2532.156	599.79167
2534.533	591.125
2536.909	608.125
2539.283	595.125
2541.656	608.125
2544.027	622.45833
2546.397	618.45833
2548.765	598.79167
2551.131	600.79167
2553.496	604.45833
2555.86	618.125
2558.221	614.45833
2560.582	605.45833
2562.94	594.79167
2565.298	600.125
2567.653	640.45833
2570.007	593.79167
2572.36	616.45833
2574.711	608.45833
2577.06	623.79167
2579.408	610.125
2581.754	618.45833
2584.099	609.79167
2586.442	612.79167
2588.784	621.125
2591.124	621.79167
2593.463	616.45833
2595.8	625.45833
2598.135	606.45833
2600.469	616.125
2602.802	629.79167
2605.133	629.79167
2607.462	609.79167
2609.79	615.125
2612.116	623.125
2614.441	615.125
2616.764	625.79167
2619.086	612.79167
2621.406	622.79167
2623.725	640.45833
2626.042	622.125
2628.358	630.79167
2630.672	607.45833
2632.985	648.125
2635.296	636.45833
2637.606	635.125
2639.914	630.79167
2642.22	636.125
2644.525	631.125
2646.829	646.79167
2649.131	663.125
2651.432	651.125
2653.731	636.79167
2656.028	660.125
2658.324	648.45833
2660.619	644.45833
2662.912	660.79167
2665.204	645.79167
2667.494	672.125
2669.782	653.79167
2672.07	652.125
2674.355	675.79167
2676.639	662.45833
2678.922	658.45833
2681.203	662.79167
2683.483	648.45833
2685.761	650.45833
2688.038	664.79167
2690.313	682.125
2692.587	668.79167
2694.859	658.125
2697.13	665.125
2699.399	676.45833
2701.667	690.79167
2703.933	691.45833
2706.198	695.79167
2708.461	701.45833
2710.723	694.79167
2712.984	699.125
2715.243	713.125
2717.5	707.45833
2719.757	727.79167
2722.011	704.79167
2724.264	724.125
2726.516	736.45833
2728.766	722.79167
2731.015	730.79167
2733.262	717.45833
2735.508	714.45833
2737.753	730.125
2739.996	704.45833
2742.237	710.45833
2744.477	720.79167
2746.716	729.79167
2748.953	715.79167
2751.189	718.125
2753.423	711.125
2755.656	701.125
2757.887	703.79167
2760.117	715.79167
2762.346	706.79167
2764.573	708.45833
2766.798	709.79167
2769.022	706.79167
2771.245	710.125
2773.467	707.125
2775.686	722.45833
2777.905	723.45833
2780.122	738.125
2782.337	735.125
2784.552	722.45833
2786.764	752.79167
2788.976	749.125
2791.186	758.79167
2793.394	749.79167
2795.601	766.79167
2797.807	785.125
2800.011	786.79167
2802.214	801.79167
2804.415	797.79167
2806.615	805.45833
2808.814	821.79167
2811.011	815.45833
2813.206	820.45833
2815.401	842.79167
2817.594	844.45833
2819.785	853.125
2821.975	843.125
2824.164	852.125
2826.351	875.45833
2828.537	898.79167
2830.722	912.79167
2832.905	909.45833
2835.086	949.79167
2837.267	976.45833
2839.445	1002.45833
2841.623	1007.125
2843.799	1052.125
2845.974	1073.79167
2848.147	1118.79167
2850.319	1139.125
2852.489	1177.45833
2854.659	1174.125
2856.826	1200.79167
2858.993	1221.125
2861.158	1205.45833
2863.321	1206.45833
2865.483	1235.79167
2867.644	1228.125
2869.804	1228.125
2871.962	1214.79167
2874.118	1217.45833
2876.274	1208.125
2878.428	1212.79167
2880.58	1206.45833
2882.731	1186.79167
2884.881	1189.125
2887.03	1207.79167
2889.177	1203.45833
2891.322	1210.125
2893.467	1210.79167
2895.61	1216.79167
2897.751	1229.79167
2899.892	1233.125
2902.03	1241.125
2904.168	1241.125
2906.304	1252.125
2908.439	1264.79167
2910.572	1253.125
2912.704	1267.125
2914.835	1268.125
2916.965	1258.45833
2919.093	1282.125
2921.219	1242.125
2923.345	1269.45833
2925.469	1245.45833
2927.591	1241.125
2929.712	1188.79167
2931.832	1217.79167
2933.951	1171.45833
2936.068	1152.79167
2938.184	1127.125
2940.299	1094.45833
2942.412	1086.45833
2944.524	1039.125
2946.634	1027.125
2948.744	980.45833
2950.851	999.79167
2952.958	963.79167
2955.063	962.79167
2957.167	940.125
2959.269	929.125
2961.371	935.45833
2963.471	903.79167
2965.569	907.45833
2967.666	875.45833
2969.762	859.79167
2971.857	839.79167
2973.95	822.125
2976.042	833.79167
2978.133	804.45833
2980.222	790.45833
2982.31	769.79167
2984.396	753.45833
2986.482	749.79167
2988.566	762.125
2990.648	740.45833
2992.73	748.79167
2994.81	729.45833
2996.889	747.125
2998.966	728.45833
3001.042	736.79167
3003.117	728.45833
3005.191	731.79167
3007.263	716.79167
3009.334	713.45833
3011.403	718.79167
3013.472	692.79167
3015.539	699.125
3017.604	700.79167
3019.669	655.79167
3021.732	665.125
3023.794	669.79167
3025.854	665.125
3027.914	651.125
3029.971	669.79167
3032.028	651.79167
3034.083	662.125
3036.137	651.45833
3038.19	631.79167
3040.242	612.45833
3042.292	602.79167
3044.341	591.125
3046.388	617.125
3048.435	587.125
3050.48	596.45833
3052.524	589.125
3054.566	564.125
3056.607	586.45833
3058.647	569.125
3060.686	544.79167
3062.723	537.125
3064.759	514.45833
3066.794	0.125
3068.828	0.45833
3070.86	-2.20833
