-0.839	519.04167
3.438	539.70833
7.711	146.04167
11.981	55.04167
16.247	44.70833
20.509	43.04167
24.768	46.04167
29.024	46.04167
33.276	39.04167
37.524	46.04167
41.769	39.375
46.01	32.04167
50.247	49.375
54.481	62.04167
58.712	64.375
62.939	45.70833
67.162	60.70833
71.382	51.375
75.599	47.375
79.812	61.375
84.021	81.375
88.227	59.04167
92.429	60.375
96.628	47.70833
100.823	62.70833
105.015	71.375
109.204	78.375
113.388	73.375
117.57	71.70833
121.748	81.04167
125.922	76.70833
130.093	95.70833
134.261	99.375
138.425	94.375
142.585	136.04167
146.742	131.375
150.896	159.70833
155.046	195.70833
159.193	315.375
163.336	547.04167
167.476	1014.375
171.613	1843.375
175.746	3057.375
179.875	4498.04167
184.002	5789.70833
188.124	6618.375
192.244	6838.04167
196.36	6691.70833
200.472	6415.70833
204.581	6150.70833
208.687	5923.04167
212.79	5763.04167
216.889	5722.70833
220.984	5719.04167
225.077	5713.04167
229.165	5708.04167
233.251	5713.04167
237.333	5740.04167
241.412	5685.04167
245.487	5640.375
249.559	5598.70833
253.628	5530.375
257.694	5498.375
261.756	5428.04167
265.814	5307.04167
269.87	5187.70833
273.922	5025.04167
277.97	4960.375
282.016	4914.70833
286.058	4905.04167
290.097	4960.04167
294.132	4964.375
298.164	4887.70833
302.193	4695.375
306.219	4342.375
310.241	3985.04167
314.26	3648.70833
318.276	3319.375
322.288	3132.04167
326.297	2934.04167
330.303	2802.375
334.305	2719.375
338.305	2661.04167
342.301	2608.04167
346.294	2583.70833
350.283	2532.70833
354.269	2517.04167
358.252	2501.375
362.232	2464.375
366.209	2456.04167
370.182	2417.04167
374.152	2397.70833
378.119	2392.70833
382.083	2382.04167
386.043	2409.04167
390	2372.375
393.954	2353.04167
397.905	2339.375
401.852	2335.04167
405.797	2313.04167
409.738	2265.70833
413.676	2298.04167
417.61	2242.375
421.542	2228.70833
425.47	2211.70833
429.396	2199.04167
433.318	2208.70833
437.236	2182.04167
441.152	2209.375
445.065	2136.70833
448.974	2141.04167
452.88	2124.375
456.783	2116.70833
460.683	2083.70833
464.58	2092.70833
468.473	2088.04167
472.364	2096.375
476.251	2108.70833
480.135	2132.04167
484.016	2128.375
487.894	2155.375
491.769	2160.70833
495.641	2154.70833
499.509	2165.04167
503.375	2179.04167
507.237	2159.375
511.096	2170.70833
514.952	2222.04167
518.805	2284.04167
522.655	2295.70833
526.502	2175.04167
530.346	2165.375
534.187	2183.375
538.024	2196.04167
541.859	2182.70833
545.69	2184.375
549.519	2189.70833
553.344	2147.04167
557.166	2134.70833
560.985	2091.04167
564.802	2073.70833
568.615	2056.70833
572.425	2018.375
576.232	2002.70833
580.036	2007.70833
583.836	2014.04167
587.634	2013.70833
591.429	2015.70833
595.221	2056.375
599.01	2076.70833
602.796	2097.375
606.578	2130.375
610.358	2133.70833
614.135	2115.04167
617.909	2114.04167
621.679	2100.375
625.447	2080.375
629.212	2096.375
632.973	2089.375
636.732	2072.04167
640.488	2088.04167
644.241	2061.04167
647.991	2070.375
651.737	2097.04167
655.481	2057.375
659.222	2091.04167
662.96	2083.04167
666.695	2101.04167
670.427	2110.04167
674.156	2121.375
677.882	2098.70833
681.605	2099.04167
685.325	2073.04167
689.043	2081.70833
692.757	2048.70833
696.468	2066.70833
700.177	2062.375
703.882	2050.70833
707.585	2057.04167
711.284	2041.70833
714.981	2082.375
718.675	2071.375
722.366	2071.375
726.054	2045.04167
729.739	2072.70833
733.421	2055.04167
737.1	2042.04167
740.777	2067.375
744.45	2085.70833
748.121	2106.04167
751.789	2142.375
755.453	2122.04167
759.115	2143.375
762.774	2163.375
766.431	2162.375
770.084	2211.70833
773.734	2209.70833
777.382	2261.70833
781.027	2288.04167
784.669	2285.70833
788.308	2333.70833
791.944	2349.04167
795.577	2372.70833
799.208	2394.70833
802.835	2401.70833
806.46	2421.04167
810.082	2449.04167
813.701	2473.04167
817.317	2481.70833
820.931	2486.375
824.542	2463.375
828.149	2413.04167
831.754	2381.04167
835.357	2375.70833
838.956	2361.70833
842.553	2335.04167
846.146	2338.70833
849.737	2335.375
853.326	2330.04167
856.911	2326.04167
860.493	2369.04167
864.073	2372.70833
867.65	2402.70833
871.225	2439.70833
874.796	2429.70833
878.365	2447.70833
881.931	2448.70833
885.494	2458.375
889.054	2456.70833
892.612	2483.70833
896.166	2460.70833
899.719	2423.04167
903.268	2393.375
906.814	2402.70833
910.358	2398.04167
913.899	2377.70833
917.438	2375.70833
920.973	2356.04167
924.506	2432.70833
928.036	2444.70833
931.564	2516.70833
935.088	2529.04167
938.61	2544.70833
942.129	2561.04167
945.646	2604.375
949.16	2673.70833
952.671	2725.70833
956.179	2752.04167
959.685	2756.04167
963.188	2747.375
966.688	2720.375
970.185	2656.04167
973.68	2594.70833
977.173	2536.70833
980.662	2472.375
984.149	2495.04167
987.633	2470.375
991.114	2487.70833
994.593	2543.70833
998.069	2641.04167
1001.542	2717.70833
1005.013	2674.04167
1008.481	2518.375
1011.947	2482.04167
1015.409	2461.70833
1018.869	2464.04167
1022.327	2458.375
1025.782	2442.375
1029.234	2467.70833
1032.683	2466.04167
1036.13	2339.375
1039.574	2288.04167
1043.016	2216.375
1046.455	2193.70833
1049.891	2149.70833
1053.325	2150.04167
1056.756	2191.70833
1060.184	2206.70833
1063.61	2219.04167
1067.033	2228.70833
1070.454	2245.04167
1073.872	2259.04167
1077.287	2244.375
1080.7	2263.375
1084.11	2289.375
1087.517	2276.04167
1090.922	2217.04167
1094.325	2181.04167
1097.724	2165.375
1101.122	2192.70833
1104.516	2192.70833
1107.908	2177.70833
1111.298	2222.375
1114.684	2240.04167
1118.069	2274.70833
1121.45	2273.04167
1124.83	2285.375
1128.206	2296.04167
1131.58	2313.04167
1134.951	2380.375
1138.32	2466.04167
1141.687	2572.375
1145.05	2601.70833
1148.412	2620.375
1151.77	2639.375
1155.126	2623.375
1158.48	2619.04167
1161.831	2624.70833
1165.18	2645.375
1168.525	2691.04167
1171.869	2715.70833
1175.21	2737.70833
1178.548	2781.04167
1181.884	2807.375
1185.217	2802.70833
1188.548	2883.04167
1191.877	2955.70833
1195.202	3044.04167
1198.526	3101.375
1201.846	3112.04167
1205.165	3115.04167
1208.48	3111.04167
1211.794	3097.375
1215.104	3108.375
1218.413	3112.04167
1221.719	3103.375
1225.022	3074.04167
1228.323	3031.04167
1231.621	3026.375
1234.917	3022.375
1238.21	3029.70833
1241.501	3019.04167
1244.79	3010.70833
1248.076	3002.04167
1251.359	3039.04167
1254.64	3088.375
1257.919	3076.375
1261.195	3147.70833
1264.468	3182.375
1267.74	3207.375
1271.008	3211.04167
1274.275	3219.375
1277.538	3204.375
1280.8	3191.375
1284.059	3186.70833
1287.315	3227.04167
1290.569	3273.70833
1293.821	3299.04167
1297.07	3328.70833
1300.317	3341.70833
1303.562	3300.375
1306.803	3293.375
1310.043	3266.70833
1313.28	3236.70833
1316.515	3213.70833
1319.747	3179.04167
1322.977	3134.70833
1326.204	3098.04167
1329.429	3058.70833
1332.652	3047.375
1335.872	3035.04167
1339.09	2982.70833
1342.306	3001.70833
1345.519	2975.375
1348.729	2927.70833
1351.938	2922.04167
1355.144	2880.70833
1358.347	2835.375
1361.548	2828.04167
1364.747	2837.04167
1367.944	2793.375
1371.138	2847.70833
1374.329	2836.04167
1377.518	2829.04167
1380.705	2856.04167
1383.89	2829.04167
1387.072	2758.70833
1390.252	2665.04167
1393.429	2596.70833
1396.605	2493.70833
1399.777	2426.04167
1402.948	2407.375
1406.116	2383.70833
1409.282	2406.70833
1412.445	2381.70833
1415.606	2421.375
1418.765	2477.375
1421.921	2544.375
1425.075	2589.70833
1428.227	2698.70833
1431.376	2799.70833
1434.524	2915.04167
1437.668	2958.70833
1440.811	2992.04167
1443.951	3011.70833
1447.089	3027.70833
1450.224	3007.70833
1453.357	2991.375
1456.488	2978.375
1459.617	2920.375
1462.743	2896.04167
1465.867	2832.04167
1468.989	2809.375
1472.108	2764.375
1475.225	2720.375
1478.34	2676.375
1481.453	2681.70833
1484.563	2664.70833
1487.671	2714.375
1490.776	2778.04167
1493.88	2822.70833
1496.981	2875.04167
1500.08	2915.04167
1503.176	2942.70833
1506.271	2966.70833
1509.363	3017.375
1512.452	3047.375
1515.54	3104.375
1518.625	3167.70833
1521.708	3248.70833
1524.789	3392.375
1527.867	3563.375
1530.944	3778.70833
1534.018	3943.04167
1537.089	4050.375
1540.159	4037.04167
1543.226	3978.70833
1546.291	3820.04167
1549.354	3732.04167
1552.415	3599.04167
1555.473	3532.375
1558.529	3454.04167
1561.583	3450.04167
1564.634	3401.70833
1567.684	3427.70833
1570.731	3444.70833
1573.776	3484.375
1576.819	3534.70833
1579.859	3566.70833
1582.898	3643.04167
1585.934	3658.04167
1588.968	3714.375
1591.999	3668.375
1595.029	3687.04167
1598.056	3724.375
1601.081	3758.04167
1604.104	3759.04167
1607.125	3731.375
1610.144	3637.04167
1613.16	3554.04167
1616.174	3438.04167
1619.186	3372.70833
1622.196	3249.70833
1625.203	3212.375
1628.209	3158.04167
1631.212	3146.70833
1634.213	3163.70833
1637.212	3146.70833
1640.209	3128.375
1643.203	3063.04167
1646.196	2954.70833
1649.186	2831.70833
1652.174	2738.04167
1655.16	2617.04167
1658.144	2546.04167
1661.125	2391.70833
1664.105	2244.70833
1667.082	2149.70833
1670.057	2036.70833
1673.03	1901.04167
1676.001	1783.04167
1678.97	1683.375
1681.937	1573.04167
1684.901	1497.375
1687.863	1457.375
1690.824	1396.04167
1693.782	1356.04167
1696.738	1314.04167
1699.692	1279.04167
1702.643	1252.04167
1705.593	1247.04167
1708.54	1222.375
1711.486	1214.70833
1714.429	1182.70833
1717.37	1185.375
1720.309	1176.375
1723.246	1165.70833
1726.181	1130.04167
1729.113	1150.375
1732.044	1117.375
1734.972	1115.04167
1737.899	1110.04167
1740.823	1109.70833
1743.745	1115.375
1746.665	1050.375
1749.583	1042.375
1752.499	1043.04167
1755.413	1023.70833
1758.325	989.04167
1761.235	1004.04167
1764.142	958.04167
1767.048	960.70833
1769.951	961.04167
1772.852	944.70833
1775.752	949.70833
1778.649	952.04167
1781.544	949.04167
1784.437	913.375
1787.328	929.375
1790.217	909.70833
1793.104	884.70833
1795.989	889.70833
1798.872	892.70833
1801.753	904.70833
1804.631	892.70833
1807.508	901.04167
1810.383	875.375
1813.255	884.375
1816.126	880.375
1818.994	883.70833
1821.861	881.04167
1824.725	877.70833
1827.587	862.04167
1830.448	856.04167
1833.306	844.04167
1836.162	870.70833
1839.017	835.04167
1841.869	846.375
1844.719	842.04167
1847.567	821.375
1850.414	815.375
1853.258	822.375
1856.1	847.375
1858.94	826.375
1861.778	824.04167
1864.614	820.04167
1867.448	821.375
1870.28	812.70833
1873.111	841.70833
1875.939	814.70833
1878.765	833.375
1881.589	823.375
1884.411	815.04167
1887.231	826.70833
1890.049	807.70833
1892.865	807.04167
1895.68	802.04167
1898.492	804.375
1901.302	783.70833
1904.11	788.70833
1906.916	787.70833
1909.721	784.375
1912.523	788.70833
1915.323	773.375
1918.122	772.04167
1920.918	777.375
1923.712	762.375
1926.505	781.04167
1929.295	750.70833
1932.084	771.70833
1934.87	767.04167
1937.655	763.70833
1940.438	753.375
1943.218	764.70833
1945.997	756.70833
1948.774	781.375
1951.549	765.04167
1954.322	756.375
1957.093	757.04167
1959.862	756.70833
1962.629	741.70833
1965.394	751.70833
1968.157	732.04167
1970.918	745.375
1973.678	742.04167
1976.435	744.04167
1979.19	724.375
1981.944	727.375
1984.696	723.375
1987.445	723.375
1990.193	730.375
1992.939	735.375
1995.683	721.375
1998.425	708.375
2001.165	736.375
2003.903	712.375
2006.639	717.04167
2009.374	715.70833
2012.106	718.375
2014.837	689.04167
2017.566	718.70833
2020.292	707.70833
2023.017	711.70833
2025.74	703.375
2028.461	700.04167
2031.18	712.70833
2033.898	697.375
2036.613	703.04167
2039.327	704.375
2042.038	684.04167
2044.748	688.375
2047.456	694.04167
2050.162	669.375
2052.866	686.70833
2055.568	704.04167
2058.268	686.04167
2060.967	695.70833
2063.663	666.375
2066.358	674.70833
2069.051	672.375
2071.742	688.70833
2074.431	686.70833
2077.118	672.04167
2079.804	659.04167
2082.487	675.375
2085.169	686.70833
2087.849	695.04167
2090.527	671.70833
2093.203	692.375
2095.877	681.70833
2098.55	680.70833
2101.22	701.375
2103.889	704.04167
2106.556	698.04167
2109.221	724.70833
2111.884	739.04167
2114.546	787.375
2117.205	831.375
2119.863	903.375
2122.519	942.04167
2125.173	1005.04167
2127.825	1065.70833
2130.475	1063.04167
2133.124	1033.375
2135.771	994.375
2138.416	972.70833
2141.059	890.375
2143.7	874.04167
2146.339	822.70833
2148.977	778.375
2151.613	768.70833
2154.247	744.70833
2156.879	732.70833
2159.51	722.04167
2162.138	695.375
2164.765	694.70833
2167.39	682.70833
2170.013	698.70833
2172.634	694.70833
2175.254	675.375
2177.872	706.04167
2180.488	659.375
2183.102	669.70833
2185.714	652.70833
2188.325	644.375
2190.934	635.04167
2193.541	642.70833
2196.146	628.375
2198.75	616.04167
2201.351	617.70833
2203.951	601.04167
2206.549	617.375
2209.146	613.70833
2211.74	598.70833
2214.333	609.04167
2216.924	601.70833
2219.514	611.04167
2222.101	584.375
2224.687	601.04167
2227.271	596.04167
2229.853	585.04167
2232.433	575.375
2235.012	596.375
2237.589	584.04167
2240.164	603.04167
2242.738	590.04167
2245.309	571.70833
2247.879	593.04167
2250.448	590.375
2253.014	567.375
2255.579	558.04167
2258.142	553.04167
2260.703	536.375
2263.262	542.375
2265.82	550.70833
2268.376	550.375
2270.93	543.70833
2273.483	534.375
2276.033	550.70833
2278.583	537.375
2281.13	529.375
2283.675	522.375
2286.219	533.70833
2288.761	535.375
2291.302	536.04167
2293.841	530.375
2296.377	515.375
2298.913	518.70833
2301.446	525.375
2303.978	532.04167
2306.508	513.04167
2309.037	514.70833
2311.563	525.375
2314.088	524.04167
2316.612	505.70833
2319.133	513.70833
2321.653	509.04167
2324.171	504.04167
2326.688	509.04167
2329.202	509.375
2331.715	506.04167
2334.227	507.04167
2336.736	494.04167
2339.244	501.375
2341.751	492.04167
2344.255	507.04167
2346.758	500.70833
2349.259	490.70833
2351.759	498.70833
2354.257	490.70833
2356.753	489.70833
2359.247	486.375
2361.74	492.375
2364.231	485.04167
2366.721	498.04167
2369.209	484.04167
2371.695	490.70833
2374.179	481.375
2376.662	478.70833
2379.143	496.04167
2381.622	480.04167
2384.1	487.70833
2386.576	483.04167
2389.051	496.70833
2391.524	505.375
2393.995	493.04167
2396.464	486.375
2398.932	487.375
2401.398	479.375
2403.863	469.375
2406.325	473.375
2408.787	469.04167
2411.246	482.70833
2413.704	469.70833
2416.16	463.70833
2418.615	478.04167
2421.068	468.70833
2423.519	477.70833
2425.969	471.375
2428.417	486.70833
2430.863	488.70833
2433.308	491.375
2435.751	472.04167
2438.193	466.70833
2440.633	473.04167
2443.071	478.04167
2445.508	459.04167
2447.943	476.70833
2450.376	461.04167
2452.808	467.70833
2455.238	461.375
2457.667	486.375
2460.093	468.70833
2462.519	452.70833
2464.942	461.375
2467.365	470.04167
2469.785	466.70833
2472.204	457.70833
2474.621	449.70833
2477.037	474.70833
2479.451	451.375
2481.863	456.375
2484.274	453.04167
2486.683	462.375
2489.091	469.04167
2491.497	462.04167
2493.901	450.375
2496.304	457.70833
2498.705	459.70833
2501.105	451.04167
2503.503	488.70833
2505.899	450.04167
2508.294	477.375
2510.687	456.70833
2513.079	448.375
2515.469	448.375
2517.858	448.375
2520.245	460.04167
2522.63	452.04167
2525.014	448.04167
2527.396	447.375
2529.776	456.04167
2532.156	447.375
2534.533	441.375
2536.909	445.04167
2539.283	438.04167
2541.656	452.70833
2544.027	479.04167
2546.397	450.70833
2548.765	446.04167
2551.131	450.70833
2553.496	435.70833
2555.86	456.04167
2558.221	459.70833
2560.582	457.375
2562.94	437.375
2565.298	450.375
2567.653	464.70833
2570.007	435.70833
2572.36	450.375
2574.711	441.375
2577.06	457.04167
2579.408	456.04167
2581.754	441.70833
2584.099	453.04167
2586.442	444.70833
2588.784	453.70833
2591.124	454.70833
2593.463	439.70833
2595.8	449.04167
2598.135	432.70833
2600.469	441.04167
2602.802	454.375
2605.133	456.04167
2607.462	445.70833
2609.79	451.04167
2612.116	451.375
2614.441	453.04167
2616.764	454.375
2619.086	453.375
2621.406	445.04167
2623.725	462.70833
2626.042	458.375
2628.358	449.04167
2630.672	448.70833
2632.985	456.375
2635.296	460.70833
2637.606	456.375
2639.914	443.375
2642.22	459.375
2644.525	442.70833
2646.829	465.375
2649.131	465.04167
2651.432	474.04167
2653.731	458.70833
2656.028	471.375
2658.324	465.70833
2660.619	456.375
2662.912	470.04167
2665.204	464.375
2667.494	476.70833
2669.782	468.375
2672.07	482.70833
2674.355	475.70833
2676.639	470.375
2678.922	467.375
2681.203	484.04167
2683.483	458.70833
2685.761	463.04167
2688.038	474.04167
2690.313	480.04167
2692.587	471.04167
2694.859	465.375
2697.13	476.70833
2699.399	475.70833
2701.667	487.70833
2703.933	496.375
2706.198	483.70833
2708.461	504.04167
2710.723	494.375
2712.984	494.04167
2715.243	510.70833
2717.5	495.375
2719.757	517.375
2722.011	504.70833
2724.264	516.375
2726.516	531.04167
2728.766	514.70833
2731.015	518.375
2733.262	510.04167
2735.508	515.70833
2737.753	509.04167
2739.996	492.04167
2742.237	500.04167
2744.477	512.375
2746.716	505.375
2748.953	502.70833
2751.189	513.375
2753.423	496.375
2755.656	491.04167
2757.887	485.70833
2760.117	502.04167
2762.346	495.375
2764.573	482.375
2766.798	484.04167
2769.022	489.70833
2771.245	502.70833
2773.467	494.04167
2775.686	494.04167
2777.905	507.375
2780.122	506.375
2782.337	521.70833
2784.552	512.375
2786.764	516.70833
2788.976	525.375
2791.186	522.70833
2793.394	512.70833
2795.601	548.04167
2797.807	546.375
2800.011	547.04167
2802.214	554.70833
2804.415	557.375
2806.615	552.04167
2808.814	573.70833
2811.011	580.04167
2813.206	562.375
2815.401	597.70833
2817.594	601.04167
2819.785	617.04167
2821.975	599.04167
2824.164	616.70833
2826.351	627.70833
2828.537	639.375
2830.722	652.04167
2832.905	644.70833
2835.086	681.70833
2837.267	723.70833
2839.445	742.70833
2841.623	747.04167
2843.799	778.70833
2845.974	811.70833
2848.147	844.375
2850.319	872.70833
2852.489	906.04167
2854.659	901.70833
2856.826	910.375
2858.993	938.04167
2861.158	930.70833
2863.321	918.375
2865.483	941.04167
2867.644	939.70833
2869.804	942.04167
2871.962	937.375
2874.118	935.375
2876.274	925.04167
2878.428	918.375
2880.58	921.375
2882.731	911.70833
2884.881	918.375
2887.03	915.375
2889.177	917.04167
2891.322	939.70833
2893.467	923.70833
2895.61	927.70833
2897.751	943.70833
2899.892	930.70833
2902.03	948.70833
2904.168	958.375
2906.304	945.04167
2908.439	982.04167
2910.572	960.70833
2912.704	973.70833
2914.835	978.375
2916.965	986.70833
2919.093	983.375
2921.219	955.04167
2923.345	973.70833
2925.469	944.70833
2927.591	944.04167
2929.712	914.375
2931.832	915.375
2933.951	892.375
2936.068	876.70833
2938.184	862.375
2940.299	827.70833
2942.412	810.375
2944.524	777.70833
2946.634	770.375
2948.744	736.70833
2950.851	758.70833
2952.958	700.04167
2955.063	703.375
2957.167	691.04167
2959.269	663.375
2961.371	691.04167
2963.471	654.375
2965.569	651.375
2967.666	618.70833
2969.762	617.375
2971.857	601.375
2973.95	578.70833
2976.042	580.04167
2978.133	570.70833
2980.222	561.375
2982.31	545.04167
2984.396	525.04167
2986.482	525.04167
2988.566	529.375
2990.648	519.04167
2992.73	513.04167
2994.81	503.375
2996.889	511.70833
2998.966	505.04167
3001.042	510.70833
3003.117	509.70833
3005.191	501.04167
3007.263	502.375
3009.334	498.70833
3011.403	485.04167
3013.472	478.70833
3015.539	478.70833
3017.604	480.04167
3019.669	450.70833
3021.732	451.04167
3023.794	460.70833
3025.854	440.04167
3027.914	440.375
3029.971	448.375
3032.028	440.375
3034.083	445.375
3036.137	446.375
3038.19	420.04167
3040.242	423.70833
3042.292	411.04167
3044.341	406.04167
3046.388	417.70833
3048.435	399.375
3050.48	409.04167
3052.524	399.375
3054.566	387.04167
3056.607	394.04167
3058.647	381.70833
3060.686	363.70833
3062.723	353.375
3064.759	347.70833
3066.794	0.375
3068.828	0.70833
3070.86	-0.95833
