-0.839	430.29167
3.438	453.625
7.711	130.29167
11.981	54.29167
16.247	44.95833
20.509	43.95833
24.768	45.625
29.024	48.29167
33.276	42.95833
37.524	47.625
41.769	41.625
46.01	36.95833
50.247	52.625
54.481	65.625
58.712	68.29167
62.939	51.95833
67.162	62.625
71.382	59.29167
75.599	52.29167
79.812	68.29167
84.021	83.29167
88.227	60.95833
92.429	61.95833
96.628	50.95833
100.823	62.625
105.015	75.29167
109.204	80.95833
113.388	83.95833
117.57	73.625
121.748	88.625
125.922	81.625
130.093	105.625
134.261	115.95833
138.425	103.95833
142.585	150.625
146.742	153.625
150.896	179.29167
155.046	227.95833
159.193	351.95833
163.336	611.29167
167.476	1118.625
171.613	2063.95833
175.746	3458.29167
179.875	5147.95833
184.002	6718.95833
188.124	7783.625
192.244	8133.29167
196.36	8083.95833
200.472	7841.29167
204.581	7695.95833
208.687	7512.95833
212.79	7470.29167
216.889	7530.95833
220.984	7631.29167
225.077	7719.625
229.165	7818.95833
233.251	7937.95833
237.333	7957.29167
241.412	7908.29167
245.487	7873.625
249.559	7775.29167
253.628	7714.29167
257.694	7674.29167
261.756	7502.95833
265.814	7361.29167
269.87	7166.29167
273.922	6972.29167
277.97	6847.29167
282.016	6795.625
286.058	6759.625
290.097	6851.625
294.132	6864.625
298.164	6743.29167
302.193	6394.95833
306.219	5878.625
310.241	5322.95833
314.26	4845.95833
318.276	4469.95833
322.288	4159.625
326.297	3940.95833
330.303	3769.95833
334.305	3675.95833
338.305	3573.29167
342.301	3504.95833
346.294	3465.29167
350.283	3435.29167
354.269	3389.95833
358.252	3393.29167
362.232	3369.625
366.209	3323.95833
370.182	3297.95833
374.152	3280.625
378.119	3290.625
382.083	3278.95833
386.043	3277.625
390	3246.625
393.954	3225.95833
397.905	3163.95833
401.852	3157.625
405.797	3151.29167
409.738	3072.625
413.676	3054.29167
417.61	3038.95833
421.542	3036.95833
425.47	2985.29167
429.396	2960.95833
433.318	2950.29167
437.236	2948.625
441.152	2922.29167
445.065	2902.95833
448.974	2892.29167
452.88	2848.95833
456.783	2837.95833
460.683	2832.29167
464.58	2840.95833
468.473	2869.625
472.364	2861.625
476.251	2855.29167
480.135	2853.625
484.016	2902.95833
487.894	2923.625
491.769	2925.29167
495.641	2929.29167
499.509	2938.95833
503.375	2923.625
507.237	2914.625
511.096	2909.29167
514.952	2896.29167
518.805	2906.29167
522.655	2910.95833
526.502	2861.95833
530.346	2870.29167
534.187	2873.29167
538.024	2880.95833
541.859	2888.29167
545.69	2908.95833
549.519	2876.29167
553.344	2874.29167
557.166	2848.29167
560.985	2780.29167
564.802	2787.95833
568.615	2735.95833
572.425	2699.29167
576.232	2693.95833
580.036	2655.95833
583.836	2676.625
587.634	2700.625
591.429	2715.29167
595.221	2747.29167
599.01	2792.95833
602.796	2804.29167
606.578	2824.95833
610.358	2832.625
614.135	2801.625
617.909	2819.29167
621.679	2812.29167
625.447	2763.625
629.212	2781.625
632.973	2783.29167
636.732	2800.95833
640.488	2779.29167
644.241	2753.95833
647.991	2732.625
651.737	2766.95833
655.481	2739.95833
659.222	2722.625
662.96	2744.95833
666.695	2749.625
670.427	2746.95833
674.156	2784.95833
677.882	2750.29167
681.605	2756.625
685.325	2729.95833
689.043	2772.625
692.757	2706.625
696.468	2755.625
700.177	2752.29167
703.882	2755.95833
707.585	2755.95833
711.284	2762.625
714.981	2741.95833
718.675	2776.29167
722.366	2793.625
726.054	2759.95833
729.739	2755.29167
733.421	2764.95833
737.1	2745.95833
740.777	2809.95833
744.45	2792.625
748.121	2836.625
751.789	2868.29167
755.453	2868.625
759.115	2910.29167
762.774	2939.625
766.431	2974.29167
770.084	2986.29167
773.734	3023.29167
777.382	3097.625
781.027	3123.95833
784.669	3142.625
788.308	3136.95833
791.944	3167.29167
795.577	3201.95833
799.208	3228.95833
802.835	3232.29167
806.46	3281.95833
810.082	3299.95833
813.701	3311.625
817.317	3338.29167
820.931	3337.29167
824.542	3347.29167
828.149	3313.29167
831.754	3268.625
835.357	3246.29167
838.956	3279.95833
842.553	3243.29167
846.146	3231.29167
849.737	3236.29167
853.326	3214.95833
856.911	3258.29167
860.493	3296.29167
864.073	3318.95833
867.65	3363.95833
871.225	3409.95833
874.796	3407.625
878.365	3434.95833
881.931	3458.29167
885.494	3493.29167
889.054	3462.95833
892.612	3483.625
896.166	3453.95833
899.719	3400.29167
903.268	3376.625
906.814	3340.95833
910.358	3321.29167
913.899	3322.95833
917.438	3330.95833
920.973	3311.95833
924.506	3367.29167
928.036	3412.95833
931.564	3438.95833
935.088	3491.29167
938.61	3515.95833
942.129	3531.625
945.646	3622.625
949.16	3696.95833
952.671	3764.625
956.179	3800.29167
959.685	3750.29167
963.188	3728.625
966.688	3665.95833
970.185	3573.95833
973.68	3522.95833
977.173	3498.625
980.662	3566.95833
984.149	3490.95833
987.633	3510.95833
991.114	3569.95833
994.593	3677.29167
998.069	3810.95833
1001.542	3907.29167
1005.013	3821.29167
1008.481	3606.29167
1011.947	3546.625
1015.409	3519.29167
1018.869	3528.29167
1022.327	3533.29167
1025.782	3493.625
1029.234	3523.29167
1032.683	3455.625
1036.13	3340.95833
1039.574	3219.625
1043.016	3147.625
1046.455	3074.95833
1049.891	3042.95833
1053.325	3033.625
1056.756	3050.29167
1060.184	3087.625
1063.61	3114.29167
1067.033	3120.29167
1070.454	3108.29167
1073.872	3133.29167
1077.287	3159.29167
1080.7	3166.95833
1084.11	3173.95833
1087.517	3162.95833
1090.922	3119.625
1094.325	3061.95833
1097.724	3032.29167
1101.122	3016.625
1104.516	3024.625
1107.908	3036.29167
1111.298	3090.625
1114.684	3139.625
1118.069	3179.625
1121.45	3194.95833
1124.83	3184.625
1128.206	3204.95833
1131.58	3246.625
1134.951	3332.625
1138.32	3446.29167
1141.687	3585.95833
1145.05	3670.625
1148.412	3691.29167
1151.77	3667.95833
1155.126	3682.29167
1158.48	3641.625
1161.831	3700.29167
1165.18	3753.625
1168.525	3819.29167
1171.869	3853.95833
1175.21	3869.95833
1178.548	3931.95833
1181.884	3954.29167
1185.217	4003.29167
1188.548	4067.625
1191.877	4166.29167
1195.202	4227.625
1198.526	4275.625
1201.846	4284.29167
1205.165	4298.29167
1208.48	4262.625
1211.794	4265.625
1215.104	4240.625
1218.413	4289.95833
1221.719	4274.29167
1225.022	4212.625
1228.323	4191.29167
1231.621	4168.29167
1234.917	4159.29167
1238.21	4213.625
1241.501	4216.625
1244.79	4224.29167
1248.076	4197.29167
1251.359	4247.625
1254.64	4293.625
1257.919	4331.29167
1261.195	4401.29167
1264.468	4464.29167
1267.74	4533.625
1271.008	4521.29167
1274.275	4504.29167
1277.538	4482.95833
1280.8	4475.29167
1284.059	4475.95833
1287.315	4482.625
1290.569	4525.29167
1293.821	4531.95833
1297.07	4553.625
1300.317	4575.29167
1303.562	4551.95833
1306.803	4551.95833
1310.043	4482.625
1313.28	4438.95833
1316.515	4402.29167
1319.747	4308.95833
1322.977	4282.625
1326.204	4223.625
1329.429	4167.29167
1332.652	4131.95833
1335.872	4092.29167
1339.09	4071.625
1342.306	4081.625
1345.519	4058.29167
1348.729	4069.95833
1351.938	3996.625
1355.144	3965.29167
1358.347	3914.29167
1361.548	3892.95833
1364.747	3903.95833
1367.944	3897.95833
1371.138	3926.625
1374.329	3937.625
1377.518	3976.625
1380.705	4005.95833
1383.89	3968.625
1387.072	3853.29167
1390.252	3721.95833
1393.429	3604.95833
1396.605	3523.29167
1399.777	3402.95833
1402.948	3398.29167
1406.116	3387.625
1409.282	3360.29167
1412.445	3390.29167
1415.606	3425.625
1418.765	3458.29167
1421.921	3558.625
1425.075	3639.625
1428.227	3767.29167
1431.376	3927.95833
1434.524	4029.625
1437.668	4157.625
1440.811	4155.29167
1443.951	4220.625
1447.089	4185.625
1450.224	4198.625
1453.357	4154.29167
1456.488	4145.95833
1459.617	4099.625
1462.743	4040.95833
1465.867	3962.95833
1468.989	3903.625
1472.108	3830.625
1475.225	3775.625
1478.34	3733.95833
1481.453	3707.95833
1484.563	3734.29167
1487.671	3771.95833
1490.776	3855.625
1493.88	3923.95833
1496.981	4012.625
1500.08	4095.95833
1503.176	4163.29167
1506.271	4226.625
1509.363	4273.29167
1512.452	4315.29167
1515.54	4405.95833
1518.625	4519.95833
1521.708	4690.29167
1524.789	4932.625
1527.867	5202.625
1530.944	5509.29167
1534.018	5795.29167
1537.089	5972.29167
1540.159	6005.625
1543.226	5867.625
1546.291	5651.29167
1549.354	5455.29167
1552.415	5338.95833
1555.473	5133.29167
1558.529	5009.95833
1561.583	4992.29167
1564.634	4930.29167
1567.684	4917.95833
1570.731	4902.625
1573.776	4935.95833
1576.819	5015.95833
1579.859	5002.95833
1582.898	5083.29167
1585.934	5104.95833
1588.968	5187.29167
1591.999	5171.95833
1595.029	5130.625
1598.056	5170.625
1601.081	5164.95833
1604.104	5175.95833
1607.125	5118.29167
1610.144	5019.95833
1613.16	4904.95833
1616.174	4778.95833
1619.186	4615.625
1622.196	4504.625
1625.203	4399.625
1628.209	4342.625
1631.212	4281.625
1634.213	4252.29167
1637.212	4179.95833
1640.209	4151.625
1643.203	4028.625
1646.196	3892.625
1649.186	3768.29167
1652.174	3685.29167
1655.16	3526.29167
1658.144	3422.625
1661.125	3258.625
1664.105	3112.29167
1667.082	2991.29167
1670.057	2811.625
1673.03	2647.29167
1676.001	2490.29167
1678.97	2345.625
1681.937	2194.625
1684.901	2084.625
1687.863	2022.625
1690.824	1918.29167
1693.782	1904.29167
1696.738	1806.95833
1699.692	1769.95833
1702.643	1741.95833
1705.593	1712.625
1708.54	1711.625
1711.486	1704.95833
1714.429	1646.95833
1717.37	1637.95833
1720.309	1600.29167
1723.246	1607.29167
1726.181	1574.625
1729.113	1592.625
1732.044	1559.29167
1734.972	1529.625
1737.899	1542.625
1740.823	1526.95833
1743.745	1545.95833
1746.665	1457.95833
1749.583	1457.625
1752.499	1408.95833
1755.413	1399.95833
1758.325	1381.29167
1761.235	1384.625
1764.142	1349.95833
1767.048	1337.625
1769.951	1323.95833
1772.852	1310.29167
1775.752	1308.29167
1778.649	1298.625
1781.544	1289.29167
1784.437	1273.95833
1787.328	1272.95833
1790.217	1273.29167
1793.104	1238.29167
1795.989	1234.95833
1798.872	1238.95833
1801.753	1256.29167
1804.631	1260.29167
1807.508	1245.625
1810.383	1240.95833
1813.255	1238.95833
1816.126	1224.625
1818.994	1224.95833
1821.861	1205.95833
1824.725	1202.29167
1827.587	1190.95833
1830.448	1199.95833
1833.306	1171.95833
1836.162	1186.95833
1839.017	1164.29167
1841.869	1172.625
1844.719	1167.29167
1847.567	1152.29167
1850.414	1150.29167
1853.258	1142.625
1856.1	1166.29167
1858.94	1172.95833
1861.778	1149.625
1864.614	1145.625
1867.448	1160.95833
1870.28	1136.95833
1873.111	1156.29167
1875.939	1146.29167
1878.765	1151.29167
1881.589	1132.625
1884.411	1123.95833
1887.231	1141.625
1890.049	1123.29167
1892.865	1126.95833
1895.68	1110.29167
1898.492	1116.625
1901.302	1095.625
1904.11	1101.95833
1906.916	1081.95833
1909.721	1088.29167
1912.523	1079.29167
1915.323	1075.625
1918.122	1091.29167
1920.918	1098.95833
1923.712	1079.29167
1926.505	1077.625
1929.295	1063.29167
1932.084	1076.625
1934.87	1081.95833
1937.655	1065.29167
1940.438	1061.29167
1943.218	1063.29167
1945.997	1072.29167
1948.774	1081.625
1951.549	1069.95833
1954.322	1054.625
1957.093	1065.625
1959.862	1049.95833
1962.629	1048.625
1965.394	1014.95833
1968.157	1036.625
1970.918	1030.95833
1973.678	1025.29167
1976.435	1043.29167
1979.19	1019.95833
1981.944	1009.95833
1984.696	1003.625
1987.445	1000.95833
1990.193	1006.29167
1992.939	1020.625
1995.683	1005.95833
1998.425	991.625
2001.165	1028.29167
2003.903	1009.625
2006.639	988.29167
2009.374	988.625
2012.106	987.29167
2014.837	975.95833
2017.566	1002.29167
2020.292	994.625
2023.017	984.625
2025.74	982.95833
2028.461	984.29167
2031.18	974.95833
2033.898	967.29167
2036.613	982.95833
2039.327	976.625
2042.038	956.625
2044.748	964.29167
2047.456	974.29167
2050.162	944.625
2052.866	950.625
2055.568	961.29167
2058.268	953.29167
2060.967	969.625
2063.663	928.29167
2066.358	950.625
2069.051	941.95833
2071.742	960.29167
2074.431	961.29167
2077.118	948.29167
2079.804	937.29167
2082.487	953.29167
2085.169	974.29167
2087.849	974.29167
2090.527	959.95833
2093.203	968.95833
2095.877	981.29167
2098.55	991.29167
2101.22	1015.29167
2103.889	1015.625
2106.556	1028.625
2109.221	1089.29167
2111.884	1132.95833
2114.546	1226.625
2117.205	1334.29167
2119.863	1467.625
2122.519	1589.29167
2125.173	1723.29167
2127.825	1817.95833
2130.475	1841.95833
2133.124	1769.625
2135.771	1727.95833
2138.416	1639.625
2141.059	1516.625
2143.7	1439.625
2146.339	1326.29167
2148.977	1266.625
2151.613	1216.29167
2154.247	1159.29167
2156.879	1128.95833
2159.51	1107.29167
2162.138	1096.29167
2164.765	1077.625
2167.39	1053.29167
2170.013	1069.625
2172.634	1049.29167
2175.254	1029.625
2177.872	1053.95833
2180.488	1005.29167
2183.102	997.95833
2185.714	979.625
2188.325	961.29167
2190.934	959.625
2193.541	951.29167
2196.146	927.95833
2198.75	911.625
2201.351	905.29167
2203.951	887.95833
2206.549	886.95833
2209.146	869.625
2211.74	862.625
2214.333	882.95833
2216.924	855.95833
2219.514	902.95833
2222.101	1059.29167
2224.687	870.29167
2227.271	832.625
2229.853	824.29167
2232.433	807.95833
2235.012	823.625
2237.589	820.95833
2240.164	824.625
2242.738	813.95833
2245.309	801.95833
2247.879	810.95833
2250.448	799.29167
2253.014	772.29167
2255.579	778.625
2258.142	768.625
2260.703	750.625
2263.262	764.625
2265.82	744.29167
2268.376	747.29167
2270.93	739.29167
2273.483	728.29167
2276.033	733.95833
2278.583	723.625
2281.13	730.29167
2283.675	709.625
2286.219	721.95833
2288.761	727.29167
2291.302	716.95833
2293.841	711.29167
2296.377	693.95833
2298.913	693.29167
2301.446	709.29167
2303.978	704.625
2306.508	691.95833
2309.037	700.625
2311.563	689.625
2314.088	697.95833
2316.612	678.625
2319.133	687.625
2321.653	679.95833
2324.171	680.625
2326.688	682.29167
2329.202	675.29167
2331.715	668.625
2334.227	665.625
2336.736	662.95833
2339.244	653.29167
2341.751	649.95833
2344.255	666.625
2346.758	651.29167
2349.259	644.625
2351.759	645.625
2354.257	650.95833
2356.753	639.29167
2359.247	654.625
2361.74	651.29167
2364.231	639.29167
2366.721	652.29167
2369.209	642.95833
2371.695	641.95833
2374.179	629.95833
2376.662	626.625
2379.143	642.29167
2381.622	622.625
2384.1	645.29167
2386.576	628.625
2389.051	641.625
2391.524	635.95833
2393.995	637.625
2396.464	623.29167
2398.932	615.29167
2401.398	616.625
2403.863	612.95833
2406.325	606.29167
2408.787	607.625
2411.246	607.95833
2413.704	598.95833
2416.16	606.29167
2418.615	602.625
2421.068	612.95833
2423.519	597.625
2425.969	604.29167
2428.417	605.29167
2430.863	618.95833
2433.308	610.95833
2435.751	604.29167
2438.193	592.95833
2440.633	606.625
2443.071	596.29167
2445.508	575.29167
2447.943	586.95833
2450.376	578.625
2452.808	589.625
2455.238	570.29167
2457.667	593.29167
2460.093	578.95833
2462.519	565.95833
2464.942	569.95833
2467.365	581.29167
2469.785	573.29167
2472.204	564.95833
2474.621	564.625
2477.037	582.625
2479.451	547.29167
2481.863	554.29167
2484.274	555.29167
2486.683	565.95833
2489.091	568.29167
2491.497	561.29167
2493.901	560.625
2496.304	551.625
2498.705	555.29167
2501.105	551.29167
2503.503	581.95833
2505.899	536.95833
2508.294	562.29167
2510.687	540.95833
2513.079	544.29167
2515.469	540.625
2517.858	538.625
2520.245	563.29167
2522.63	534.29167
2525.014	536.95833
2527.396	527.625
2529.776	533.95833
2532.156	541.95833
2534.533	522.95833
2536.909	527.95833
2539.283	519.625
2541.656	529.95833
2544.027	551.95833
2546.397	523.625
2548.765	531.29167
2551.131	518.29167
2553.496	523.625
2555.86	530.625
2558.221	530.95833
2560.582	532.95833
2562.94	506.95833
2565.298	513.29167
2567.653	532.625
2570.007	504.29167
2572.36	521.625
2574.711	507.29167
2577.06	526.95833
2579.408	504.95833
2581.754	516.625
2584.099	512.625
2586.442	503.625
2588.784	515.29167
2591.124	513.625
2593.463	505.29167
2595.8	511.625
2598.135	497.625
2600.469	499.95833
2602.802	519.29167
2605.133	511.95833
2607.462	495.95833
2609.79	491.625
2612.116	498.625
2614.441	503.625
2616.764	502.29167
2619.086	506.29167
2621.406	490.95833
2623.725	507.95833
2626.042	499.625
2628.358	503.29167
2630.672	502.625
2632.985	508.29167
2635.296	495.625
2637.606	504.95833
2639.914	498.95833
2642.22	496.625
2644.525	486.625
2646.829	511.29167
2649.131	510.29167
2651.432	518.625
2653.731	501.625
2656.028	507.625
2658.324	502.625
2660.619	484.95833
2662.912	513.625
2665.204	496.29167
2667.494	521.29167
2669.782	498.29167
2672.07	504.29167
2674.355	517.625
2676.639	496.625
2678.922	499.29167
2681.203	501.29167
2683.483	495.625
2685.761	497.625
2688.038	507.625
2690.313	532.29167
2692.587	509.95833
2694.859	510.625
2697.13	511.29167
2699.399	514.95833
2701.667	525.95833
2703.933	528.95833
2706.198	536.625
2708.461	536.29167
2710.723	533.29167
2712.984	529.95833
2715.243	544.29167
2717.5	539.29167
2719.757	549.625
2722.011	542.625
2724.264	555.625
2726.516	576.625
2728.766	538.29167
2731.015	549.95833
2733.262	558.95833
2735.508	546.95833
2737.753	538.29167
2739.996	528.95833
2742.237	511.29167
2744.477	526.95833
2746.716	531.95833
2748.953	536.29167
2751.189	532.29167
2753.423	514.29167
2755.656	513.29167
2757.887	503.625
2760.117	511.29167
2762.346	507.95833
2764.573	498.29167
2766.798	504.95833
2769.022	511.95833
2771.245	518.29167
2773.467	517.29167
2775.686	524.29167
2777.905	521.625
2780.122	536.29167
2782.337	533.95833
2784.552	538.95833
2786.764	547.29167
2788.976	540.625
2791.186	562.625
2793.394	556.625
2795.601	576.625
2797.807	592.29167
2800.011	583.29167
2802.214	605.95833
2804.415	606.29167
2806.615	599.95833
2808.814	622.625
2811.011	619.625
2813.206	632.29167
2815.401	651.625
2817.594	655.625
2819.785	670.625
2821.975	669.95833
2824.164	683.95833
2826.351	703.625
2828.537	729.95833
2830.722	738.95833
2832.905	760.625
2835.086	786.625
2837.267	831.95833
2839.445	856.95833
2841.623	880.95833
2843.799	919.95833
2845.974	962.625
2848.147	995.29167
2850.319	1042.95833
2852.489	1083.29167
2854.659	1097.29167
2856.826	1106.625
2858.993	1148.95833
2861.158	1127.625
2863.321	1124.29167
2865.483	1138.95833
2867.644	1144.29167
2869.804	1136.625
2871.962	1132.29167
2874.118	1124.95833
2876.274	1126.625
2878.428	1108.29167
2880.58	1119.29167
2882.731	1099.29167
2884.881	1101.95833
2887.03	1102.95833
2889.177	1103.95833
2891.322	1122.625
2893.467	1117.29167
2895.61	1127.95833
2897.751	1144.95833
2899.892	1141.95833
2902.03	1149.95833
2904.168	1153.29167
2906.304	1145.95833
2908.439	1180.625
2910.572	1163.625
2912.704	1166.625
2914.835	1181.625
2916.965	1171.29167
2919.093	1173.625
2921.219	1133.29167
2923.345	1148.29167
2925.469	1128.29167
2927.591	1121.95833
2929.712	1068.625
2931.832	1069.95833
2933.951	1042.625
2936.068	1011.95833
2938.184	972.95833
2940.299	943.95833
2942.412	913.29167
2944.524	865.625
2946.634	851.29167
2948.744	777.29167
2950.851	808.29167
2952.958	745.29167
2955.063	729.95833
2957.167	718.95833
2959.269	679.625
2961.371	695.625
2963.471	635.29167
2965.569	638.625
2967.666	594.95833
2969.762	592.29167
2971.857	574.625
2973.95	552.625
2976.042	550.95833
2978.133	521.95833
2980.222	509.95833
2982.31	477.95833
2984.396	471.95833
2986.482	469.95833
2988.566	468.625
2990.648	438.625
2992.73	436.625
2994.81	429.625
2996.889	420.29167
2998.966	423.625
3001.042	427.625
3003.117	418.29167
3005.191	420.29167
3007.263	398.625
3009.334	396.625
3011.403	388.29167
3013.472	377.29167
3015.539	374.29167
3017.604	386.625
3019.669	351.95833
3021.732	349.95833
3023.794	360.95833
3025.854	333.29167
3027.914	332.625
3029.971	341.95833
3032.028	327.625
3034.083	335.625
3036.137	333.95833
3038.19	311.625
3040.242	310.95833
3042.292	296.95833
3044.341	292.95833
3046.388	325.29167
3048.435	290.95833
3050.48	303.625
3052.524	295.95833
3054.566	270.95833
3056.607	288.29167
3058.647	273.29167
3060.686	270.95833
3062.723	258.95833
3064.759	247.95833
3066.794	0.625
3068.828	-0.70833
3070.86	-2.70833
