-0.839	447.41667
3.438	479.08333
7.711	134.75
11.981	53.41667
16.247	46.41667
20.509	44.08333
24.768	46.41667
29.024	49.08333
33.276	45.41667
37.524	50.41667
41.769	39.75
46.01	35.08333
50.247	52.08333
54.481	60.08333
58.712	68.08333
62.939	50.08333
67.162	64.41667
71.382	56.75
75.599	49.08333
79.812	68.75
84.021	84.41667
88.227	59.08333
92.429	66.75
96.628	53.75
100.823	69.75
105.015	75.41667
109.204	75.75
113.388	75.75
117.57	73.08333
121.748	88.08333
125.922	81.75
130.093	99.08333
134.261	106.41667
138.425	97.41667
142.585	145.41667
146.742	147.75
150.896	166.75
155.046	207.75
159.193	331.41667
163.336	543.41667
167.476	1022.08333
171.613	1878.08333
175.746	3188.08333
179.875	4705.41667
184.002	6145.08333
188.124	7125.08333
192.244	7448.75
196.36	7378.41667
200.472	7224.75
204.581	7012.75
208.687	6837.08333
212.79	6827.08333
216.889	6819.08333
220.984	6924.08333
225.077	7027.08333
229.165	7134.75
233.251	7231.08333
237.333	7254.75
241.412	7230.41667
245.487	7258.75
249.559	7189.41667
253.628	7146.08333
257.694	7081.08333
261.756	7031.41667
265.814	6917.41667
269.87	6722.75
273.922	6581.41667
277.97	6492.41667
282.016	6404.08333
286.058	6433.75
290.097	6517.41667
294.132	6532.75
298.164	6429.41667
302.193	6151.75
306.219	5674.75
310.241	5198.41667
314.26	4701.75
318.276	4317.41667
322.288	4008.08333
326.297	3780.08333
330.303	3633.08333
334.305	3512.75
338.305	3422.41667
342.301	3372.08333
346.294	3345.08333
350.283	3309.75
354.269	3251.41667
358.252	3241.41667
362.232	3218.75
366.209	3181.41667
370.182	3150.75
374.152	3127.08333
378.119	3112.08333
382.083	3105.75
386.043	3122.75
390	3068.41667
393.954	3051.08333
397.905	3039.08333
401.852	3035.08333
405.797	3003.08333
409.738	2976.08333
413.676	2986.75
417.61	2960.75
421.542	2949.41667
425.47	2899.08333
429.396	2883.41667
433.318	2886.08333
437.236	2868.75
441.152	2878.75
445.065	2816.08333
448.974	2822.75
452.88	2782.41667
456.783	2776.41667
460.683	2750.41667
464.58	2751.75
468.473	2765.41667
472.364	2758.75
476.251	2787.08333
480.135	2805.41667
484.016	2845.08333
487.894	2844.08333
491.769	2856.08333
495.641	2878.41667
499.509	2855.75
503.375	2848.41667
507.237	2841.08333
511.096	2845.41667
514.952	2882.08333
518.805	2941.75
522.655	2913.75
526.502	2841.41667
530.346	2839.75
534.187	2837.75
538.024	2839.08333
541.859	2842.08333
545.69	2888.41667
549.519	2856.75
553.344	2850.41667
557.166	2783.75
560.985	2740.75
564.802	2724.08333
568.615	2663.75
572.425	2659.08333
576.232	2634.08333
580.036	2601.41667
583.836	2605.75
587.634	2612.41667
591.429	2637.08333
595.221	2686.41667
599.01	2705.08333
602.796	2724.41667
606.578	2759.08333
610.358	2780.41667
614.135	2728.41667
617.909	2733.41667
621.679	2722.08333
625.447	2708.08333
629.212	2700.75
632.973	2694.41667
636.732	2715.41667
640.488	2720.08333
644.241	2694.08333
647.991	2673.08333
651.737	2696.08333
655.481	2653.41667
659.222	2685.08333
662.96	2673.75
666.695	2696.75
670.427	2693.41667
674.156	2711.75
677.882	2735.08333
681.605	2707.75
685.325	2707.75
689.043	2679.41667
692.757	2674.08333
696.468	2676.75
700.177	2675.75
703.882	2659.41667
707.585	2669.75
711.284	2681.08333
714.981	2676.75
718.675	2697.41667
722.366	2702.08333
726.054	2665.75
729.739	2682.08333
733.421	2670.75
737.1	2669.08333
740.777	2688.08333
744.45	2707.41667
748.121	2702.41667
751.789	2779.41667
755.453	2783.08333
759.115	2787.75
762.774	2833.41667
766.431	2829.41667
770.084	2868.75
773.734	2895.41667
777.382	2941.41667
781.027	2954.41667
784.669	2973.41667
788.308	2977.08333
791.944	3007.41667
795.577	3032.08333
799.208	3059.75
802.835	3065.41667
806.46	3099.41667
810.082	3106.41667
813.701	3122.08333
817.317	3137.41667
820.931	3140.41667
824.542	3133.08333
828.149	3120.08333
831.754	3072.08333
835.357	3056.75
838.956	3059.08333
842.553	3042.41667
846.146	3030.75
849.737	2998.41667
853.326	3001.75
856.911	3019.08333
860.493	3069.08333
864.073	3085.08333
867.65	3138.41667
871.225	3185.41667
874.796	3142.75
878.365	3173.75
881.931	3177.41667
885.494	3203.41667
889.054	3210.41667
892.612	3202.75
896.166	3165.75
899.719	3143.08333
903.268	3097.08333
906.814	3098.75
910.358	3074.41667
913.899	3054.08333
917.438	3092.75
920.973	3077.41667
924.506	3100.08333
928.036	3154.75
931.564	3191.75
935.088	3202.41667
938.61	3229.41667
942.129	3274.08333
945.646	3329.41667
949.16	3416.75
952.671	3500.41667
956.179	3524.75
959.685	3494.41667
963.188	3486.08333
966.688	3442.75
970.185	3337.41667
973.68	3251.75
977.173	3262.41667
980.662	3224.75
984.149	3231.41667
987.633	3236.75
991.114	3257.41667
994.593	3353.75
998.069	3480.75
1001.542	3549.41667
1005.013	3456.41667
1008.481	3296.41667
1011.947	3242.08333
1015.409	3221.41667
1018.869	3234.08333
1022.327	3219.75
1025.782	3230.08333
1029.234	3229.75
1032.683	3173.41667
1036.13	3083.75
1039.574	2957.75
1043.016	2890.08333
1046.455	2845.08333
1049.891	2812.08333
1053.325	2806.08333
1056.756	2814.08333
1060.184	2857.08333
1063.61	2854.75
1067.033	2872.75
1070.454	2874.41667
1073.872	2884.41667
1077.287	2904.41667
1080.7	2900.08333
1084.11	2937.08333
1087.517	2907.75
1090.922	2865.41667
1094.325	2816.41667
1097.724	2781.41667
1101.122	2791.08333
1104.516	2787.75
1107.908	2777.08333
1111.298	2822.75
1114.684	2873.41667
1118.069	2888.41667
1121.45	2913.08333
1124.83	2907.75
1128.206	2947.08333
1131.58	2996.75
1134.951	3071.75
1138.32	3179.41667
1141.687	3281.75
1145.05	3362.08333
1148.412	3358.41667
1151.77	3380.08333
1155.126	3343.75
1158.48	3344.41667
1161.831	3378.75
1165.18	3387.08333
1168.525	3415.75
1171.869	3452.08333
1175.21	3502.08333
1178.548	3558.75
1181.884	3576.08333
1185.217	3588.41667
1188.548	3648.75
1191.877	3722.41667
1195.202	3801.75
1198.526	3886.75
1201.846	3901.75
1205.165	3890.41667
1208.48	3880.75
1211.794	3845.41667
1215.104	3853.08333
1218.413	3904.08333
1221.719	3873.08333
1225.022	3842.08333
1228.323	3805.75
1231.621	3804.08333
1234.917	3756.75
1238.21	3783.08333
1241.501	3763.41667
1244.79	3734.41667
1248.076	3766.08333
1251.359	3801.75
1254.64	3891.08333
1257.919	3893.75
1261.195	3974.41667
1264.468	4050.41667
1267.74	4093.41667
1271.008	4105.75
1274.275	4072.08333
1277.538	4062.75
1280.8	4093.75
1284.059	4073.08333
1287.315	4089.08333
1290.569	4094.75
1293.821	4119.08333
1297.07	4136.08333
1300.317	4166.75
1303.562	4135.75
1306.803	4083.08333
1310.043	4033.41667
1313.28	4000.08333
1316.515	3941.75
1319.747	3939.08333
1322.977	3877.08333
1326.204	3837.08333
1329.429	3787.75
1332.652	3769.41667
1335.872	3764.41667
1339.09	3708.41667
1342.306	3717.41667
1345.519	3695.75
1348.729	3656.08333
1351.938	3676.75
1355.144	3583.75
1358.347	3551.08333
1361.548	3531.41667
1364.747	3577.75
1367.944	3549.75
1371.138	3584.08333
1374.329	3606.41667
1377.518	3653.75
1380.705	3690.08333
1383.89	3636.75
1387.072	3549.75
1390.252	3422.41667
1393.429	3310.08333
1396.605	3177.08333
1399.777	3111.75
1402.948	3071.08333
1406.116	3085.41667
1409.282	3071.75
1412.445	3064.75
1415.606	3108.75
1418.765	3175.08333
1421.921	3229.41667
1425.075	3307.41667
1428.227	3434.75
1431.376	3575.08333
1434.524	3695.41667
1437.668	3793.75
1440.811	3824.08333
1443.951	3818.75
1447.089	3843.41667
1450.224	3826.75
1453.357	3808.08333
1456.488	3782.41667
1459.617	3699.41667
1462.743	3721.08333
1465.867	3600.75
1468.989	3569.75
1472.108	3490.41667
1475.225	3452.41667
1478.34	3417.08333
1481.453	3384.41667
1484.563	3381.41667
1487.671	3433.75
1490.776	3513.08333
1493.88	3550.41667
1496.981	3619.41667
1500.08	3679.08333
1503.176	3735.41667
1506.271	3785.08333
1509.363	3841.08333
1512.452	3904.41667
1515.54	3963.41667
1518.625	4052.75
1521.708	4201.08333
1524.789	4387.75
1527.867	4638.41667
1530.944	4919.08333
1534.018	5143.41667
1537.089	5330.08333
1540.159	5334.41667
1543.226	5249.41667
1546.291	5081.75
1549.354	4911.41667
1552.415	4751.08333
1555.473	4657.08333
1558.529	4514.75
1561.583	4449.41667
1564.634	4400.08333
1567.684	4371.08333
1570.731	4383.08333
1573.776	4412.41667
1576.819	4438.41667
1579.859	4477.41667
1582.898	4500.75
1585.934	4546.41667
1588.968	4544.75
1591.999	4522.41667
1595.029	4534.08333
1598.056	4553.75
1601.081	4590.08333
1604.104	4562.75
1607.125	4507.08333
1610.144	4412.08333
1613.16	4329.41667
1616.174	4224.75
1619.186	4098.75
1622.196	4044.08333
1625.203	3955.75
1628.209	3899.41667
1631.212	3890.08333
1634.213	3862.08333
1637.212	3878.41667
1640.209	3806.75
1643.203	3733.08333
1646.196	3599.08333
1649.186	3480.08333
1652.174	3391.41667
1655.16	3290.75
1658.144	3183.41667
1661.125	3072.75
1664.105	2932.08333
1667.082	2781.75
1670.057	2642.41667
1673.03	2485.41667
1676.001	2314.41667
1678.97	2177.41667
1681.937	2041.75
1684.901	1936.75
1687.863	1868.75
1690.824	1786.75
1693.782	1761.75
1696.738	1677.08333
1699.692	1648.41667
1702.643	1621.08333
1705.593	1606.08333
1708.54	1568.08333
1711.486	1574.41667
1714.429	1537.75
1717.37	1534.75
1720.309	1498.08333
1723.246	1504.41667
1726.181	1463.41667
1729.113	1475.08333
1732.044	1442.75
1734.972	1432.41667
1737.899	1436.08333
1740.823	1404.75
1743.745	1443.75
1746.665	1385.08333
1749.583	1355.75
1752.499	1340.41667
1755.413	1315.41667
1758.325	1295.41667
1761.235	1293.75
1764.142	1257.08333
1767.048	1259.08333
1769.951	1251.41667
1772.852	1242.41667
1775.752	1225.41667
1778.649	1237.75
1781.544	1242.41667
1784.437	1198.41667
1787.328	1203.41667
1790.217	1198.75
1793.104	1175.08333
1795.989	1165.41667
1798.872	1159.41667
1801.753	1200.41667
1804.631	1177.08333
1807.508	1189.75
1810.383	1173.08333
1813.255	1156.08333
1816.126	1162.08333
1818.994	1162.41667
1821.861	1149.75
1824.725	1139.08333
1827.587	1135.08333
1830.448	1138.75
1833.306	1102.75
1836.162	1124.75
1839.017	1107.08333
1841.869	1096.08333
1844.719	1117.75
1847.567	1098.75
1850.414	1083.75
1853.258	1087.41667
1856.1	1099.41667
1858.94	1113.75
1861.778	1093.41667
1864.614	1092.41667
1867.448	1086.75
1870.28	1086.08333
1873.111	1095.08333
1875.939	1091.75
1878.765	1094.08333
1881.589	1074.75
1884.411	1073.08333
1887.231	1078.08333
1890.049	1076.75
1892.865	1071.75
1895.68	1055.75
1898.492	1055.08333
1901.302	1053.08333
1904.11	1040.75
1906.916	1041.41667
1909.721	1037.08333
1912.523	1043.75
1915.323	1009.75
1918.122	1018.75
1920.918	1026.41667
1923.712	1019.75
1926.505	1034.41667
1929.295	1004.08333
1932.084	1023.41667
1934.87	1032.75
1937.655	1014.75
1940.438	1019.41667
1943.218	1003.41667
1945.997	1000.41667
1948.774	1022.41667
1951.549	1024.75
1954.322	1003.75
1957.093	1003.08333
1959.862	1002.75
1962.629	1007.41667
1965.394	998.75
1968.157	965.75
1970.918	984.75
1973.678	984.75
1976.435	995.08333
1979.19	969.41667
1981.944	968.75
1984.696	955.75
1987.445	953.41667
1990.193	961.41667
1992.939	971.08333
1995.683	970.75
1998.425	945.08333
2001.165	966.08333
2003.903	941.41667
2006.639	946.08333
2009.374	945.08333
2012.106	959.41667
2014.837	923.41667
2017.566	952.41667
2020.292	945.75
2023.017	953.08333
2025.74	931.75
2028.461	942.75
2031.18	934.41667
2033.898	922.75
2036.613	929.08333
2039.327	936.08333
2042.038	920.75
2044.748	931.08333
2047.456	916.75
2050.162	906.41667
2052.866	912.75
2055.568	910.75
2058.268	905.41667
2060.967	910.75
2063.663	883.08333
2066.358	912.41667
2069.051	883.75
2071.742	908.08333
2074.431	904.75
2077.118	902.08333
2079.804	890.41667
2082.487	905.75
2085.169	911.08333
2087.849	934.75
2090.527	908.08333
2093.203	913.41667
2095.877	921.41667
2098.55	920.41667
2101.22	933.08333
2103.889	937.75
2106.556	939.41667
2109.221	981.41667
2111.884	1003.75
2114.546	1057.75
2117.205	1127.41667
2119.863	1206.75
2122.519	1273.08333
2125.173	1359.75
2127.825	1425.08333
2130.475	1437.08333
2133.124	1396.08333
2135.771	1361.08333
2138.416	1298.41667
2141.059	1234.08333
2143.7	1176.08333
2146.339	1119.75
2148.977	1053.41667
2151.613	1056.41667
2154.247	1012.08333
2156.879	990.08333
2159.51	976.41667
2162.138	953.08333
2164.765	948.08333
2167.39	931.41667
2170.013	945.75
2172.634	933.08333
2175.254	905.08333
2177.872	949.41667
2180.488	897.75
2183.102	890.75
2185.714	865.08333
2188.325	855.41667
2190.934	865.75
2193.541	874.75
2196.146	857.41667
2198.75	838.08333
2201.351	825.08333
2203.951	817.75
2206.549	831.41667
2209.146	825.41667
2211.74	805.41667
2214.333	807.41667
2216.924	796.08333
2219.514	814.41667
2222.101	792.75
2224.687	808.41667
2227.271	786.41667
2229.853	783.75
2232.433	778.08333
2235.012	798.75
2237.589	787.75
2240.164	787.41667
2242.738	781.41667
2245.309	767.41667
2247.879	769.08333
2250.448	772.75
2253.014	745.75
2255.579	734.75
2258.142	748.41667
2260.703	720.08333
2263.262	737.08333
2265.82	720.08333
2268.376	728.41667
2270.93	712.75
2273.483	706.41667
2276.033	722.08333
2278.583	707.75
2281.13	703.08333
2283.675	690.75
2286.219	711.08333
2288.761	702.08333
2291.302	708.41667
2293.841	703.75
2296.377	679.41667
2298.913	683.41667
2301.446	694.08333
2303.978	688.41667
2306.508	683.41667
2309.037	691.75
2311.563	690.08333
2314.088	691.08333
2316.612	670.08333
2319.133	673.75
2321.653	685.08333
2324.171	659.75
2326.688	675.75
2329.202	653.41667
2331.715	671.75
2334.227	664.41667
2336.736	654.41667
2339.244	650.41667
2341.751	633.41667
2344.255	660.41667
2346.758	654.41667
2349.259	646.08333
2351.759	646.75
2354.257	642.41667
2356.753	641.75
2359.247	640.08333
2361.74	653.75
2364.231	636.41667
2366.721	644.75
2369.209	626.41667
2371.695	639.08333
2374.179	630.41667
2376.662	631.08333
2379.143	650.75
2381.622	637.08333
2384.1	641.41667
2386.576	622.75
2389.051	651.41667
2391.524	651.41667
2393.995	638.08333
2396.464	614.75
2398.932	615.75
2401.398	630.75
2403.863	617.08333
2406.325	616.41667
2408.787	621.75
2411.246	617.75
2413.704	613.41667
2416.16	604.08333
2418.615	623.75
2421.068	625.41667
2423.519	613.41667
2425.969	605.75
2428.417	616.08333
2430.863	636.75
2433.308	623.75
2435.751	611.08333
2438.193	600.75
2440.633	602.08333
2443.071	612.08333
2445.508	594.41667
2447.943	600.41667
2450.376	595.41667
2452.808	596.41667
2455.238	588.08333
2457.667	628.08333
2460.093	593.75
2462.519	585.41667
2464.942	579.08333
2467.365	596.08333
2469.785	595.75
2472.204	587.41667
2474.621	581.41667
2477.037	606.75
2479.451	575.41667
2481.863	572.08333
2484.274	575.41667
2486.683	593.75
2489.091	583.75
2491.497	588.08333
2493.901	579.41667
2496.304	579.75
2498.705	575.08333
2501.105	566.41667
2503.503	598.41667
2505.899	572.75
2508.294	586.41667
2510.687	572.08333
2513.079	566.41667
2515.469	568.08333
2517.858	563.08333
2520.245	590.08333
2522.63	572.41667
2525.014	557.75
2527.396	556.08333
2529.776	554.41667
2532.156	574.75
2534.533	550.08333
2536.909	557.75
2539.283	554.08333
2541.656	552.75
2544.027	584.41667
2546.397	558.41667
2548.765	549.08333
2551.131	554.08333
2553.496	561.08333
2555.86	559.41667
2558.221	554.41667
2560.582	558.41667
2562.94	542.08333
2565.298	552.08333
2567.653	568.41667
2570.007	542.08333
2572.36	560.41667
2574.711	543.08333
2577.06	569.08333
2579.408	551.75
2581.754	557.41667
2584.099	560.41667
2586.442	547.08333
2588.784	555.41667
2591.124	548.41667
2593.463	551.75
2595.8	549.08333
2598.135	541.08333
2600.469	540.08333
2602.802	563.08333
2605.133	555.41667
2607.462	547.41667
2609.79	549.41667
2612.116	545.08333
2614.441	541.75
2616.764	555.75
2619.086	543.41667
2621.406	543.41667
2623.725	555.08333
2626.042	542.08333
2628.358	544.75
2630.672	539.41667
2632.985	559.08333
2635.296	550.08333
2637.606	543.08333
2639.914	551.75
2642.22	554.41667
2644.525	549.08333
2646.829	560.41667
2649.131	561.75
2651.432	563.08333
2653.731	555.75
2656.028	560.08333
2658.324	561.08333
2660.619	556.41667
2662.912	568.75
2665.204	550.08333
2667.494	573.41667
2669.782	553.41667
2672.07	572.08333
2674.355	565.75
2676.639	561.75
2678.922	553.75
2681.203	567.08333
2683.483	547.08333
2685.761	545.08333
2688.038	568.75
2690.313	579.75
2692.587	576.41667
2694.859	554.75
2697.13	564.08333
2699.399	571.41667
2701.667	585.75
2703.933	584.75
2706.198	583.08333
2708.461	590.08333
2710.723	597.75
2712.984	594.08333
2715.243	601.41667
2717.5	595.75
2719.757	607.41667
2722.011	601.08333
2724.264	613.75
2726.516	642.75
2728.766	597.75
2731.015	605.75
2733.262	609.75
2735.508	609.08333
2737.753	609.08333
2739.996	593.41667
2742.237	594.41667
2744.477	605.41667
2746.716	599.41667
2748.953	594.75
2751.189	603.75
2753.423	587.75
2755.656	579.08333
2757.887	577.75
2760.117	584.08333
2762.346	564.08333
2764.573	580.08333
2766.798	575.08333
2769.022	579.08333
2771.245	588.41667
2773.467	586.75
2775.686	590.08333
2777.905	602.08333
2780.122	599.75
2782.337	608.41667
2784.552	593.41667
2786.764	615.08333
2788.976	628.75
2791.186	634.08333
2793.394	632.41667
2795.601	645.75
2797.807	650.41667
2800.011	653.08333
2802.214	665.41667
2804.415	672.75
2806.615	683.75
2808.814	693.41667
2811.011	691.75
2813.206	708.75
2815.401	709.75
2817.594	731.75
2819.785	734.41667
2821.975	728.08333
2824.164	750.41667
2826.351	765.08333
2828.537	775.75
2830.722	809.75
2832.905	808.41667
2835.086	837.08333
2837.267	886.75
2839.445	919.41667
2841.623	930.75
2843.799	970.08333
2845.974	1014.75
2848.147	1050.75
2850.319	1075.08333
2852.489	1107.75
2854.659	1108.41667
2856.826	1133.08333
2858.993	1159.75
2861.158	1145.41667
2863.321	1144.41667
2865.483	1169.75
2867.644	1175.75
2869.804	1178.41667
2871.962	1152.75
2874.118	1157.41667
2876.274	1143.41667
2878.428	1158.41667
2880.58	1131.41667
2882.731	1132.41667
2884.881	1142.08333
2887.03	1141.08333
2889.177	1146.75
2891.322	1171.75
2893.467	1161.41667
2895.61	1153.41667
2897.751	1177.08333
2899.892	1167.75
2902.03	1181.08333
2904.168	1186.41667
2906.304	1183.75
2908.439	1214.41667
2910.572	1196.08333
2912.704	1200.08333
2914.835	1203.08333
2916.965	1199.08333
2919.093	1220.08333
2921.219	1165.75
2923.345	1211.08333
2925.469	1152.41667
2927.591	1151.08333
2929.712	1121.08333
2931.832	1104.75
2933.951	1077.41667
2936.068	1061.41667
2938.184	1018.08333
2940.299	990.75
2942.412	971.41667
2944.524	917.41667
2946.634	901.41667
2948.744	848.75
2950.851	863.41667
2952.958	820.75
2955.063	804.41667
2957.167	780.75
2959.269	753.41667
2961.371	781.41667
2963.471	727.75
2965.569	723.75
2967.666	700.08333
2969.762	689.41667
2971.857	660.08333
2973.95	645.75
2976.042	632.41667
2978.133	614.75
2980.222	605.75
2982.31	573.08333
2984.396	563.41667
2986.482	573.08333
2988.566	563.41667
2990.648	555.41667
2992.73	546.41667
2994.81	537.75
2996.889	541.75
2998.966	529.41667
3001.042	529.41667
3003.117	525.08333
3005.191	524.08333
3007.263	511.41667
3009.334	497.08333
3011.403	502.41667
3013.472	475.41667
3015.539	483.41667
3017.604	493.08333
3019.669	452.75
3021.732	460.41667
3023.794	466.41667
3025.854	441.08333
3027.914	431.08333
3029.971	451.41667
3032.028	436.08333
3034.083	446.08333
3036.137	444.75
3038.19	419.41667
3040.242	410.08333
3042.292	397.41667
3044.341	398.41667
3046.388	409.75
3048.435	379.75
3050.48	402.75
3052.524	394.08333
3054.566	377.41667
3056.607	388.75
3058.647	382.08333
3060.686	360.75
3062.723	354.75
3064.759	340.75
3066.794	1.08333
3068.828	-2.58333
3070.86	-1.91667
