-0.839	419.16667
3.438	454.16667
7.711	130.83333
11.981	57.5
16.247	45.16667
20.509	45.83333
24.768	45.83333
29.024	43.16667
33.276	46.16667
37.524	52.5
41.769	43.16667
46.01	41.5
50.247	51.16667
54.481	62.83333
58.712	68.16667
62.939	52.16667
67.162	58.16667
71.382	58.5
75.599	48.83333
79.812	64.16667
84.021	79.83333
88.227	61.83333
92.429	65.5
96.628	51.16667
100.823	72.16667
105.015	77.83333
109.204	82.83333
113.388	82.16667
117.57	76.16667
121.748	91.16667
125.922	80.16667
130.093	105.16667
134.261	110.83333
138.425	102.5
142.585	152.16667
146.742	147.83333
150.896	173.83333
155.046	217.16667
159.193	353.16667
163.336	607.16667
167.476	1111.83333
171.613	2060.83333
175.746	3455.16667
179.875	5128.5
184.002	6710.16667
188.124	7768.83333
192.244	8123.16667
196.36	8078.16667
200.472	7847.5
204.581	7677.16667
208.687	7499.16667
212.79	7453.83333
216.889	7463.83333
220.984	7619.83333
225.077	7672.5
229.165	7772.16667
233.251	7876.16667
237.333	7902.83333
241.412	7919.5
245.487	7870.83333
249.559	7783.83333
253.628	7664.5
257.694	7578.5
261.756	7521.16667
265.814	7327.16667
269.87	7130.16667
273.922	6938.5
277.97	6815.5
282.016	6758.5
286.058	6782.83333
290.097	6860.16667
294.132	6824.5
298.164	6712.16667
302.193	6351.83333
306.219	5891.5
310.241	5353.83333
314.26	4867.5
318.276	4461.83333
322.288	4145.83333
326.297	3955.16667
330.303	3756.16667
334.305	3632.83333
338.305	3524.5
342.301	3512.83333
346.294	3458.5
350.283	3410.5
354.269	3371.83333
358.252	3369.16667
362.232	3341.5
366.209	3317.16667
370.182	3259.16667
374.152	3265.5
378.119	3258.83333
382.083	3256.16667
386.043	3255.16667
390	3215.16667
393.954	3187.5
397.905	3163.83333
401.852	3149.5
405.797	3083.16667
409.738	3072.5
413.676	3039.5
417.61	3033.16667
421.542	2983.83333
425.47	2960.5
429.396	2932.16667
433.318	2910.83333
437.236	2909.5
441.152	2924.83333
445.065	2848.16667
448.974	2863.83333
452.88	2851.5
456.783	2799.83333
460.683	2805.5
464.58	2793.83333
468.473	2814.16667
472.364	2811.5
476.251	2813.83333
480.135	2827.83333
484.016	2889.16667
487.894	2901.5
491.769	2885.83333
495.641	2891.5
499.509	2870.16667
503.375	2904.83333
507.237	2869.16667
511.096	2868.16667
514.952	2884.16667
518.805	2884.16667
522.655	2883.16667
526.502	2839.5
530.346	2850.83333
534.187	2864.5
538.024	2871.16667
541.859	2867.5
545.69	2909.83333
549.519	2854.16667
553.344	2849.16667
557.166	2810.5
560.985	2786.83333
564.802	2736.16667
568.615	2717.16667
572.425	2689.83333
576.232	2650.83333
580.036	2639.16667
583.836	2645.83333
587.634	2669.5
591.429	2654.5
595.221	2698.16667
599.01	2765.5
602.796	2785.83333
606.578	2823.83333
610.358	2823.5
614.135	2796.5
617.909	2791.83333
621.679	2758.83333
625.447	2760.83333
629.212	2774.83333
632.973	2743.5
636.732	2771.83333
640.488	2767.16667
644.241	2747.5
647.991	2696.16667
651.737	2730.16667
655.481	2705.83333
659.222	2698.5
662.96	2705.5
666.695	2711.5
670.427	2714.5
674.156	2734.16667
677.882	2741.83333
681.605	2740.16667
685.325	2718.16667
689.043	2717.16667
692.757	2722.5
696.468	2740.83333
700.177	2736.5
703.882	2714.83333
707.585	2733.5
711.284	2748.83333
714.981	2745.16667
718.675	2782.16667
722.366	2769.16667
726.054	2741.5
729.739	2749.83333
733.421	2738.5
737.1	2728.5
740.777	2766.5
744.45	2776.83333
748.121	2796.16667
751.789	2877.83333
755.453	2851.16667
759.115	2879.16667
762.774	2897.83333
766.431	2946.5
770.084	2967.83333
773.734	2999.5
777.382	3070.83333
781.027	3109.5
784.669	3094.5
788.308	3122.83333
791.944	3154.83333
795.577	3159.5
799.208	3205.83333
802.835	3219.83333
806.46	3243.83333
810.082	3283.5
813.701	3291.5
817.317	3319.83333
820.931	3295.16667
824.542	3299.83333
828.149	3275.83333
831.754	3270.5
835.357	3260.16667
838.956	3269.83333
842.553	3234.16667
846.146	3222.16667
849.737	3186.16667
853.326	3225.5
856.911	3246.83333
860.493	3287.16667
864.073	3319.16667
867.65	3350.16667
871.225	3388.5
874.796	3407.5
878.365	3411.16667
881.931	3429.16667
885.494	3484.16667
889.054	3468.5
892.612	3461.5
896.166	3437.83333
899.719	3393.16667
903.268	3375.5
906.814	3336.83333
910.358	3336.16667
913.899	3329.16667
917.438	3305.16667
920.973	3309.5
924.506	3344.16667
928.036	3393.5
931.564	3406.5
935.088	3454.83333
938.61	3476.16667
942.129	3510.16667
945.646	3601.5
949.16	3670.16667
952.671	3735.83333
956.179	3777.5
959.685	3725.5
963.188	3699.5
966.688	3630.5
970.185	3548.5
973.68	3503.5
977.173	3488.16667
980.662	3470.83333
984.149	3484.5
987.633	3470.83333
991.114	3570.16667
994.593	3649.5
998.069	3777.16667
1001.542	3883.16667
1005.013	3774.83333
1008.481	3605.83333
1011.947	3522.16667
1015.409	3509.5
1018.869	3493.16667
1022.327	3483.83333
1025.782	3477.16667
1029.234	3485.5
1032.683	3439.83333
1036.13	3313.16667
1039.574	3201.83333
1043.016	3115.16667
1046.455	3067.16667
1049.891	2999.83333
1053.325	3038.16667
1056.756	3036.16667
1060.184	3073.83333
1063.61	3059.5
1067.033	3103.16667
1070.454	3092.83333
1073.872	3111.16667
1077.287	3114.16667
1080.7	3141.83333
1084.11	3134.5
1087.517	3111.83333
1090.922	3110.5
1094.325	3054.16667
1097.724	3025.83333
1101.122	3021.16667
1104.516	3027.5
1107.908	3024.16667
1111.298	3068.83333
1114.684	3099.5
1118.069	3150.16667
1121.45	3162.16667
1124.83	3153.83333
1128.206	3214.83333
1131.58	3238.5
1134.951	3351.16667
1138.32	3444.5
1141.687	3569.16667
1145.05	3668.16667
1148.412	3673.16667
1151.77	3659.83333
1155.126	3663.83333
1158.48	3659.16667
1161.831	3695.5
1165.18	3770.83333
1168.525	3786.83333
1171.869	3865.16667
1175.21	3883.16667
1178.548	3933.5
1181.884	3984.16667
1185.217	3975.5
1188.548	4059.5
1191.877	4110.5
1195.202	4204.16667
1198.526	4287.16667
1201.846	4278.83333
1205.165	4250.83333
1208.48	4266.5
1211.794	4274.83333
1215.104	4235.5
1218.413	4251.5
1221.719	4225.5
1225.022	4202.5
1228.323	4147.5
1231.621	4173.16667
1234.917	4154.5
1238.21	4184.83333
1241.501	4181.83333
1244.79	4176.16667
1248.076	4190.83333
1251.359	4209.16667
1254.64	4290.83333
1257.919	4301.16667
1261.195	4392.83333
1264.468	4443.5
1267.74	4512.5
1271.008	4565.16667
1274.275	4503.16667
1277.538	4463.16667
1280.8	4414.16667
1284.059	4450.83333
1287.315	4501.16667
1290.569	4513.16667
1293.821	4562.83333
1297.07	4544.83333
1300.317	4589.16667
1303.562	4560.5
1306.803	4530.83333
1310.043	4475.16667
1313.28	4432.16667
1316.515	4362.83333
1319.747	4304.83333
1322.977	4260.5
1326.204	4190.16667
1329.429	4124.83333
1332.652	4091.5
1335.872	4073.5
1339.09	4035.83333
1342.306	4067.16667
1345.519	4040.5
1348.729	4055.5
1351.938	4002.5
1355.144	3941.83333
1358.347	3899.83333
1361.548	3890.5
1364.747	3907.83333
1367.944	3881.83333
1371.138	3903.5
1374.329	3900.83333
1377.518	3948.16667
1380.705	3990.5
1383.89	3948.16667
1387.072	3849.83333
1390.252	3704.16667
1393.429	3604.5
1396.605	3504.83333
1399.777	3378.16667
1402.948	3381.16667
1406.116	3362.83333
1409.282	3371.16667
1412.445	3371.5
1415.606	3392.5
1418.765	3441.83333
1421.921	3524.83333
1425.075	3635.83333
1428.227	3773.83333
1431.376	3906.16667
1434.524	4028.5
1437.668	4137.16667
1440.811	4141.16667
1443.951	4184.83333
1447.089	4187.83333
1450.224	4195.16667
1453.357	4144.83333
1456.488	4127.16667
1459.617	4078.5
1462.743	4020.5
1465.867	3967.5
1468.989	3900.5
1472.108	3823.83333
1475.225	3749.16667
1478.34	3726.5
1481.453	3700.83333
1484.563	3725.5
1487.671	3788.16667
1490.776	3823.16667
1493.88	3919.5
1496.981	4005.83333
1500.08	4094.16667
1503.176	4155.16667
1506.271	4202.16667
1509.363	4267.83333
1512.452	4313.5
1515.54	4408.83333
1518.625	4531.16667
1521.708	4682.5
1524.789	4912.83333
1527.867	5194.5
1530.944	5533.5
1534.018	5828.5
1537.089	6009.5
1540.159	6016.16667
1543.226	5863.16667
1546.291	5672.5
1549.354	5499.16667
1552.415	5317.83333
1555.473	5169.83333
1558.529	5064.5
1561.583	4959.5
1564.634	4933.5
1567.684	4918.16667
1570.731	4935.83333
1573.776	4951.5
1576.819	5003.83333
1579.859	5050.83333
1582.898	5065.83333
1585.934	5116.16667
1588.968	5158.16667
1591.999	5139.16667
1595.029	5134.83333
1598.056	5186.16667
1601.081	5199.83333
1604.104	5165.83333
1607.125	5108.83333
1610.144	4991.16667
1613.16	4870.83333
1616.174	4764.16667
1619.186	4612.5
1622.196	4518.83333
1625.203	4379.5
1628.209	4287.16667
1631.212	4243.5
1634.213	4223.5
1637.212	4158.5
1640.209	4083.83333
1643.203	3969.83333
1646.196	3855.16667
1649.186	3741.83333
1652.174	3621.16667
1655.16	3493.16667
1658.144	3399.5
1661.125	3222.5
1664.105	3086.83333
1667.082	2932.16667
1670.057	2806.5
1673.03	2641.83333
1676.001	2476.83333
1678.97	2307.83333
1681.937	2175.5
1684.901	2070.83333
1687.863	2019.16667
1690.824	1940.16667
1693.782	1884.83333
1696.738	1809.83333
1699.692	1788.83333
1702.643	1724.83333
1705.593	1717.16667
1708.54	1691.16667
1711.486	1677.16667
1714.429	1648.16667
1717.37	1623.83333
1720.309	1598.16667
1723.246	1616.5
1726.181	1567.16667
1729.113	1579.5
1732.044	1553.83333
1734.972	1514.16667
1737.899	1522.16667
1740.823	1512.83333
1743.745	1513.83333
1746.665	1444.16667
1749.583	1436.83333
1752.499	1420.83333
1755.413	1401.83333
1758.325	1373.5
1761.235	1362.16667
1764.142	1332.83333
1767.048	1334.83333
1769.951	1312.5
1772.852	1307.83333
1775.752	1282.83333
1778.649	1305.83333
1781.544	1286.16667
1784.437	1246.5
1787.328	1277.16667
1790.217	1282.16667
1793.104	1240.83333
1795.989	1222.16667
1798.872	1220.16667
1801.753	1237.5
1804.631	1220.16667
1807.508	1236.83333
1810.383	1235.16667
1813.255	1228.16667
1816.126	1222.5
1818.994	1220.16667
1821.861	1199.5
1824.725	1187.83333
1827.587	1195.5
1830.448	1186.83333
1833.306	1163.16667
1836.162	1183.83333
1839.017	1153.5
1841.869	1160.16667
1844.719	1166.5
1847.567	1139.5
1850.414	1135.83333
1853.258	1148.83333
1856.1	1159.16667
1858.94	1158.16667
1861.778	1136.16667
1864.614	1135.16667
1867.448	1137.83333
1870.28	1133.5
1873.111	1139.83333
1875.939	1128.83333
1878.765	1152.5
1881.589	1121.16667
1884.411	1113.16667
1887.231	1118.83333
1890.049	1117.16667
1892.865	1116.5
1895.68	1101.83333
1898.492	1102.16667
1901.302	1094.83333
1904.11	1090.5
1906.916	1094.16667
1909.721	1076.5
1912.523	1096.5
1915.323	1062.16667
1918.122	1075.5
1920.918	1084.5
1923.712	1063.16667
1926.505	1065.16667
1929.295	1061.16667
1932.084	1070.16667
1934.87	1073.5
1937.655	1054.16667
1940.438	1041.16667
1943.218	1060.16667
1945.997	1050.5
1948.774	1062.5
1951.549	1054.16667
1954.322	1051.83333
1957.093	1047.83333
1959.862	1043.83333
1962.629	1037.16667
1965.394	1026.16667
1968.157	1034.83333
1970.918	1042.16667
1973.678	1016.83333
1976.435	1018.16667
1979.19	1009.16667
1981.944	1003.16667
1984.696	1001.83333
1987.445	999.16667
1990.193	995.5
1992.939	1009.83333
1995.683	1008.5
1998.425	984.83333
2001.165	1009.5
2003.903	977.16667
2006.639	988.83333
2009.374	977.5
2012.106	990.83333
2014.837	960.16667
2017.566	980.83333
2020.292	990.5
2023.017	988.83333
2025.74	983.16667
2028.461	968.5
2031.18	975.5
2033.898	955.5
2036.613	961.16667
2039.327	979.16667
2042.038	959.16667
2044.748	955.5
2047.456	955.5
2050.162	943.5
2052.866	949.83333
2055.568	950.83333
2058.268	959.83333
2060.967	954.16667
2063.663	933.83333
2066.358	935.16667
2069.051	942.5
2071.742	946.5
2074.431	946.5
2077.118	940.5
2079.804	927.83333
2082.487	947.5
2085.169	968.83333
2087.849	970.5
2090.527	971.5
2093.203	964.16667
2095.877	974.16667
2098.55	983.16667
2101.22	1003.83333
2103.889	1023.5
2106.556	1034.5
2109.221	1082.16667
2111.884	1117.5
2114.546	1226.5
2117.205	1336.5
2119.863	1476.16667
2122.519	1595.83333
2125.173	1712.16667
2127.825	1828.83333
2130.475	1848.83333
2133.124	1797.5
2135.771	1715.83333
2138.416	1635.16667
2141.059	1513.83333
2143.7	1430.5
2146.339	1328.5
2148.977	1248.83333
2151.613	1226.83333
2154.247	1166.83333
2156.879	1133.83333
2159.51	1112.83333
2162.138	1090.5
2164.765	1070.83333
2167.39	1043.16667
2170.013	1058.5
2172.634	1047.16667
2175.254	1018.83333
2177.872	1047.16667
2180.488	1009.16667
2183.102	990.16667
2185.714	973.83333
2188.325	956.5
2190.934	962.83333
2193.541	945.16667
2196.146	921.16667
2198.75	920.83333
2201.351	910.5
2203.951	875.16667
2206.549	892.16667
2209.146	869.83333
2211.74	853.83333
2214.333	867.83333
2216.924	831.5
2219.514	846.83333
2222.101	823.83333
2224.687	844.5
2227.271	831.16667
2229.853	812.5
2232.433	802.5
2235.012	825.5
2237.589	821.83333
2240.164	824.5
2242.738	807.16667
2245.309	799.83333
2247.879	801.16667
2250.448	794.5
2253.014	779.16667
2255.579	760.5
2258.142	758.16667
2260.703	755.83333
2263.262	733.83333
2265.82	735.83333
2268.376	753.16667
2270.93	726.5
2273.483	731.16667
2276.033	729.5
2278.583	731.83333
2281.13	732.5
2283.675	721.5
2286.219	707.83333
2288.761	711.16667
2291.302	722.16667
2293.841	714.16667
2296.377	688.83333
2298.913	693.16667
2301.446	713.5
2303.978	691.83333
2306.508	683.83333
2309.037	688.16667
2311.563	695.5
2314.088	691.83333
2316.612	667.5
2319.133	688.5
2321.653	682.83333
2324.171	673.16667
2326.688	684.5
2329.202	659.5
2331.715	669.83333
2334.227	656.83333
2336.736	659.5
2339.244	659.5
2341.751	648.16667
2344.255	655.5
2346.758	644.83333
2349.259	634.16667
2351.759	656.83333
2354.257	638.83333
2356.753	636.5
2359.247	638.16667
2361.74	657.5
2364.231	633.83333
2366.721	638.16667
2369.209	638.16667
2371.695	627.83333
2374.179	623.83333
2376.662	637.16667
2379.143	640.5
2381.622	631.5
2384.1	634.83333
2386.576	624.16667
2389.051	645.83333
2391.524	636.83333
2393.995	629.16667
2396.464	615.5
2398.932	600.5
2401.398	622.5
2403.863	613.5
2406.325	610.16667
2408.787	608.16667
2411.246	610.83333
2413.704	599.83333
2416.16	595.83333
2418.615	608.16667
2421.068	609.5
2423.519	597.5
2425.969	588.5
2428.417	600.16667
2430.863	620.5
2433.308	610.16667
2435.751	603.16667
2438.193	595.5
2440.633	607.83333
2443.071	591.16667
2445.508	576.16667
2447.943	584.5
2450.376	577.5
2452.808	584.83333
2455.238	572.83333
2457.667	599.16667
2460.093	579.16667
2462.519	558.16667
2464.942	563.83333
2467.365	579.16667
2469.785	570.83333
2472.204	567.83333
2474.621	563.5
2477.037	580.5
2479.451	559.16667
2481.863	545.16667
2484.274	547.5
2486.683	564.5
2489.091	572.5
2491.497	548.83333
2493.901	553.5
2496.304	550.83333
2498.705	564.83333
2501.105	546.83333
2503.503	574.16667
2505.899	541.83333
2508.294	564.16667
2510.687	544.5
2513.079	538.16667
2515.469	532.83333
2517.858	537.83333
2520.245	557.5
2522.63	545.83333
2525.014	524.83333
2527.396	523.83333
2529.776	520.16667
2532.156	526.16667
2534.533	524.5
2536.909	522.16667
2539.283	511.5
2541.656	522.83333
2544.027	545.83333
2546.397	538.83333
2548.765	528.16667
2551.131	517.83333
2553.496	522.5
2555.86	531.5
2558.221	518.83333
2560.582	518.83333
2562.94	512.5
2565.298	513.5
2567.653	525.5
2570.007	506.16667
2572.36	522.5
2574.711	514.5
2577.06	530.83333
2579.408	515.83333
2581.754	513.5
2584.099	505.83333
2586.442	512.5
2588.784	506.83333
2591.124	512.5
2593.463	509.5
2595.8	506.83333
2598.135	491.83333
2600.469	502.83333
2602.802	510.16667
2605.133	512.83333
2607.462	493.5
2609.79	497.83333
2612.116	498.83333
2614.441	493.83333
2616.764	505.5
2619.086	502.5
2621.406	493.5
2623.725	512.83333
2626.042	501.5
2628.358	496.16667
2630.672	501.83333
2632.985	509.5
2635.296	513.5
2637.606	504.5
2639.914	488.83333
2642.22	498.5
2644.525	498.5
2646.829	510.16667
2649.131	517.5
2651.432	507.16667
2653.731	499.16667
2656.028	506.16667
2658.324	510.16667
2660.619	497.83333
2662.912	513.5
2665.204	497.83333
2667.494	514.5
2669.782	498.5
2672.07	504.16667
2674.355	514.5
2676.639	501.5
2678.922	490.83333
2681.203	507.83333
2683.483	491.5
2685.761	501.5
2688.038	509.83333
2690.313	516.5
2692.587	512.83333
2694.859	499.16667
2697.13	510.16667
2699.399	509.16667
2701.667	525.16667
2703.933	521.16667
2706.198	524.5
2708.461	532.5
2710.723	544.83333
2712.984	530.83333
2715.243	540.83333
2717.5	535.83333
2719.757	554.5
2722.011	538.83333
2724.264	555.5
2726.516	571.83333
2728.766	543.5
2731.015	561.16667
2733.262	550.5
2735.508	539.83333
2737.753	544.16667
2739.996	520.83333
2742.237	529.5
2744.477	541.5
2746.716	528.16667
2748.953	525.5
2751.189	531.16667
2753.423	513.5
2755.656	512.5
2757.887	516.5
2760.117	503.83333
2762.346	514.16667
2764.573	510.16667
2766.798	496.5
2769.022	517.16667
2771.245	510.83333
2773.467	517.16667
2775.686	517.5
2777.905	528.16667
2780.122	525.83333
2782.337	535.83333
2784.552	531.5
2786.764	540.5
2788.976	539.5
2791.186	555.83333
2793.394	559.16667
2795.601	576.5
2797.807	582.16667
2800.011	601.16667
2802.214	605.5
2804.415	608.16667
2806.615	606.5
2808.814	626.83333
2811.011	638.5
2813.206	636.83333
2815.401	650.83333
2817.594	665.83333
2819.785	682.83333
2821.975	678.16667
2824.164	688.5
2826.351	712.5
2828.537	729.16667
2830.722	751.83333
2832.905	768.16667
2835.086	801.5
2837.267	811.16667
2839.445	863.16667
2841.623	886.83333
2843.799	918.5
2845.974	971.83333
2848.147	1016.83333
2850.319	1050.5
2852.489	1081.5
2854.659	1078.83333
2856.826	1113.83333
2858.993	1149.5
2861.158	1124.83333
2863.321	1119.16667
2865.483	1150.5
2867.644	1147.5
2869.804	1145.83333
2871.962	1136.83333
2874.118	1120.5
2876.274	1122.5
2878.428	1120.5
2880.58	1110.16667
2882.731	1090.83333
2884.881	1108.16667
2887.03	1115.16667
2889.177	1107.5
2891.322	1120.83333
2893.467	1107.16667
2895.61	1127.5
2897.751	1151.16667
2899.892	1126.83333
2902.03	1149.16667
2904.168	1157.16667
2906.304	1166.5
2908.439	1165.83333
2910.572	1153.16667
2912.704	1169.83333
2914.835	1162.16667
2916.965	1171.5
2919.093	1182.83333
2921.219	1128.83333
2923.345	1160.16667
2925.469	1123.16667
2927.591	1117.5
2929.712	1067.83333
2931.832	1066.5
2933.951	1043.83333
2936.068	991.5
2938.184	972.5
2940.299	938.83333
2942.412	909.5
2944.524	857.5
2946.634	839.5
2948.744	791.83333
2950.851	809.5
2952.958	743.5
2955.063	736.5
2957.167	711.16667
2959.269	687.16667
2961.371	693.16667
2963.471	643.16667
2965.569	643.16667
2967.666	606.5
2969.762	593.83333
2971.857	567.16667
2973.95	549.83333
2976.042	547.5
2978.133	523.16667
2980.222	512.5
2982.31	493.16667
2984.396	473.5
2986.482	463.5
2988.566	459.16667
2990.648	440.16667
2992.73	444.16667
2994.81	425.5
2996.889	429.16667
2998.966	415.83333
3001.042	417.83333
3003.117	407.5
3005.191	414.5
3007.263	407.83333
3009.334	395.16667
3011.403	385.16667
3013.472	379.83333
3015.539	375.5
3017.604	385.83333
3019.669	348.16667
3021.732	353.5
3023.794	357.83333
3025.854	340.5
3027.914	332.16667
3029.971	335.83333
3032.028	331.5
3034.083	331.83333
3036.137	328.83333
3038.19	315.83333
3040.242	316.5
3042.292	301.5
3044.341	296.83333
3046.388	317.83333
3048.435	275.5
3050.48	306.5
3052.524	294.83333
3054.566	267.16667
3056.607	294.83333
3058.647	278.16667
3060.686	259.5
3062.723	258.16667
3064.759	247.5
3066.794	-0.83333
3068.828	0.16667
3070.86	-2.5
