-0.839	512.75
3.438	537.08333
7.711	140.41667
11.981	54.08333
16.247	44.41667
20.509	44.75
24.768	45.75
29.024	46.41667
33.276	42.08333
37.524	48.41667
41.769	39.75
46.01	34.75
50.247	49.41667
54.481	61.41667
58.712	62.75
62.939	47.75
67.162	62.41667
71.382	55.41667
75.599	45.75
79.812	60.75
84.021	79.41667
88.227	56.75
92.429	60.08333
96.628	49.41667
100.823	62.75
105.015	73.41667
109.204	74.75
113.388	75.08333
117.57	74.08333
121.748	85.08333
125.922	76.75
130.093	95.41667
134.261	97.75
138.425	93.08333
142.585	138.75
146.742	135.41667
150.896	160.75
155.046	198.75
159.193	324.75
163.336	553.41667
167.476	1016.41667
171.613	1827.08333
175.746	3075.75
179.875	4526.75
184.002	5820.41667
188.124	6602.41667
192.244	6846.41667
196.36	6686.41667
200.472	6432.41667
204.581	6182.75
208.687	5951.75
212.79	5835.41667
216.889	5728.08333
220.984	5762.75
225.077	5733.08333
229.165	5807.08333
233.251	5765.41667
237.333	5758.08333
241.412	5722.41667
245.487	5684.75
249.559	5632.75
253.628	5554.41667
257.694	5503.41667
261.756	5446.08333
265.814	5325.41667
269.87	5228.75
273.922	5062.75
277.97	5015.41667
282.016	4926.75
286.058	4911.08333
290.097	4963.75
294.132	4983.08333
298.164	4908.75
302.193	4708.75
306.219	4383.75
310.241	4020.41667
314.26	3647.08333
318.276	3342.41667
322.288	3136.75
326.297	2955.08333
330.303	2821.41667
334.305	2734.75
338.305	2661.41667
342.301	2619.41667
346.294	2592.41667
350.283	2554.41667
354.269	2533.08333
358.252	2523.08333
362.232	2504.75
366.209	2470.08333
370.182	2427.08333
374.152	2435.08333
378.119	2417.08333
382.083	2420.41667
386.043	2439.41667
390	2382.41667
393.954	2374.75
397.905	2340.75
401.852	2361.08333
405.797	2320.75
409.738	2287.08333
413.676	2296.08333
417.61	2362.75
421.542	2278.75
425.47	2235.75
429.396	2238.75
433.318	2207.41667
437.236	2210.75
441.152	2208.75
445.065	2172.08333
448.974	2185.75
452.88	2132.41667
456.783	2137.08333
460.683	2102.08333
464.58	2145.41667
468.473	2135.75
472.364	2120.75
476.251	2139.08333
480.135	2170.75
484.016	2163.08333
487.894	2182.08333
491.769	2187.08333
495.641	2177.41667
499.509	2195.75
503.375	2196.08333
507.237	2191.75
511.096	2182.08333
514.952	2239.08333
518.805	2306.75
522.655	2328.41667
526.502	2231.08333
530.346	2197.08333
534.187	2188.41667
538.024	2209.41667
541.859	2208.41667
545.69	2198.41667
549.519	2209.41667
553.344	2180.08333
557.166	2149.41667
560.985	2119.08333
564.802	2108.41667
568.615	2065.41667
572.425	2035.41667
576.232	2037.75
580.036	2036.08333
583.836	2045.75
587.634	2027.08333
591.429	2052.08333
595.221	2072.41667
599.01	2096.41667
602.796	2119.75
606.578	2150.75
610.358	2120.41667
614.135	2156.75
617.909	2150.75
621.679	2118.08333
625.447	2096.08333
629.212	2114.41667
632.973	2116.75
636.732	2105.41667
640.488	2128.08333
644.241	2055.41667
647.991	2084.08333
651.737	2100.41667
655.481	2110.08333
659.222	2126.41667
662.96	2116.08333
666.695	2151.08333
670.427	2167.08333
674.156	2160.75
677.882	2134.08333
681.605	2112.41667
685.325	2072.75
689.043	2085.75
692.757	2067.41667
696.468	2085.08333
700.177	2090.75
703.882	2066.41667
707.585	2075.41667
711.284	2084.41667
714.981	2087.41667
718.675	2088.08333
722.366	2126.41667
726.054	2081.41667
729.739	2089.75
733.421	2094.08333
737.1	2083.41667
740.777	2087.41667
744.45	2109.75
748.121	2111.41667
751.789	2143.41667
755.453	2148.75
759.115	2148.08333
762.774	2188.41667
766.431	2195.41667
770.084	2222.75
773.734	2248.75
777.382	2304.08333
781.027	2305.08333
784.669	2334.41667
788.308	2331.41667
791.944	2366.08333
795.577	2379.08333
799.208	2400.08333
802.835	2443.41667
806.46	2472.08333
810.082	2488.75
813.701	2507.41667
817.317	2527.08333
820.931	2504.08333
824.542	2484.08333
828.149	2454.75
831.754	2407.41667
835.357	2397.41667
838.956	2396.41667
842.553	2382.75
846.146	2362.41667
849.737	2331.75
853.326	2362.41667
856.911	2344.75
860.493	2394.41667
864.073	2398.75
867.65	2438.41667
871.225	2491.41667
874.796	2442.08333
878.365	2466.41667
881.931	2479.41667
885.494	2509.41667
889.054	2494.75
892.612	2510.41667
896.166	2464.41667
899.719	2452.08333
903.268	2449.08333
906.814	2428.75
910.358	2408.75
913.899	2395.75
917.438	2415.08333
920.973	2403.41667
924.506	2445.08333
928.036	2475.75
931.564	2521.08333
935.088	2552.08333
938.61	2586.08333
942.129	2569.08333
945.646	2633.75
949.16	2688.08333
952.671	2735.41667
956.179	2768.41667
959.685	2770.75
963.188	2795.41667
966.688	2781.41667
970.185	2697.41667
973.68	2596.41667
977.173	2554.41667
980.662	2525.08333
984.149	2505.75
987.633	2488.75
991.114	2522.08333
994.593	2588.41667
998.069	2680.75
1001.542	2725.08333
1005.013	2674.08333
1008.481	2535.08333
1011.947	2485.75
1015.409	2481.75
1018.869	2514.08333
1022.327	2492.75
1025.782	2480.08333
1029.234	2511.41667
1032.683	2478.41667
1036.13	2393.41667
1039.574	2298.41667
1043.016	2246.75
1046.455	2224.41667
1049.891	2180.41667
1053.325	2183.08333
1056.756	2193.41667
1060.184	2208.75
1063.61	2241.41667
1067.033	2268.41667
1070.454	2247.08333
1073.872	2303.75
1077.287	2287.41667
1080.7	2304.08333
1084.11	2320.41667
1087.517	2304.41667
1090.922	2258.75
1094.325	2204.75
1097.724	2174.75
1101.122	2205.41667
1104.516	2198.08333
1107.908	2195.08333
1111.298	2242.41667
1114.684	2274.41667
1118.069	2288.75
1121.45	2299.41667
1124.83	2312.75
1128.206	2300.08333
1131.58	2343.41667
1134.951	2401.75
1138.32	2485.41667
1141.687	2578.75
1145.05	2667.41667
1148.412	2669.08333
1151.77	2653.75
1155.126	2651.08333
1158.48	2631.75
1161.831	2658.08333
1165.18	2661.41667
1168.525	2681.08333
1171.869	2715.41667
1175.21	2751.75
1178.548	2801.08333
1181.884	2806.75
1185.217	2839.75
1188.548	2913.75
1191.877	2964.75
1195.202	3040.08333
1198.526	3119.08333
1201.846	3126.08333
1205.165	3124.08333
1208.48	3130.08333
1211.794	3106.75
1215.104	3115.08333
1218.413	3138.75
1221.719	3127.75
1225.022	3087.41667
1228.323	3052.08333
1231.621	3058.08333
1234.917	3047.41667
1238.21	3056.41667
1241.501	3019.08333
1244.79	3014.41667
1248.076	3012.41667
1251.359	3049.41667
1254.64	3108.41667
1257.919	3112.08333
1261.195	3132.75
1264.468	3203.75
1267.74	3246.41667
1271.008	3240.41667
1274.275	3235.41667
1277.538	3216.41667
1280.8	3201.08333
1284.059	3200.08333
1287.315	3238.75
1290.569	3262.75
1293.821	3307.41667
1297.07	3341.41667
1300.317	3337.75
1303.562	3350.08333
1306.803	3311.08333
1310.043	3283.75
1313.28	3260.08333
1316.515	3237.41667
1319.747	3192.08333
1322.977	3154.08333
1326.204	3121.41667
1329.429	3087.08333
1332.652	3072.75
1335.872	3056.41667
1339.09	3019.08333
1342.306	3012.75
1345.519	2977.75
1348.729	2974.75
1351.938	2964.08333
1355.144	2916.41667
1358.347	2855.75
1361.548	2863.75
1364.747	2852.41667
1367.944	2836.75
1371.138	2855.75
1374.329	2863.75
1377.518	2851.41667
1380.705	2876.75
1383.89	2861.75
1387.072	2798.75
1390.252	2687.08333
1393.429	2590.75
1396.605	2522.41667
1399.777	2455.75
1402.948	2423.75
1406.116	2405.41667
1409.282	2429.41667
1412.445	2429.41667
1415.606	2440.08333
1418.765	2491.41667
1421.921	2549.41667
1425.075	2611.08333
1428.227	2710.75
1431.376	2827.08333
1434.524	2929.75
1437.668	3001.08333
1440.811	3033.08333
1443.951	3031.41667
1447.089	3036.75
1450.224	3050.41667
1453.357	3000.41667
1456.488	3005.75
1459.617	2951.75
1462.743	2926.08333
1465.867	2858.41667
1468.989	2842.75
1472.108	2769.75
1475.225	2723.08333
1478.34	2721.08333
1481.453	2705.41667
1484.563	2731.08333
1487.671	2768.75
1490.776	2785.08333
1493.88	2828.08333
1496.981	2878.75
1500.08	2929.75
1503.176	2952.08333
1506.271	2986.08333
1509.363	3042.41667
1512.452	3069.75
1515.54	3128.08333
1518.625	3182.75
1521.708	3292.08333
1524.789	3419.75
1527.867	3600.08333
1530.944	3779.75
1534.018	3981.75
1537.089	4063.75
1540.159	4046.75
1543.226	3961.75
1546.291	3837.08333
1549.354	3730.41667
1552.415	3637.75
1555.473	3545.08333
1558.529	3485.41667
1561.583	3464.08333
1564.634	3441.75
1567.684	3461.75
1570.731	3469.41667
1573.776	3506.41667
1576.819	3539.75
1579.859	3624.08333
1582.898	3670.41667
1585.934	3697.75
1588.968	3735.08333
1591.999	3683.41667
1595.029	3708.41667
1598.056	3773.08333
1601.081	3778.41667
1604.104	3770.08333
1607.125	3730.41667
1610.144	3663.41667
1613.16	3565.41667
1616.174	3483.41667
1619.186	3385.41667
1622.196	3289.75
1625.203	3240.08333
1628.209	3180.41667
1631.212	3186.41667
1634.213	3188.41667
1637.212	3186.08333
1640.209	3183.08333
1643.203	3128.41667
1646.196	3009.75
1649.186	2868.41667
1652.174	2782.08333
1655.16	2649.75
1658.144	2562.08333
1661.125	2432.41667
1664.105	2292.08333
1667.082	2157.08333
1670.057	2054.08333
1673.03	1905.41667
1676.001	1809.75
1678.97	1705.75
1681.937	1599.41667
1684.901	1515.08333
1687.863	1462.08333
1690.824	1402.75
1693.782	1388.41667
1696.738	1329.41667
1699.692	1312.41667
1702.643	1280.41667
1705.593	1251.08333
1708.54	1239.08333
1711.486	1230.41667
1714.429	1204.75
1717.37	1188.08333
1720.309	1171.41667
1723.246	1185.41667
1726.181	1147.75
1729.113	1146.08333
1732.044	1148.08333
1734.972	1125.75
1737.899	1124.75
1740.823	1118.75
1743.745	1126.41667
1746.665	1070.75
1749.583	1047.08333
1752.499	1048.41667
1755.413	1038.75
1758.325	1000.75
1761.235	1001.75
1764.142	979.75
1767.048	976.08333
1769.951	970.41667
1772.852	949.08333
1775.752	955.41667
1778.649	964.08333
1781.544	945.75
1784.437	938.08333
1787.328	941.08333
1790.217	933.08333
1793.104	902.75
1795.989	905.41667
1798.872	883.75
1801.753	906.08333
1804.631	925.41667
1807.508	910.08333
1810.383	908.75
1813.255	895.41667
1816.126	905.75
1818.994	889.75
1821.861	888.41667
1824.725	876.75
1827.587	875.41667
1830.448	879.75
1833.306	846.08333
1836.162	871.41667
1839.017	843.41667
1841.869	848.75
1844.719	850.08333
1847.567	835.75
1850.414	837.75
1853.258	829.41667
1856.1	843.08333
1858.94	847.08333
1861.778	842.41667
1864.614	828.75
1867.448	833.08333
1870.28	833.08333
1873.111	848.08333
1875.939	824.41667
1878.765	854.75
1881.589	836.75
1884.411	819.75
1887.231	822.41667
1890.049	811.41667
1892.865	834.75
1895.68	800.41667
1898.492	811.08333
1901.302	795.75
1904.11	806.08333
1906.916	793.08333
1909.721	793.41667
1912.523	805.75
1915.323	778.08333
1918.122	793.41667
1920.918	781.41667
1923.712	782.75
1926.505	776.75
1929.295	760.75
1932.084	778.75
1934.87	778.75
1937.655	772.75
1940.438	766.75
1943.218	772.75
1945.997	770.08333
1948.774	785.41667
1951.549	768.75
1954.322	777.08333
1957.093	770.08333
1959.862	769.75
1962.629	760.08333
1965.394	759.41667
1968.157	734.08333
1970.918	758.41667
1973.678	745.41667
1976.435	748.75
1979.19	734.41667
1981.944	728.41667
1984.696	731.75
1987.445	731.41667
1990.193	736.75
1992.939	745.41667
1995.683	736.08333
1998.425	706.08333
2001.165	736.75
2003.903	723.08333
2006.639	718.75
2009.374	725.75
2012.106	730.08333
2014.837	695.41667
2017.566	731.41667
2020.292	718.75
2023.017	728.08333
2025.74	715.41667
2028.461	710.41667
2031.18	707.41667
2033.898	692.41667
2036.613	719.41667
2039.327	711.08333
2042.038	695.41667
2044.748	693.75
2047.456	704.75
2050.162	694.41667
2052.866	686.41667
2055.568	700.08333
2058.268	688.75
2060.967	696.41667
2063.663	676.08333
2066.358	696.08333
2069.051	684.41667
2071.742	679.08333
2074.431	684.41667
2077.118	686.41667
2079.804	677.08333
2082.487	679.08333
2085.169	695.08333
2087.849	693.08333
2090.527	683.75
2093.203	693.41667
2095.877	698.41667
2098.55	694.08333
2101.22	709.75
2103.889	709.08333
2106.556	703.75
2109.221	727.75
2111.884	742.41667
2114.546	789.41667
2117.205	843.08333
2119.863	893.08333
2122.519	952.75
2125.173	994.41667
2127.825	1059.08333
2130.475	1067.41667
2133.124	1040.41667
2135.771	1001.08333
2138.416	977.08333
2141.059	901.41667
2143.7	874.08333
2146.339	825.75
2148.977	782.75
2151.613	776.08333
2154.247	755.75
2156.879	730.08333
2159.51	717.75
2162.138	706.75
2164.765	706.08333
2167.39	690.75
2170.013	701.08333
2172.634	708.08333
2175.254	690.41667
2177.872	716.41667
2180.488	670.75
2183.102	676.08333
2185.714	661.08333
2188.325	636.75
2190.934	640.75
2193.541	639.08333
2196.146	631.41667
2198.75	624.08333
2201.351	625.75
2203.951	615.08333
2206.549	626.41667
2209.146	615.41667
2211.74	607.75
2214.333	624.08333
2216.924	598.08333
2219.514	611.41667
2222.101	597.08333
2224.687	609.75
2227.271	590.41667
2229.853	590.41667
2232.433	578.41667
2235.012	602.41667
2237.589	602.41667
2240.164	605.75
2242.738	584.41667
2245.309	576.75
2247.879	589.41667
2250.448	588.75
2253.014	568.75
2255.579	559.75
2258.142	563.08333
2260.703	546.41667
2263.262	553.75
2265.82	559.41667
2268.376	556.75
2270.93	535.75
2273.483	548.08333
2276.033	545.75
2278.583	536.08333
2281.13	535.75
2283.675	526.75
2286.219	545.41667
2288.761	539.41667
2291.302	536.08333
2293.841	538.08333
2296.377	518.08333
2298.913	525.41667
2301.446	528.75
2303.978	521.08333
2306.508	523.41667
2309.037	516.75
2311.563	522.75
2314.088	528.08333
2316.612	505.41667
2319.133	523.08333
2321.653	512.75
2324.171	497.41667
2326.688	527.08333
2329.202	500.75
2331.715	517.08333
2334.227	512.08333
2336.736	505.41667
2339.244	497.08333
2341.751	489.41667
2344.255	511.75
2346.758	499.75
2349.259	494.41667
2351.759	496.08333
2354.257	483.41667
2356.753	487.08333
2359.247	496.75
2361.74	499.75
2364.231	485.41667
2366.721	494.75
2369.209	489.08333
2371.695	493.75
2374.179	485.75
2376.662	492.75
2379.143	499.08333
2381.622	483.75
2384.1	490.75
2386.576	479.41667
2389.051	503.41667
2391.524	508.75
2393.995	492.08333
2396.464	471.41667
2398.932	482.08333
2401.398	479.41667
2403.863	477.75
2406.325	483.41667
2408.787	490.75
2411.246	479.41667
2413.704	473.75
2416.16	472.08333
2418.615	481.75
2421.068	476.41667
2423.519	481.75
2425.969	464.75
2428.417	478.08333
2430.863	498.41667
2433.308	482.08333
2435.751	475.08333
2438.193	474.08333
2440.633	480.08333
2443.071	474.08333
2445.508	459.75
2447.943	470.08333
2450.376	457.41667
2452.808	469.41667
2455.238	457.08333
2457.667	485.75
2460.093	469.41667
2462.519	452.75
2464.942	456.41667
2467.365	470.75
2469.785	463.41667
2472.204	462.75
2474.621	449.08333
2477.037	479.08333
2479.451	454.41667
2481.863	443.41667
2484.274	445.41667
2486.683	459.41667
2489.091	459.41667
2491.497	462.08333
2493.901	459.08333
2496.304	458.75
2498.705	465.41667
2501.105	460.08333
2503.503	475.75
2505.899	444.41667
2508.294	474.08333
2510.687	447.75
2513.079	441.75
2515.469	446.75
2517.858	447.41667
2520.245	468.08333
2522.63	456.75
2525.014	449.41667
2527.396	449.08333
2529.776	443.75
2532.156	457.41667
2534.533	436.75
2536.909	447.75
2539.283	431.08333
2541.656	440.41667
2544.027	468.75
2546.397	447.75
2548.765	454.41667
2551.131	438.08333
2553.496	437.75
2555.86	459.08333
2558.221	447.08333
2560.582	448.08333
2562.94	434.41667
2565.298	443.41667
2567.653	462.75
2570.007	428.41667
2572.36	452.08333
2574.711	439.41667
2577.06	464.75
2579.408	453.41667
2581.754	449.75
2584.099	444.41667
2586.442	449.41667
2588.784	450.08333
2591.124	450.41667
2593.463	443.75
2595.8	451.75
2598.135	436.08333
2600.469	442.75
2602.802	460.08333
2605.133	453.41667
2607.462	439.08333
2609.79	441.41667
2612.116	448.08333
2614.441	445.75
2616.764	446.08333
2619.086	447.41667
2621.406	433.75
2623.725	457.75
2626.042	452.41667
2628.358	448.08333
2630.672	445.41667
2632.985	460.41667
2635.296	455.41667
2637.606	452.08333
2639.914	454.08333
2642.22	450.08333
2644.525	455.41667
2646.829	451.08333
2649.131	457.41667
2651.432	463.41667
2653.731	462.75
2656.028	467.41667
2658.324	463.08333
2660.619	449.41667
2662.912	469.08333
2665.204	464.41667
2667.494	470.75
2669.782	454.08333
2672.07	455.41667
2674.355	478.41667
2676.639	463.75
2678.922	462.75
2681.203	477.08333
2683.483	461.41667
2685.761	457.08333
2688.038	471.08333
2690.313	485.41667
2692.587	467.75
2694.859	470.08333
2697.13	479.75
2699.399	474.75
2701.667	488.41667
2703.933	486.75
2706.198	485.41667
2708.461	498.08333
2710.723	496.75
2712.984	488.41667
2715.243	504.75
2717.5	495.75
2719.757	506.41667
2722.011	497.41667
2724.264	517.41667
2726.516	520.41667
2728.766	501.08333
2731.015	512.41667
2733.262	508.08333
2735.508	506.75
2737.753	507.41667
2739.996	494.75
2742.237	502.41667
2744.477	515.75
2746.716	508.75
2748.953	503.41667
2751.189	511.08333
2753.423	495.08333
2755.656	490.41667
2757.887	489.75
2760.117	490.75
2762.346	477.41667
2764.573	474.41667
2766.798	478.75
2769.022	493.41667
2771.245	483.08333
2773.467	474.08333
2775.686	491.41667
2777.905	496.08333
2780.122	512.41667
2782.337	506.75
2784.552	505.08333
2786.764	512.75
2788.976	521.08333
2791.186	524.08333
2793.394	519.75
2795.601	537.08333
2797.807	541.08333
2800.011	538.08333
2802.214	556.41667
2804.415	553.08333
2806.615	546.75
2808.814	566.08333
2811.011	575.75
2813.206	569.75
2815.401	583.08333
2817.594	603.08333
2819.785	610.41667
2821.975	591.75
2824.164	602.75
2826.351	619.75
2828.537	641.75
2830.722	644.41667
2832.905	661.41667
2835.086	673.41667
2837.267	714.75
2839.445	732.08333
2841.623	746.41667
2843.799	775.41667
2845.974	817.41667
2848.147	841.75
2850.319	861.41667
2852.489	887.08333
2854.659	887.41667
2856.826	917.08333
2858.993	938.08333
2861.158	928.41667
2863.321	922.75
2865.483	927.75
2867.644	933.08333
2869.804	932.08333
2871.962	912.08333
2874.118	938.75
2876.274	924.08333
2878.428	930.41667
2880.58	920.08333
2882.731	896.08333
2884.881	911.08333
2887.03	920.41667
2889.177	903.75
2891.322	938.08333
2893.467	919.08333
2895.61	918.75
2897.751	948.41667
2899.892	933.08333
2902.03	929.41667
2904.168	959.08333
2906.304	951.08333
2908.439	963.41667
2910.572	957.08333
2912.704	970.41667
2914.835	975.08333
2916.965	972.41667
2919.093	991.75
2921.219	955.75
2923.345	963.41667
2925.469	947.75
2927.591	937.75
2929.712	915.08333
2931.832	899.08333
2933.951	895.41667
2936.068	872.41667
2938.184	853.41667
2940.299	814.75
2942.412	807.08333
2944.524	770.41667
2946.634	764.75
2948.744	722.08333
2950.851	745.41667
2952.958	697.08333
2955.063	704.41667
2957.167	690.41667
2959.269	655.41667
2961.371	673.41667
2963.471	642.08333
2965.569	643.08333
2967.666	612.41667
2969.762	617.08333
2971.857	590.75
2973.95	578.08333
2976.042	577.41667
2978.133	557.75
2980.222	557.75
2982.31	531.41667
2984.396	522.41667
2986.482	524.75
2988.566	530.08333
2990.648	507.41667
2992.73	507.08333
2994.81	500.41667
2996.889	514.75
2998.966	501.75
3001.042	504.41667
3003.117	498.75
3005.191	487.08333
3007.263	488.41667
3009.334	479.41667
3011.403	492.08333
3013.472	458.41667
3015.539	473.75
3017.604	478.75
3019.669	439.08333
3021.732	444.41667
3023.794	453.75
3025.854	436.75
3027.914	436.75
3029.971	448.41667
3032.028	439.75
3034.083	446.75
3036.137	439.08333
3038.19	418.08333
3040.242	406.75
3042.292	389.41667
3044.341	401.08333
3046.388	414.75
3048.435	377.08333
3050.48	401.08333
3052.524	395.75
3054.566	377.41667
3056.607	397.75
3058.647	380.75
3060.686	356.75
3062.723	346.41667
3064.759	343.75
3066.794	1.41667
3068.828	-0.91667
3070.86	-3.25
