-0.839	451.625
3.438	472.625
7.711	133.95833
11.981	55.29167
16.247	44.95833
20.509	46.95833
24.768	46.29167
29.024	50.625
33.276	44.29167
37.524	52.625
41.769	39.95833
46.01	35.625
50.247	53.29167
54.481	64.95833
58.712	68.29167
62.939	50.625
67.162	60.625
71.382	54.29167
75.599	50.95833
79.812	70.29167
84.021	81.95833
88.227	62.29167
92.429	64.29167
96.628	53.29167
100.823	70.625
105.015	75.29167
109.204	76.29167
113.388	81.95833
117.57	77.29167
121.748	90.625
125.922	82.29167
130.093	100.95833
134.261	106.625
138.425	100.29167
142.585	138.95833
146.742	142.625
150.896	168.625
155.046	209.95833
159.193	321.95833
163.336	556.625
167.476	1018.95833
171.613	1882.625
175.746	3146.29167
179.875	4689.95833
184.002	6100.625
188.124	7083.95833
192.244	7400.95833
196.36	7311.95833
200.472	7130.29167
204.581	6949.95833
208.687	6758.95833
212.79	6728.95833
216.889	6756.625
220.984	6824.29167
225.077	6918.29167
229.165	7027.625
233.251	7082.95833
237.333	7114.29167
241.412	7094.625
245.487	7098.29167
249.559	7020.625
253.628	7004.29167
257.694	6965.625
261.756	6890.29167
265.814	6760.95833
269.87	6600.625
273.922	6449.29167
277.97	6360.95833
282.016	6353.625
286.058	6395.29167
290.097	6512.29167
294.132	6537.625
298.164	6455.625
302.193	6130.625
306.219	5674.95833
310.241	5154.29167
314.26	4655.29167
318.276	4271.95833
322.288	4004.625
326.297	3713.625
330.303	3545.95833
334.305	3420.29167
338.305	3333.29167
342.301	3290.95833
346.294	3235.95833
350.283	3194.95833
354.269	3170.95833
358.252	3118.625
362.232	3090.625
366.209	3056.95833
370.182	3022.29167
374.152	2982.95833
378.119	3012.95833
382.083	2978.625
386.043	2999.95833
390	2952.625
393.954	2938.29167
397.905	2907.625
401.852	2896.95833
405.797	2853.625
409.738	2811.625
413.676	2821.95833
417.61	2824.95833
421.542	2774.95833
425.47	2756.95833
429.396	2746.29167
433.318	2743.95833
437.236	2722.95833
441.152	2745.29167
445.065	2685.95833
448.974	2690.625
452.88	2642.95833
456.783	2623.95833
460.683	2619.29167
464.58	2623.95833
468.473	2638.29167
472.364	2632.625
476.251	2645.625
480.135	2668.95833
484.016	2688.625
487.894	2684.625
491.769	2695.625
495.641	2699.625
499.509	2725.625
503.375	2714.625
507.237	2703.95833
511.096	2696.95833
514.952	2739.625
518.805	2790.95833
522.655	2812.95833
526.502	2726.95833
530.346	2723.29167
534.187	2709.95833
538.024	2741.625
541.859	2720.29167
545.69	2757.29167
549.519	2717.95833
553.344	2702.29167
557.166	2646.29167
560.985	2661.29167
564.802	2595.95833
568.615	2548.29167
572.425	2530.95833
576.232	2498.29167
580.036	2494.95833
583.836	2524.29167
587.634	2503.95833
591.429	2487.625
595.221	2560.95833
599.01	2594.625
602.796	2622.625
606.578	2647.625
610.358	2640.29167
614.135	2618.95833
617.909	2614.95833
621.679	2597.625
625.447	2565.625
629.212	2583.625
632.973	2614.29167
636.732	2597.95833
640.488	2587.625
644.241	2554.95833
647.991	2551.29167
651.737	2533.625
655.481	2528.29167
659.222	2519.95833
662.96	2533.95833
666.695	2541.95833
670.427	2557.29167
674.156	2564.625
677.882	2582.95833
681.605	2575.29167
685.325	2543.625
689.043	2555.29167
692.757	2543.29167
696.468	2542.29167
700.177	2556.625
703.882	2525.95833
707.585	2530.625
711.284	2552.95833
714.981	2541.625
718.675	2582.95833
722.366	2591.29167
726.054	2552.95833
729.739	2540.29167
733.421	2560.95833
737.1	2560.29167
740.777	2581.29167
744.45	2598.625
748.121	2617.29167
751.789	2659.29167
755.453	2662.625
759.115	2666.625
762.774	2688.29167
766.431	2724.95833
770.084	2754.29167
773.734	2785.625
777.382	2819.625
781.027	2865.625
784.669	2868.625
788.308	2900.625
791.944	2924.95833
795.577	2941.29167
799.208	2964.625
802.835	2975.29167
806.46	2980.625
810.082	3017.625
813.701	3004.29167
817.317	3025.95833
820.931	3008.625
824.542	3036.625
828.149	3010.95833
831.754	2994.95833
835.357	2984.95833
838.956	2998.29167
842.553	2977.625
846.146	2964.625
849.737	2969.29167
853.326	2963.29167
856.911	2964.29167
860.493	3004.625
864.073	3046.95833
867.65	3075.95833
871.225	3134.625
874.796	3124.95833
878.365	3157.29167
881.931	3177.625
885.494	3194.95833
889.054	3153.625
892.612	3165.95833
896.166	3125.95833
899.719	3090.29167
903.268	3079.95833
906.814	3084.95833
910.358	3055.29167
913.899	3028.625
917.438	3031.625
920.973	3017.29167
924.506	3074.95833
928.036	3090.95833
931.564	3128.95833
935.088	3183.95833
938.61	3181.95833
942.129	3237.95833
945.646	3298.95833
949.16	3394.29167
952.671	3451.625
956.179	3475.95833
959.685	3415.625
963.188	3387.29167
966.688	3343.625
970.185	3254.625
973.68	3191.95833
977.173	3161.95833
980.662	3118.625
984.149	3145.95833
987.633	3141.95833
991.114	3174.95833
994.593	3292.95833
998.069	3398.95833
1001.542	3467.95833
1005.013	3391.625
1008.481	3228.29167
1011.947	3173.95833
1015.409	3149.95833
1018.869	3141.95833
1022.327	3138.29167
1025.782	3128.95833
1029.234	3128.625
1032.683	3112.95833
1036.13	2990.29167
1039.574	2887.95833
1043.016	2800.625
1046.455	2740.29167
1049.891	2718.29167
1053.325	2731.625
1056.756	2708.95833
1060.184	2755.625
1063.61	2788.625
1067.033	2786.625
1070.454	2801.29167
1073.872	2850.29167
1077.287	2846.625
1080.7	2833.29167
1084.11	2852.625
1087.517	2817.95833
1090.922	2807.29167
1094.325	2781.625
1097.724	2735.95833
1101.122	2747.29167
1104.516	2742.625
1107.908	2736.95833
1111.298	2797.95833
1114.684	2812.625
1118.069	2846.625
1121.45	2887.95833
1124.83	2886.29167
1128.206	2938.95833
1131.58	2999.29167
1134.951	3056.95833
1138.32	3151.29167
1141.687	3277.625
1145.05	3337.29167
1148.412	3368.29167
1151.77	3363.29167
1155.126	3372.95833
1158.48	3362.625
1161.831	3370.625
1165.18	3408.625
1168.525	3443.625
1171.869	3489.625
1175.21	3526.95833
1178.548	3563.625
1181.884	3589.625
1185.217	3626.29167
1188.548	3678.625
1191.877	3748.95833
1195.202	3798.29167
1198.526	3879.95833
1201.846	3903.95833
1205.165	3879.29167
1208.48	3872.29167
1211.794	3864.625
1215.104	3856.625
1218.413	3872.95833
1221.719	3858.625
1225.022	3815.625
1228.323	3778.29167
1231.621	3751.625
1234.917	3723.29167
1238.21	3771.625
1241.501	3779.625
1244.79	3739.625
1248.076	3749.29167
1251.359	3805.625
1254.64	3916.29167
1257.919	3915.29167
1261.195	3989.95833
1264.468	4048.95833
1267.74	4095.625
1271.008	4118.625
1274.275	4109.625
1277.538	4063.625
1280.8	4056.29167
1284.059	4054.29167
1287.315	4094.95833
1290.569	4116.29167
1293.821	4147.95833
1297.07	4156.95833
1300.317	4170.625
1303.562	4106.29167
1306.803	4082.29167
1310.043	4038.29167
1313.28	4015.95833
1316.515	3962.95833
1319.747	3893.29167
1322.977	3852.95833
1326.204	3813.625
1329.429	3739.625
1332.652	3701.625
1335.872	3706.625
1339.09	3670.29167
1342.306	3658.625
1345.519	3634.95833
1348.729	3614.625
1351.938	3575.625
1355.144	3530.625
1358.347	3496.625
1361.548	3506.95833
1364.747	3531.625
1367.944	3510.29167
1371.138	3527.29167
1374.329	3573.29167
1377.518	3637.29167
1380.705	3648.95833
1383.89	3601.29167
1387.072	3502.95833
1390.252	3393.95833
1393.429	3255.625
1396.605	3160.29167
1399.777	3085.625
1402.948	3049.95833
1406.116	3053.625
1409.282	3045.29167
1412.445	3063.95833
1415.606	3095.95833
1418.765	3123.95833
1421.921	3217.95833
1425.075	3264.29167
1428.227	3387.29167
1431.376	3524.29167
1434.524	3686.625
1437.668	3742.29167
1440.811	3768.625
1443.951	3779.625
1447.089	3800.625
1450.224	3806.29167
1453.357	3786.95833
1456.488	3741.29167
1459.617	3705.29167
1462.743	3656.95833
1465.867	3579.95833
1468.989	3567.625
1472.108	3484.95833
1475.225	3418.625
1478.34	3408.29167
1481.453	3412.625
1484.563	3408.95833
1487.671	3472.29167
1490.776	3538.29167
1493.88	3601.95833
1496.981	3672.95833
1500.08	3737.625
1503.176	3803.625
1506.271	3852.625
1509.363	3897.95833
1512.452	3945.29167
1515.54	4057.95833
1518.625	4128.95833
1521.708	4258.29167
1524.789	4441.95833
1527.867	4665.95833
1530.944	4940.95833
1534.018	5209.625
1537.089	5386.29167
1540.159	5418.95833
1543.226	5314.625
1546.291	5170.625
1549.354	5011.95833
1552.415	4863.29167
1555.473	4716.625
1558.529	4590.95833
1561.583	4547.29167
1564.634	4494.625
1567.684	4478.625
1570.731	4493.29167
1573.776	4522.29167
1576.819	4547.29167
1579.859	4555.29167
1582.898	4603.95833
1585.934	4638.625
1588.968	4648.29167
1591.999	4640.625
1595.029	4650.95833
1598.056	4661.625
1601.081	4651.95833
1604.104	4668.29167
1607.125	4598.29167
1610.144	4506.625
1613.16	4383.625
1616.174	4258.95833
1619.186	4140.625
1622.196	4024.29167
1625.203	3921.95833
1628.209	3855.29167
1631.212	3813.625
1634.213	3772.625
1637.212	3725.95833
1640.209	3666.625
1643.203	3575.29167
1646.196	3454.95833
1649.186	3327.625
1652.174	3248.29167
1655.16	3171.29167
1658.144	3076.29167
1661.125	2949.625
1664.105	2815.29167
1667.082	2698.95833
1670.057	2546.625
1673.03	2396.625
1676.001	2247.95833
1678.97	2119.29167
1681.937	1970.95833
1684.901	1876.625
1687.863	1824.625
1690.824	1757.29167
1693.782	1702.29167
1696.738	1666.95833
1699.692	1610.29167
1702.643	1584.625
1705.593	1534.95833
1708.54	1532.625
1711.486	1523.95833
1714.429	1491.29167
1717.37	1480.29167
1720.309	1456.95833
1723.246	1467.95833
1726.181	1430.29167
1729.113	1437.625
1732.044	1393.29167
1734.972	1395.625
1737.899	1392.29167
1740.823	1382.29167
1743.745	1379.625
1746.665	1321.29167
1749.583	1308.625
1752.499	1306.95833
1755.413	1278.29167
1758.325	1247.29167
1761.235	1252.95833
1764.142	1217.29167
1767.048	1201.95833
1769.951	1208.29167
1772.852	1186.29167
1775.752	1186.95833
1778.649	1194.95833
1781.544	1175.625
1784.437	1156.29167
1787.328	1160.625
1790.217	1146.95833
1793.104	1141.29167
1795.989	1135.29167
1798.872	1126.95833
1801.753	1129.95833
1804.631	1144.95833
1807.508	1135.95833
1810.383	1129.95833
1813.255	1115.95833
1816.126	1129.625
1818.994	1116.95833
1821.861	1098.625
1824.725	1113.95833
1827.587	1107.95833
1830.448	1096.95833
1833.306	1044.29167
1836.162	1082.95833
1839.017	1070.29167
1841.869	1066.625
1844.719	1070.625
1847.567	1052.95833
1850.414	1057.625
1853.258	1044.625
1856.1	1056.95833
1858.94	1065.625
1861.778	1063.95833
1864.614	1051.95833
1867.448	1049.625
1870.28	1035.29167
1873.111	1068.29167
1875.939	1045.95833
1878.765	1055.95833
1881.589	1038.95833
1884.411	1042.625
1887.231	1056.95833
1890.049	1027.95833
1892.865	1030.29167
1895.68	1018.625
1898.492	1025.95833
1901.302	1006.29167
1904.11	1010.625
1906.916	990.625
1909.721	1005.625
1912.523	1009.95833
1915.323	986.29167
1918.122	988.95833
1920.918	993.95833
1923.712	978.625
1926.505	990.29167
1929.295	975.29167
1932.084	991.29167
1934.87	992.625
1937.655	974.625
1940.438	971.625
1943.218	981.625
1945.997	977.29167
1948.774	992.29167
1951.549	981.95833
1954.322	965.29167
1957.093	972.625
1959.862	963.95833
1962.629	978.625
1965.394	970.625
1968.157	951.625
1970.918	956.625
1973.678	937.625
1976.435	943.625
1979.19	945.625
1981.944	934.95833
1984.696	935.29167
1987.445	921.95833
1990.193	938.29167
1992.939	950.29167
1995.683	935.29167
1998.425	922.625
2001.165	939.29167
2003.903	916.625
2006.639	927.29167
2009.374	920.95833
2012.106	929.29167
2014.837	892.625
2017.566	920.95833
2020.292	916.29167
2023.017	917.625
2025.74	913.625
2028.461	900.29167
2031.18	914.29167
2033.898	897.625
2036.613	906.625
2039.327	914.95833
2042.038	888.29167
2044.748	893.625
2047.456	895.625
2050.162	885.29167
2052.866	884.29167
2055.568	887.29167
2058.268	881.95833
2060.967	893.29167
2063.663	873.625
2066.358	876.95833
2069.051	870.95833
2071.742	885.29167
2074.431	890.625
2077.118	875.29167
2079.804	868.29167
2082.487	881.29167
2085.169	887.95833
2087.849	897.625
2090.527	881.95833
2093.203	893.625
2095.877	905.95833
2098.55	896.95833
2101.22	918.625
2103.889	927.625
2106.556	949.29167
2109.221	966.29167
2111.884	992.29167
2114.546	1060.625
2117.205	1130.625
2119.863	1222.95833
2122.519	1290.29167
2125.173	1349.29167
2127.825	1437.29167
2130.475	1452.625
2133.124	1396.29167
2135.771	1348.625
2138.416	1306.29167
2141.059	1215.29167
2143.7	1166.95833
2146.339	1097.95833
2148.977	1053.29167
2151.613	1041.625
2154.247	1013.625
2156.879	980.95833
2159.51	954.29167
2162.138	951.29167
2164.765	939.625
2167.39	913.95833
2170.013	928.625
2172.634	927.625
2175.254	913.625
2177.872	928.29167
2180.488	877.95833
2183.102	897.95833
2185.714	863.625
2188.325	835.95833
2190.934	864.95833
2193.541	855.625
2196.146	840.625
2198.75	820.95833
2201.351	836.625
2203.951	803.29167
2206.549	826.95833
2209.146	800.29167
2211.74	793.29167
2214.333	809.625
2216.924	773.625
2219.514	794.625
2222.101	776.95833
2224.687	798.625
2227.271	778.95833
2229.853	778.95833
2232.433	754.95833
2235.012	783.29167
2237.589	778.625
2240.164	785.29167
2242.738	765.95833
2245.309	763.95833
2247.879	763.625
2250.448	770.29167
2253.014	737.29167
2255.579	730.95833
2258.142	720.29167
2260.703	727.95833
2263.262	711.95833
2265.82	722.625
2268.376	722.625
2270.93	716.95833
2273.483	704.95833
2276.033	711.29167
2278.583	698.29167
2281.13	703.95833
2283.675	699.625
2286.219	708.625
2288.761	696.95833
2291.302	707.95833
2293.841	699.29167
2296.377	674.29167
2298.913	682.625
2301.446	687.625
2303.978	678.95833
2306.508	679.625
2309.037	680.625
2311.563	676.625
2314.088	681.95833
2316.612	661.29167
2319.133	676.95833
2321.653	661.29167
2324.171	656.95833
2326.688	666.625
2329.202	658.625
2331.715	659.29167
2334.227	659.625
2336.736	649.95833
2339.244	639.95833
2341.751	643.95833
2344.255	649.625
2346.758	641.625
2349.259	642.29167
2351.759	636.95833
2354.257	639.29167
2356.753	642.95833
2359.247	645.625
2361.74	642.29167
2364.231	634.625
2366.721	647.95833
2369.209	629.95833
2371.695	638.29167
2374.179	626.29167
2376.662	627.95833
2379.143	638.625
2381.622	624.95833
2384.1	629.625
2386.576	630.29167
2389.051	632.95833
2391.524	641.95833
2393.995	643.95833
2396.464	618.625
2398.932	613.625
2401.398	611.95833
2403.863	611.625
2406.325	617.625
2408.787	615.29167
2411.246	608.625
2413.704	607.29167
2416.16	606.29167
2418.615	610.29167
2421.068	623.95833
2423.519	602.29167
2425.969	601.625
2428.417	624.625
2430.863	633.625
2433.308	622.95833
2435.751	614.625
2438.193	611.625
2440.633	612.95833
2443.071	600.625
2445.508	584.95833
2447.943	597.625
2450.376	597.625
2452.808	599.95833
2455.238	594.625
2457.667	615.625
2460.093	598.625
2462.519	586.29167
2464.942	589.29167
2467.365	599.95833
2469.785	595.29167
2472.204	593.625
2474.621	572.29167
2477.037	607.29167
2479.451	572.625
2481.863	580.625
2484.274	581.95833
2486.683	578.95833
2489.091	597.95833
2491.497	586.95833
2493.901	582.625
2496.304	591.625
2498.705	583.29167
2501.105	570.95833
2503.503	611.625
2505.899	566.625
2508.294	595.95833
2510.687	577.625
2513.079	566.625
2515.469	565.625
2517.858	571.95833
2520.245	588.625
2522.63	563.95833
2525.014	565.29167
2527.396	561.29167
2529.776	559.29167
2532.156	573.29167
2534.533	553.29167
2536.909	557.95833
2539.283	554.29167
2541.656	565.95833
2544.027	589.625
2546.397	566.625
2548.765	558.29167
2551.131	558.29167
2553.496	560.95833
2555.86	568.625
2558.221	564.29167
2560.582	559.625
2562.94	556.29167
2565.298	556.95833
2567.653	584.29167
2570.007	547.29167
2572.36	563.95833
2574.711	548.625
2577.06	578.95833
2579.408	548.95833
2581.754	556.29167
2584.099	553.95833
2586.442	558.625
2588.784	559.29167
2591.124	562.95833
2593.463	553.29167
2595.8	563.29167
2598.135	537.625
2600.469	553.95833
2602.802	562.29167
2605.133	561.29167
2607.462	549.29167
2609.79	548.625
2612.116	557.95833
2614.441	549.95833
2616.764	566.29167
2619.086	555.625
2621.406	546.95833
2623.725	564.29167
2626.042	566.625
2628.358	551.625
2630.672	552.625
2632.985	568.625
2635.296	563.625
2637.606	554.625
2639.914	550.625
2642.22	568.95833
2644.525	555.95833
2646.829	559.29167
2649.131	573.29167
2651.432	581.29167
2653.731	555.95833
2656.028	577.95833
2658.324	562.625
2660.619	569.95833
2662.912	584.95833
2665.204	569.625
2667.494	570.625
2669.782	559.625
2672.07	576.625
2674.355	588.95833
2676.639	571.29167
2678.922	568.95833
2681.203	587.29167
2683.483	566.95833
2685.761	569.95833
2688.038	586.625
2690.313	600.95833
2692.587	582.95833
2694.859	570.625
2697.13	588.29167
2699.399	586.29167
2701.667	602.95833
2703.933	596.29167
2706.198	595.95833
2708.461	609.625
2710.723	605.95833
2712.984	619.625
2715.243	608.29167
2717.5	619.29167
2719.757	630.625
2722.011	627.29167
2724.264	638.29167
2726.516	652.625
2728.766	622.95833
2731.015	630.625
2733.262	621.29167
2735.508	622.625
2737.753	624.29167
2739.996	620.95833
2742.237	606.625
2744.477	625.29167
2746.716	620.29167
2748.953	611.29167
2751.189	612.625
2753.423	597.95833
2755.656	589.95833
2757.887	597.625
2760.117	605.625
2762.346	587.625
2764.573	586.95833
2766.798	600.95833
2769.022	594.625
2771.245	600.625
2773.467	609.625
2775.686	617.29167
2777.905	612.625
2780.122	623.95833
2782.337	634.29167
2784.552	631.29167
2786.764	638.625
2788.976	638.29167
2791.186	661.29167
2793.394	658.95833
2795.601	665.29167
2797.807	676.29167
2800.011	686.625
2802.214	708.95833
2804.415	697.29167
2806.615	697.625
2808.814	717.625
2811.011	728.95833
2813.206	735.95833
2815.401	750.95833
2817.594	764.95833
2819.785	770.29167
2821.975	775.625
2824.164	788.625
2826.351	807.625
2828.537	829.625
2830.722	840.95833
2832.905	840.95833
2835.086	880.29167
2837.267	919.625
2839.445	953.95833
2841.623	971.95833
2843.799	1001.625
2845.974	1048.95833
2848.147	1085.95833
2850.319	1106.625
2852.489	1142.29167
2854.659	1156.625
2856.826	1154.29167
2858.993	1200.95833
2861.158	1178.625
2863.321	1173.95833
2865.483	1195.95833
2867.644	1209.29167
2869.804	1189.29167
2871.962	1181.625
2874.118	1195.95833
2876.274	1180.95833
2878.428	1188.29167
2880.58	1164.29167
2882.731	1153.625
2884.881	1180.625
2887.03	1168.95833
2889.177	1179.29167
2891.322	1183.29167
2893.467	1187.29167
2895.61	1180.625
2897.751	1203.95833
2899.892	1207.29167
2902.03	1213.29167
2904.168	1213.29167
2906.304	1215.625
2908.439	1237.625
2910.572	1215.29167
2912.704	1224.29167
2914.835	1234.625
2916.965	1224.625
2919.093	1236.625
2921.219	1192.29167
2923.345	1206.29167
2925.469	1200.29167
2927.591	1176.625
2929.712	1122.29167
2931.832	1122.29167
2933.951	1101.625
2936.068	1072.29167
2938.184	1035.625
2940.299	1009.29167
2942.412	978.625
2944.524	940.625
2946.634	929.29167
2948.744	882.29167
2950.851	889.95833
2952.958	855.29167
2955.063	832.29167
2957.167	812.29167
2959.269	784.95833
2961.371	804.95833
2963.471	752.625
2965.569	746.29167
2967.666	722.29167
2969.762	708.625
2971.857	685.29167
2973.95	672.29167
2976.042	659.95833
2978.133	637.95833
2980.222	626.29167
2982.31	604.95833
2984.396	584.625
2986.482	591.29167
2988.566	585.95833
2990.648	569.625
2992.73	566.95833
2994.81	558.625
2996.889	558.95833
2998.966	556.95833
3001.042	553.625
3003.117	542.29167
3005.191	543.95833
3007.263	533.29167
3009.334	531.625
3011.403	514.95833
3013.472	504.625
3015.539	511.625
3017.604	508.95833
3019.669	488.29167
3021.732	481.95833
3023.794	490.29167
3025.854	462.29167
3027.914	464.95833
3029.971	474.95833
3032.028	461.95833
3034.083	469.29167
3036.137	471.95833
3038.19	441.95833
3040.242	436.29167
3042.292	504.625
3044.341	458.625
3046.388	432.29167
3048.435	401.29167
3050.48	424.95833
3052.524	420.625
3054.566	392.625
3056.607	403.625
3058.647	399.95833
3060.686	377.95833
3062.723	362.625
3064.759	356.29167
3066.794	1.29167
3068.828	-0.04167
3070.86	-0.70833
