-0.839	447.375
3.438	480.70833
7.711	135.70833
11.981	53.375
16.247	46.70833
20.509	41.70833
24.768	42.375
29.024	44.70833
33.276	43.375
37.524	51.70833
41.769	40.375
46.01	37.375
50.247	53.04167
54.481	62.375
58.712	69.375
62.939	52.375
67.162	64.70833
71.382	54.375
75.599	46.375
79.812	66.375
84.021	81.375
88.227	58.375
92.429	63.70833
96.628	51.04167
100.823	70.70833
105.015	76.375
109.204	78.04167
113.388	77.70833
117.57	74.04167
121.748	90.70833
125.922	81.375
130.093	99.70833
134.261	108.70833
138.425	99.375
142.585	146.375
146.742	143.04167
150.896	172.04167
155.046	198.375
159.193	328.375
163.336	559.70833
167.476	1009.04167
171.613	1890.04167
175.746	3157.70833
179.875	4695.70833
184.002	6101.70833
188.124	7068.375
192.244	7373.04167
196.36	7295.04167
200.472	7108.70833
204.581	6946.375
208.687	6765.375
212.79	6728.70833
216.889	6730.375
220.984	6859.04167
225.077	6926.375
229.165	6991.04167
233.251	7073.70833
237.333	7092.375
241.412	7095.04167
245.487	7098.70833
249.559	7031.70833
253.628	6994.375
257.694	6969.70833
261.756	6865.04167
265.814	6756.70833
269.87	6603.375
273.922	6446.375
277.97	6383.375
282.016	6381.04167
286.058	6418.04167
290.097	6492.375
294.132	6538.04167
298.164	6461.04167
302.193	6127.04167
306.219	5717.375
310.241	5163.70833
314.26	4673.70833
318.276	4289.375
322.288	3978.04167
326.297	3727.04167
330.303	3517.375
334.305	3404.375
338.305	3345.70833
342.301	3279.375
346.294	3242.04167
350.283	3206.375
354.269	3152.04167
358.252	3102.04167
362.232	3101.375
366.209	3063.375
370.182	3014.70833
374.152	2974.70833
378.119	3008.70833
382.083	2984.70833
386.043	2994.70833
390	2931.70833
393.954	2935.04167
397.905	2914.375
401.852	2914.375
405.797	2844.70833
409.738	2820.375
413.676	2848.04167
417.61	2820.70833
421.542	2788.70833
425.47	2757.375
429.396	2744.375
433.318	2730.70833
437.236	2728.375
441.152	2731.70833
445.065	2668.70833
448.974	2678.04167
452.88	2665.70833
456.783	2634.70833
460.683	2628.04167
464.58	2630.70833
468.473	2636.375
472.364	2637.70833
476.251	2657.375
480.135	2651.70833
484.016	2677.04167
487.894	2699.70833
491.769	2712.04167
495.641	2713.04167
499.509	2703.04167
503.375	2711.375
507.237	2716.70833
511.096	2708.04167
514.952	2750.375
518.805	2782.70833
522.655	2787.375
526.502	2724.375
530.346	2706.375
534.187	2728.04167
538.024	2743.375
541.859	2714.375
545.69	2753.70833
549.519	2716.375
553.344	2719.04167
557.166	2658.70833
560.985	2638.04167
564.802	2594.70833
568.615	2558.70833
572.425	2521.70833
576.232	2510.70833
580.036	2485.70833
583.836	2504.375
587.634	2500.375
591.429	2510.70833
595.221	2541.70833
599.01	2566.375
602.796	2608.375
606.578	2631.375
610.358	2637.04167
614.135	2625.70833
617.909	2607.375
621.679	2603.70833
625.447	2597.70833
629.212	2619.70833
632.973	2599.04167
636.732	2584.375
640.488	2588.70833
644.241	2551.70833
647.991	2532.70833
651.737	2565.04167
655.481	2528.70833
659.222	2517.04167
662.96	2517.04167
666.695	2548.04167
670.427	2545.70833
674.156	2589.375
677.882	2559.70833
681.605	2573.70833
685.325	2546.375
689.043	2565.04167
692.757	2529.70833
696.468	2541.70833
700.177	2567.04167
703.882	2534.04167
707.585	2533.04167
711.284	2543.04167
714.981	2533.375
718.675	2560.70833
722.366	2571.375
726.054	2546.375
729.739	2545.375
733.421	2573.70833
737.1	2565.375
740.777	2581.04167
744.45	2582.375
748.121	2607.70833
751.789	2656.70833
755.453	2646.04167
759.115	2672.70833
762.774	2702.375
766.431	2724.375
770.084	2757.70833
773.734	2767.04167
777.382	2831.375
781.027	2876.375
784.669	2888.375
788.308	2890.375
791.944	2911.70833
795.577	2951.70833
799.208	2958.04167
802.835	2995.375
806.46	2986.70833
810.082	3013.70833
813.701	3005.04167
817.317	3024.04167
820.931	3025.70833
824.542	3028.04167
828.149	2991.70833
831.754	2984.375
835.357	2980.04167
838.956	2990.70833
842.553	2981.375
846.146	2968.04167
849.737	2962.70833
853.326	2974.375
856.911	2976.04167
860.493	3028.70833
864.073	3034.70833
867.65	3089.375
871.225	3120.04167
874.796	3125.04167
878.365	3153.375
881.931	3148.04167
885.494	3178.04167
889.054	3175.70833
892.612	3196.04167
896.166	3140.04167
899.719	3125.375
903.268	3080.375
906.814	3082.04167
910.358	3055.375
913.899	3035.375
917.438	3046.70833
920.973	3026.70833
924.506	3066.04167
928.036	3113.70833
931.564	3138.375
935.088	3169.04167
938.61	3184.375
942.129	3233.70833
945.646	3314.70833
949.16	3390.04167
952.671	3471.04167
956.179	3454.70833
959.685	3439.70833
963.188	3392.70833
966.688	3333.375
970.185	3262.04167
973.68	3201.70833
977.173	3163.04167
980.662	3119.70833
984.149	3140.04167
987.633	3136.70833
991.114	3187.04167
994.593	3300.375
998.069	3376.04167
1001.542	3481.04167
1005.013	3413.70833
1008.481	3217.04167
1011.947	3144.70833
1015.409	3143.375
1018.869	3166.375
1022.327	3167.04167
1025.782	3132.70833
1029.234	3134.375
1032.683	3107.375
1036.13	2988.70833
1039.574	2877.04167
1043.016	2807.04167
1046.455	2755.375
1049.891	2741.70833
1053.325	2748.04167
1056.756	2760.04167
1060.184	2770.04167
1063.61	2792.375
1067.033	2811.70833
1070.454	2811.04167
1073.872	2823.70833
1077.287	2823.70833
1080.7	2843.04167
1084.11	2852.04167
1087.517	2834.04167
1090.922	2801.04167
1094.325	2778.375
1097.724	2750.375
1101.122	2754.70833
1104.516	2733.04167
1107.908	2748.70833
1111.298	2807.70833
1114.684	2830.70833
1118.069	2861.04167
1121.45	2870.04167
1124.83	2900.04167
1128.206	2939.375
1131.58	2983.375
1134.951	3088.70833
1138.32	3164.70833
1141.687	3287.70833
1145.05	3394.04167
1148.412	3394.70833
1151.77	3366.375
1155.126	3394.375
1158.48	3382.375
1161.831	3394.70833
1165.18	3398.04167
1168.525	3454.04167
1171.869	3497.04167
1175.21	3512.375
1178.548	3582.375
1181.884	3606.04167
1185.217	3616.70833
1188.548	3683.375
1191.877	3740.375
1195.202	3826.70833
1198.526	3889.375
1201.846	3898.70833
1205.165	3907.04167
1208.48	3900.70833
1211.794	3872.70833
1215.104	3862.70833
1218.413	3869.70833
1221.719	3867.70833
1225.022	3823.04167
1228.323	3791.70833
1231.621	3792.375
1234.917	3774.375
1238.21	3817.04167
1241.501	3774.04167
1244.79	3768.04167
1248.076	3769.70833
1251.359	3841.375
1254.64	3908.375
1257.919	3934.04167
1261.195	3994.375
1264.468	4051.375
1267.74	4125.70833
1271.008	4121.04167
1274.275	4094.04167
1277.538	4085.70833
1280.8	4050.70833
1284.059	4060.375
1287.315	4112.04167
1290.569	4116.70833
1293.821	4151.70833
1297.07	4154.375
1300.317	4160.375
1303.562	4137.70833
1306.803	4090.375
1310.043	4043.70833
1313.28	3998.04167
1316.515	3961.375
1319.747	3903.04167
1322.977	3855.70833
1326.204	3808.04167
1329.429	3753.70833
1332.652	3702.70833
1335.872	3697.70833
1339.09	3654.04167
1342.306	3685.04167
1345.519	3638.375
1348.729	3608.70833
1351.938	3578.70833
1355.144	3539.04167
1358.347	3470.70833
1361.548	3516.04167
1364.747	3511.70833
1367.944	3498.70833
1371.138	3530.375
1374.329	3595.70833
1377.518	3607.70833
1380.705	3654.70833
1383.89	3609.04167
1387.072	3518.04167
1390.252	3373.04167
1393.429	3245.70833
1396.605	3164.04167
1399.777	3093.04167
1402.948	3058.375
1406.116	3041.04167
1409.282	3052.375
1412.445	3066.70833
1415.606	3096.70833
1418.765	3145.70833
1421.921	3236.04167
1425.075	3296.375
1428.227	3413.04167
1431.376	3558.70833
1434.524	3681.04167
1437.668	3752.70833
1440.811	3793.04167
1443.951	3818.70833
1447.089	3813.04167
1450.224	3793.375
1453.357	3786.375
1456.488	3746.04167
1459.617	3712.375
1462.743	3672.70833
1465.867	3610.375
1468.989	3557.375
1472.108	3505.70833
1475.225	3446.70833
1478.34	3431.04167
1481.453	3422.70833
1484.563	3429.375
1487.671	3486.375
1490.776	3540.70833
1493.88	3616.70833
1496.981	3661.70833
1500.08	3753.70833
1503.176	3807.04167
1506.271	3823.04167
1509.363	3915.04167
1512.452	3985.04167
1515.54	4058.04167
1518.625	4130.70833
1521.708	4278.70833
1524.789	4446.70833
1527.867	4687.375
1530.944	4946.70833
1534.018	5210.70833
1537.089	5394.375
1540.159	5402.70833
1543.226	5314.70833
1546.291	5144.375
1549.354	5028.04167
1552.415	4887.375
1555.473	4710.70833
1558.529	4623.70833
1561.583	4574.375
1564.634	4482.04167
1567.684	4483.04167
1570.731	4510.375
1573.776	4522.375
1576.819	4541.375
1579.859	4586.375
1582.898	4638.04167
1585.934	4649.04167
1588.968	4666.375
1591.999	4633.70833
1595.029	4639.70833
1598.056	4654.04167
1601.081	4679.70833
1604.104	4657.375
1607.125	4585.04167
1610.144	4464.70833
1613.16	4387.375
1616.174	4263.70833
1619.186	4143.70833
1622.196	4032.04167
1625.203	3921.70833
1628.209	3866.70833
1631.212	3838.70833
1634.213	3785.04167
1637.212	3736.04167
1640.209	3656.04167
1643.203	3544.375
1646.196	3454.04167
1649.186	3327.375
1652.174	3252.04167
1655.16	3154.70833
1658.144	3076.70833
1661.125	2925.375
1664.105	2821.70833
1667.082	2706.70833
1670.057	2546.375
1673.03	2401.375
1676.001	2243.375
1678.97	2121.04167
1681.937	1997.375
1684.901	1876.04167
1687.863	1813.04167
1690.824	1744.04167
1693.782	1704.70833
1696.738	1646.70833
1699.692	1618.375
1702.643	1573.70833
1705.593	1561.04167
1708.54	1535.04167
1711.486	1522.70833
1714.429	1490.04167
1717.37	1478.04167
1720.309	1470.70833
1723.246	1466.375
1726.181	1425.70833
1729.113	1441.04167
1732.044	1416.70833
1734.972	1392.70833
1737.899	1386.04167
1740.823	1373.70833
1743.745	1378.04167
1746.665	1324.70833
1749.583	1299.04167
1752.499	1289.70833
1755.413	1287.375
1758.325	1246.375
1761.235	1250.04167
1764.142	1210.04167
1767.048	1212.375
1769.951	1200.70833
1772.852	1187.70833
1775.752	1192.04167
1778.649	1187.375
1781.544	1182.70833
1784.437	1155.04167
1787.328	1169.04167
1790.217	1158.04167
1793.104	1140.375
1795.989	1129.04167
1798.872	1138.70833
1801.753	1142.04167
1804.631	1143.375
1807.508	1135.375
1810.383	1127.70833
1813.255	1127.04167
1816.126	1130.375
1818.994	1108.375
1821.861	1107.375
1824.725	1099.375
1827.587	1104.70833
1830.448	1093.70833
1833.306	1044.375
1836.162	1079.70833
1839.017	1070.04167
1841.869	1067.04167
1844.719	1072.04167
1847.567	1047.04167
1850.414	1040.04167
1853.258	1046.04167
1856.1	1062.04167
1858.94	1076.375
1861.778	1054.375
1864.614	1040.04167
1867.448	1051.70833
1870.28	1042.04167
1873.111	1053.04167
1875.939	1044.375
1878.765	1060.70833
1881.589	1039.04167
1884.411	1041.04167
1887.231	1041.375
1890.049	1023.375
1892.865	1026.04167
1895.68	1014.70833
1898.492	1013.375
1901.302	1016.04167
1904.11	1001.04167
1906.916	1001.375
1909.721	995.375
1912.523	1005.70833
1915.323	972.70833
1918.122	1001.04167
1920.918	1004.375
1923.712	982.04167
1926.505	997.375
1929.295	989.375
1932.084	987.70833
1934.87	993.70833
1937.655	985.04167
1940.438	977.375
1943.218	974.04167
1945.997	999.70833
1948.774	991.375
1951.549	988.04167
1954.322	974.375
1957.093	982.04167
1959.862	970.70833
1962.629	962.70833
1965.394	953.04167
1968.157	952.70833
1970.918	959.375
1973.678	948.375
1976.435	951.04167
1979.19	938.04167
1981.944	942.04167
1984.696	941.375
1987.445	930.70833
1990.193	935.70833
1992.939	940.04167
1995.683	936.70833
1998.425	914.375
2001.165	939.04167
2003.903	923.70833
2006.639	915.04167
2009.374	909.375
2012.106	934.375
2014.837	899.375
2017.566	911.04167
2020.292	917.04167
2023.017	919.70833
2025.74	904.70833
2028.461	913.04167
2031.18	915.04167
2033.898	888.70833
2036.613	906.375
2039.327	905.70833
2042.038	876.70833
2044.748	909.375
2047.456	894.70833
2050.162	875.375
2052.866	880.70833
2055.568	889.04167
2058.268	876.70833
2060.967	889.70833
2063.663	877.04167
2066.358	887.04167
2069.051	869.375
2071.742	876.70833
2074.431	887.375
2077.118	860.70833
2079.804	862.70833
2082.487	881.375
2085.169	892.70833
2087.849	907.375
2090.527	893.70833
2093.203	892.375
2095.877	894.70833
2098.55	904.375
2101.22	914.70833
2103.889	920.70833
2106.556	936.70833
2109.221	974.70833
2111.884	982.70833
2114.546	1062.04167
2117.205	1125.04167
2119.863	1225.70833
2122.519	1296.375
2125.173	1377.70833
2127.825	1455.70833
2130.475	1445.375
2133.124	1408.70833
2135.771	1346.04167
2138.416	1289.375
2141.059	1204.70833
2143.7	1171.375
2146.339	1095.04167
2148.977	1037.70833
2151.613	1039.70833
2154.247	1007.375
2156.879	987.70833
2159.51	953.375
2162.138	939.70833
2164.765	928.375
2167.39	922.04167
2170.013	931.70833
2172.634	934.04167
2175.254	919.04167
2177.872	916.04167
2180.488	886.375
2183.102	892.04167
2185.714	866.375
2188.325	854.375
2190.934	857.375
2193.541	854.70833
2196.146	837.375
2198.75	832.70833
2201.351	824.375
2203.951	814.70833
2206.549	836.04167
2209.146	807.375
2211.74	793.04167
2214.333	814.375
2216.924	776.70833
2219.514	786.375
2222.101	777.70833
2224.687	797.04167
2227.271	781.04167
2229.853	770.04167
2232.433	753.375
2235.012	782.70833
2237.589	785.04167
2240.164	783.70833
2242.738	779.375
2245.309	753.375
2247.879	760.70833
2250.448	759.375
2253.014	744.70833
2255.579	730.70833
2258.142	737.70833
2260.703	712.375
2263.262	724.70833
2265.82	713.70833
2268.376	723.70833
2270.93	713.375
2273.483	702.375
2276.033	715.375
2278.583	694.70833
2281.13	701.04167
2283.675	684.04167
2286.219	686.70833
2288.761	700.375
2291.302	701.375
2293.841	697.70833
2296.377	676.04167
2298.913	678.375
2301.446	689.04167
2303.978	673.70833
2306.508	669.04167
2309.037	680.04167
2311.563	685.04167
2314.088	676.04167
2316.612	656.375
2319.133	664.70833
2321.653	659.375
2324.171	657.04167
2326.688	672.375
2329.202	652.375
2331.715	675.04167
2334.227	670.375
2336.736	659.375
2339.244	649.375
2341.751	636.70833
2344.255	656.375
2346.758	646.70833
2349.259	629.375
2351.759	639.375
2354.257	641.375
2356.753	635.375
2359.247	643.70833
2361.74	645.70833
2364.231	638.70833
2366.721	648.70833
2369.209	617.375
2371.695	648.70833
2374.179	630.04167
2376.662	622.04167
2379.143	644.04167
2381.622	632.375
2384.1	641.04167
2386.576	617.375
2389.051	644.04167
2391.524	646.70833
2393.995	634.04167
2396.464	628.04167
2398.932	623.70833
2401.398	636.70833
2403.863	611.04167
2406.325	618.70833
2408.787	612.70833
2411.246	621.70833
2413.704	610.375
2416.16	614.04167
2418.615	609.375
2421.068	619.375
2423.519	604.04167
2425.969	614.375
2428.417	610.375
2430.863	641.04167
2433.308	613.04167
2435.751	611.04167
2438.193	598.70833
2440.633	603.70833
2443.071	602.04167
2445.508	593.04167
2447.943	586.04167
2450.376	590.70833
2452.808	592.70833
2455.238	590.04167
2457.667	620.375
2460.093	594.375
2462.519	584.04167
2464.942	585.375
2467.365	595.70833
2469.785	598.375
2472.204	589.04167
2474.621	580.70833
2477.037	606.375
2479.451	580.375
2481.863	579.04167
2484.274	582.04167
2486.683	579.04167
2489.091	587.375
2491.497	580.375
2493.901	590.70833
2496.304	580.04167
2498.705	586.04167
2501.105	578.375
2503.503	596.70833
2505.899	564.375
2508.294	587.04167
2510.687	574.04167
2513.079	577.04167
2515.469	558.375
2517.858	570.70833
2520.245	581.375
2522.63	565.04167
2525.014	560.70833
2527.396	561.04167
2529.776	563.04167
2532.156	577.375
2534.533	555.375
2536.909	570.375
2539.283	550.70833
2541.656	565.70833
2544.027	589.70833
2546.397	569.375
2548.765	567.04167
2551.131	552.375
2553.496	555.70833
2555.86	558.70833
2558.221	565.375
2560.582	560.70833
2562.94	541.04167
2565.298	560.04167
2567.653	580.04167
2570.007	550.70833
2572.36	566.375
2574.711	550.375
2577.06	575.70833
2579.408	564.375
2581.754	560.70833
2584.099	554.375
2586.442	556.70833
2588.784	554.04167
2591.124	568.04167
2593.463	554.70833
2595.8	563.375
2598.135	545.375
2600.469	558.375
2602.802	560.375
2605.133	565.375
2607.462	543.375
2609.79	533.70833
2612.116	568.04167
2614.441	554.04167
2616.764	551.375
2619.086	563.04167
2621.406	554.70833
2623.725	570.70833
2626.042	558.04167
2628.358	544.04167
2630.672	555.04167
2632.985	570.04167
2635.296	566.70833
2637.606	565.375
2639.914	557.04167
2642.22	555.04167
2644.525	555.04167
2646.829	576.375
2649.131	572.70833
2651.432	572.70833
2653.731	571.04167
2656.028	582.70833
2658.324	577.04167
2660.619	566.70833
2662.912	595.70833
2665.204	563.375
2667.494	575.04167
2669.782	554.375
2672.07	576.70833
2674.355	588.70833
2676.639	579.04167
2678.922	564.70833
2681.203	577.70833
2683.483	572.375
2685.761	569.70833
2688.038	579.04167
2690.313	598.04167
2692.587	579.70833
2694.859	570.04167
2697.13	584.04167
2699.399	594.04167
2701.667	609.04167
2703.933	606.375
2706.198	601.375
2708.461	616.04167
2710.723	622.375
2712.984	604.70833
2715.243	618.375
2717.5	614.375
2719.757	626.04167
2722.011	624.70833
2724.264	629.375
2726.516	644.04167
2728.766	625.70833
2731.015	632.04167
2733.262	629.04167
2735.508	632.04167
2737.753	620.375
2739.996	613.375
2742.237	606.70833
2744.477	626.70833
2746.716	625.04167
2748.953	609.70833
2751.189	618.375
2753.423	608.70833
2755.656	600.375
2757.887	600.70833
2760.117	592.04167
2762.346	595.70833
2764.573	593.70833
2766.798	598.70833
2769.022	600.70833
2771.245	603.04167
2773.467	603.70833
2775.686	618.04167
2777.905	623.375
2780.122	628.70833
2782.337	639.04167
2784.552	627.375
2786.764	650.70833
2788.976	637.04167
2791.186	650.04167
2793.394	662.375
2795.601	673.375
2797.807	690.375
2800.011	694.375
2802.214	697.70833
2804.415	692.70833
2806.615	723.04167
2808.814	723.04167
2811.011	740.70833
2813.206	730.375
2815.401	755.04167
2817.594	754.04167
2819.785	777.70833
2821.975	765.375
2824.164	780.04167
2826.351	805.70833
2828.537	836.04167
2830.722	836.375
2832.905	851.70833
2835.086	877.375
2837.267	913.70833
2839.445	934.70833
2841.623	972.04167
2843.799	1007.375
2845.974	1057.04167
2848.147	1079.04167
2850.319	1106.375
2852.489	1151.04167
2854.659	1156.04167
2856.826	1173.04167
2858.993	1196.375
2861.158	1180.04167
2863.321	1191.375
2865.483	1217.70833
2867.644	1208.04167
2869.804	1199.70833
2871.962	1181.70833
2874.118	1187.70833
2876.274	1182.04167
2878.428	1181.04167
2880.58	1180.04167
2882.731	1156.70833
2884.881	1172.375
2887.03	1173.70833
2889.177	1164.375
2891.322	1181.375
2893.467	1173.04167
2895.61	1183.375
2897.751	1204.04167
2899.892	1191.04167
2902.03	1212.04167
2904.168	1211.70833
2906.304	1208.04167
2908.439	1238.04167
2910.572	1214.70833
2912.704	1244.04167
2914.835	1237.04167
2916.965	1222.375
2919.093	1226.375
2921.219	1198.04167
2923.345	1214.04167
2925.469	1199.70833
2927.591	1170.375
2929.712	1128.70833
2931.832	1141.375
2933.951	1101.70833
2936.068	1061.04167
2938.184	1042.04167
2940.299	999.04167
2942.412	980.70833
2944.524	941.04167
2946.634	934.70833
2948.744	863.70833
2950.851	887.70833
2952.958	843.04167
2955.063	827.70833
2957.167	812.375
2959.269	772.04167
2961.371	803.70833
2963.471	750.375
2965.569	749.04167
2967.666	724.70833
2969.762	705.04167
2971.857	694.70833
2973.95	661.70833
2976.042	664.04167
2978.133	640.70833
2980.222	626.375
2982.31	598.375
2984.396	586.70833
2986.482	589.375
2988.566	586.70833
2990.648	564.375
2992.73	570.04167
2994.81	553.04167
2996.889	559.375
2998.966	554.375
3001.042	551.375
3003.117	539.70833
3005.191	540.375
3007.263	532.375
3009.334	527.04167
3011.403	524.375
3013.472	501.04167
3015.539	500.70833
3017.604	503.375
3019.669	475.70833
3021.732	479.375
3023.794	470.70833
3025.854	469.70833
3027.914	466.70833
3029.971	462.04167
3032.028	464.375
3034.083	462.375
3036.137	462.04167
3038.19	438.375
3040.242	435.70833
3042.292	416.70833
3044.341	415.375
3046.388	432.375
3048.435	402.04167
3050.48	428.70833
3052.524	417.375
3054.566	385.375
3056.607	406.04167
3058.647	402.04167
3060.686	375.375
3062.723	366.70833
3064.759	359.04167
3066.794	0.70833
3068.828	-1.29167
3070.86	-0.95833
