-0.839	502.08333
3.438	536.75
7.711	145.75
11.981	56.08333
16.247	44.41667
20.509	43.08333
24.768	43.75
29.024	47.41667
33.276	38.08333
37.524	47.75
41.769	41.75
46.01	35.41667
50.247	49.75
54.481	57.75
58.712	68.75
62.939	47.08333
67.162	59.08333
71.382	52.75
75.599	41.08333
79.812	63.41667
84.021	73.75
88.227	57.75
92.429	57.75
96.628	48.41667
100.823	63.75
105.015	74.75
109.204	72.08333
113.388	75.75
117.57	67.75
121.748	87.75
125.922	77.75
130.093	93.08333
134.261	101.75
138.425	94.41667
142.585	134.41667
146.742	130.75
150.896	161.41667
155.046	200.41667
159.193	320.75
163.336	554.08333
167.476	1006.08333
171.613	1839.75
175.746	3058.41667
179.875	4481.75
184.002	5766.08333
188.124	6572.41667
192.244	6801.75
196.36	6668.08333
200.472	6418.75
204.581	6119.75
208.687	5916.08333
212.79	5744.75
216.889	5719.08333
220.984	5714.75
225.077	5705.08333
229.165	5731.75
233.251	5700.75
237.333	5685.08333
241.412	5660.41667
245.487	5627.75
249.559	5560.08333
253.628	5491.75
257.694	5450.75
261.756	5406.41667
265.814	5357.08333
269.87	5124.41667
273.922	5027.41667
277.97	4937.75
282.016	4908.08333
286.058	4871.41667
290.097	4916.41667
294.132	4954.08333
298.164	4891.75
302.193	4655.41667
306.219	4334.75
310.241	3964.41667
314.26	3639.41667
318.276	3334.75
322.288	3114.75
326.297	2927.08333
330.303	2789.75
334.305	2693.75
338.305	2636.75
342.301	2580.41667
346.294	2577.08333
350.283	2519.75
354.269	2479.08333
358.252	2484.75
362.232	2427.08333
366.209	2433.41667
370.182	2402.08333
374.152	2375.41667
378.119	2369.75
382.083	2373.08333
386.043	2377.75
390	2333.08333
393.954	2325.08333
397.905	2300.41667
401.852	2320.75
405.797	2290.08333
409.738	2245.41667
413.676	2246.08333
417.61	2237.08333
421.542	2216.75
425.47	2210.08333
429.396	2185.41667
433.318	2174.75
437.236	2166.75
441.152	2179.08333
445.065	2128.75
448.974	2126.41667
452.88	2098.41667
456.783	2086.08333
460.683	2085.41667
464.58	2065.75
468.473	2077.08333
472.364	2081.08333
476.251	2093.08333
480.135	2097.08333
484.016	2122.75
487.894	2133.41667
491.769	2130.75
495.641	2116.75
499.509	2121.75
503.375	2139.75
507.237	2146.08333
511.096	2147.41667
514.952	2212.75
518.805	2255.41667
522.655	2283.08333
526.502	2165.41667
530.346	2141.75
534.187	2145.08333
538.024	2146.41667
541.859	2164.08333
545.69	2185.08333
549.519	2147.41667
553.344	2151.75
557.166	2102.75
560.985	2086.75
564.802	2051.41667
568.615	2039.41667
572.425	1983.41667
576.232	2002.75
580.036	1974.75
583.836	2005.41667
587.634	2007.41667
591.429	1994.08333
595.221	2031.41667
599.01	2046.41667
602.796	2102.08333
606.578	2094.41667
610.358	2125.41667
614.135	2102.08333
617.909	2102.08333
621.679	2078.75
625.447	2053.08333
629.212	2066.08333
632.973	2070.41667
636.732	2064.08333
640.488	2091.41667
644.241	2036.75
647.991	2042.75
651.737	2086.08333
655.481	2060.08333
659.222	2074.75
662.96	2070.75
666.695	2074.08333
670.427	2098.41667
674.156	2091.08333
677.882	2090.75
681.605	2068.41667
685.325	2043.41667
689.043	2054.41667
692.757	2025.75
696.468	2054.08333
700.177	2052.75
703.882	2029.08333
707.585	2032.41667
711.284	2035.41667
714.981	2058.08333
718.675	2059.75
722.366	2067.75
726.054	2034.75
729.739	2040.75
733.421	2041.75
737.1	2021.08333
740.777	2066.75
744.45	2058.08333
748.121	2080.41667
751.789	2126.41667
755.453	2098.41667
759.115	2123.08333
762.774	2135.08333
766.431	2154.08333
770.084	2180.75
773.734	2210.08333
777.382	2261.75
781.027	2270.08333
784.669	2263.75
788.308	2306.75
791.944	2336.75
795.577	2339.08333
799.208	2380.75
802.835	2399.08333
806.46	2409.41667
810.082	2437.75
813.701	2433.08333
817.317	2460.08333
820.931	2452.75
824.542	2422.08333
828.149	2412.41667
831.754	2380.41667
835.357	2346.41667
838.956	2344.75
842.553	2329.75
846.146	2325.41667
849.737	2294.41667
853.326	2305.08333
856.911	2318.08333
860.493	2358.41667
864.073	2371.08333
867.65	2385.08333
871.225	2434.41667
874.796	2423.75
878.365	2421.41667
881.931	2441.75
885.494	2454.75
889.054	2460.75
892.612	2467.41667
896.166	2433.75
899.719	2408.75
903.268	2392.41667
906.814	2373.75
910.358	2377.08333
913.899	2352.08333
917.438	2391.75
920.973	2378.08333
924.506	2406.08333
928.036	2468.75
931.564	2499.41667
935.088	2520.41667
938.61	2521.41667
942.129	2542.75
945.646	2601.41667
949.16	2635.75
952.671	2708.41667
956.179	2738.41667
959.685	2747.08333
963.188	2747.41667
966.688	2723.41667
970.185	2623.08333
973.68	2541.75
977.173	2532.08333
980.662	2478.75
984.149	2457.08333
987.633	2457.41667
991.114	2469.41667
994.593	2537.08333
998.069	2620.41667
1001.542	2712.08333
1005.013	2654.41667
1008.481	2488.41667
1011.947	2470.75
1015.409	2440.41667
1018.869	2455.75
1022.327	2442.41667
1025.782	2442.41667
1029.234	2457.75
1032.683	2450.75
1036.13	2360.75
1039.574	2256.75
1043.016	2225.75
1046.455	2178.41667
1049.891	2131.08333
1053.325	2161.75
1056.756	2156.08333
1060.184	2204.41667
1063.61	2194.08333
1067.033	2208.08333
1070.454	2223.08333
1073.872	2261.41667
1077.287	2251.08333
1080.7	2267.75
1084.11	2287.75
1087.517	2247.75
1090.922	2196.75
1094.325	2183.41667
1097.724	2168.08333
1101.122	2147.08333
1104.516	2163.75
1107.908	2158.41667
1111.298	2213.08333
1114.684	2232.08333
1118.069	2251.08333
1121.45	2295.75
1124.83	2271.41667
1128.206	2279.41667
1131.58	2326.75
1134.951	2376.75
1138.32	2446.08333
1141.687	2531.75
1145.05	2595.75
1148.412	2636.41667
1151.77	2607.75
1155.126	2614.08333
1158.48	2593.75
1161.831	2618.75
1165.18	2642.41667
1168.525	2666.41667
1171.869	2720.41667
1175.21	2720.41667
1178.548	2752.41667
1181.884	2790.08333
1185.217	2809.08333
1188.548	2887.41667
1191.877	2951.75
1195.202	3053.41667
1198.526	3077.75
1201.846	3109.08333
1205.165	3109.08333
1208.48	3109.41667
1211.794	3081.08333
1215.104	3108.41667
1218.413	3110.75
1221.719	3083.08333
1225.022	3061.41667
1228.323	3027.08333
1231.621	3025.75
1234.917	2984.75
1238.21	3007.08333
1241.501	3002.41667
1244.79	2998.41667
1248.076	2966.75
1251.359	3004.75
1254.64	3067.41667
1257.919	3075.75
1261.195	3129.41667
1264.468	3177.41667
1267.74	3199.75
1271.008	3205.08333
1274.275	3196.75
1277.538	3180.41667
1280.8	3146.75
1284.059	3175.75
1287.315	3220.75
1290.569	3244.75
1293.821	3270.41667
1297.07	3277.08333
1300.317	3325.75
1303.562	3330.41667
1306.803	3293.08333
1310.043	3270.41667
1313.28	3237.08333
1316.515	3188.41667
1319.747	3157.08333
1322.977	3109.75
1326.204	3086.75
1329.429	3028.41667
1332.652	3041.08333
1335.872	3013.08333
1339.09	2972.41667
1342.306	2963.75
1345.519	2964.08333
1348.729	2923.75
1351.938	2921.08333
1355.144	2890.41667
1358.347	2831.08333
1361.548	2808.75
1364.747	2814.08333
1367.944	2780.75
1371.138	2796.41667
1374.329	2825.75
1377.518	2803.41667
1380.705	2858.75
1383.89	2829.41667
1387.072	2752.08333
1390.252	2648.41667
1393.429	2566.08333
1396.605	2487.75
1399.777	2428.08333
1402.948	2389.08333
1406.116	2362.75
1409.282	2402.75
1412.445	2390.75
1415.606	2427.08333
1418.765	2480.41667
1421.921	2513.75
1425.075	2584.75
1428.227	2679.75
1431.376	2793.08333
1434.524	2887.08333
1437.668	2965.08333
1440.811	2985.41667
1443.951	3009.08333
1447.089	2997.75
1450.224	3003.75
1453.357	2973.41667
1456.488	2938.75
1459.617	2921.41667
1462.743	2880.41667
1465.867	2807.08333
1468.989	2807.41667
1472.108	2743.08333
1475.225	2714.08333
1478.34	2660.75
1481.453	2673.08333
1484.563	2688.41667
1487.671	2729.08333
1490.776	2748.08333
1493.88	2800.41667
1496.981	2850.08333
1500.08	2889.41667
1503.176	2928.41667
1506.271	2970.75
1509.363	2996.75
1512.452	3041.41667
1515.54	3090.41667
1518.625	3148.75
1521.708	3255.08333
1524.789	3395.41667
1527.867	3553.75
1530.944	3742.41667
1534.018	3911.41667
1537.089	4015.75
1540.159	4046.08333
1543.226	3929.08333
1546.291	3838.08333
1549.354	3712.41667
1552.415	3596.08333
1555.473	3515.08333
1558.529	3467.41667
1561.583	3437.08333
1564.634	3404.41667
1567.684	3422.75
1570.731	3458.08333
1573.776	3474.41667
1576.819	3537.08333
1579.859	3580.41667
1582.898	3614.75
1585.934	3675.08333
1588.968	3673.41667
1591.999	3657.41667
1595.029	3674.75
1598.056	3736.41667
1601.081	3747.75
1604.104	3734.75
1607.125	3709.41667
1610.144	3633.41667
1613.16	3524.41667
1616.174	3430.41667
1619.186	3359.75
1622.196	3271.75
1625.203	3165.41667
1628.209	3145.41667
1631.212	3121.75
1634.213	3134.08333
1637.212	3128.41667
1640.209	3108.75
1643.203	3022.08333
1646.196	2945.08333
1649.186	2823.41667
1652.174	2710.75
1655.16	2606.41667
1658.144	2525.08333
1661.125	2379.41667
1664.105	2232.75
1667.082	2130.08333
1670.057	2002.75
1673.03	1880.08333
1676.001	1790.41667
1678.97	1668.08333
1681.937	1560.75
1684.901	1481.75
1687.863	1457.75
1690.824	1381.08333
1693.782	1363.41667
1696.738	1321.08333
1699.692	1275.08333
1702.643	1252.41667
1705.593	1235.41667
1708.54	1212.75
1711.486	1214.75
1714.429	1173.41667
1717.37	1173.75
1720.309	1150.41667
1723.246	1157.08333
1726.181	1125.41667
1729.113	1128.08333
1732.044	1118.08333
1734.972	1112.08333
1737.899	1109.08333
1740.823	1086.08333
1743.745	1094.41667
1746.665	1055.75
1749.583	1037.75
1752.499	1014.08333
1755.413	1018.08333
1758.325	986.75
1761.235	986.75
1764.142	961.41667
1767.048	947.41667
1769.951	960.08333
1772.852	937.08333
1775.752	942.41667
1778.649	932.75
1781.544	931.08333
1784.437	908.75
1787.328	914.08333
1790.217	904.08333
1793.104	894.08333
1795.989	882.08333
1798.872	883.41667
1801.753	901.08333
1804.631	896.75
1807.508	898.75
1810.383	882.08333
1813.255	879.08333
1816.126	873.41667
1818.994	868.75
1821.861	860.41667
1824.725	857.75
1827.587	854.75
1830.448	851.75
1833.306	836.75
1836.162	847.08333
1839.017	830.08333
1841.869	837.08333
1844.719	839.08333
1847.567	816.08333
1850.414	816.41667
1853.258	829.41667
1856.1	831.75
1858.94	840.75
1861.778	822.08333
1864.614	803.75
1867.448	820.75
1870.28	818.08333
1873.111	830.08333
1875.939	822.75
1878.765	832.41667
1881.589	812.41667
1884.411	812.41667
1887.231	822.08333
1890.049	801.08333
1892.865	798.08333
1895.68	800.41667
1898.492	792.75
1901.302	786.75
1904.11	786.41667
1906.916	786.41667
1909.721	773.41667
1912.523	782.41667
1915.323	762.08333
1918.122	765.75
1920.918	780.08333
1923.712	763.08333
1926.505	764.08333
1929.295	759.75
1932.084	766.41667
1934.87	777.75
1937.655	757.75
1940.438	753.75
1943.218	752.41667
1945.997	768.75
1948.774	767.75
1951.549	767.08333
1954.322	749.08333
1957.093	750.41667
1959.862	745.08333
1962.629	743.75
1965.394	738.08333
1968.157	716.08333
1970.918	737.41667
1973.678	738.41667
1976.435	744.75
1979.19	732.75
1981.944	719.08333
1984.696	726.75
1987.445	715.75
1990.193	724.08333
1992.939	739.08333
1995.683	722.75
1998.425	707.08333
2001.165	743.08333
2003.903	709.08333
2006.639	705.41667
2009.374	711.08333
2012.106	714.75
2014.837	686.08333
2017.566	715.08333
2020.292	711.41667
2023.017	704.75
2025.74	694.75
2028.461	698.75
2031.18	697.75
2033.898	692.08333
2036.613	697.41667
2039.327	696.41667
2042.038	682.08333
2044.748	694.08333
2047.456	690.75
2050.162	676.75
2052.866	687.75
2055.568	682.41667
2058.268	674.08333
2060.967	682.41667
2063.663	660.75
2066.358	678.75
2069.051	670.75
2071.742	678.08333
2074.431	670.08333
2077.118	669.75
2079.804	667.41667
2082.487	666.08333
2085.169	678.41667
2087.849	689.75
2090.527	679.08333
2093.203	676.75
2095.877	685.41667
2098.55	681.75
2101.22	699.75
2103.889	694.08333
2106.556	698.41667
2109.221	726.75
2111.884	722.75
2114.546	780.75
2117.205	816.08333
2119.863	890.08333
2122.519	937.41667
2125.173	1000.75
2127.825	1069.75
2130.475	1061.41667
2133.124	1030.08333
2135.771	992.08333
2138.416	955.08333
2141.059	889.08333
2143.7	879.75
2146.339	813.41667
2148.977	777.75
2151.613	766.75
2154.247	747.41667
2156.879	733.08333
2159.51	713.08333
2162.138	700.75
2164.765	702.41667
2167.39	687.75
2170.013	695.08333
2172.634	692.41667
2175.254	682.08333
2177.872	707.41667
2180.488	659.08333
2183.102	662.41667
2185.714	657.08333
2188.325	633.08333
2190.934	642.75
2193.541	649.41667
2196.146	632.75
2198.75	616.41667
2201.351	616.75
2203.951	602.08333
2206.549	619.41667
2209.146	608.08333
2211.74	601.75
2214.333	609.08333
2216.924	592.75
2219.514	592.41667
2222.101	590.08333
2224.687	601.75
2227.271	590.41667
2229.853	589.41667
2232.433	573.41667
2235.012	599.41667
2237.589	587.41667
2240.164	599.41667
2242.738	596.75
2245.309	575.08333
2247.879	579.75
2250.448	582.75
2253.014	562.08333
2255.579	551.08333
2258.142	555.75
2260.703	537.75
2263.262	551.08333
2265.82	553.41667
2268.376	547.08333
2270.93	535.41667
2273.483	533.75
2276.033	544.41667
2278.583	539.41667
2281.13	533.41667
2283.675	521.41667
2286.219	535.08333
2288.761	529.75
2291.302	535.41667
2293.841	535.08333
2296.377	509.75
2298.913	514.75
2301.446	547.75
2303.978	520.75
2306.508	518.41667
2309.037	522.75
2311.563	530.41667
2314.088	520.08333
2316.612	497.08333
2319.133	516.75
2321.653	516.41667
2324.171	505.41667
2326.688	521.08333
2329.202	496.41667
2331.715	507.75
2334.227	507.75
2336.736	497.08333
2339.244	497.41667
2341.751	491.08333
2344.255	500.08333
2346.758	491.41667
2349.259	494.08333
2351.759	494.08333
2354.257	482.08333
2356.753	490.75
2359.247	493.75
2361.74	495.41667
2364.231	489.08333
2366.721	494.08333
2369.209	487.75
2371.695	484.41667
2374.179	481.41667
2376.662	486.41667
2379.143	495.08333
2381.622	475.41667
2384.1	491.75
2386.576	483.41667
2389.051	488.75
2391.524	498.75
2393.995	490.75
2396.464	481.41667
2398.932	469.08333
2401.398	483.75
2403.863	479.08333
2406.325	469.08333
2408.787	478.75
2411.246	471.41667
2413.704	476.08333
2416.16	478.08333
2418.615	474.08333
2421.068	490.75
2423.519	477.75
2425.969	470.08333
2428.417	484.75
2430.863	498.41667
2433.308	478.08333
2435.751	481.41667
2438.193	470.75
2440.633	470.75
2443.071	479.41667
2445.508	465.08333
2447.943	471.75
2450.376	461.41667
2452.808	472.41667
2455.238	454.41667
2457.667	485.41667
2460.093	462.75
2462.519	453.75
2464.942	451.75
2467.365	470.75
2469.785	476.08333
2472.204	460.08333
2474.621	454.41667
2477.037	475.41667
2479.451	457.75
2481.863	445.41667
2484.274	451.75
2486.683	461.75
2489.091	466.75
2491.497	460.41667
2493.901	455.41667
2496.304	452.75
2498.705	469.41667
2501.105	440.75
2503.503	489.08333
2505.899	459.41667
2508.294	472.08333
2510.687	451.08333
2513.079	453.75
2515.469	438.08333
2517.858	445.41667
2520.245	469.75
2522.63	451.75
2525.014	436.41667
2527.396	449.41667
2529.776	445.75
2532.156	452.75
2534.533	444.41667
2536.909	458.41667
2539.283	431.08333
2541.656	446.75
2544.027	471.08333
2546.397	454.75
2548.765	454.41667
2551.131	441.41667
2553.496	445.75
2555.86	450.41667
2558.221	448.75
2560.582	447.75
2562.94	436.08333
2565.298	441.08333
2567.653	464.75
2570.007	443.41667
2572.36	456.08333
2574.711	440.08333
2577.06	468.75
2579.408	453.08333
2581.754	444.75
2584.099	446.41667
2586.442	450.75
2588.784	453.41667
2591.124	453.41667
2593.463	441.08333
2595.8	445.08333
2598.135	434.75
2600.469	440.08333
2602.802	463.75
2605.133	457.75
2607.462	442.41667
2609.79	447.41667
2612.116	452.75
2614.441	454.41667
2616.764	454.75
2619.086	456.08333
2621.406	444.75
2623.725	459.75
2626.042	458.75
2628.358	449.41667
2630.672	450.08333
2632.985	464.75
2635.296	458.41667
2637.606	462.41667
2639.914	448.75
2642.22	453.08333
2644.525	455.41667
2646.829	465.75
2649.131	465.41667
2651.432	478.08333
2653.731	461.41667
2656.028	470.08333
2658.324	469.75
2660.619	460.08333
2662.912	471.08333
2665.204	459.41667
2667.494	477.75
2669.782	462.75
2672.07	478.75
2674.355	477.75
2676.639	468.41667
2678.922	459.41667
2681.203	473.75
2683.483	459.75
2685.761	470.75
2688.038	485.75
2690.313	483.41667
2692.587	479.75
2694.859	475.41667
2697.13	476.75
2699.399	478.41667
2701.667	496.75
2703.933	495.08333
2706.198	486.08333
2708.461	494.75
2710.723	503.41667
2712.984	501.41667
2715.243	505.75
2717.5	501.75
2719.757	521.75
2722.011	507.75
2724.264	512.75
2726.516	531.75
2728.766	519.41667
2731.015	518.75
2733.262	512.41667
2735.508	522.08333
2737.753	524.08333
2739.996	512.08333
2742.237	494.75
2744.477	515.75
2746.716	516.75
2748.953	515.41667
2751.189	504.08333
2753.423	496.41667
2755.656	497.75
2757.887	479.75
2760.117	492.08333
2762.346	486.08333
2764.573	489.08333
2766.798	492.41667
2769.022	490.08333
2771.245	496.08333
2773.467	496.08333
2775.686	511.08333
2777.905	510.75
2780.122	519.08333
2782.337	516.75
2784.552	503.41667
2786.764	525.75
2788.976	515.41667
2791.186	524.41667
2793.394	529.41667
2795.601	540.08333
2797.807	550.08333
2800.011	555.75
2802.214	564.41667
2804.415	559.08333
2806.615	558.75
2808.814	586.75
2811.011	575.08333
2813.206	567.41667
2815.401	597.41667
2817.594	598.75
2819.785	611.41667
2821.975	590.41667
2824.164	620.08333
2826.351	634.08333
2828.537	641.41667
2830.722	654.75
2832.905	659.08333
2835.086	692.75
2837.267	720.41667
2839.445	742.08333
2841.623	763.08333
2843.799	777.75
2845.974	824.75
2848.147	856.75
2850.319	877.41667
2852.489	906.75
2854.659	912.75
2856.826	925.08333
2858.993	931.08333
2861.158	927.41667
2863.321	934.08333
2865.483	948.75
2867.644	942.41667
2869.804	935.75
2871.962	928.75
2874.118	938.41667
2876.274	920.41667
2878.428	932.41667
2880.58	918.75
2882.731	909.75
2884.881	920.08333
2887.03	933.08333
2889.177	920.08333
2891.322	936.08333
2893.467	917.75
2895.61	927.41667
2897.751	956.08333
2899.892	933.41667
2902.03	954.41667
2904.168	953.08333
2906.304	961.08333
2908.439	985.75
2910.572	951.41667
2912.704	982.41667
2914.835	987.75
2916.965	977.08333
2919.093	1000.41667
2921.219	951.41667
2923.345	982.08333
2925.469	941.08333
2927.591	950.08333
2929.712	910.08333
2931.832	914.08333
2933.951	889.41667
2936.068	871.08333
2938.184	852.41667
2940.299	821.08333
2942.412	822.75
2944.524	778.75
2946.634	783.75
2948.744	729.08333
2950.851	747.08333
2952.958	711.08333
2955.063	711.08333
2957.167	693.08333
2959.269	655.75
2961.371	679.41667
2963.471	658.75
2965.569	667.08333
2967.666	638.41667
2969.762	613.41667
2971.857	598.08333
2973.95	597.75
2976.042	586.08333
2978.133	572.08333
2980.222	564.41667
2982.31	540.75
2984.396	535.41667
2986.482	531.41667
2988.566	528.08333
2990.648	520.41667
2992.73	527.08333
2994.81	500.41667
2996.889	514.41667
2998.966	498.75
3001.042	513.41667
3003.117	501.41667
3005.191	508.08333
3007.263	506.41667
3009.334	491.41667
3011.403	499.41667
3013.472	475.41667
3015.539	492.08333
3017.604	488.75
3019.669	448.75
3021.732	457.75
3023.794	463.41667
3025.854	441.75
3027.914	446.41667
3029.971	467.41667
3032.028	443.08333
3034.083	453.41667
3036.137	442.75
3038.19	433.08333
3040.242	418.75
3042.292	404.08333
3044.341	402.41667
3046.388	423.08333
3048.435	393.41667
3050.48	418.08333
3052.524	413.75
3054.566	390.08333
3056.607	406.75
3058.647	387.75
3060.686	373.75
3062.723	359.08333
3064.759	353.75
3066.794	0.41667
3068.828	-4.25
3070.86	-2.25
