-0.839	444.04167
3.438	479.04167
7.711	134.04167
11.981	52.375
16.247	49.375
20.509	44.04167
24.768	44.04167
29.024	46.04167
33.276	42.04167
37.524	51.04167
41.769	41.70833
46.01	35.04167
50.247	54.70833
54.481	61.375
58.712	65.70833
62.939	48.70833
67.162	62.70833
71.382	58.04167
75.599	44.70833
79.812	62.375
84.021	85.70833
88.227	60.70833
92.429	62.70833
96.628	50.70833
100.823	67.04167
105.015	72.70833
109.204	80.375
113.388	82.375
117.57	73.70833
121.748	95.375
125.922	83.375
130.093	101.375
134.261	110.70833
138.425	100.70833
142.585	144.70833
146.742	143.375
150.896	170.375
155.046	202.04167
159.193	330.70833
163.336	550.70833
167.476	1024.04167
171.613	1899.375
175.746	3165.70833
179.875	4715.375
184.002	6106.70833
188.124	7108.04167
192.244	7382.70833
196.36	7381.375
200.472	7144.04167
204.581	6974.04167
208.687	6782.70833
212.79	6760.04167
216.889	6757.70833
220.984	6870.04167
225.077	6907.04167
229.165	7000.375
233.251	7099.04167
237.333	7150.375
241.412	7133.04167
245.487	7119.70833
249.559	7091.70833
253.628	7035.375
257.694	6962.70833
261.756	6893.70833
265.814	6792.04167
269.87	6606.375
273.922	6453.04167
277.97	6414.04167
282.016	6335.375
286.058	6370.04167
290.097	6490.04167
294.132	6505.04167
298.164	6441.04167
302.193	6144.04167
306.219	5667.04167
310.241	5130.375
314.26	4675.04167
318.276	4255.70833
322.288	3982.04167
326.297	3705.70833
330.303	3538.70833
334.305	3423.04167
338.305	3321.70833
342.301	3286.375
346.294	3220.70833
350.283	3218.04167
354.269	3180.04167
358.252	3144.70833
362.232	3110.375
366.209	3083.04167
370.182	3026.375
374.152	3023.375
378.119	2996.04167
382.083	2988.70833
386.043	3006.375
390	2944.70833
393.954	2937.70833
397.905	2911.04167
401.852	2917.70833
405.797	2879.375
409.738	2843.04167
413.676	2824.70833
417.61	2818.04167
421.542	2804.375
425.47	2791.70833
429.396	2767.70833
433.318	2754.375
437.236	2751.375
441.152	2717.375
445.065	2692.04167
448.974	2715.375
452.88	2665.70833
456.783	2629.04167
460.683	2636.04167
464.58	2658.70833
468.473	2631.70833
472.364	2645.70833
476.251	2650.70833
480.135	2663.70833
484.016	2713.375
487.894	2707.375
491.769	2709.70833
495.641	2742.70833
499.509	2743.375
503.375	2719.70833
507.237	2725.70833
511.096	2736.70833
514.952	2763.375
518.805	2804.04167
522.655	2825.04167
526.502	2735.04167
530.346	2689.04167
534.187	2726.04167
538.024	2734.70833
541.859	2747.04167
545.69	2772.375
549.519	2733.375
553.344	2722.70833
557.166	2677.04167
560.985	2644.04167
564.802	2632.375
568.615	2567.70833
572.425	2497.375
576.232	2522.04167
580.036	2503.04167
583.836	2522.04167
587.634	2536.375
591.429	2519.70833
595.221	2578.70833
599.01	2605.375
602.796	2618.375
606.578	2669.375
610.358	2650.04167
614.135	2633.375
617.909	2622.70833
621.679	2601.70833
625.447	2563.375
629.212	2594.70833
632.973	2575.375
636.732	2578.04167
640.488	2556.70833
644.241	2544.375
647.991	2553.04167
651.737	2534.04167
655.481	2543.375
659.222	2533.04167
662.96	2542.375
666.695	2555.04167
670.427	2562.70833
674.156	2596.375
677.882	2576.375
681.605	2588.04167
685.325	2563.375
689.043	2558.375
692.757	2549.70833
696.468	2548.04167
700.177	2562.375
703.882	2557.04167
707.585	2549.04167
711.284	2538.375
714.981	2555.70833
718.675	2590.375
722.366	2604.70833
726.054	2558.70833
729.739	2562.375
733.421	2570.04167
737.1	2548.04167
740.777	2589.70833
744.45	2611.70833
748.121	2620.04167
751.789	2660.04167
755.453	2659.04167
759.115	2685.04167
762.774	2707.375
766.431	2733.04167
770.084	2760.04167
773.734	2771.04167
777.382	2830.04167
781.027	2876.70833
784.669	2873.04167
788.308	2881.375
791.944	2896.375
795.577	2947.04167
799.208	2959.04167
802.835	2994.04167
806.46	2985.70833
810.082	2994.375
813.701	3022.375
817.317	3048.70833
820.931	3029.375
824.542	3048.375
828.149	3008.04167
831.754	2988.04167
835.357	2980.70833
838.956	2986.04167
842.553	2969.04167
846.146	2945.375
849.737	2956.04167
853.326	2964.70833
856.911	2959.70833
860.493	3011.04167
864.073	3026.70833
867.65	3064.375
871.225	3128.70833
874.796	3100.375
878.365	3137.375
881.931	3128.70833
885.494	3189.70833
889.054	3156.70833
892.612	3160.375
896.166	3119.375
899.719	3112.04167
903.268	3073.70833
906.814	3050.375
910.358	3036.375
913.899	3034.70833
917.438	3012.375
920.973	2992.375
924.506	3052.04167
928.036	3071.04167
931.564	3126.04167
935.088	3157.375
938.61	3155.375
942.129	3219.375
945.646	3294.04167
949.16	3375.375
952.671	3455.375
956.179	3469.375
959.685	3419.70833
963.188	3380.04167
966.688	3341.70833
970.185	3243.04167
973.68	3189.04167
977.173	3145.375
980.662	3115.70833
984.149	3125.04167
987.633	3143.70833
991.114	3210.375
994.593	3305.04167
998.069	3374.04167
1001.542	3476.70833
1005.013	3387.70833
1008.481	3216.375
1011.947	3168.70833
1015.409	3144.375
1018.869	3156.04167
1022.327	3143.70833
1025.782	3124.375
1029.234	3137.04167
1032.683	3097.04167
1036.13	2988.04167
1039.574	2875.375
1043.016	2826.70833
1046.455	2766.04167
1049.891	2737.375
1053.325	2735.04167
1056.756	2747.70833
1060.184	2733.70833
1063.61	2764.04167
1067.033	2810.04167
1070.454	2782.70833
1073.872	2834.70833
1077.287	2821.375
1080.7	2844.70833
1084.11	2860.04167
1087.517	2829.70833
1090.922	2798.70833
1094.325	2747.375
1097.724	2739.375
1101.122	2762.375
1104.516	2741.04167
1107.908	2752.375
1111.298	2782.375
1114.684	2808.375
1118.069	2847.375
1121.45	2877.70833
1124.83	2899.04167
1128.206	2908.70833
1131.58	2960.375
1134.951	3053.70833
1138.32	3157.375
1141.687	3269.70833
1145.05	3342.04167
1148.412	3361.70833
1151.77	3357.70833
1155.126	3325.375
1158.48	3351.04167
1161.831	3358.375
1165.18	3388.375
1168.525	3421.04167
1171.869	3473.04167
1175.21	3492.70833
1178.548	3529.70833
1181.884	3574.375
1185.217	3587.04167
1188.548	3665.04167
1191.877	3718.04167
1195.202	3808.04167
1198.526	3874.70833
1201.846	3858.70833
1205.165	3890.04167
1208.48	3858.375
1211.794	3859.04167
1215.104	3871.375
1218.413	3873.04167
1221.719	3835.375
1225.022	3805.04167
1228.323	3775.375
1231.621	3783.375
1234.917	3734.04167
1238.21	3761.70833
1241.501	3740.04167
1244.79	3760.70833
1248.076	3748.70833
1251.359	3804.375
1254.64	3883.04167
1257.919	3876.04167
1261.195	3967.04167
1264.468	4028.375
1267.74	4080.375
1271.008	4105.70833
1274.275	4104.375
1277.538	4055.70833
1280.8	4045.375
1284.059	4040.375
1287.315	4060.375
1290.569	4085.04167
1293.821	4096.70833
1297.07	4110.375
1300.317	4128.70833
1303.562	4117.04167
1306.803	4064.375
1310.043	4044.375
1313.28	3963.04167
1316.515	3947.70833
1319.747	3895.04167
1322.977	3841.04167
1326.204	3791.70833
1329.429	3732.04167
1332.652	3714.70833
1335.872	3690.70833
1339.09	3683.70833
1342.306	3668.04167
1345.519	3638.375
1348.729	3594.375
1351.938	3588.04167
1355.144	3512.375
1358.347	3501.70833
1361.548	3499.70833
1364.747	3513.70833
1367.944	3522.375
1371.138	3539.04167
1374.329	3571.04167
1377.518	3601.70833
1380.705	3661.70833
1383.89	3618.375
1387.072	3510.375
1390.252	3381.70833
1393.429	3265.70833
1396.605	3163.375
1399.777	3089.375
1402.948	3073.375
1406.116	3024.375
1409.282	3047.70833
1412.445	3049.04167
1415.606	3092.04167
1418.765	3124.70833
1421.921	3220.04167
1425.075	3283.70833
1428.227	3394.04167
1431.376	3535.375
1434.524	3667.70833
1437.668	3730.70833
1440.811	3779.04167
1443.951	3789.375
1447.089	3808.04167
1450.224	3766.70833
1453.357	3794.70833
1456.488	3738.04167
1459.617	3686.04167
1462.743	3661.70833
1465.867	3543.70833
1468.989	3518.04167
1472.108	3457.375
1475.225	3416.375
1478.34	3368.70833
1481.453	3397.70833
1484.563	3387.70833
1487.671	3458.04167
1490.776	3491.04167
1493.88	3549.70833
1496.981	3652.375
1500.08	3723.375
1503.176	3747.70833
1506.271	3840.04167
1509.363	3864.04167
1512.452	3932.04167
1515.54	3996.70833
1518.625	4074.70833
1521.708	4215.04167
1524.789	4400.375
1527.867	4654.04167
1530.944	4936.70833
1534.018	5175.375
1537.089	5353.375
1540.159	5392.04167
1543.226	5291.04167
1546.291	5126.70833
1549.354	4963.375
1552.415	4815.04167
1555.473	4674.375
1558.529	4591.70833
1561.583	4520.04167
1564.634	4443.375
1567.684	4458.04167
1570.731	4442.70833
1573.776	4468.70833
1576.819	4502.04167
1579.859	4533.375
1582.898	4581.375
1585.934	4606.04167
1588.968	4642.04167
1591.999	4591.04167
1595.029	4626.04167
1598.056	4622.375
1601.081	4657.70833
1604.104	4595.04167
1607.125	4563.70833
1610.144	4473.04167
1613.16	4355.375
1616.174	4239.04167
1619.186	4107.04167
1622.196	4038.375
1625.203	3930.375
1628.209	3854.375
1631.212	3831.375
1634.213	3783.70833
1637.212	3753.04167
1640.209	3668.70833
1643.203	3597.04167
1646.196	3485.375
1649.186	3360.70833
1652.174	3289.70833
1655.16	3198.70833
1658.144	3068.375
1661.125	2956.04167
1664.105	2835.70833
1667.082	2698.04167
1670.057	2544.04167
1673.03	2384.04167
1676.001	2250.04167
1678.97	2110.04167
1681.937	1979.04167
1684.901	1880.70833
1687.863	1820.04167
1690.824	1739.375
1693.782	1725.375
1696.738	1638.375
1699.692	1618.375
1702.643	1575.70833
1705.593	1563.70833
1708.54	1539.04167
1711.486	1526.70833
1714.429	1489.375
1717.37	1498.04167
1720.309	1467.70833
1723.246	1472.70833
1726.181	1424.375
1729.113	1446.04167
1732.044	1402.70833
1734.972	1395.375
1737.899	1400.375
1740.823	1369.375
1743.745	1390.70833
1746.665	1327.375
1749.583	1330.70833
1752.499	1308.375
1755.413	1280.70833
1758.325	1247.375
1761.235	1253.70833
1764.142	1216.375
1767.048	1208.04167
1769.951	1199.04167
1772.852	1191.70833
1775.752	1201.04167
1778.649	1181.70833
1781.544	1197.04167
1784.437	1168.04167
1787.328	1175.70833
1790.217	1171.70833
1793.104	1140.04167
1795.989	1132.04167
1798.872	1128.04167
1801.753	1150.04167
1804.631	1141.04167
1807.508	1147.04167
1810.383	1123.70833
1813.255	1123.04167
1816.126	1116.70833
1818.994	1123.375
1821.861	1120.04167
1824.725	1107.375
1827.587	1095.04167
1830.448	1108.04167
1833.306	1071.375
1836.162	1074.375
1839.017	1071.70833
1841.869	1080.375
1844.719	1062.375
1847.567	1065.04167
1850.414	1049.375
1853.258	1057.04167
1856.1	1064.375
1858.94	1076.04167
1861.778	1043.375
1864.614	1042.375
1867.448	1055.70833
1870.28	1040.375
1873.111	1061.70833
1875.939	1051.04167
1878.765	1080.04167
1881.589	1038.04167
1884.411	1046.04167
1887.231	1050.375
1890.049	1027.375
1892.865	1042.375
1895.68	1029.70833
1898.492	1024.70833
1901.302	1007.04167
1904.11	1021.375
1906.916	1005.70833
1909.721	1005.04167
1912.523	1007.04167
1915.323	990.04167
1918.122	988.04167
1920.918	1009.375
1923.712	1013.04167
1926.505	1001.04167
1929.295	978.04167
1932.084	1002.375
1934.87	999.375
1937.655	987.375
1940.438	984.04167
1943.218	985.375
1945.997	991.04167
1948.774	996.70833
1951.549	987.70833
1954.322	971.70833
1957.093	984.375
1959.862	960.375
1962.629	967.70833
1965.394	952.70833
1968.157	945.04167
1970.918	956.04167
1973.678	947.04167
1976.435	953.70833
1979.19	942.04167
1981.944	940.375
1984.696	937.04167
1987.445	925.70833
1990.193	940.375
1992.939	934.70833
1995.683	932.375
1998.425	907.375
2001.165	933.70833
2003.903	925.04167
2006.639	921.70833
2009.374	919.04167
2012.106	936.70833
2014.837	901.04167
2017.566	924.375
2020.292	929.04167
2023.017	918.375
2025.74	914.04167
2028.461	917.375
2031.18	916.375
2033.898	902.375
2036.613	915.04167
2039.327	909.04167
2042.038	894.375
2044.748	900.375
2047.456	893.70833
2050.162	884.375
2052.866	888.04167
2055.568	894.04167
2058.268	884.70833
2060.967	902.70833
2063.663	877.375
2066.358	890.04167
2069.051	879.375
2071.742	885.375
2074.431	894.04167
2077.118	877.375
2079.804	878.04167
2082.487	875.04167
2085.169	880.04167
2087.849	894.375
2090.527	894.04167
2093.203	893.04167
2095.877	913.70833
2098.55	908.375
2101.22	924.375
2103.889	926.70833
2106.556	927.04167
2109.221	973.70833
2111.884	988.375
2114.546	1060.375
2117.205	1121.04167
2119.863	1213.70833
2122.519	1291.04167
2125.173	1356.70833
2127.825	1437.04167
2130.475	1430.375
2133.124	1400.04167
2135.771	1338.70833
2138.416	1281.70833
2141.059	1205.375
2143.7	1161.375
2146.339	1097.375
2148.977	1049.70833
2151.613	1030.04167
2154.247	1005.04167
2156.879	980.70833
2159.51	959.70833
2162.138	948.375
2164.765	934.04167
2167.39	912.04167
2170.013	924.04167
2172.634	914.70833
2175.254	917.70833
2177.872	925.70833
2180.488	877.70833
2183.102	895.70833
2185.714	871.375
2188.325	853.375
2190.934	858.375
2193.541	852.375
2196.146	841.375
2198.75	824.375
2201.351	827.70833
2203.951	813.375
2206.549	829.04167
2209.146	809.70833
2211.74	815.04167
2214.333	812.375
2216.924	784.70833
2219.514	792.04167
2222.101	785.04167
2224.687	795.70833
2227.271	785.70833
2229.853	778.04167
2232.433	761.04167
2235.012	781.04167
2237.589	788.04167
2240.164	779.70833
2242.738	774.04167
2245.309	749.70833
2247.879	769.70833
2250.448	761.375
2253.014	740.70833
2255.579	725.375
2258.142	738.375
2260.703	717.70833
2263.262	716.375
2265.82	707.70833
2268.376	735.70833
2270.93	715.375
2273.483	709.70833
2276.033	710.04167
2278.583	698.375
2281.13	705.375
2283.675	686.70833
2286.219	695.70833
2288.761	692.375
2291.302	702.375
2293.841	703.04167
2296.377	678.375
2298.913	675.04167
2301.446	689.70833
2303.978	679.04167
2306.508	672.04167
2309.037	673.375
2311.563	687.70833
2314.088	678.70833
2316.612	661.04167
2319.133	671.70833
2321.653	665.70833
2324.171	660.70833
2326.688	681.04167
2329.202	654.375
2331.715	659.70833
2334.227	657.375
2336.736	654.70833
2339.244	653.375
2341.751	637.70833
2344.255	650.70833
2346.758	647.04167
2349.259	645.04167
2351.759	644.04167
2354.257	639.70833
2356.753	637.70833
2359.247	638.70833
2361.74	650.375
2364.231	626.70833
2366.721	640.375
2369.209	636.70833
2371.695	637.04167
2374.179	633.70833
2376.662	630.375
2379.143	643.375
2381.622	626.04167
2384.1	639.375
2386.576	622.04167
2389.051	639.375
2391.524	634.375
2393.995	636.70833
2396.464	625.375
2398.932	614.375
2401.398	619.375
2403.863	613.70833
2406.325	616.04167
2408.787	617.04167
2411.246	614.70833
2413.704	600.70833
2416.16	600.04167
2418.615	614.375
2421.068	621.04167
2423.519	612.375
2425.969	604.70833
2428.417	608.375
2430.863	627.70833
2433.308	617.375
2435.751	608.04167
2438.193	610.375
2440.633	610.70833
2443.071	615.04167
2445.508	584.375
2447.943	599.04167
2450.376	591.70833
2452.808	598.375
2455.238	591.04167
2457.667	624.70833
2460.093	590.375
2462.519	592.04167
2464.942	596.70833
2467.365	602.04167
2469.785	590.375
2472.204	589.04167
2474.621	590.04167
2477.037	599.70833
2479.451	575.04167
2481.863	582.04167
2484.274	585.04167
2486.683	576.70833
2489.091	581.375
2491.497	585.70833
2493.901	591.70833
2496.304	583.375
2498.705	581.70833
2501.105	579.375
2503.503	604.70833
2505.899	570.04167
2508.294	590.375
2510.687	583.04167
2513.079	572.04167
2515.469	564.04167
2517.858	556.375
2520.245	589.04167
2522.63	568.04167
2525.014	570.375
2527.396	565.04167
2529.776	557.04167
2532.156	573.375
2534.533	552.70833
2536.909	555.375
2539.283	558.70833
2541.656	560.70833
2544.027	591.70833
2546.397	566.70833
2548.765	550.04167
2551.131	557.375
2553.496	565.04167
2555.86	571.04167
2558.221	552.04167
2560.582	555.70833
2562.94	547.04167
2565.298	560.04167
2567.653	576.375
2570.007	550.375
2572.36	563.375
2574.711	556.70833
2577.06	571.375
2579.408	566.04167
2581.754	560.70833
2584.099	556.70833
2586.442	557.04167
2588.784	553.70833
2591.124	569.04167
2593.463	560.375
2595.8	558.04167
2598.135	543.375
2600.469	554.375
2602.802	571.04167
2605.133	571.04167
2607.462	543.70833
2609.79	548.70833
2612.116	565.04167
2614.441	550.375
2616.764	568.04167
2619.086	559.70833
2621.406	556.375
2623.725	564.04167
2626.042	559.375
2628.358	551.04167
2630.672	554.04167
2632.985	564.04167
2635.296	561.70833
2637.606	572.70833
2639.914	551.375
2642.22	565.375
2644.525	549.04167
2646.829	566.04167
2649.131	578.375
2651.432	579.375
2653.731	566.375
2656.028	584.04167
2658.324	565.375
2660.619	563.375
2662.912	578.04167
2665.204	555.375
2667.494	576.70833
2669.782	569.70833
2672.07	580.375
2674.355	586.375
2676.639	574.375
2678.922	563.375
2681.203	589.04167
2683.483	569.04167
2685.761	556.04167
2688.038	582.70833
2690.313	594.04167
2692.587	579.70833
2694.859	584.04167
2697.13	584.04167
2699.399	580.70833
2701.667	607.04167
2703.933	601.70833
2706.198	596.04167
2708.461	613.375
2710.723	616.04167
2712.984	611.04167
2715.243	624.375
2717.5	614.70833
2719.757	624.70833
2722.011	612.04167
2724.264	640.04167
2726.516	634.04167
2728.766	618.70833
2731.015	630.04167
2733.262	622.70833
2735.508	631.375
2737.753	632.70833
2739.996	605.70833
2742.237	612.04167
2744.477	616.375
2746.716	621.70833
2748.953	612.04167
2751.189	610.70833
2753.423	606.70833
2755.656	602.04167
2757.887	588.04167
2760.117	610.04167
2762.346	593.375
2764.573	594.70833
2766.798	589.04167
2769.022	597.70833
2771.245	600.70833
2773.467	616.375
2775.686	609.04167
2777.905	622.70833
2780.122	627.70833
2782.337	633.70833
2784.552	625.70833
2786.764	646.375
2788.976	641.375
2791.186	658.375
2793.394	656.70833
2795.601	663.04167
2797.807	694.70833
2800.011	686.375
2802.214	710.70833
2804.415	698.375
2806.615	706.375
2808.814	711.70833
2811.011	728.375
2813.206	724.70833
2815.401	746.70833
2817.594	755.375
2819.785	780.04167
2821.975	762.375
2824.164	774.04167
2826.351	810.04167
2828.537	825.70833
2830.722	834.04167
2832.905	850.375
2835.086	874.70833
2837.267	918.04167
2839.445	947.04167
2841.623	956.375
2843.799	999.04167
2845.974	1036.04167
2848.147	1069.70833
2850.319	1102.70833
2852.489	1155.04167
2854.659	1142.04167
2856.826	1162.70833
2858.993	1194.70833
2861.158	1168.375
2863.321	1181.375
2865.483	1214.70833
2867.644	1200.375
2869.804	1201.04167
2871.962	1175.04167
2874.118	1191.70833
2876.274	1202.04167
2878.428	1186.375
2880.58	1166.375
2882.731	1160.375
2884.881	1167.70833
2887.03	1177.04167
2889.177	1157.04167
2891.322	1179.70833
2893.467	1176.04167
2895.61	1179.70833
2897.751	1217.375
2899.892	1189.375
2902.03	1206.04167
2904.168	1222.04167
2906.304	1193.375
2908.439	1240.04167
2910.572	1216.375
2912.704	1236.04167
2914.835	1231.70833
2916.965	1220.04167
2919.093	1245.375
2921.219	1203.70833
2923.345	1211.70833
2925.469	1171.04167
2927.591	1169.04167
2929.712	1145.70833
2931.832	1130.70833
2933.951	1099.375
2936.068	1064.375
2938.184	1039.70833
2940.299	1016.70833
2942.412	981.04167
2944.524	945.70833
2946.634	921.70833
2948.744	874.375
2950.851	901.70833
2952.958	838.375
2955.063	832.04167
2957.167	822.375
2959.269	770.70833
2961.371	786.70833
2963.471	751.04167
2965.569	749.375
2967.666	713.375
2969.762	705.375
2971.857	691.04167
2973.95	670.70833
2976.042	668.70833
2978.133	646.375
2980.222	625.70833
2982.31	610.375
2984.396	588.70833
2986.482	590.04167
2988.566	585.04167
2990.648	569.70833
2992.73	565.04167
2994.81	560.375
2996.889	562.70833
2998.966	544.375
3001.042	550.70833
3003.117	545.70833
3005.191	539.375
3007.263	526.375
3009.334	530.375
3011.403	518.70833
3013.472	502.375
3015.539	510.70833
3017.604	510.04167
3019.669	480.70833
3021.732	486.04167
3023.794	484.375
3025.854	459.375
3027.914	458.70833
3029.971	470.375
3032.028	460.70833
3034.083	463.70833
3036.137	460.375
3038.19	447.70833
3040.242	431.70833
3042.292	417.375
3044.341	414.375
3046.388	429.375
3048.435	404.70833
3050.48	421.70833
3052.524	415.70833
3054.566	393.04167
3056.607	408.375
3058.647	392.375
3060.686	377.70833
3062.723	360.70833
3064.759	358.375
3066.794	-1.29167
3068.828	-1.29167
3070.86	-1.625
