-0.839	453.70833
3.438	474.375
7.711	130.04167
11.981	55.70833
16.247	48.70833
20.509	47.04167
24.768	43.04167
29.024	48.70833
33.276	46.375
37.524	46.70833
41.769	39.04167
46.01	38.375
50.247	53.375
54.481	60.70833
58.712	69.375
62.939	51.70833
67.162	64.04167
71.382	59.04167
75.599	44.04167
79.812	63.375
84.021	83.375
88.227	60.04167
92.429	64.04167
96.628	48.375
100.823	69.70833
105.015	76.70833
109.204	75.70833
113.388	79.04167
117.57	74.70833
121.748	92.70833
125.922	78.04167
130.093	100.375
134.261	108.375
138.425	99.70833
142.585	144.375
146.742	142.04167
150.896	169.70833
155.046	205.70833
159.193	325.375
163.336	559.70833
167.476	1016.375
171.613	1876.04167
175.746	3166.70833
179.875	4682.04167
184.002	6127.375
188.124	7100.375
192.244	7400.70833
196.36	7305.70833
200.472	7102.375
204.581	6924.04167
208.687	6818.375
212.79	6726.04167
216.889	6789.375
220.984	6817.375
225.077	6940.375
229.165	7004.04167
233.251	7078.375
237.333	7149.70833
241.412	7089.04167
245.487	7083.04167
249.559	7060.04167
253.628	7013.04167
257.694	6937.04167
261.756	6887.375
265.814	6740.04167
269.87	6582.70833
273.922	6410.375
277.97	6401.70833
282.016	6347.70833
286.058	6359.375
290.097	6496.375
294.132	6534.04167
298.164	6442.375
302.193	6109.375
306.219	5641.04167
310.241	5167.375
314.26	4680.375
318.276	4256.70833
322.288	3946.04167
326.297	3723.70833
330.303	3517.04167
334.305	3425.375
338.305	3326.375
342.301	3263.375
346.294	3250.70833
350.283	3171.70833
354.269	3115.04167
358.252	3130.375
362.232	3101.70833
366.209	3065.70833
370.182	3017.70833
374.152	3015.375
378.119	2983.04167
382.083	2966.70833
386.043	2998.04167
390	2947.04167
393.954	2936.04167
397.905	2895.70833
401.852	2894.04167
405.797	2859.04167
409.738	2825.375
413.676	2829.70833
417.61	2832.04167
421.542	2785.70833
425.47	2743.375
429.396	2763.70833
433.318	2740.04167
437.236	2726.04167
441.152	2743.70833
445.065	2680.04167
448.974	2683.04167
452.88	2639.04167
456.783	2641.04167
460.683	2636.375
464.58	2623.04167
468.473	2624.04167
472.364	2629.04167
476.251	2642.375
480.135	2674.04167
484.016	2697.70833
487.894	2687.04167
491.769	2700.70833
495.641	2732.70833
499.509	2720.70833
503.375	2714.375
507.237	2721.375
511.096	2715.375
514.952	2750.04167
518.805	2790.70833
522.655	2802.375
526.502	2729.70833
530.346	2708.04167
534.187	2723.70833
538.024	2715.375
541.859	2726.375
545.69	2758.375
549.519	2745.70833
553.344	2712.70833
557.166	2675.70833
560.985	2660.70833
564.802	2605.375
568.615	2550.70833
572.425	2543.70833
576.232	2528.375
580.036	2503.70833
583.836	2499.04167
587.634	2510.375
591.429	2504.375
595.221	2566.375
599.01	2596.04167
602.796	2612.375
606.578	2635.70833
610.358	2645.04167
614.135	2566.04167
617.909	2614.70833
621.679	2612.70833
625.447	2568.375
629.212	2592.375
632.973	2615.375
636.732	2594.70833
640.488	2589.375
644.241	2551.375
647.991	2541.04167
651.737	2527.375
655.481	2531.375
659.222	2537.70833
662.96	2520.04167
666.695	2536.04167
670.427	2564.70833
674.156	2564.375
677.882	2574.04167
681.605	2570.70833
685.325	2561.70833
689.043	2557.375
692.757	2520.375
696.468	2548.04167
700.177	2549.375
703.882	2522.375
707.585	2524.375
711.284	2558.70833
714.981	2534.375
718.675	2588.375
722.366	2572.70833
726.054	2541.70833
729.739	2539.70833
733.421	2557.70833
737.1	2566.04167
740.777	2581.70833
744.45	2603.04167
748.121	2595.04167
751.789	2677.70833
755.453	2651.375
759.115	2674.04167
762.774	2698.70833
766.431	2713.70833
770.084	2764.04167
773.734	2765.375
777.382	2825.375
781.027	2871.04167
784.669	2872.04167
788.308	2873.70833
791.944	2911.375
795.577	2943.375
799.208	2938.04167
802.835	2968.04167
806.46	2974.375
810.082	3012.375
813.701	2986.70833
817.317	3035.04167
820.931	3021.70833
824.542	3011.70833
828.149	3029.375
831.754	2990.04167
835.357	2976.04167
838.956	2986.04167
842.553	2963.375
846.146	2958.04167
849.737	2937.70833
853.326	2955.04167
856.911	2977.04167
860.493	3024.04167
864.073	3027.375
867.65	3071.04167
871.225	3124.70833
874.796	3108.04167
878.365	3125.70833
881.931	3153.04167
885.494	3172.375
889.054	3177.70833
892.612	3163.70833
896.166	3142.04167
899.719	3092.04167
903.268	3059.04167
906.814	3060.04167
910.358	3009.70833
913.899	3009.70833
917.438	3044.375
920.973	3025.70833
924.506	3053.04167
928.036	3085.04167
931.564	3129.70833
935.088	3165.70833
938.61	3188.04167
942.129	3216.04167
945.646	3291.04167
949.16	3399.04167
952.671	3454.70833
956.179	3480.375
959.685	3384.70833
963.188	3395.375
966.688	3317.70833
970.185	3239.375
973.68	3166.04167
977.173	3150.375
980.662	3142.375
984.149	3124.04167
987.633	3113.375
991.114	3182.375
994.593	3292.70833
998.069	3392.04167
1001.542	3468.375
1005.013	3384.70833
1008.481	3220.04167
1011.947	3175.375
1015.409	3154.375
1018.869	3148.04167
1022.327	3141.70833
1025.782	3111.375
1029.234	3115.375
1032.683	3084.375
1036.13	2987.375
1039.574	2868.04167
1043.016	2813.375
1046.455	2762.70833
1049.891	2730.70833
1053.325	2723.70833
1056.756	2751.04167
1060.184	2750.70833
1063.61	2784.04167
1067.033	2795.70833
1070.454	2786.70833
1073.872	2830.04167
1077.287	2835.375
1080.7	2832.70833
1084.11	2853.375
1087.517	2810.04167
1090.922	2769.375
1094.325	2756.375
1097.724	2734.70833
1101.122	2734.04167
1104.516	2746.70833
1107.908	2737.04167
1111.298	2770.70833
1114.684	2817.04167
1118.069	2872.04167
1121.45	2883.70833
1124.83	2880.375
1128.206	2920.375
1131.58	2945.04167
1134.951	3051.375
1138.32	3154.70833
1141.687	3274.70833
1145.05	3336.70833
1148.412	3368.04167
1151.77	3368.70833
1155.126	3360.375
1158.48	3335.375
1161.831	3370.04167
1165.18	3381.375
1168.525	3453.04167
1171.869	3462.70833
1175.21	3494.04167
1178.548	3553.375
1181.884	3586.375
1185.217	3583.70833
1188.548	3673.04167
1191.877	3691.375
1195.202	3828.04167
1198.526	3887.04167
1201.846	3886.375
1205.165	3877.70833
1208.48	3872.04167
1211.794	3845.04167
1215.104	3858.70833
1218.413	3866.70833
1221.719	3862.70833
1225.022	3833.375
1228.323	3785.04167
1231.621	3750.70833
1234.917	3730.04167
1238.21	3791.70833
1241.501	3753.04167
1244.79	3765.70833
1248.076	3759.70833
1251.359	3796.375
1254.64	3884.375
1257.919	3884.70833
1261.195	3989.70833
1264.468	4032.04167
1267.74	4076.70833
1271.008	4104.04167
1274.275	4092.70833
1277.538	4042.375
1280.8	4042.70833
1284.059	4033.70833
1287.315	4086.70833
1290.569	4124.70833
1293.821	4126.70833
1297.07	4134.70833
1300.317	4179.04167
1303.562	4108.04167
1306.803	4082.70833
1310.043	4032.04167
1313.28	3994.04167
1316.515	3952.04167
1319.747	3888.04167
1322.977	3835.70833
1326.204	3787.375
1329.429	3736.375
1332.652	3696.04167
1335.872	3721.375
1339.09	3665.04167
1342.306	3659.70833
1345.519	3657.375
1348.729	3606.04167
1351.938	3577.375
1355.144	3534.04167
1358.347	3500.04167
1361.548	3486.04167
1364.747	3498.70833
1367.944	3465.375
1371.138	3524.04167
1374.329	3569.70833
1377.518	3605.70833
1380.705	3674.70833
1383.89	3593.375
1387.072	3499.70833
1390.252	3357.70833
1393.429	3259.70833
1396.605	3152.04167
1399.777	3079.70833
1402.948	3050.375
1406.116	3048.04167
1409.282	3041.70833
1412.445	3046.375
1415.606	3092.375
1418.765	3129.04167
1421.921	3200.375
1425.075	3287.04167
1428.227	3415.375
1431.376	3547.04167
1434.524	3647.04167
1437.668	3769.70833
1440.811	3775.375
1443.951	3794.375
1447.089	3796.70833
1450.224	3805.70833
1453.357	3750.375
1456.488	3782.375
1459.617	3713.04167
1462.743	3648.04167
1465.867	3592.04167
1468.989	3550.70833
1472.108	3501.375
1475.225	3440.375
1478.34	3401.04167
1481.453	3405.70833
1484.563	3407.04167
1487.671	3467.375
1490.776	3531.04167
1493.88	3573.04167
1496.981	3673.375
1500.08	3731.375
1503.176	3778.375
1506.271	3846.375
1509.363	3902.375
1512.452	3930.375
1515.54	4028.04167
1518.625	4107.04167
1521.708	4218.04167
1524.789	4406.375
1527.867	4678.375
1530.944	4945.04167
1534.018	5186.04167
1537.089	5354.375
1540.159	5358.04167
1543.226	5290.04167
1546.291	5137.04167
1549.354	4993.70833
1552.415	4846.375
1555.473	4716.375
1558.529	4600.375
1561.583	4537.70833
1564.634	4482.70833
1567.684	4450.04167
1570.731	4447.375
1573.776	4493.375
1576.819	4528.375
1579.859	4531.04167
1582.898	4612.04167
1585.934	4635.70833
1588.968	4666.04167
1591.999	4646.375
1595.029	4636.375
1598.056	4634.04167
1601.081	4661.70833
1604.104	4646.04167
1607.125	4604.70833
1610.144	4494.375
1613.16	4356.70833
1616.174	4256.70833
1619.186	4133.70833
1622.196	4035.04167
1625.203	3900.70833
1628.209	3865.70833
1631.212	3807.375
1634.213	3771.70833
1637.212	3747.04167
1640.209	3658.375
1643.203	3569.375
1646.196	3475.70833
1649.186	3335.04167
1652.174	3259.04167
1655.16	3169.375
1658.144	3063.04167
1661.125	2955.375
1664.105	2809.04167
1667.082	2713.70833
1670.057	2555.04167
1673.03	2401.70833
1676.001	2260.70833
1678.97	2095.70833
1681.937	1989.70833
1684.901	1862.04167
1687.863	1816.04167
1690.824	1749.70833
1693.782	1692.04167
1696.738	1647.375
1699.692	1624.70833
1702.643	1576.375
1705.593	1548.04167
1708.54	1535.70833
1711.486	1535.70833
1714.429	1512.04167
1717.37	1472.04167
1720.309	1465.70833
1723.246	1458.04167
1726.181	1418.375
1729.113	1423.375
1732.044	1408.375
1734.972	1402.70833
1737.899	1381.70833
1740.823	1378.70833
1743.745	1394.375
1746.665	1329.375
1749.583	1303.375
1752.499	1290.375
1755.413	1281.70833
1758.325	1254.70833
1761.235	1247.70833
1764.142	1219.375
1767.048	1213.70833
1769.951	1217.375
1772.852	1196.70833
1775.752	1178.70833
1778.649	1182.375
1781.544	1175.04167
1784.437	1158.375
1787.328	1159.70833
1790.217	1142.04167
1793.104	1137.04167
1795.989	1135.04167
1798.872	1128.04167
1801.753	1147.70833
1804.631	1134.70833
1807.508	1149.375
1810.383	1121.70833
1813.255	1126.375
1816.126	1116.04167
1818.994	1110.375
1821.861	1106.70833
1824.725	1097.70833
1827.587	1092.04167
1830.448	1094.04167
1833.306	1065.70833
1836.162	1072.70833
1839.017	1054.375
1841.869	1075.375
1844.719	1075.375
1847.567	1043.70833
1850.414	1048.04167
1853.258	1041.04167
1856.1	1049.04167
1858.94	1068.04167
1861.778	1049.70833
1864.614	1035.375
1867.448	1052.70833
1870.28	1031.70833
1873.111	1073.375
1875.939	1041.375
1878.765	1057.375
1881.589	1045.70833
1884.411	1034.70833
1887.231	1045.375
1890.049	1034.375
1892.865	1035.04167
1895.68	1024.04167
1898.492	1015.70833
1901.302	1022.375
1904.11	1019.70833
1906.916	1006.04167
1909.721	1009.04167
1912.523	1006.375
1915.323	982.375
1918.122	997.70833
1920.918	992.04167
1923.712	976.70833
1926.505	991.04167
1929.295	970.70833
1932.084	1003.70833
1934.87	993.375
1937.655	970.04167
1940.438	976.04167
1943.218	976.375
1945.997	975.70833
1948.774	994.70833
1951.549	990.70833
1954.322	963.04167
1957.093	975.70833
1959.862	962.70833
1962.629	960.04167
1965.394	959.04167
1968.157	946.70833
1970.918	955.04167
1973.678	947.70833
1976.435	955.70833
1979.19	938.375
1981.944	920.375
1984.696	937.375
1987.445	926.375
1990.193	930.375
1992.939	945.70833
1995.683	945.04167
1998.425	922.70833
2001.165	953.70833
2003.903	930.375
2006.639	926.04167
2009.374	918.375
2012.106	923.375
2014.837	894.375
2017.566	917.375
2020.292	909.375
2023.017	920.70833
2025.74	906.04167
2028.461	902.04167
2031.18	921.04167
2033.898	892.375
2036.613	919.04167
2039.327	917.04167
2042.038	889.04167
2044.748	891.70833
2047.456	882.375
2050.162	883.375
2052.866	890.04167
2055.568	890.375
2058.268	874.375
2060.967	883.375
2063.663	865.04167
2066.358	884.375
2069.051	877.70833
2071.742	872.375
2074.431	894.375
2077.118	872.375
2079.804	873.04167
2082.487	880.70833
2085.169	885.04167
2087.849	907.70833
2090.527	874.04167
2093.203	895.70833
2095.877	894.70833
2098.55	911.375
2101.22	917.04167
2103.889	933.375
2106.556	932.70833
2109.221	961.375
2111.884	1002.04167
2114.546	1058.04167
2117.205	1121.70833
2119.863	1216.70833
2122.519	1293.70833
2125.173	1367.375
2127.825	1448.70833
2130.475	1439.375
2133.124	1391.04167
2135.771	1348.04167
2138.416	1285.375
2141.059	1219.70833
2143.7	1161.70833
2146.339	1100.70833
2148.977	1054.04167
2151.613	1036.375
2154.247	1000.70833
2156.879	986.70833
2159.51	959.04167
2162.138	935.04167
2164.765	933.04167
2167.39	919.04167
2170.013	932.04167
2172.634	929.04167
2175.254	905.375
2177.872	908.04167
2180.488	881.70833
2183.102	880.70833
2185.714	871.70833
2188.325	862.70833
2190.934	844.04167
2193.541	854.375
2196.146	843.04167
2198.75	824.375
2201.351	831.70833
2203.951	820.375
2206.549	825.375
2209.146	804.04167
2211.74	804.04167
2214.333	808.70833
2216.924	782.70833
2219.514	801.70833
2222.101	786.04167
2224.687	787.04167
2227.271	778.375
2229.853	761.375
2232.433	763.04167
2235.012	786.04167
2237.589	778.04167
2240.164	787.04167
2242.738	769.70833
2245.309	751.70833
2247.879	755.70833
2250.448	764.70833
2253.014	745.04167
2255.579	731.04167
2258.142	737.375
2260.703	716.375
2263.262	714.70833
2265.82	708.04167
2268.376	723.70833
2270.93	695.375
2273.483	702.375
2276.033	709.375
2278.583	703.04167
2281.13	706.70833
2283.675	687.375
2286.219	694.70833
2288.761	686.375
2291.302	704.70833
2293.841	700.04167
2296.377	670.70833
2298.913	674.04167
2301.446	692.04167
2303.978	678.04167
2306.508	670.04167
2309.037	683.375
2311.563	674.04167
2314.088	671.375
2316.612	662.375
2319.133	665.375
2321.653	668.04167
2324.171	659.04167
2326.688	667.04167
2329.202	662.04167
2331.715	667.375
2334.227	653.04167
2336.736	655.04167
2339.244	644.375
2341.751	647.04167
2344.255	644.375
2346.758	655.375
2349.259	642.04167
2351.759	639.70833
2354.257	640.04167
2356.753	637.375
2359.247	643.04167
2361.74	642.375
2364.231	636.375
2366.721	637.70833
2369.209	630.375
2371.695	633.04167
2374.179	620.70833
2376.662	619.70833
2379.143	636.375
2381.622	625.70833
2384.1	633.70833
2386.576	625.375
2389.051	636.70833
2391.524	639.70833
2393.995	642.375
2396.464	619.375
2398.932	610.375
2401.398	616.375
2403.863	615.70833
2406.325	606.70833
2408.787	615.70833
2411.246	621.04167
2413.704	602.04167
2416.16	619.04167
2418.615	604.375
2421.068	622.70833
2423.519	605.70833
2425.969	607.04167
2428.417	607.70833
2430.863	622.04167
2433.308	618.375
2435.751	605.70833
2438.193	606.375
2440.633	619.375
2443.071	606.70833
2445.508	597.04167
2447.943	604.375
2450.376	592.04167
2452.808	600.04167
2455.238	594.375
2457.667	616.375
2460.093	590.04167
2462.519	585.70833
2464.942	585.04167
2467.365	593.70833
2469.785	595.375
2472.204	599.04167
2474.621	577.04167
2477.037	609.375
2479.451	576.04167
2481.863	583.70833
2484.274	576.04167
2486.683	569.04167
2489.091	587.375
2491.497	585.70833
2493.901	578.375
2496.304	582.70833
2498.705	579.04167
2501.105	576.375
2503.503	594.375
2505.899	575.70833
2508.294	593.375
2510.687	572.04167
2513.079	575.70833
2515.469	565.375
2517.858	559.70833
2520.245	577.04167
2522.63	571.04167
2525.014	565.375
2527.396	569.04167
2529.776	557.04167
2532.156	569.04167
2534.533	556.375
2536.909	561.375
2539.283	541.04167
2541.656	553.375
2544.027	586.375
2546.397	573.70833
2548.765	564.375
2551.131	570.70833
2553.496	558.375
2555.86	567.70833
2558.221	568.375
2560.582	560.375
2562.94	548.70833
2565.298	558.375
2567.653	567.70833
2570.007	544.375
2572.36	565.70833
2574.711	551.04167
2577.06	571.70833
2579.408	560.375
2581.754	552.70833
2584.099	553.375
2586.442	562.04167
2588.784	561.04167
2591.124	557.70833
2593.463	555.04167
2595.8	567.375
2598.135	548.04167
2600.469	558.70833
2602.802	574.70833
2605.133	568.375
2607.462	553.375
2609.79	547.04167
2612.116	558.04167
2614.441	549.70833
2616.764	553.04167
2619.086	556.70833
2621.406	554.375
2623.725	561.70833
2626.042	557.04167
2628.358	552.70833
2630.672	552.04167
2632.985	567.375
2635.296	558.375
2637.606	558.04167
2639.914	546.04167
2642.22	559.70833
2644.525	558.375
2646.829	558.70833
2649.131	567.70833
2651.432	570.70833
2653.731	568.375
2656.028	574.70833
2658.324	575.375
2660.619	564.04167
2662.912	570.04167
2665.204	567.04167
2667.494	577.04167
2669.782	566.375
2672.07	582.04167
2674.355	577.375
2676.639	575.04167
2678.922	560.375
2681.203	579.70833
2683.483	565.04167
2685.761	557.375
2688.038	575.70833
2690.313	598.375
2692.587	584.70833
2694.859	577.375
2697.13	578.70833
2699.399	580.70833
2701.667	601.04167
2703.933	597.04167
2706.198	609.70833
2708.461	614.375
2710.723	612.04167
2712.984	612.70833
2715.243	623.04167
2717.5	615.375
2719.757	633.70833
2722.011	619.04167
2724.264	627.70833
2726.516	647.04167
2728.766	631.375
2731.015	633.70833
2733.262	628.70833
2735.508	619.04167
2737.753	619.04167
2739.996	610.04167
2742.237	611.375
2744.477	620.04167
2746.716	618.70833
2748.953	610.70833
2751.189	610.70833
2753.423	598.375
2755.656	593.375
2757.887	599.04167
2760.117	594.375
2762.346	585.04167
2764.573	583.70833
2766.798	589.70833
2769.022	606.70833
2771.245	609.375
2773.467	597.375
2775.686	612.70833
2777.905	614.70833
2780.122	621.70833
2782.337	630.375
2784.552	626.375
2786.764	649.375
2788.976	638.375
2791.186	657.70833
2793.394	649.375
2795.601	673.04167
2797.807	687.70833
2800.011	687.375
2802.214	705.375
2804.415	702.375
2806.615	703.04167
2808.814	732.70833
2811.011	731.70833
2813.206	736.04167
2815.401	741.375
2817.594	754.70833
2819.785	775.375
2821.975	757.375
2824.164	782.70833
2826.351	802.375
2828.537	815.70833
2830.722	837.375
2832.905	847.375
2835.086	878.375
2837.267	916.04167
2839.445	957.70833
2841.623	977.04167
2843.799	1001.04167
2845.974	1051.375
2848.147	1088.70833
2850.319	1115.04167
2852.489	1159.375
2854.659	1147.70833
2856.826	1175.04167
2858.993	1199.04167
2861.158	1169.375
2863.321	1193.04167
2865.483	1202.70833
2867.644	1203.375
2869.804	1185.375
2871.962	1199.375
2874.118	1197.04167
2876.274	1178.375
2878.428	1179.375
2880.58	1189.375
2882.731	1176.375
2884.881	1170.04167
2887.03	1168.04167
2889.177	1165.70833
2891.322	1168.70833
2893.467	1186.70833
2895.61	1177.70833
2897.751	1201.375
2899.892	1193.375
2902.03	1193.70833
2904.168	1200.04167
2906.304	1224.375
2908.439	1240.375
2910.572	1219.04167
2912.704	1235.04167
2914.835	1217.375
2916.965	1213.70833
2919.093	1232.375
2921.219	1202.375
2923.345	1208.70833
2925.469	1183.04167
2927.591	1179.04167
2929.712	1138.375
2931.832	1125.375
2933.951	1101.04167
2936.068	1075.375
2938.184	1033.70833
2940.299	1001.70833
2942.412	988.04167
2944.524	946.70833
2946.634	933.375
2948.744	874.04167
2950.851	886.375
2952.958	840.375
2955.063	835.70833
2957.167	807.04167
2959.269	779.70833
2961.371	785.375
2963.471	757.04167
2965.569	741.375
2967.666	720.04167
2969.762	700.375
2971.857	686.04167
2973.95	666.70833
2976.042	665.04167
2978.133	645.70833
2980.222	618.375
2982.31	598.70833
2984.396	582.70833
2986.482	588.70833
2988.566	591.375
2990.648	569.04167
2992.73	567.375
2994.81	550.375
2996.889	560.375
2998.966	547.375
3001.042	550.04167
3003.117	549.04167
3005.191	538.70833
3007.263	539.04167
3009.334	536.70833
3011.403	521.375
3013.472	503.04167
3015.539	508.04167
3017.604	505.375
3019.669	476.375
3021.732	474.70833
3023.794	500.375
3025.854	465.04167
3027.914	469.70833
3029.971	471.04167
3032.028	458.04167
3034.083	465.70833
3036.137	457.70833
3038.19	442.70833
3040.242	430.375
3042.292	412.70833
3044.341	412.375
3046.388	434.70833
3048.435	402.375
3050.48	415.375
3052.524	403.375
3054.566	390.04167
3056.607	406.375
3058.647	393.375
3060.686	373.04167
3062.723	372.04167
3064.759	358.70833
3066.794	0.375
3068.828	-1.29167
3070.86	-2.625
