-0.839	425.375
3.438	459.375
7.711	130.375
11.981	54.04167
16.247	45.04167
20.509	46.70833
24.768	49.70833
29.024	46.375
33.276	44.04167
37.524	49.375
41.769	40.04167
46.01	39.375
50.247	52.04167
54.481	62.375
58.712	72.375
62.939	55.04167
67.162	64.375
71.382	58.375
75.599	43.70833
79.812	65.375
84.021	85.04167
88.227	62.04167
92.429	70.04167
96.628	54.04167
100.823	66.375
105.015	75.04167
109.204	82.70833
113.388	83.375
117.57	81.04167
121.748	94.70833
125.922	86.70833
130.093	104.04167
134.261	114.70833
138.425	105.70833
142.585	151.70833
146.742	150.04167
150.896	177.04167
155.046	223.70833
159.193	348.70833
163.336	605.375
167.476	1124.375
171.613	2072.375
175.746	3453.70833
179.875	5135.375
184.002	6745.375
188.124	7787.375
192.244	8154.04167
196.36	8031.70833
200.472	7855.04167
204.581	7663.375
208.687	7487.04167
212.79	7446.375
216.889	7510.375
220.984	7621.04167
225.077	7725.375
229.165	7802.70833
233.251	7879.70833
237.333	7919.70833
241.412	7886.70833
245.487	7894.70833
249.559	7781.375
253.628	7719.04167
257.694	7601.375
261.756	7541.04167
265.814	7350.04167
269.87	7119.375
273.922	6942.04167
277.97	6835.04167
282.016	6808.04167
286.058	6777.375
290.097	6823.70833
294.132	6851.375
298.164	6744.70833
302.193	6381.375
306.219	5851.04167
310.241	5333.04167
314.26	4877.70833
318.276	4443.04167
322.288	4189.70833
326.297	3921.375
330.303	3766.70833
334.305	3624.375
338.305	3557.375
342.301	3509.04167
346.294	3453.375
350.283	3411.375
354.269	3380.375
358.252	3353.70833
362.232	3322.70833
366.209	3303.04167
370.182	3280.375
374.152	3281.70833
378.119	3260.375
382.083	3251.04167
386.043	3274.04167
390	3227.375
393.954	3200.70833
397.905	3168.70833
401.852	3141.375
405.797	3099.04167
409.738	3054.375
413.676	3053.375
417.61	3038.04167
421.542	2999.70833
425.47	2972.375
429.396	2938.375
433.318	2919.04167
437.236	2894.04167
441.152	2928.70833
445.065	2878.04167
448.974	2882.375
452.88	2827.375
456.783	2827.70833
460.683	2805.70833
464.58	2811.70833
468.473	2852.375
472.364	2824.70833
476.251	2825.70833
480.135	2843.375
484.016	2909.04167
487.894	2901.70833
491.769	2902.04167
495.641	2919.04167
499.509	2920.04167
503.375	2918.375
507.237	2882.70833
511.096	2862.375
514.952	2881.70833
518.805	2866.04167
522.655	2873.375
526.502	2827.04167
530.346	2886.375
534.187	2876.04167
538.024	2873.70833
541.859	2881.04167
545.69	2889.375
549.519	2870.375
553.344	2855.375
557.166	2830.04167
560.985	2789.375
564.802	2755.375
568.615	2724.375
572.425	2698.04167
576.232	2664.04167
580.036	2660.70833
583.836	2663.70833
587.634	2675.04167
591.429	2663.70833
595.221	2708.375
599.01	2747.04167
602.796	2791.375
606.578	2806.04167
610.358	2805.04167
614.135	2797.70833
617.909	2805.04167
621.679	2781.375
625.447	2758.04167
629.212	2769.04167
632.973	2768.70833
636.732	2764.04167
640.488	2759.04167
644.241	2728.375
647.991	2712.04167
651.737	2733.70833
655.481	2714.04167
659.222	2724.70833
662.96	2704.04167
666.695	2722.375
670.427	2742.04167
674.156	2760.04167
677.882	2762.70833
681.605	2747.04167
685.325	2724.375
689.043	2731.04167
692.757	2705.70833
696.468	2721.375
700.177	2730.70833
703.882	2737.04167
707.585	2722.04167
711.284	2728.375
714.981	2731.70833
718.675	2764.04167
722.366	2782.375
726.054	2746.70833
729.739	2736.70833
733.421	2771.70833
737.1	2739.70833
740.777	2754.375
744.45	2782.04167
748.121	2830.375
751.789	2873.70833
755.453	2855.375
759.115	2887.70833
762.774	2901.04167
766.431	2924.375
770.084	2980.04167
773.734	3004.375
777.382	3077.04167
781.027	3089.70833
784.669	3125.70833
788.308	3122.375
791.944	3158.375
795.577	3174.375
799.208	3217.04167
802.835	3245.375
806.46	3265.70833
810.082	3282.04167
813.701	3289.04167
817.317	3300.70833
820.931	3320.04167
824.542	3310.04167
828.149	3281.375
831.754	3261.375
835.357	3234.375
838.956	3243.375
842.553	3240.04167
846.146	3209.375
849.737	3227.70833
853.326	3223.70833
856.911	3242.375
860.493	3282.70833
864.073	3301.375
867.65	3345.375
871.225	3394.04167
874.796	3408.04167
878.365	3425.04167
881.931	3452.375
885.494	3498.70833
889.054	3473.04167
892.612	3479.375
896.166	3433.375
899.719	3399.375
903.268	3340.375
906.814	3349.70833
910.358	3320.375
913.899	3320.375
917.438	3325.04167
920.973	3308.70833
924.506	3346.70833
928.036	3384.70833
931.564	3410.04167
935.088	3450.70833
938.61	3469.04167
942.129	3484.375
945.646	3578.04167
949.16	3677.04167
952.671	3743.375
956.179	3786.04167
959.685	3736.04167
963.188	3687.04167
966.688	3646.04167
970.185	3585.70833
973.68	3495.04167
977.173	3511.04167
980.662	3457.375
984.149	3504.04167
987.633	3482.04167
991.114	3559.04167
994.593	3636.375
998.069	3805.375
1001.542	3895.375
1005.013	3792.70833
1008.481	3559.70833
1011.947	3518.70833
1015.409	3492.04167
1018.869	3524.04167
1022.327	3512.375
1025.782	3463.70833
1029.234	3486.375
1032.683	3465.04167
1036.13	3343.04167
1039.574	3208.375
1043.016	3133.04167
1046.455	3070.375
1049.891	3023.70833
1053.325	3040.70833
1056.756	3036.70833
1060.184	3083.375
1063.61	3082.375
1067.033	3092.70833
1070.454	3117.04167
1073.872	3138.70833
1077.287	3131.04167
1080.7	3149.375
1084.11	3156.70833
1087.517	3124.70833
1090.922	3083.04167
1094.325	3073.70833
1097.724	3021.70833
1101.122	3046.04167
1104.516	3019.70833
1107.908	3035.375
1111.298	3062.70833
1114.684	3107.375
1118.069	3159.375
1121.45	3174.375
1124.83	3207.375
1128.206	3200.70833
1131.58	3244.375
1134.951	3308.70833
1138.32	3439.04167
1141.687	3589.04167
1145.05	3658.375
1148.412	3668.375
1151.77	3674.04167
1155.126	3643.375
1158.48	3665.70833
1161.831	3699.04167
1165.18	3746.04167
1168.525	3805.70833
1171.869	3829.375
1175.21	3863.04167
1178.548	3926.375
1181.884	3946.70833
1185.217	3989.70833
1188.548	4064.375
1191.877	4120.70833
1195.202	4209.04167
1198.526	4286.375
1201.846	4297.04167
1205.165	4311.04167
1208.48	4255.70833
1211.794	4240.375
1215.104	4263.70833
1218.413	4251.70833
1221.719	4227.375
1225.022	4212.70833
1228.323	4192.04167
1231.621	4164.375
1234.917	4167.375
1238.21	4211.375
1241.501	4164.04167
1244.79	4179.04167
1248.076	4181.70833
1251.359	4242.375
1254.64	4310.04167
1257.919	4325.375
1261.195	4378.375
1264.468	4470.04167
1267.74	4533.375
1271.008	4541.375
1274.275	4509.70833
1277.538	4476.375
1280.8	4459.04167
1284.059	4438.70833
1287.315	4487.70833
1290.569	4532.70833
1293.821	4548.04167
1297.07	4575.70833
1300.317	4611.70833
1303.562	4553.70833
1306.803	4519.70833
1310.043	4480.375
1313.28	4415.04167
1316.515	4376.04167
1319.747	4315.375
1322.977	4260.375
1326.204	4177.04167
1329.429	4161.375
1332.652	4109.70833
1335.872	4091.375
1339.09	4053.70833
1342.306	4074.375
1345.519	4060.375
1348.729	4022.375
1351.938	4017.70833
1355.144	3941.375
1358.347	3892.375
1361.548	3885.70833
1364.747	3879.04167
1367.944	3907.04167
1371.138	3882.70833
1374.329	3939.375
1377.518	3965.70833
1380.705	3981.375
1383.89	3950.04167
1387.072	3859.04167
1390.252	3728.70833
1393.429	3600.04167
1396.605	3483.70833
1399.777	3402.375
1402.948	3374.04167
1406.116	3360.04167
1409.282	3364.375
1412.445	3371.70833
1415.606	3418.04167
1418.765	3444.04167
1421.921	3559.04167
1425.075	3631.70833
1428.227	3745.375
1431.376	3939.70833
1434.524	4041.70833
1437.668	4132.04167
1440.811	4175.70833
1443.951	4170.375
1447.089	4197.04167
1450.224	4202.70833
1453.357	4151.04167
1456.488	4160.04167
1459.617	4083.375
1462.743	4040.04167
1465.867	3940.70833
1468.989	3888.375
1472.108	3831.70833
1475.225	3737.04167
1478.34	3720.04167
1481.453	3745.375
1484.563	3722.70833
1487.671	3777.04167
1490.776	3845.70833
1493.88	3946.70833
1496.981	4030.375
1500.08	4080.04167
1503.176	4158.70833
1506.271	4195.375
1509.363	4274.04167
1512.452	4332.70833
1515.54	4419.04167
1518.625	4510.70833
1521.708	4666.70833
1524.789	4907.04167
1527.867	5195.04167
1530.944	5513.04167
1534.018	5813.04167
1537.089	5973.04167
1540.159	5993.70833
1543.226	5862.70833
1546.291	5664.04167
1549.354	5477.04167
1552.415	5290.04167
1555.473	5138.70833
1558.529	5026.04167
1561.583	4953.04167
1564.634	4941.70833
1567.684	4924.70833
1570.731	4917.375
1573.776	4979.70833
1576.819	4997.375
1579.859	5020.375
1582.898	5088.375
1585.934	5142.70833
1588.968	5197.375
1591.999	5132.375
1595.029	5155.04167
1598.056	5162.04167
1601.081	5187.04167
1604.104	5149.04167
1607.125	5124.375
1610.144	5017.70833
1613.16	4860.375
1616.174	4764.375
1619.186	4602.70833
1622.196	4502.375
1625.203	4415.70833
1628.209	4322.70833
1631.212	4249.375
1634.213	4217.04167
1637.212	4169.70833
1640.209	4116.70833
1643.203	3992.375
1646.196	3891.70833
1649.186	3749.375
1652.174	3662.70833
1655.16	3512.375
1658.144	3408.375
1661.125	3248.04167
1664.105	3109.375
1667.082	2947.375
1670.057	2796.70833
1673.03	2632.70833
1676.001	2469.70833
1678.97	2314.375
1681.937	2184.375
1684.901	2082.04167
1687.863	1994.70833
1690.824	1918.375
1693.782	1884.375
1696.738	1824.70833
1699.692	1812.04167
1702.643	1753.375
1705.593	1712.04167
1708.54	1686.375
1711.486	1694.70833
1714.429	1645.70833
1717.37	1631.04167
1720.309	1607.70833
1723.246	1614.04167
1726.181	1571.70833
1729.113	1569.375
1732.044	1559.04167
1734.972	1531.04167
1737.899	1532.70833
1740.823	1529.04167
1743.745	1508.70833
1746.665	1470.70833
1749.583	1431.70833
1752.499	1426.375
1755.413	1401.04167
1758.325	1361.375
1761.235	1371.70833
1764.142	1344.04167
1767.048	1336.04167
1769.951	1310.70833
1772.852	1306.375
1775.752	1319.04167
1778.649	1296.70833
1781.544	1304.04167
1784.437	1281.70833
1787.328	1279.04167
1790.217	1264.04167
1793.104	1252.04167
1795.989	1230.70833
1798.872	1226.375
1801.753	1243.375
1804.631	1247.04167
1807.508	1256.70833
1810.383	1241.70833
1813.255	1212.70833
1816.126	1223.375
1818.994	1230.375
1821.861	1202.04167
1824.725	1189.375
1827.587	1210.04167
1830.448	1198.70833
1833.306	1165.04167
1836.162	1158.04167
1839.017	1168.70833
1841.869	1166.70833
1844.719	1164.04167
1847.567	1135.375
1850.414	1145.04167
1853.258	1141.70833
1856.1	1168.04167
1858.94	1162.70833
1861.778	1146.04167
1864.614	1140.375
1867.448	1150.375
1870.28	1125.70833
1873.111	1168.375
1875.939	1119.375
1878.765	1153.70833
1881.589	1127.04167
1884.411	1134.70833
1887.231	1141.70833
1890.049	1132.04167
1892.865	1119.375
1895.68	1095.375
1898.492	1113.375
1901.302	1105.375
1904.11	1099.70833
1906.916	1082.70833
1909.721	1088.375
1912.523	1093.375
1915.323	1061.375
1918.122	1078.04167
1920.918	1087.375
1923.712	1064.70833
1926.505	1079.375
1929.295	1054.375
1932.084	1070.04167
1934.87	1065.04167
1937.655	1053.04167
1940.438	1053.375
1943.218	1049.375
1945.997	1058.375
1948.774	1060.375
1951.549	1052.04167
1954.322	1057.375
1957.093	1049.375
1959.862	1048.04167
1962.629	1055.70833
1965.394	1025.375
1968.157	1028.04167
1970.918	1033.375
1973.678	1025.70833
1976.435	1022.70833
1979.19	1021.04167
1981.944	1005.375
1984.696	1019.375
1987.445	1002.04167
1990.193	1000.375
1992.939	1024.375
1995.683	1010.70833
1998.425	988.70833
2001.165	1001.04167
2003.903	992.04167
2006.639	991.70833
2009.374	979.70833
2012.106	976.375
2014.837	967.04167
2017.566	991.70833
2020.292	993.375
2023.017	981.375
2025.74	983.70833
2028.461	966.70833
2031.18	963.04167
2033.898	957.04167
2036.613	971.04167
2039.327	973.70833
2042.038	941.70833
2044.748	968.70833
2047.456	966.04167
2050.162	936.375
2052.866	945.04167
2055.568	952.04167
2058.268	950.04167
2060.967	948.70833
2063.663	932.04167
2066.358	955.375
2069.051	930.04167
2071.742	959.70833
2074.431	952.04167
2077.118	942.375
2079.804	943.04167
2082.487	944.04167
2085.169	956.70833
2087.849	978.04167
2090.527	962.375
2093.203	977.04167
2095.877	978.04167
2098.55	992.70833
2101.22	1012.70833
2103.889	1010.70833
2106.556	1031.70833
2109.221	1080.04167
2111.884	1134.70833
2114.546	1202.375
2117.205	1332.375
2119.863	1471.04167
2122.519	1588.70833
2125.173	1727.70833
2127.825	1835.04167
2130.475	1865.04167
2133.124	1809.70833
2135.771	1723.04167
2138.416	1629.70833
2141.059	1506.04167
2143.7	1445.70833
2146.339	1337.70833
2148.977	1248.70833
2151.613	1219.375
2154.247	1167.04167
2156.879	1137.70833
2159.51	1109.70833
2162.138	1084.375
2164.765	1075.70833
2167.39	1057.04167
2170.013	1056.70833
2172.634	1045.70833
2175.254	1018.04167
2177.872	1042.70833
2180.488	1004.375
2183.102	1002.70833
2185.714	996.70833
2188.325	953.375
2190.934	955.04167
2193.541	948.70833
2196.146	926.04167
2198.75	915.04167
2201.351	908.70833
2203.951	888.375
2206.549	902.04167
2209.146	871.04167
2211.74	867.04167
2214.333	878.375
2216.924	841.375
2219.514	855.375
2222.101	840.04167
2224.687	852.70833
2227.271	840.70833
2229.853	818.375
2232.433	815.70833
2235.012	825.375
2237.589	819.70833
2240.164	829.375
2242.738	813.375
2245.309	798.375
2247.879	798.70833
2250.448	809.375
2253.014	777.70833
2255.579	774.04167
2258.142	769.375
2260.703	751.70833
2263.262	750.70833
2265.82	754.70833
2268.376	750.70833
2270.93	733.70833
2273.483	729.04167
2276.033	737.70833
2278.583	731.375
2281.13	725.70833
2283.675	721.04167
2286.219	730.70833
2288.761	709.04167
2291.302	727.04167
2293.841	705.70833
2296.377	700.04167
2298.913	711.375
2301.446	706.375
2303.978	693.04167
2306.508	683.70833
2309.037	709.04167
2311.563	698.375
2314.088	694.70833
2316.612	683.04167
2319.133	684.70833
2321.653	672.375
2324.171	684.04167
2326.688	688.70833
2329.202	665.70833
2331.715	676.04167
2334.227	663.375
2336.736	667.375
2339.244	651.04167
2341.751	650.375
2344.255	659.375
2346.758	659.04167
2349.259	645.70833
2351.759	655.70833
2354.257	648.375
2356.753	650.375
2359.247	641.375
2361.74	644.04167
2364.231	630.70833
2366.721	646.70833
2369.209	636.04167
2371.695	634.04167
2374.179	630.70833
2376.662	618.70833
2379.143	642.04167
2381.622	627.375
2384.1	629.70833
2386.576	622.70833
2389.051	648.04167
2391.524	635.375
2393.995	630.04167
2396.464	610.70833
2398.932	622.70833
2401.398	627.70833
2403.863	608.04167
2406.325	612.375
2408.787	609.04167
2411.246	604.04167
2413.704	603.70833
2416.16	604.70833
2418.615	606.70833
2421.068	613.375
2423.519	596.04167
2425.969	603.70833
2428.417	604.375
2430.863	615.04167
2433.308	610.70833
2435.751	594.375
2438.193	599.375
2440.633	605.04167
2443.071	593.70833
2445.508	581.375
2447.943	579.04167
2450.376	574.375
2452.808	587.04167
2455.238	565.70833
2457.667	607.04167
2460.093	569.70833
2462.519	562.70833
2464.942	563.04167
2467.365	578.70833
2469.785	573.70833
2472.204	569.375
2474.621	564.70833
2477.037	592.04167
2479.451	558.375
2481.863	555.375
2484.274	550.04167
2486.683	559.70833
2489.091	560.375
2491.497	569.70833
2493.901	550.04167
2496.304	555.375
2498.705	565.70833
2501.105	557.04167
2503.503	582.70833
2505.899	542.04167
2508.294	567.70833
2510.687	539.375
2513.079	544.70833
2515.469	537.375
2517.858	539.04167
2520.245	560.04167
2522.63	540.04167
2525.014	536.70833
2527.396	534.375
2529.776	522.04167
2532.156	534.04167
2534.533	525.70833
2536.909	531.375
2539.283	513.70833
2541.656	523.375
2544.027	545.375
2546.397	539.04167
2548.765	523.04167
2551.131	530.375
2553.496	523.04167
2555.86	526.375
2558.221	521.375
2560.582	524.04167
2562.94	506.375
2565.298	520.70833
2567.653	526.04167
2570.007	502.04167
2572.36	513.04167
2574.711	513.04167
2577.06	534.04167
2579.408	513.04167
2581.754	510.375
2584.099	512.04167
2586.442	509.70833
2588.784	514.70833
2591.124	510.375
2593.463	504.70833
2595.8	503.04167
2598.135	486.70833
2600.469	501.70833
2602.802	514.04167
2605.133	518.375
2607.462	498.375
2609.79	499.375
2612.116	506.04167
2614.441	504.70833
2616.764	505.70833
2619.086	499.70833
2621.406	499.70833
2623.725	503.375
2626.042	508.70833
2628.358	503.70833
2630.672	494.70833
2632.985	511.375
2635.296	498.70833
2637.606	495.70833
2639.914	488.70833
2642.22	494.375
2644.525	502.04167
2646.829	500.04167
2649.131	507.70833
2651.432	511.375
2653.731	506.70833
2656.028	512.375
2658.324	502.375
2660.619	491.04167
2662.912	511.375
2665.204	492.04167
2667.494	521.70833
2669.782	489.70833
2672.07	508.375
2674.355	523.70833
2676.639	510.375
2678.922	501.04167
2681.203	506.70833
2683.483	492.04167
2685.761	492.70833
2688.038	517.375
2690.313	527.375
2692.587	509.375
2694.859	501.04167
2697.13	515.70833
2699.399	510.70833
2701.667	533.375
2703.933	528.70833
2706.198	516.04167
2708.461	534.70833
2710.723	539.70833
2712.984	536.04167
2715.243	545.375
2717.5	537.375
2719.757	550.04167
2722.011	541.375
2724.264	559.04167
2726.516	563.70833
2728.766	540.70833
2731.015	554.375
2733.262	550.70833
2735.508	548.70833
2737.753	539.375
2739.996	534.70833
2742.237	522.70833
2744.477	531.04167
2746.716	540.375
2748.953	531.04167
2751.189	531.70833
2753.423	520.70833
2755.656	508.375
2757.887	504.375
2760.117	513.70833
2762.346	501.70833
2764.573	500.70833
2766.798	504.70833
2769.022	518.70833
2771.245	516.375
2773.467	512.04167
2775.686	519.04167
2777.905	524.375
2780.122	537.375
2782.337	536.04167
2784.552	532.04167
2786.764	552.04167
2788.976	545.04167
2791.186	560.70833
2793.394	559.375
2795.601	568.375
2797.807	579.375
2800.011	587.375
2802.214	621.04167
2804.415	603.04167
2806.615	606.375
2808.814	621.375
2811.011	631.70833
2813.206	630.04167
2815.401	659.04167
2817.594	672.375
2819.785	678.375
2821.975	677.04167
2824.164	677.70833
2826.351	698.70833
2828.537	743.04167
2830.722	751.04167
2832.905	763.375
2835.086	795.70833
2837.267	832.04167
2839.445	863.04167
2841.623	888.04167
2843.799	937.70833
2845.974	970.04167
2848.147	1016.70833
2850.319	1041.375
2852.489	1081.375
2854.659	1102.04167
2856.826	1109.375
2858.993	1137.70833
2861.158	1136.375
2863.321	1127.04167
2865.483	1148.70833
2867.644	1151.04167
2869.804	1147.04167
2871.962	1123.04167
2874.118	1131.375
2876.274	1150.375
2878.428	1125.04167
2880.58	1107.70833
2882.731	1109.375
2884.881	1114.04167
2887.03	1103.04167
2889.177	1112.70833
2891.322	1123.70833
2893.467	1107.04167
2895.61	1118.70833
2897.751	1140.04167
2899.892	1143.375
2902.03	1147.70833
2904.168	1156.04167
2906.304	1164.70833
2908.439	1172.70833
2910.572	1152.04167
2912.704	1173.04167
2914.835	1183.04167
2916.965	1181.375
2919.093	1174.04167
2921.219	1138.70833
2923.345	1157.04167
2925.469	1121.04167
2927.591	1130.70833
2929.712	1077.04167
2931.832	1073.04167
2933.951	1049.04167
2936.068	1014.04167
2938.184	972.375
2940.299	944.04167
2942.412	915.375
2944.524	874.04167
2946.634	839.04167
2948.744	779.70833
2950.851	797.70833
2952.958	746.70833
2955.063	730.70833
2957.167	724.04167
2959.269	668.70833
2961.371	688.04167
2963.471	637.04167
2965.569	642.70833
2967.666	600.70833
2969.762	598.04167
2971.857	568.70833
2973.95	549.04167
2976.042	542.375
2978.133	520.70833
2980.222	504.04167
2982.31	484.70833
2984.396	472.70833
2986.482	464.70833
2988.566	469.70833
2990.648	446.70833
2992.73	441.04167
2994.81	428.70833
2996.889	438.04167
2998.966	421.70833
3001.042	428.375
3003.117	412.375
3005.191	407.04167
3007.263	399.04167
3009.334	401.70833
3011.403	394.04167
3013.472	372.04167
3015.539	374.375
3017.604	381.70833
3019.669	351.70833
3021.732	352.375
3023.794	349.04167
3025.854	338.04167
3027.914	332.375
3029.971	339.375
3032.028	331.04167
3034.083	338.375
3036.137	335.70833
3038.19	317.70833
3040.242	310.70833
3042.292	297.04167
3044.341	294.70833
3046.388	312.375
3048.435	285.375
3050.48	311.375
3052.524	297.375
3054.566	277.04167
3056.607	292.04167
3058.647	281.375
3060.686	266.04167
3062.723	259.70833
3064.759	252.04167
3066.794	1.375
3068.828	0.04167
3070.86	-2.95833
