-0.839	448.125
3.438	483.125
7.711	136.79167
11.981	56.45833
16.247	48.125
20.509	49.125
24.768	42.79167
29.024	47.45833
33.276	43.125
37.524	48.45833
41.769	41.45833
46.01	40.125
50.247	54.45833
54.481	57.45833
58.712	64.79167
62.939	50.45833
67.162	59.45833
71.382	57.45833
75.599	52.45833
79.812	63.45833
84.021	81.79167
88.227	60.125
92.429	64.79167
96.628	50.45833
100.823	67.125
105.015	74.79167
109.204	81.45833
113.388	80.45833
117.57	77.125
121.748	86.45833
125.922	79.79167
130.093	99.79167
134.261	106.79167
138.425	103.79167
142.585	142.45833
146.742	142.45833
150.896	172.125
155.046	205.125
159.193	326.45833
163.336	550.125
167.476	1020.45833
171.613	1870.45833
175.746	3168.125
179.875	4671.45833
184.002	6102.79167
188.124	7057.125
192.244	7377.79167
196.36	7341.125
200.472	7128.125
204.581	6957.45833
208.687	6802.45833
212.79	6744.79167
216.889	6814.125
220.984	6868.45833
225.077	6912.125
229.165	7026.45833
233.251	7087.79167
237.333	7072.125
241.412	7079.45833
245.487	7094.45833
249.559	7047.125
253.628	6994.45833
257.694	6949.79167
261.756	6898.45833
265.814	6804.45833
269.87	6607.45833
273.922	6435.45833
277.97	6408.79167
282.016	6368.45833
286.058	6445.45833
290.097	6527.125
294.132	6570.45833
298.164	6472.79167
302.193	6166.45833
306.219	5702.45833
310.241	5182.45833
314.26	4693.79167
318.276	4280.79167
322.288	3962.125
326.297	3725.125
330.303	3543.45833
334.305	3413.79167
338.305	3321.125
342.301	3281.45833
346.294	3231.125
350.283	3196.45833
354.269	3165.45833
358.252	3136.79167
362.232	3097.79167
366.209	3078.125
370.182	3021.79167
374.152	2998.79167
378.119	2993.45833
382.083	2974.45833
386.043	2992.79167
390	2952.79167
393.954	2930.45833
397.905	2898.79167
401.852	2914.79167
405.797	2877.79167
409.738	2827.125
413.676	2818.79167
417.61	2800.79167
421.542	2805.79167
425.47	2786.125
429.396	2766.79167
433.318	2737.45833
437.236	2728.125
441.152	2724.125
445.065	2678.45833
448.974	2684.125
452.88	2653.125
456.783	2657.79167
460.683	2641.79167
464.58	2628.45833
468.473	2642.45833
472.364	2635.79167
476.251	2635.45833
480.135	2646.45833
484.016	2686.45833
487.894	2703.79167
491.769	2703.45833
495.641	2715.45833
499.509	2724.125
503.375	2712.45833
507.237	2696.79167
511.096	2709.125
514.952	2732.125
518.805	2792.125
522.655	2814.79167
526.502	2710.125
530.346	2706.45833
534.187	2732.45833
538.024	2740.79167
541.859	2720.45833
545.69	2790.125
549.519	2712.45833
553.344	2703.45833
557.166	2661.79167
560.985	2631.79167
564.802	2588.125
568.615	2557.125
572.425	2534.45833
576.232	2497.125
580.036	2498.45833
583.836	2525.125
587.634	2487.125
591.429	2513.45833
595.221	2557.45833
599.01	2592.125
602.796	2612.79167
606.578	2635.79167
610.358	2630.45833
614.135	2633.79167
617.909	2622.45833
621.679	2607.45833
625.447	2581.125
629.212	2591.79167
632.973	2593.45833
636.732	2571.79167
640.488	2588.125
644.241	2548.125
647.991	2549.125
651.737	2575.45833
655.481	2520.125
659.222	2519.125
662.96	2536.79167
666.695	2548.45833
670.427	2556.79167
674.156	2591.125
677.882	2573.79167
681.605	2594.125
685.325	2530.79167
689.043	2550.79167
692.757	2526.45833
696.468	2544.125
700.177	2545.45833
703.882	2538.45833
707.585	2536.125
711.284	2549.125
714.981	2567.79167
718.675	2576.79167
722.366	2591.45833
726.054	2548.125
729.739	2560.125
733.421	2552.79167
737.1	2542.45833
740.777	2584.125
744.45	2585.45833
748.121	2602.45833
751.789	2645.79167
755.453	2646.79167
759.115	2669.79167
762.774	2726.45833
766.431	2742.125
770.084	2750.79167
773.734	2787.79167
777.382	2856.125
781.027	2861.79167
784.669	2867.79167
788.308	2897.45833
791.944	2919.125
795.577	2935.125
799.208	2974.79167
802.835	2978.79167
806.46	3004.125
810.082	3016.125
813.701	3019.125
817.317	3036.125
820.931	3049.45833
824.542	3045.45833
828.149	2998.79167
831.754	2981.45833
835.357	2988.79167
838.956	2985.45833
842.553	2976.45833
846.146	2958.125
849.737	2940.79167
853.326	2970.125
856.911	2966.125
860.493	3045.45833
864.073	3035.125
867.65	3076.79167
871.225	3130.125
874.796	3142.45833
878.365	3140.79167
881.931	3172.79167
885.494	3187.125
889.054	3198.125
892.612	3171.125
896.166	3153.45833
899.719	3125.79167
903.268	3088.125
906.814	3080.125
910.358	3052.79167
913.899	3018.45833
917.438	3045.45833
920.973	3032.125
924.506	3079.45833
928.036	3102.79167
931.564	3140.45833
935.088	3158.45833
938.61	3165.45833
942.129	3248.125
945.646	3340.125
949.16	3386.125
952.671	3467.45833
956.179	3464.45833
959.685	3434.45833
963.188	3409.79167
966.688	3334.45833
970.185	3253.79167
973.68	3214.79167
977.173	3174.45833
980.662	3132.79167
984.149	3123.125
987.633	3134.79167
991.114	3200.45833
994.593	3288.79167
998.069	3395.125
1001.542	3487.125
1005.013	3392.79167
1008.481	3239.45833
1011.947	3171.125
1015.409	3162.45833
1018.869	3165.79167
1022.327	3153.125
1025.782	3111.79167
1029.234	3135.45833
1032.683	3114.125
1036.13	2990.45833
1039.574	2885.45833
1043.016	2801.125
1046.455	2784.125
1049.891	2730.45833
1053.325	2749.45833
1056.756	2753.79167
1060.184	2795.79167
1063.61	2777.125
1067.033	2817.79167
1070.454	2804.125
1073.872	2855.125
1077.287	2832.79167
1080.7	2853.45833
1084.11	2843.45833
1087.517	2813.45833
1090.922	2788.125
1094.325	2752.45833
1097.724	2752.79167
1101.122	2748.45833
1104.516	2732.45833
1107.908	2744.79167
1111.298	2794.45833
1114.684	2797.45833
1118.069	2869.125
1121.45	2895.79167
1124.83	2898.45833
1128.206	2927.125
1131.58	2963.79167
1134.951	3084.125
1138.32	3176.45833
1141.687	3301.79167
1145.05	3395.125
1148.412	3398.125
1151.77	3377.125
1155.126	3379.45833
1158.48	3373.125
1161.831	3402.79167
1165.18	3435.45833
1168.525	3473.125
1171.869	3525.45833
1175.21	3522.45833
1178.548	3567.125
1181.884	3601.79167
1185.217	3624.79167
1188.548	3696.125
1191.877	3760.79167
1195.202	3837.125
1198.526	3892.125
1201.846	3899.79167
1205.165	3928.125
1208.48	3876.79167
1211.794	3871.79167
1215.104	3876.45833
1218.413	3877.125
1221.719	3876.125
1225.022	3833.45833
1228.323	3775.79167
1231.621	3766.125
1234.917	3751.79167
1238.21	3807.79167
1241.501	3799.79167
1244.79	3762.79167
1248.076	3752.125
1251.359	3823.79167
1254.64	3903.45833
1257.919	3933.79167
1261.195	4004.79167
1264.468	4040.45833
1267.74	4104.125
1271.008	4131.45833
1274.275	4106.79167
1277.538	4079.45833
1280.8	4057.45833
1284.059	4060.79167
1287.315	4092.79167
1290.569	4128.79167
1293.821	4143.79167
1297.07	4154.125
1300.317	4175.125
1303.562	4135.45833
1306.803	4111.125
1310.043	4082.79167
1313.28	4010.45833
1316.515	3953.79167
1319.747	3929.45833
1322.977	3862.45833
1326.204	3811.125
1329.429	3772.45833
1332.652	3719.45833
1335.872	3717.45833
1339.09	3673.125
1342.306	3676.45833
1345.519	3626.125
1348.729	3614.79167
1351.938	3554.125
1355.144	3558.45833
1358.347	3511.45833
1361.548	3522.79167
1364.747	3532.45833
1367.944	3510.125
1371.138	3516.79167
1374.329	3575.45833
1377.518	3656.125
1380.705	3664.79167
1383.89	3639.125
1387.072	3534.125
1390.252	3381.45833
1393.429	3275.79167
1396.605	3192.45833
1399.777	3090.125
1402.948	3080.45833
1406.116	3050.45833
1409.282	3059.125
1412.445	3059.125
1415.606	3110.45833
1418.765	3138.45833
1421.921	3253.79167
1425.075	3294.79167
1428.227	3422.79167
1431.376	3538.79167
1434.524	3697.125
1437.668	3752.125
1440.811	3781.79167
1443.951	3801.79167
1447.089	3805.79167
1450.224	3807.45833
1453.357	3792.45833
1456.488	3750.125
1459.617	3701.79167
1462.743	3684.45833
1465.867	3606.45833
1468.989	3570.45833
1472.108	3508.125
1475.225	3457.79167
1478.34	3422.45833
1481.453	3386.125
1484.563	3429.79167
1487.671	3491.79167
1490.776	3557.45833
1493.88	3651.125
1496.981	3703.79167
1500.08	3743.125
1503.176	3813.125
1506.271	3856.125
1509.363	3948.125
1512.452	3980.125
1515.54	4055.45833
1518.625	4139.125
1521.708	4273.125
1524.789	4444.45833
1527.867	4702.125
1530.944	4976.45833
1534.018	5217.125
1537.089	5397.45833
1540.159	5430.125
1543.226	5299.79167
1546.291	5171.45833
1549.354	5026.125
1552.415	4881.45833
1555.473	4754.45833
1558.529	4651.125
1561.583	4566.79167
1564.634	4532.45833
1567.684	4498.125
1570.731	4529.125
1573.776	4512.45833
1576.819	4554.45833
1579.859	4583.125
1582.898	4619.45833
1585.934	4649.45833
1588.968	4679.125
1591.999	4656.45833
1595.029	4655.125
1598.056	4687.79167
1601.081	4691.79167
1604.104	4680.79167
1607.125	4625.79167
1610.144	4520.45833
1613.16	4391.79167
1616.174	4288.45833
1619.186	4152.79167
1622.196	4040.45833
1625.203	3927.125
1628.209	3844.45833
1631.212	3808.125
1634.213	3777.45833
1637.212	3715.79167
1640.209	3650.125
1643.203	3578.125
1646.196	3446.45833
1649.186	3344.125
1652.174	3270.125
1655.16	3174.45833
1658.144	3054.79167
1661.125	2921.45833
1664.105	2815.45833
1667.082	2699.125
1670.057	2547.125
1673.03	2388.79167
1676.001	2262.125
1678.97	2097.45833
1681.937	1982.45833
1684.901	1871.125
1687.863	1825.45833
1690.824	1730.125
1693.782	1708.79167
1696.738	1648.45833
1699.692	1625.79167
1702.643	1584.125
1705.593	1571.125
1708.54	1542.79167
1711.486	1530.125
1714.429	1505.79167
1717.37	1461.79167
1720.309	1456.125
1723.246	1461.79167
1726.181	1428.79167
1729.113	1425.125
1732.044	1412.45833
1734.972	1398.79167
1737.899	1396.79167
1740.823	1389.79167
1743.745	1385.125
1746.665	1327.79167
1749.583	1316.79167
1752.499	1308.79167
1755.413	1285.79167
1758.325	1252.79167
1761.235	1254.125
1764.142	1225.45833
1767.048	1220.45833
1769.951	1216.45833
1772.852	1199.45833
1775.752	1191.79167
1778.649	1203.45833
1781.544	1189.45833
1784.437	1150.79167
1787.328	1179.79167
1790.217	1158.79167
1793.104	1132.79167
1795.989	1146.45833
1798.872	1123.125
1801.753	1144.45833
1804.631	1132.45833
1807.508	1147.79167
1810.383	1120.79167
1813.255	1121.79167
1816.126	1127.79167
1818.994	1109.45833
1821.861	1114.125
1824.725	1105.79167
1827.587	1101.79167
1830.448	1085.79167
1833.306	1055.125
1836.162	1084.45833
1839.017	1067.79167
1841.869	1062.79167
1844.719	1054.125
1847.567	1051.45833
1850.414	1052.79167
1853.258	1045.79167
1856.1	1063.125
1858.94	1070.79167
1861.778	1058.45833
1864.614	1040.125
1867.448	1050.79167
1870.28	1049.45833
1873.111	1067.79167
1875.939	1040.125
1878.765	1073.45833
1881.589	1040.79167
1884.411	1035.45833
1887.231	1047.125
1890.049	1043.79167
1892.865	1023.125
1895.68	1027.79167
1898.492	1015.79167
1901.302	1014.125
1904.11	1013.125
1906.916	1013.79167
1909.721	1006.45833
1912.523	1009.45833
1915.323	976.125
1918.122	995.79167
1920.918	998.125
1923.712	990.45833
1926.505	989.79167
1929.295	979.45833
1932.084	985.125
1934.87	989.79167
1937.655	970.125
1940.438	971.45833
1943.218	980.79167
1945.997	1006.79167
1948.774	990.45833
1951.549	979.125
1954.322	972.79167
1957.093	973.79167
1959.862	953.45833
1962.629	974.45833
1965.394	961.79167
1968.157	950.45833
1970.918	950.79167
1973.678	951.45833
1976.435	954.79167
1979.19	934.45833
1981.944	942.125
1984.696	934.79167
1987.445	918.79167
1990.193	936.45833
1992.939	944.45833
1995.683	938.45833
1998.425	909.79167
2001.165	950.45833
2003.903	946.79167
2006.639	916.45833
2009.374	921.125
2012.106	931.79167
2014.837	901.125
2017.566	922.125
2020.292	922.125
2023.017	917.45833
2025.74	898.45833
2028.461	920.79167
2031.18	904.79167
2033.898	901.125
2036.613	903.79167
2039.327	914.125
2042.038	892.45833
2044.748	904.125
2047.456	891.79167
2050.162	868.125
2052.866	896.79167
2055.568	888.79167
2058.268	875.125
2060.967	884.79167
2063.663	878.79167
2066.358	891.125
2069.051	877.45833
2071.742	871.45833
2074.431	891.45833
2077.118	877.79167
2079.804	882.45833
2082.487	868.125
2085.169	878.79167
2087.849	904.45833
2090.527	872.79167
2093.203	892.125
2095.877	898.125
2098.55	907.125
2101.22	921.79167
2103.889	932.45833
2106.556	927.79167
2109.221	964.45833
2111.884	997.45833
2114.546	1058.79167
2117.205	1141.79167
2119.863	1225.125
2122.519	1291.45833
2125.173	1367.79167
2127.825	1436.125
2130.475	1451.125
2133.124	1424.45833
2135.771	1342.45833
2138.416	1289.79167
2141.059	1229.125
2143.7	1174.125
2146.339	1098.125
2148.977	1048.125
2151.613	1043.125
2154.247	997.125
2156.879	966.79167
2159.51	968.125
2162.138	947.79167
2164.765	939.79167
2167.39	925.125
2170.013	938.45833
2172.634	919.125
2175.254	893.79167
2177.872	933.125
2180.488	882.79167
2183.102	893.45833
2185.714	875.45833
2188.325	850.79167
2190.934	843.125
2193.541	848.125
2196.146	851.79167
2198.75	831.45833
2201.351	833.45833
2203.951	815.125
2206.549	834.45833
2209.146	810.79167
2211.74	806.125
2214.333	816.45833
2216.924	782.79167
2219.514	778.125
2222.101	781.125
2224.687	801.125
2227.271	774.125
2229.853	761.45833
2232.433	766.79167
2235.012	793.45833
2237.589	790.79167
2240.164	784.125
2242.738	768.125
2245.309	758.125
2247.879	772.45833
2250.448	760.79167
2253.014	744.125
2255.579	730.125
2258.142	730.125
2260.703	712.79167
2263.262	732.45833
2265.82	714.79167
2268.376	709.79167
2270.93	711.79167
2273.483	712.125
2276.033	710.125
2278.583	695.45833
2281.13	697.125
2283.675	693.45833
2286.219	696.79167
2288.761	685.79167
2291.302	705.125
2293.841	692.125
2296.377	674.45833
2298.913	682.125
2301.446	691.79167
2303.978	683.45833
2306.508	671.45833
2309.037	679.45833
2311.563	672.79167
2314.088	680.79167
2316.612	656.79167
2319.133	665.125
2321.653	665.125
2324.171	670.125
2326.688	672.45833
2329.202	665.125
2331.715	662.125
2334.227	651.45833
2336.736	657.125
2339.244	638.45833
2341.751	632.45833
2344.255	663.79167
2346.758	645.45833
2349.259	636.125
2351.759	650.45833
2354.257	644.45833
2356.753	639.79167
2359.247	637.125
2361.74	641.45833
2364.231	643.79167
2366.721	649.125
2369.209	633.79167
2371.695	629.125
2374.179	627.79167
2376.662	628.79167
2379.143	641.45833
2381.622	630.125
2384.1	633.125
2386.576	635.125
2389.051	627.79167
2391.524	647.125
2393.995	641.79167
2396.464	619.79167
2398.932	622.45833
2401.398	619.79167
2403.863	617.79167
2406.325	611.125
2408.787	615.79167
2411.246	614.45833
2413.704	615.125
2416.16	606.125
2418.615	611.125
2421.068	614.125
2423.519	609.45833
2425.969	605.79167
2428.417	608.79167
2430.863	625.79167
2433.308	621.79167
2435.751	615.79167
2438.193	603.45833
2440.633	610.125
2443.071	607.125
2445.508	599.45833
2447.943	597.79167
2450.376	593.79167
2452.808	610.79167
2455.238	583.79167
2457.667	624.79167
2460.093	598.45833
2462.519	581.45833
2464.942	587.125
2467.365	600.79167
2469.785	601.125
2472.204	584.79167
2474.621	584.125
2477.037	604.125
2479.451	577.79167
2481.863	571.45833
2484.274	585.45833
2486.683	578.79167
2489.091	588.45833
2491.497	590.79167
2493.901	582.125
2496.304	576.79167
2498.705	587.79167
2501.105	574.125
2503.503	607.125
2505.899	568.45833
2508.294	589.45833
2510.687	567.79167
2513.079	562.79167
2515.469	572.45833
2517.858	574.79167
2520.245	594.45833
2522.63	562.45833
2525.014	564.79167
2527.396	564.125
2529.776	568.45833
2532.156	573.125
2534.533	565.125
2536.909	559.45833
2539.283	554.79167
2541.656	563.125
2544.027	585.45833
2546.397	570.45833
2548.765	557.45833
2551.131	565.125
2553.496	560.125
2555.86	568.125
2558.221	572.125
2560.582	570.45833
2562.94	545.79167
2565.298	554.125
2567.653	578.79167
2570.007	543.45833
2572.36	566.125
2574.711	557.125
2577.06	578.45833
2579.408	546.125
2581.754	565.45833
2584.099	561.79167
2586.442	557.125
2588.784	569.125
2591.124	556.79167
2593.463	564.45833
2595.8	557.125
2598.135	546.125
2600.469	564.45833
2602.802	562.125
2605.133	571.79167
2607.462	544.79167
2609.79	552.125
2612.116	558.45833
2614.441	548.125
2616.764	572.45833
2619.086	557.79167
2621.406	554.45833
2623.725	563.125
2626.042	560.45833
2628.358	554.45833
2630.672	558.79167
2632.985	574.45833
2635.296	564.125
2637.606	565.79167
2639.914	550.79167
2642.22	571.79167
2644.525	565.45833
2646.829	570.79167
2649.131	571.45833
2651.432	580.125
2653.731	560.125
2656.028	581.45833
2658.324	565.79167
2660.619	570.125
2662.912	582.125
2665.204	561.79167
2667.494	577.79167
2669.782	558.125
2672.07	583.79167
2674.355	592.125
2676.639	573.45833
2678.922	570.79167
2681.203	579.79167
2683.483	572.79167
2685.761	566.125
2688.038	581.125
2690.313	588.125
2692.587	583.45833
2694.859	576.125
2697.13	582.45833
2699.399	595.79167
2701.667	604.45833
2703.933	601.125
2706.198	608.79167
2708.461	605.125
2710.723	619.79167
2712.984	607.79167
2715.243	632.45833
2717.5	605.45833
2719.757	630.45833
2722.011	621.45833
2724.264	628.45833
2726.516	653.125
2728.766	628.79167
2731.015	633.125
2733.262	635.79167
2735.508	625.45833
2737.753	628.45833
2739.996	616.45833
2742.237	612.79167
2744.477	630.125
2746.716	617.45833
2748.953	613.125
2751.189	620.45833
2753.423	604.79167
2755.656	600.125
2757.887	598.125
2760.117	597.45833
2762.346	592.79167
2764.573	596.79167
2766.798	605.125
2769.022	597.45833
2771.245	615.45833
2773.467	607.79167
2775.686	615.45833
2777.905	624.45833
2780.122	624.79167
2782.337	632.79167
2784.552	633.45833
2786.764	637.79167
2788.976	654.125
2791.186	656.79167
2793.394	668.125
2795.601	674.45833
2797.807	683.125
2800.011	684.79167
2802.214	712.125
2804.415	705.79167
2806.615	708.125
2808.814	729.125
2811.011	739.79167
2813.206	729.125
2815.401	753.79167
2817.594	776.45833
2819.785	777.125
2821.975	766.79167
2824.164	776.45833
2826.351	807.79167
2828.537	832.125
2830.722	833.79167
2832.905	850.125
2835.086	896.125
2837.267	927.125
2839.445	949.125
2841.623	983.79167
2843.799	1001.125
2845.974	1060.45833
2848.147	1092.45833
2850.319	1095.79167
2852.489	1143.45833
2854.659	1148.79167
2856.826	1178.79167
2858.993	1194.45833
2861.158	1180.45833
2863.321	1180.45833
2865.483	1200.45833
2867.644	1204.45833
2869.804	1191.125
2871.962	1187.45833
2874.118	1197.125
2876.274	1194.79167
2878.428	1185.79167
2880.58	1172.45833
2882.731	1171.79167
2884.881	1165.79167
2887.03	1172.125
2889.177	1172.125
2891.322	1185.79167
2893.467	1174.45833
2895.61	1178.125
2897.751	1197.45833
2899.892	1187.125
2902.03	1196.125
2904.168	1214.45833
2906.304	1200.79167
2908.439	1250.45833
2910.572	1223.79167
2912.704	1240.45833
2914.835	1222.125
2916.965	1232.45833
2919.093	1233.79167
2921.219	1202.125
2923.345	1206.125
2925.469	1184.45833
2927.591	1171.45833
2929.712	1135.125
2931.832	1122.125
2933.951	1111.45833
2936.068	1069.125
2938.184	1048.79167
2940.299	1001.125
2942.412	973.79167
2944.524	936.79167
2946.634	921.125
2948.744	880.79167
2950.851	889.79167
2952.958	837.45833
2955.063	825.45833
2957.167	796.45833
2959.269	769.79167
2961.371	789.125
2963.471	742.79167
2965.569	744.45833
2967.666	718.45833
2969.762	702.45833
2971.857	687.79167
2973.95	666.45833
2976.042	658.45833
2978.133	655.125
2980.222	630.45833
2982.31	609.79167
2984.396	584.125
2986.482	590.125
2988.566	586.45833
2990.648	564.79167
2992.73	564.125
2994.81	553.79167
2996.889	558.45833
2998.966	546.45833
3001.042	557.79167
3003.117	541.125
3005.191	548.125
3007.263	544.79167
3009.334	526.79167
3011.403	517.125
3013.472	502.45833
3015.539	508.125
3017.604	507.45833
3019.669	474.45833
3021.732	482.45833
3023.794	483.125
3025.854	463.45833
3027.914	458.125
3029.971	483.45833
3032.028	465.79167
3034.083	464.45833
3036.137	451.125
3038.19	444.79167
3040.242	427.45833
3042.292	430.125
3044.341	426.79167
3046.388	434.45833
3048.435	401.79167
3050.48	417.125
3052.524	416.45833
3054.566	391.79167
3056.607	412.125
3058.647	394.125
3060.686	376.79167
3062.723	371.79167
3064.759	351.45833
3066.794	-0.875
3068.828	-1.54167
3070.86	-2.20833
