-0.839	491.75
3.438	529.08333
7.711	146.08333
11.981	53.75
16.247	45.08333
20.509	46.08333
24.768	45.41667
29.024	44.08333
33.276	39.08333
37.524	48.41667
41.769	39.41667
46.01	35.41667
50.247	53.75
54.481	59.75
58.712	65.41667
62.939	46.41667
67.162	61.08333
71.382	54.41667
75.599	47.08333
79.812	62.41667
84.021	78.75
88.227	61.75
92.429	60.08333
96.628	47.75
100.823	65.41667
105.015	72.08333
109.204	75.75
113.388	72.08333
117.57	69.41667
121.748	84.41667
125.922	80.41667
130.093	95.41667
134.261	104.08333
138.425	95.08333
142.585	133.75
146.742	132.75
150.896	158.41667
155.046	196.41667
159.193	312.08333
163.336	546.08333
167.476	1001.41667
171.613	1849.75
175.746	3080.41667
179.875	4491.08333
184.002	5780.41667
188.124	6640.41667
192.244	6849.41667
196.36	6751.08333
200.472	6410.75
204.581	6195.41667
208.687	5963.75
212.79	5834.08333
216.889	5787.08333
220.984	5753.75
225.077	5786.41667
229.165	5823.75
233.251	5787.75
237.333	5820.08333
241.412	5731.75
245.487	5711.41667
249.559	5647.41667
253.628	5573.41667
257.694	5521.75
261.756	5511.08333
265.814	5339.41667
269.87	5245.08333
273.922	5122.08333
277.97	5041.08333
282.016	4977.41667
286.058	4927.75
290.097	4998.75
294.132	4960.75
298.164	4937.08333
302.193	4704.75
306.219	4415.41667
310.241	4014.41667
314.26	3661.75
318.276	3363.75
322.288	3139.75
326.297	2961.41667
330.303	2848.08333
334.305	2770.08333
338.305	2694.41667
342.301	2651.75
346.294	2596.75
350.283	2596.41667
354.269	2579.75
358.252	2533.75
362.232	2516.08333
366.209	2495.08333
370.182	2449.75
374.152	2441.75
378.119	2449.41667
382.083	2409.08333
386.043	2451.41667
390	2404.08333
393.954	2398.75
397.905	2381.75
401.852	2402.41667
405.797	2352.41667
409.738	2314.75
413.676	2319.75
417.61	2298.75
421.542	2287.75
425.47	2279.08333
429.396	2236.41667
433.318	2239.75
437.236	2232.75
441.152	2252.08333
445.065	2180.08333
448.974	2194.08333
452.88	2158.75
456.783	2133.08333
460.683	2127.75
464.58	2160.75
468.473	2143.75
472.364	2143.75
476.251	2164.08333
480.135	2166.41667
484.016	2194.08333
487.894	2205.75
491.769	2217.41667
495.641	2221.41667
499.509	2205.08333
503.375	2196.08333
507.237	2213.75
511.096	2228.41667
514.952	2257.41667
518.805	2319.75
522.655	2329.75
526.502	2242.75
530.346	2202.41667
534.187	2200.41667
538.024	2217.41667
541.859	2221.41667
545.69	2247.08333
549.519	2200.41667
553.344	2214.75
557.166	2154.75
560.985	2130.08333
564.802	2132.08333
568.615	2091.75
572.425	2060.41667
576.232	2063.41667
580.036	2050.41667
583.836	2042.75
587.634	2062.75
591.429	2042.41667
595.221	2097.08333
599.01	2113.08333
602.796	2154.41667
606.578	2169.41667
610.358	2184.08333
614.135	2136.75
617.909	2143.08333
621.679	2141.75
625.447	2123.08333
629.212	2149.75
632.973	2127.08333
636.732	2117.75
640.488	2120.41667
644.241	2078.41667
647.991	2109.75
651.737	2133.75
655.481	2117.75
659.222	2145.41667
662.96	2145.75
666.695	2158.41667
670.427	2155.41667
674.156	2165.41667
677.882	2165.08333
681.605	2133.41667
685.325	2110.75
689.043	2122.08333
692.757	2105.75
696.468	2091.75
700.177	2108.75
703.882	2102.75
707.585	2092.08333
711.284	2102.41667
714.981	2110.75
718.675	2108.41667
722.366	2110.08333
726.054	2092.08333
729.739	2090.41667
733.421	2092.08333
737.1	2079.41667
740.777	2105.41667
744.45	2112.75
748.121	2114.08333
751.789	2179.41667
755.453	2157.08333
759.115	2179.08333
762.774	2198.08333
766.431	2222.08333
770.084	2239.41667
773.734	2263.75
777.382	2302.41667
781.027	2343.41667
784.669	2349.08333
788.308	2373.75
791.944	2381.41667
795.577	2410.41667
799.208	2420.08333
802.835	2427.75
806.46	2486.08333
810.082	2493.41667
813.701	2505.08333
817.317	2529.08333
820.931	2514.08333
824.542	2531.75
828.149	2457.08333
831.754	2418.75
835.357	2412.41667
838.956	2417.08333
842.553	2386.75
846.146	2356.41667
849.737	2344.08333
853.326	2337.75
856.911	2350.41667
860.493	2388.41667
864.073	2392.75
867.65	2429.75
871.225	2467.08333
874.796	2474.41667
878.365	2480.75
881.931	2479.41667
885.494	2526.08333
889.054	2501.08333
892.612	2521.08333
896.166	2483.75
899.719	2474.08333
903.268	2444.08333
906.814	2425.08333
910.358	2426.75
913.899	2403.08333
917.438	2411.75
920.973	2406.75
924.506	2460.08333
928.036	2508.08333
931.564	2526.75
935.088	2569.41667
938.61	2571.75
942.129	2598.08333
945.646	2642.75
949.16	2700.75
952.671	2743.75
956.179	2799.75
959.685	2786.75
963.188	2826.41667
966.688	2788.41667
970.185	2713.08333
973.68	2613.41667
977.173	2587.08333
980.662	2524.75
984.149	2499.75
987.633	2499.41667
991.114	2521.41667
994.593	2610.75
998.069	2672.75
1001.542	2755.41667
1005.013	2693.41667
1008.481	2558.41667
1011.947	2527.08333
1015.409	2500.41667
1018.869	2501.41667
1022.327	2500.08333
1025.782	2509.75
1029.234	2503.08333
1032.683	2483.08333
1036.13	2390.75
1039.574	2324.08333
1043.016	2242.41667
1046.455	2227.08333
1049.891	2196.41667
1053.325	2195.41667
1056.756	2215.08333
1060.184	2228.08333
1063.61	2247.75
1067.033	2270.75
1070.454	2258.41667
1073.872	2293.08333
1077.287	2303.75
1080.7	2327.41667
1084.11	2331.75
1087.517	2306.08333
1090.922	2265.08333
1094.325	2225.08333
1097.724	2209.41667
1101.122	2221.75
1104.516	2204.08333
1107.908	2219.08333
1111.298	2239.41667
1114.684	2271.75
1118.069	2295.75
1121.45	2321.41667
1124.83	2308.75
1128.206	2329.75
1131.58	2354.41667
1134.951	2426.41667
1138.32	2484.41667
1141.687	2591.41667
1145.05	2634.41667
1148.412	2655.75
1151.77	2659.75
1155.126	2651.75
1158.48	2646.41667
1161.831	2643.08333
1165.18	2667.75
1168.525	2668.08333
1171.869	2738.75
1175.21	2756.41667
1178.548	2793.08333
1181.884	2799.08333
1185.217	2842.75
1188.548	2905.41667
1191.877	2947.08333
1195.202	3053.08333
1198.526	3104.75
1201.846	3141.75
1205.165	3155.75
1208.48	3130.41667
1211.794	3150.08333
1215.104	3141.41667
1218.413	3140.41667
1221.719	3139.41667
1225.022	3116.41667
1228.323	3066.08333
1231.621	3050.41667
1234.917	3044.08333
1238.21	3052.08333
1241.501	3064.41667
1244.79	3041.75
1248.076	3045.41667
1251.359	3054.08333
1254.64	3124.08333
1257.919	3115.41667
1261.195	3176.75
1264.468	3219.41667
1267.74	3260.41667
1271.008	3247.41667
1274.275	3253.41667
1277.538	3222.08333
1280.8	3224.75
1284.059	3220.75
1287.315	3254.41667
1290.569	3301.41667
1293.821	3307.41667
1297.07	3349.08333
1300.317	3367.75
1303.562	3355.75
1306.803	3329.75
1310.043	3305.75
1313.28	3251.75
1316.515	3248.41667
1319.747	3206.08333
1322.977	3178.41667
1326.204	3141.41667
1329.429	3102.75
1332.652	3099.75
1335.872	3092.75
1339.09	3051.08333
1342.306	3012.75
1345.519	2979.08333
1348.729	2981.41667
1351.938	2987.41667
1355.144	2962.08333
1358.347	2872.75
1361.548	2871.75
1364.747	2870.75
1367.944	2873.08333
1371.138	2892.41667
1374.329	2877.75
1377.518	2873.41667
1380.705	2922.41667
1383.89	2884.75
1387.072	2805.41667
1390.252	2702.41667
1393.429	2610.75
1396.605	2537.75
1399.777	2458.75
1402.948	2432.08333
1406.116	2417.75
1409.282	2425.75
1412.445	2430.41667
1415.606	2495.08333
1418.765	2497.41667
1421.921	2572.75
1425.075	2634.08333
1428.227	2709.41667
1431.376	2826.75
1434.524	2941.08333
1437.668	3012.75
1440.811	3035.08333
1443.951	3058.08333
1447.089	3064.41667
1450.224	3061.75
1453.357	3032.41667
1456.488	3018.41667
1459.617	2955.75
1462.743	2927.08333
1465.867	2870.75
1468.989	2828.08333
1472.108	2791.75
1475.225	2754.41667
1478.34	2735.08333
1481.453	2727.08333
1484.563	2720.08333
1487.671	2763.75
1490.776	2784.75
1493.88	2837.08333
1496.981	2865.41667
1500.08	2943.75
1503.176	2966.08333
1506.271	2999.41667
1509.363	3044.75
1512.452	3084.41667
1515.54	3157.08333
1518.625	3205.75
1521.708	3297.41667
1524.789	3429.75
1527.867	3596.08333
1530.944	3798.75
1534.018	3970.08333
1537.089	4086.75
1540.159	4079.08333
1543.226	4008.75
1546.291	3853.75
1549.354	3746.08333
1552.415	3650.75
1555.473	3525.41667
1558.529	3462.75
1561.583	3449.75
1564.634	3439.41667
1567.684	3471.08333
1570.731	3484.08333
1573.776	3516.75
1576.819	3580.41667
1579.859	3597.41667
1582.898	3671.41667
1585.934	3706.41667
1588.968	3733.08333
1591.999	3736.41667
1595.029	3708.08333
1598.056	3753.08333
1601.081	3773.41667
1604.104	3811.08333
1607.125	3753.08333
1610.144	3660.75
1613.16	3566.08333
1616.174	3483.41667
1619.186	3396.41667
1622.196	3312.08333
1625.203	3223.08333
1628.209	3203.41667
1631.212	3205.08333
1634.213	3222.08333
1637.212	3223.41667
1640.209	3186.41667
1643.203	3142.08333
1646.196	3037.08333
1649.186	2890.41667
1652.174	2805.41667
1655.16	2707.41667
1658.144	2599.08333
1661.125	2443.75
1664.105	2297.41667
1667.082	2194.41667
1670.057	2063.75
1673.03	1931.08333
1676.001	1812.41667
1678.97	1706.41667
1681.937	1613.75
1684.901	1513.75
1687.863	1479.08333
1690.824	1404.41667
1693.782	1383.41667
1696.738	1330.41667
1699.692	1307.08333
1702.643	1277.08333
1705.593	1265.41667
1708.54	1253.08333
1711.486	1244.08333
1714.429	1214.41667
1717.37	1212.08333
1720.309	1181.08333
1723.246	1203.08333
1726.181	1146.08333
1729.113	1157.75
1732.044	1142.41667
1734.972	1133.08333
1737.899	1126.75
1740.823	1118.41667
1743.745	1141.75
1746.665	1079.41667
1749.583	1064.75
1752.499	1064.75
1755.413	1033.08333
1758.325	1010.75
1761.235	1022.08333
1764.142	981.08333
1767.048	977.08333
1769.951	972.75
1772.852	968.75
1775.752	960.41667
1778.649	958.41667
1781.544	959.75
1784.437	922.41667
1787.328	944.41667
1790.217	928.75
1793.104	910.41667
1795.989	906.41667
1798.872	902.75
1801.753	919.75
1804.631	912.75
1807.508	917.41667
1810.383	905.75
1813.255	907.41667
1816.126	904.75
1818.994	901.08333
1821.861	887.08333
1824.725	881.08333
1827.587	891.08333
1830.448	874.08333
1833.306	856.75
1836.162	878.75
1839.017	858.08333
1841.869	855.75
1844.719	850.75
1847.567	840.75
1850.414	832.75
1853.258	842.75
1856.1	840.08333
1858.94	863.08333
1861.778	845.75
1864.614	833.08333
1867.448	844.08333
1870.28	832.08333
1873.111	838.41667
1875.939	841.08333
1878.765	859.41667
1881.589	814.41667
1884.411	828.08333
1887.231	836.08333
1890.049	831.75
1892.865	823.41667
1895.68	804.75
1898.492	823.41667
1901.302	806.41667
1904.11	805.41667
1906.916	805.75
1909.721	793.41667
1912.523	795.08333
1915.323	773.41667
1918.122	806.08333
1920.918	800.08333
1923.712	785.08333
1926.505	780.41667
1929.295	767.41667
1932.084	795.41667
1934.87	796.41667
1937.655	779.41667
1940.438	768.41667
1943.218	782.75
1945.997	781.75
1948.774	783.08333
1951.549	790.41667
1954.322	771.41667
1957.093	770.41667
1959.862	767.75
1962.629	758.08333
1965.394	751.08333
1968.157	735.75
1970.918	755.75
1973.678	745.41667
1976.435	773.41667
1979.19	744.75
1981.944	735.75
1984.696	732.75
1987.445	724.08333
1990.193	738.75
1992.939	749.75
1995.683	741.08333
1998.425	723.08333
2001.165	748.75
2003.903	737.08333
2006.639	731.41667
2009.374	724.41667
2012.106	729.41667
2014.837	707.08333
2017.566	730.08333
2020.292	721.08333
2023.017	721.08333
2025.74	717.75
2028.461	719.08333
2031.18	718.75
2033.898	694.41667
2036.613	711.75
2039.327	720.08333
2042.038	708.41667
2044.748	701.75
2047.456	706.41667
2050.162	691.75
2052.866	700.08333
2055.568	704.08333
2058.268	689.08333
2060.967	697.08333
2063.663	681.08333
2066.358	689.41667
2069.051	685.75
2071.742	693.75
2074.431	689.75
2077.118	683.41667
2079.804	680.41667
2082.487	699.75
2085.169	698.41667
2087.849	705.08333
2090.527	690.41667
2093.203	691.41667
2095.877	702.08333
2098.55	695.41667
2101.22	717.41667
2103.889	722.41667
2106.556	700.75
2109.221	733.41667
2111.884	740.08333
2114.546	791.08333
2117.205	826.75
2119.863	891.75
2122.519	952.08333
2125.173	1002.08333
2127.825	1077.75
2130.475	1076.41667
2133.124	1033.08333
2135.771	994.41667
2138.416	988.41667
2141.059	907.08333
2143.7	900.75
2146.339	834.41667
2148.977	793.75
2151.613	782.75
2154.247	743.08333
2156.879	733.41667
2159.51	718.41667
2162.138	713.41667
2164.765	713.41667
2167.39	691.41667
2170.013	712.75
2172.634	713.75
2175.254	683.75
2177.872	709.75
2180.488	669.08333
2183.102	677.75
2185.714	663.75
2188.325	639.75
2190.934	647.08333
2193.541	645.75
2196.146	637.75
2198.75	632.41667
2201.351	617.75
2203.951	613.41667
2206.549	635.75
2209.146	615.08333
2211.74	617.75
2214.333	615.75
2216.924	602.75
2219.514	600.75
2222.101	593.08333
2224.687	628.08333
2227.271	593.41667
2229.853	594.41667
2232.433	589.41667
2235.012	601.08333
2237.589	600.08333
2240.164	607.41667
2242.738	600.41667
2245.309	580.75
2247.879	600.08333
2250.448	596.41667
2253.014	573.41667
2255.579	565.08333
2258.142	569.75
2260.703	558.75
2263.262	554.75
2265.82	558.75
2268.376	565.08333
2270.93	539.41667
2273.483	543.75
2276.033	552.41667
2278.583	532.08333
2281.13	544.75
2283.675	537.75
2286.219	535.41667
2288.761	539.41667
2291.302	539.08333
2293.841	537.75
2296.377	535.08333
2298.913	527.08333
2301.446	546.75
2303.978	532.41667
2306.508	523.08333
2309.037	527.08333
2311.563	529.41667
2314.088	532.08333
2316.612	514.41667
2319.133	525.41667
2321.653	515.75
2324.171	515.41667
2326.688	515.75
2329.202	507.41667
2331.715	515.08333
2334.227	511.08333
2336.736	507.75
2339.244	505.75
2341.751	494.08333
2344.255	510.75
2346.758	511.41667
2349.259	494.75
2351.759	492.08333
2354.257	505.75
2356.753	488.75
2359.247	500.41667
2361.74	505.75
2364.231	498.75
2366.721	501.75
2369.209	494.08333
2371.695	494.08333
2374.179	487.75
2376.662	479.41667
2379.143	505.41667
2381.622	485.41667
2384.1	498.08333
2386.576	491.08333
2389.051	492.08333
2391.524	505.41667
2393.995	492.41667
2396.464	486.08333
2398.932	481.41667
2401.398	480.41667
2403.863	482.41667
2406.325	476.75
2408.787	473.08333
2411.246	479.75
2413.704	474.41667
2416.16	479.41667
2418.615	473.41667
2421.068	482.41667
2423.519	482.75
2425.969	468.75
2428.417	477.08333
2430.863	499.08333
2433.308	480.41667
2435.751	472.75
2438.193	473.41667
2440.633	478.08333
2443.071	470.75
2445.508	467.08333
2447.943	464.08333
2450.376	467.41667
2452.808	475.08333
2455.238	462.41667
2457.667	492.75
2460.093	471.75
2462.519	457.08333
2464.942	468.08333
2467.365	469.75
2469.785	462.75
2472.204	463.41667
2474.621	456.41667
2477.037	478.41667
2479.451	454.41667
2481.863	454.75
2484.274	456.08333
2486.683	455.75
2489.091	468.08333
2491.497	460.41667
2493.901	456.75
2496.304	455.08333
2498.705	472.08333
2501.105	456.75
2503.503	486.41667
2505.899	442.41667
2508.294	477.08333
2510.687	449.08333
2513.079	456.41667
2515.469	456.41667
2517.858	458.08333
2520.245	464.75
2522.63	449.75
2525.014	443.41667
2527.396	451.08333
2529.776	447.08333
2532.156	458.08333
2534.533	434.08333
2536.909	446.08333
2539.283	434.08333
2541.656	451.41667
2544.027	467.41667
2546.397	459.75
2548.765	448.75
2551.131	444.08333
2553.496	453.08333
2555.86	456.08333
2558.221	445.08333
2560.582	448.08333
2562.94	434.75
2565.298	441.75
2567.653	457.41667
2570.007	432.41667
2572.36	448.41667
2574.711	442.75
2577.06	468.75
2579.408	449.08333
2581.754	453.75
2584.099	450.75
2586.442	434.41667
2588.784	451.08333
2591.124	440.41667
2593.463	450.41667
2595.8	433.75
2598.135	442.41667
2600.469	438.08333
2602.802	464.75
2605.133	466.08333
2607.462	436.08333
2609.79	438.75
2612.116	447.08333
2614.441	451.75
2616.764	450.41667
2619.086	447.41667
2621.406	442.75
2623.725	462.41667
2626.042	455.41667
2628.358	453.75
2630.672	444.75
2632.985	460.41667
2635.296	448.41667
2637.606	457.41667
2639.914	454.08333
2642.22	456.08333
2644.525	437.41667
2646.829	460.08333
2649.131	472.08333
2651.432	471.75
2653.731	452.41667
2656.028	470.08333
2658.324	464.41667
2660.619	451.75
2662.912	472.75
2665.204	449.75
2667.494	474.75
2669.782	466.75
2672.07	468.75
2674.355	475.41667
2676.639	464.41667
2678.922	458.41667
2681.203	467.75
2683.483	448.41667
2685.761	460.41667
2688.038	462.08333
2690.313	492.41667
2692.587	469.75
2694.859	463.41667
2697.13	464.41667
2699.399	467.41667
2701.667	489.75
2703.933	488.75
2706.198	490.75
2708.461	496.41667
2710.723	498.41667
2712.984	487.08333
2715.243	501.41667
2717.5	494.41667
2719.757	508.08333
2722.011	502.08333
2724.264	512.41667
2726.516	516.41667
2728.766	495.75
2731.015	510.75
2733.262	514.75
2735.508	504.41667
2737.753	510.41667
2739.996	486.08333
2742.237	486.75
2744.477	505.08333
2746.716	507.41667
2748.953	504.41667
2751.189	504.41667
2753.423	488.08333
2755.656	486.75
2757.887	480.08333
2760.117	487.41667
2762.346	477.75
2764.573	481.41667
2766.798	479.08333
2769.022	499.41667
2771.245	481.41667
2773.467	490.08333
2775.686	495.08333
2777.905	501.75
2780.122	503.41667
2782.337	499.41667
2784.552	505.08333
2786.764	506.75
2788.976	505.41667
2791.186	519.75
2793.394	514.75
2795.601	543.75
2797.807	536.75
2800.011	540.41667
2802.214	550.75
2804.415	554.08333
2806.615	553.75
2808.814	566.75
2811.011	568.08333
2813.206	559.41667
2815.401	595.75
2817.594	601.08333
2819.785	603.75
2821.975	586.75
2824.164	602.41667
2826.351	625.08333
2828.537	644.75
2830.722	651.75
2832.905	639.41667
2835.086	666.75
2837.267	707.08333
2839.445	727.08333
2841.623	745.75
2843.799	771.75
2845.974	808.08333
2848.147	840.75
2850.319	864.08333
2852.489	892.75
2854.659	891.08333
2856.826	910.75
2858.993	941.75
2861.158	922.75
2863.321	924.75
2865.483	942.08333
2867.644	928.41667
2869.804	927.75
2871.962	929.08333
2874.118	930.08333
2876.274	936.08333
2878.428	925.08333
2880.58	908.41667
2882.731	888.75
2884.881	907.08333
2887.03	919.08333
2889.177	916.08333
2891.322	920.08333
2893.467	925.08333
2895.61	917.41667
2897.751	937.41667
2899.892	928.41667
2902.03	952.75
2904.168	951.41667
2906.304	970.08333
2908.439	975.08333
2910.572	957.75
2912.704	975.08333
2914.835	964.75
2916.965	972.75
2919.093	992.41667
2921.219	950.08333
2923.345	973.75
2925.469	946.75
2927.591	930.41667
2929.712	895.08333
2931.832	907.75
2933.951	899.08333
2936.068	877.08333
2938.184	848.08333
2940.299	815.75
2942.412	810.08333
2944.524	771.41667
2946.634	763.75
2948.744	709.75
2950.851	749.08333
2952.958	698.75
2955.063	697.41667
2957.167	691.75
2959.269	646.75
2961.371	672.75
2963.471	639.08333
2965.569	639.08333
2967.666	609.75
2969.762	612.08333
2971.857	593.75
2973.95	584.08333
2976.042	585.75
2978.133	562.41667
2980.222	548.41667
2982.31	534.08333
2984.396	524.08333
2986.482	523.75
2988.566	527.08333
2990.648	506.75
2992.73	511.08333
2994.81	497.75
2996.889	505.41667
2998.966	501.41667
3001.042	498.08333
3003.117	484.75
3005.191	495.75
3007.263	498.75
3009.334	485.08333
3011.403	477.41667
3013.472	460.75
3015.539	467.08333
3017.604	470.08333
3019.669	449.08333
3021.732	446.08333
3023.794	445.08333
3025.854	433.75
3027.914	432.08333
3029.971	444.41667
3032.028	439.75
3034.083	446.41667
3036.137	434.08333
3038.19	407.08333
3040.242	408.08333
3042.292	400.08333
3044.341	392.75
3046.388	406.75
3048.435	386.41667
3050.48	403.08333
3052.524	395.75
3054.566	376.41667
3056.607	393.41667
3058.647	384.75
3060.686	363.41667
3062.723	352.08333
3064.759	339.08333
3066.794	-0.58333
3068.828	0.41667
3070.86	-2.91667
