-0.839	379.20833
3.438	409.20833
7.711	124.54167
11.981	50.875
16.247	44.20833
20.509	46.875
24.768	42.20833
29.024	46.875
33.276	43.875
37.524	49.875
41.769	40.875
46.01	38.875
50.247	55.54167
54.481	64.20833
58.712	72.20833
62.939	50.54167
67.162	61.54167
71.382	57.20833
75.599	49.20833
79.812	65.20833
84.021	83.20833
88.227	64.875
92.429	68.20833
96.628	55.54167
100.823	71.875
105.015	77.54167
109.204	80.20833
113.388	81.54167
117.57	78.875
121.748	94.20833
125.922	84.875
130.093	108.20833
134.261	111.20833
138.425	108.20833
142.585	147.54167
146.742	151.20833
150.896	182.54167
155.046	217.875
159.193	346.875
163.336	589.875
167.476	1085.54167
171.613	2016.54167
175.746	3388.54167
179.875	5092.875
184.002	6716.54167
188.124	7811.54167
192.244	8223.20833
196.36	8172.20833
200.472	7977.875
204.581	7723.20833
208.687	7535.875
212.79	7509.54167
216.889	7534.54167
220.984	7626.875
225.077	7731.875
229.165	7806.875
233.251	7862.20833
237.333	7902.54167
241.412	7840.875
245.487	7799.20833
249.559	7679.54167
253.628	7622.54167
257.694	7588.875
261.756	7474.20833
265.814	7375.20833
269.87	7176.20833
273.922	7064.875
277.97	7003.54167
282.016	7025.20833
286.058	7074.54167
290.097	7192.54167
294.132	7221.20833
298.164	7129.20833
302.193	6777.875
306.219	6238.54167
310.241	5697.20833
314.26	5188.875
318.276	4742.54167
322.288	4447.875
326.297	4142.54167
330.303	3968.875
334.305	3855.54167
338.305	3745.54167
342.301	3686.875
346.294	3658.20833
350.283	3628.20833
354.269	3574.54167
358.252	3563.20833
362.232	3506.54167
366.209	3508.20833
370.182	3484.875
374.152	3443.20833
378.119	3455.875
382.083	3460.20833
386.043	3483.20833
390	3418.54167
393.954	3375.20833
397.905	3366.20833
401.852	3311.20833
405.797	3278.875
409.738	3248.875
413.676	3236.54167
417.61	3205.20833
421.542	3180.875
425.47	3133.54167
429.396	3119.875
433.318	3107.20833
437.236	3074.54167
441.152	3116.54167
445.065	3034.20833
448.974	3044.54167
452.88	2994.54167
456.783	2998.54167
460.683	2979.54167
464.58	2991.54167
468.473	2981.54167
472.364	2970.875
476.251	3008.20833
480.135	3010.875
484.016	3027.54167
487.894	3066.20833
491.769	3093.54167
495.641	3089.875
499.509	3074.875
503.375	3082.875
507.237	3082.54167
511.096	3069.54167
514.952	3078.20833
518.805	3074.20833
522.655	3054.875
526.502	3023.54167
530.346	3022.20833
534.187	3031.54167
538.024	3043.54167
541.859	3007.875
545.69	3084.875
549.519	3045.54167
553.344	3019.54167
557.166	2970.875
560.985	2975.20833
564.802	2917.54167
568.615	2878.875
572.425	2837.875
576.232	2827.54167
580.036	2796.875
583.836	2837.875
587.634	2821.54167
591.429	2814.20833
595.221	2880.54167
599.01	2905.875
602.796	2936.20833
606.578	2959.20833
610.358	2942.54167
614.135	2929.875
617.909	2951.20833
621.679	2911.20833
625.447	2906.875
629.212	2904.20833
632.973	2916.54167
636.732	2916.54167
640.488	2908.54167
644.241	2872.875
647.991	2866.54167
651.737	2852.54167
655.481	2854.875
659.222	2865.875
662.96	2856.875
666.695	2901.875
670.427	2882.20833
674.156	2883.20833
677.882	2868.54167
681.605	2896.875
685.325	2858.20833
689.043	2886.20833
692.757	2880.54167
696.468	2882.20833
700.177	2888.875
703.882	2872.875
707.585	2876.54167
711.284	2891.875
714.981	2882.54167
718.675	2894.20833
722.366	2921.54167
726.054	2889.54167
729.739	2891.54167
733.421	2892.875
737.1	2869.20833
740.777	2924.54167
744.45	2939.20833
748.121	2954.54167
751.789	3021.20833
755.453	3008.54167
759.115	3042.875
762.774	3048.20833
766.431	3067.20833
770.084	3118.54167
773.734	3151.20833
777.382	3209.875
781.027	3228.875
784.669	3234.875
788.308	3276.54167
791.944	3311.875
795.577	3336.875
799.208	3374.875
802.835	3389.20833
806.46	3418.54167
810.082	3439.54167
813.701	3432.875
817.317	3474.875
820.931	3449.20833
824.542	3433.20833
828.149	3425.54167
831.754	3399.54167
835.357	3386.875
838.956	3379.20833
842.553	3343.54167
846.146	3344.20833
849.737	3319.54167
853.326	3364.54167
856.911	3371.875
860.493	3423.875
864.073	3424.875
867.65	3508.20833
871.225	3539.20833
874.796	3537.54167
878.365	3550.20833
881.931	3600.54167
885.494	3607.20833
889.054	3635.54167
892.612	3666.875
896.166	3642.875
899.719	3633.54167
903.268	3556.20833
906.814	3494.20833
910.358	3481.54167
913.899	3436.54167
917.438	3475.54167
920.973	3458.54167
924.506	3495.54167
928.036	3529.20833
931.564	3583.20833
935.088	3601.875
938.61	3636.54167
942.129	3675.20833
945.646	3734.20833
949.16	3817.54167
952.671	3900.875
956.179	3901.20833
959.685	3878.54167
963.188	3864.20833
966.688	3797.875
970.185	3691.20833
973.68	3625.54167
977.173	3632.20833
980.662	3610.20833
984.149	3646.54167
987.633	3627.54167
991.114	3711.20833
994.593	3821.54167
998.069	3932.875
1001.542	4020.20833
1005.013	3909.20833
1008.481	3729.875
1011.947	3659.54167
1015.409	3649.875
1018.869	3644.54167
1022.327	3663.54167
1025.782	3613.875
1029.234	3657.54167
1032.683	3607.20833
1036.13	3485.875
1039.574	3344.875
1043.016	3278.875
1046.455	3210.54167
1049.891	3166.20833
1053.325	3179.54167
1056.756	3181.20833
1060.184	3189.875
1063.61	3228.20833
1067.033	3235.20833
1070.454	3249.54167
1073.872	3271.20833
1077.287	3272.20833
1080.7	3281.54167
1084.11	3293.875
1087.517	3262.20833
1090.922	3227.20833
1094.325	3203.54167
1097.724	3157.875
1101.122	3137.54167
1104.516	3127.20833
1107.908	3145.20833
1111.298	3197.54167
1114.684	3235.875
1118.069	3269.20833
1121.45	3324.20833
1124.83	3308.20833
1128.206	3335.875
1131.58	3382.875
1134.951	3465.20833
1138.32	3556.54167
1141.687	3702.875
1145.05	3786.875
1148.412	3794.20833
1151.77	3798.875
1155.126	3790.54167
1158.48	3775.54167
1161.831	3802.54167
1165.18	3840.20833
1168.525	3877.54167
1171.869	3937.875
1175.21	3957.875
1178.548	4005.875
1181.884	4042.20833
1185.217	4084.875
1188.548	4186.54167
1191.877	4212.20833
1195.202	4335.20833
1198.526	4398.20833
1201.846	4408.875
1205.165	4402.875
1208.48	4390.20833
1211.794	4389.875
1215.104	4366.54167
1218.413	4407.20833
1221.719	4397.875
1225.022	4366.20833
1228.323	4362.54167
1231.621	4345.54167
1234.917	4322.54167
1238.21	4361.875
1241.501	4331.54167
1244.79	4323.54167
1248.076	4352.875
1251.359	4385.54167
1254.64	4452.875
1257.919	4456.875
1261.195	4543.54167
1264.468	4611.875
1267.74	4663.875
1271.008	4684.875
1274.275	4670.20833
1277.538	4623.20833
1280.8	4616.54167
1284.059	4669.54167
1287.315	4700.54167
1290.569	4714.20833
1293.821	4724.54167
1297.07	4720.20833
1300.317	4748.54167
1303.562	4730.20833
1306.803	4706.20833
1310.043	4646.54167
1313.28	4601.20833
1316.515	4564.875
1319.747	4519.54167
1322.977	4460.54167
1326.204	4412.875
1329.429	4347.20833
1332.652	4332.875
1335.872	4327.20833
1339.09	4285.54167
1342.306	4268.20833
1345.519	4255.20833
1348.729	4202.875
1351.938	4187.54167
1355.144	4119.54167
1358.347	4099.875
1361.548	4087.20833
1364.747	4102.54167
1367.944	4115.875
1371.138	4130.20833
1374.329	4176.875
1377.518	4242.875
1380.705	4313.20833
1383.89	4252.54167
1387.072	4136.54167
1390.252	3967.875
1393.429	3838.875
1396.605	3723.875
1399.777	3626.875
1402.948	3601.54167
1406.116	3585.54167
1409.282	3609.20833
1412.445	3618.54167
1415.606	3674.54167
1418.765	3697.54167
1421.921	3795.875
1425.075	3872.875
1428.227	3993.20833
1431.376	4157.20833
1434.524	4289.875
1437.668	4368.20833
1440.811	4386.20833
1443.951	4443.20833
1447.089	4432.875
1450.224	4431.875
1453.357	4375.875
1456.488	4356.20833
1459.617	4271.20833
1462.743	4209.875
1465.867	4095.875
1468.989	4024.875
1472.108	3968.20833
1475.225	3874.875
1478.34	3851.20833
1481.453	3863.875
1484.563	3848.20833
1487.671	3892.20833
1490.776	3983.54167
1493.88	4022.54167
1496.981	4128.54167
1500.08	4201.54167
1503.176	4274.875
1506.271	4327.54167
1509.363	4389.54167
1512.452	4459.54167
1515.54	4556.875
1518.625	4637.54167
1521.708	4815.20833
1524.789	5011.54167
1527.867	5304.20833
1530.944	5630.20833
1534.018	5935.875
1537.089	6162.54167
1540.159	6197.54167
1543.226	6119.875
1546.291	5946.20833
1549.354	5727.20833
1552.415	5575.875
1555.473	5382.20833
1558.529	5269.875
1561.583	5190.875
1564.634	5096.54167
1567.684	5065.875
1570.731	5097.20833
1573.776	5063.875
1576.819	5123.20833
1579.859	5108.20833
1582.898	5217.54167
1585.934	5207.875
1588.968	5255.20833
1591.999	5240.875
1595.029	5218.20833
1598.056	5263.875
1601.081	5283.875
1604.104	5246.875
1607.125	5212.875
1610.144	5114.875
1613.16	4975.875
1616.174	4874.20833
1619.186	4763.54167
1622.196	4621.875
1625.203	4498.875
1628.209	4435.20833
1631.212	4402.875
1634.213	4376.20833
1637.212	4347.54167
1640.209	4282.54167
1643.203	4188.875
1646.196	4070.54167
1649.186	3955.54167
1652.174	3857.20833
1655.16	3725.54167
1658.144	3630.20833
1661.125	3488.20833
1664.105	3307.20833
1667.082	3199.20833
1670.057	3005.875
1673.03	2805.20833
1676.001	2632.20833
1678.97	2495.54167
1681.937	2321.20833
1684.901	2194.20833
1687.863	2118.20833
1690.824	2028.54167
1693.782	1987.20833
1696.738	1925.20833
1699.692	1896.20833
1702.643	1846.875
1705.593	1806.20833
1708.54	1779.54167
1711.486	1783.54167
1714.429	1745.54167
1717.37	1723.20833
1720.309	1716.54167
1723.246	1725.875
1726.181	1650.20833
1729.113	1682.875
1732.044	1635.875
1734.972	1616.875
1737.899	1635.20833
1740.823	1616.875
1743.745	1617.875
1746.665	1562.20833
1749.583	1533.20833
1752.499	1506.20833
1755.413	1501.20833
1758.325	1453.20833
1761.235	1457.20833
1764.142	1410.875
1767.048	1409.875
1769.951	1416.20833
1772.852	1393.20833
1775.752	1404.20833
1778.649	1389.54167
1781.544	1392.875
1784.437	1359.20833
1787.328	1366.54167
1790.217	1353.875
1793.104	1333.20833
1795.989	1317.20833
1798.872	1303.875
1801.753	1331.20833
1804.631	1326.875
1807.508	1337.875
1810.383	1299.20833
1813.255	1296.20833
1816.126	1320.54167
1818.994	1305.54167
1821.861	1295.875
1824.725	1283.20833
1827.587	1285.875
1830.448	1277.875
1833.306	1251.875
1836.162	1261.875
1839.017	1241.20833
1841.869	1259.20833
1844.719	1246.20833
1847.567	1225.20833
1850.414	1234.875
1853.258	1222.54167
1856.1	1228.875
1858.94	1252.875
1861.778	1223.54167
1864.614	1226.54167
1867.448	1227.875
1870.28	1225.875
1873.111	1233.20833
1875.939	1220.54167
1878.765	1240.54167
1881.589	1223.20833
1884.411	1202.875
1887.231	1228.54167
1890.049	1199.20833
1892.865	1217.54167
1895.68	1190.54167
1898.492	1192.875
1901.302	1181.54167
1904.11	1182.875
1906.916	1178.875
1909.721	1164.20833
1912.523	1175.875
1915.323	1168.54167
1918.122	1176.20833
1920.918	1164.54167
1923.712	1141.875
1926.505	1156.875
1929.295	1140.20833
1932.084	1153.20833
1934.87	1144.54167
1937.655	1134.54167
1940.438	1138.20833
1943.218	1131.20833
1945.997	1151.20833
1948.774	1148.20833
1951.549	1145.875
1954.322	1136.20833
1957.093	1133.875
1959.862	1117.875
1962.629	1127.20833
1965.394	1121.875
1968.157	1103.20833
1970.918	1116.875
1973.678	1094.54167
1976.435	1109.20833
1979.19	1096.875
1981.944	1085.20833
1984.696	1073.875
1987.445	1076.20833
1990.193	1081.875
1992.939	1093.54167
1995.683	1094.875
1998.425	1071.54167
2001.165	1084.875
2003.903	1067.20833
2006.639	1073.20833
2009.374	1061.20833
2012.106	1064.875
2014.837	1045.875
2017.566	1080.54167
2020.292	1062.875
2023.017	1072.54167
2025.74	1053.875
2028.461	1061.54167
2031.18	1048.875
2033.898	1052.875
2036.613	1060.875
2039.327	1056.875
2042.038	1036.20833
2044.748	1043.54167
2047.456	1034.875
2050.162	1034.20833
2052.866	1034.875
2055.568	1029.875
2058.268	1024.20833
2060.967	1036.54167
2063.663	998.20833
2066.358	1020.875
2069.051	1016.875
2071.742	1017.875
2074.431	1030.54167
2077.118	1019.875
2079.804	1006.875
2082.487	1020.875
2085.169	1028.875
2087.849	1037.54167
2090.527	1031.875
2093.203	1048.20833
2095.877	1060.20833
2098.55	1059.20833
2101.22	1099.875
2103.889	1112.20833
2106.556	1116.20833
2109.221	1179.875
2111.884	1231.20833
2114.546	1334.54167
2117.205	1446.875
2119.863	1598.54167
2122.519	1719.875
2125.173	1855.20833
2127.825	1947.20833
2130.475	1952.54167
2133.124	1857.54167
2135.771	1817.54167
2138.416	1712.54167
2141.059	1569.875
2143.7	1506.54167
2146.339	1396.875
2148.977	1323.875
2151.613	1284.54167
2154.247	1217.875
2156.879	1191.875
2159.51	1156.20833
2162.138	1137.54167
2164.765	1117.54167
2167.39	1084.20833
2170.013	1098.20833
2172.634	1081.54167
2175.254	1054.54167
2177.872	1083.875
2180.488	1028.54167
2183.102	1030.54167
2185.714	1016.875
2188.325	987.54167
2190.934	1001.20833
2193.541	989.54167
2196.146	973.875
2198.75	947.875
2201.351	965.20833
2203.951	928.20833
2206.549	969.20833
2209.146	916.54167
2211.74	907.875
2214.333	936.20833
2216.924	899.20833
2219.514	916.20833
2222.101	892.875
2224.687	920.20833
2227.271	891.875
2229.853	890.20833
2232.433	865.54167
2235.012	889.20833
2237.589	881.20833
2240.164	886.54167
2242.738	871.20833
2245.309	857.20833
2247.879	874.54167
2250.448	861.875
2253.014	831.20833
2255.579	815.875
2258.142	819.20833
2260.703	819.20833
2263.262	816.54167
2265.82	800.875
2268.376	816.20833
2270.93	794.20833
2273.483	800.875
2276.033	799.20833
2278.583	786.875
2281.13	777.20833
2283.675	762.875
2286.219	781.20833
2288.761	785.20833
2291.302	787.20833
2293.841	775.875
2296.377	758.20833
2298.913	763.875
2301.446	765.875
2303.978	743.875
2306.508	757.875
2309.037	748.20833
2311.563	769.875
2314.088	759.20833
2316.612	739.20833
2319.133	755.54167
2321.653	743.20833
2324.171	733.54167
2326.688	740.875
2329.202	723.875
2331.715	736.54167
2334.227	715.875
2336.736	722.20833
2339.244	715.54167
2341.751	705.20833
2344.255	726.54167
2346.758	707.20833
2349.259	709.54167
2351.759	708.20833
2354.257	697.54167
2356.753	695.20833
2359.247	699.20833
2361.74	715.20833
2364.231	697.875
2366.721	712.54167
2369.209	689.20833
2371.695	686.20833
2374.179	681.54167
2376.662	676.54167
2379.143	696.875
2381.622	686.54167
2384.1	672.54167
2386.576	676.20833
2389.051	690.875
2391.524	701.875
2393.995	688.20833
2396.464	672.54167
2398.932	669.875
2401.398	672.875
2403.863	673.54167
2406.325	668.54167
2408.787	674.20833
2411.246	654.54167
2413.704	645.875
2416.16	651.54167
2418.615	657.875
2421.068	668.20833
2423.519	663.20833
2425.969	645.20833
2428.417	664.54167
2430.863	672.875
2433.308	666.54167
2435.751	655.20833
2438.193	651.875
2440.633	660.54167
2443.071	646.54167
2445.508	635.54167
2447.943	643.20833
2450.376	630.875
2452.808	638.54167
2455.238	635.20833
2457.667	656.875
2460.093	634.54167
2462.519	613.875
2464.942	627.20833
2467.365	634.875
2469.785	631.875
2472.204	622.875
2474.621	609.54167
2477.037	636.54167
2479.451	607.875
2481.863	614.875
2484.274	610.20833
2486.683	607.20833
2489.091	625.875
2491.497	614.875
2493.901	613.20833
2496.304	593.875
2498.705	624.875
2501.105	604.54167
2503.503	634.875
2505.899	597.54167
2508.294	615.875
2510.687	587.875
2513.079	601.875
2515.469	583.20833
2517.858	587.875
2520.245	618.875
2522.63	593.20833
2525.014	594.54167
2527.396	578.20833
2529.776	576.20833
2532.156	592.20833
2534.533	570.20833
2536.909	567.54167
2539.283	570.875
2541.656	568.54167
2544.027	594.54167
2546.397	578.875
2548.765	570.20833
2551.131	568.20833
2553.496	574.875
2555.86	576.20833
2558.221	568.54167
2560.582	570.54167
2562.94	558.54167
2565.298	563.54167
2567.653	590.54167
2570.007	552.20833
2572.36	569.20833
2574.711	570.54167
2577.06	577.54167
2579.408	561.54167
2581.754	567.20833
2584.099	562.20833
2586.442	556.54167
2588.784	573.20833
2591.124	556.875
2593.463	566.54167
2595.8	558.875
2598.135	538.54167
2600.469	545.54167
2602.802	574.54167
2605.133	571.875
2607.462	549.54167
2609.79	537.54167
2612.116	553.54167
2614.441	550.20833
2616.764	559.20833
2619.086	559.54167
2621.406	542.54167
2623.725	554.20833
2626.042	559.20833
2628.358	547.54167
2630.672	546.20833
2632.985	563.875
2635.296	559.20833
2637.606	553.875
2639.914	541.20833
2642.22	552.875
2644.525	547.875
2646.829	552.875
2649.131	554.20833
2651.432	568.54167
2653.731	548.875
2656.028	565.875
2658.324	557.875
2660.619	546.20833
2662.912	558.875
2665.204	545.54167
2667.494	571.20833
2669.782	554.875
2672.07	560.875
2674.355	567.54167
2676.639	555.20833
2678.922	551.20833
2681.203	558.54167
2683.483	545.54167
2685.761	542.54167
2688.038	563.54167
2690.313	570.20833
2692.587	565.875
2694.859	556.54167
2697.13	559.54167
2699.399	574.54167
2701.667	576.875
2703.933	578.20833
2706.198	586.875
2708.461	589.875
2710.723	593.54167
2712.984	591.20833
2715.243	595.875
2717.5	595.875
2719.757	614.875
2722.011	602.54167
2724.264	614.875
2726.516	624.54167
2728.766	608.875
2731.015	615.54167
2733.262	609.54167
2735.508	599.20833
2737.753	603.875
2739.996	581.875
2742.237	584.20833
2744.477	603.875
2746.716	588.20833
2748.953	582.20833
2751.189	594.875
2753.423	570.54167
2755.656	562.20833
2757.887	561.20833
2760.117	579.20833
2762.346	563.875
2764.573	560.54167
2766.798	573.20833
2769.022	570.875
2771.245	582.20833
2773.467	570.875
2775.686	579.875
2777.905	586.875
2780.122	596.20833
2782.337	599.20833
2784.552	593.875
2786.764	603.875
2788.976	612.54167
2791.186	627.20833
2793.394	629.875
2795.601	653.54167
2797.807	658.20833
2800.011	660.54167
2802.214	679.875
2804.415	688.875
2806.615	683.54167
2808.814	704.54167
2811.011	727.54167
2813.206	713.875
2815.401	737.54167
2817.594	746.54167
2819.785	774.20833
2821.975	768.875
2824.164	780.20833
2826.351	800.875
2828.537	823.875
2830.722	840.20833
2832.905	853.875
2835.086	891.875
2837.267	926.54167
2839.445	966.875
2841.623	977.54167
2843.799	1025.20833
2845.974	1071.875
2848.147	1123.875
2850.319	1151.54167
2852.489	1187.54167
2854.659	1213.875
2856.826	1233.875
2858.993	1252.54167
2861.158	1232.54167
2863.321	1236.20833
2865.483	1268.875
2867.644	1248.54167
2869.804	1255.20833
2871.962	1243.20833
2874.118	1245.875
2876.274	1226.20833
2878.428	1223.20833
2880.58	1216.875
2882.731	1200.20833
2884.881	1213.20833
2887.03	1214.875
2889.177	1207.20833
2891.322	1224.54167
2893.467	1222.54167
2895.61	1233.875
2897.751	1251.20833
2899.892	1224.54167
2902.03	1244.875
2904.168	1254.20833
2906.304	1270.54167
2908.439	1292.54167
2910.572	1266.54167
2912.704	1292.875
2914.835	1275.54167
2916.965	1247.875
2919.093	1262.20833
2921.219	1225.20833
2923.345	1243.875
2925.469	1208.20833
2927.591	1184.54167
2929.712	1169.54167
2931.832	1150.54167
2933.951	1101.875
2936.068	1076.20833
2938.184	1069.54167
2940.299	1013.20833
2942.412	985.875
2944.524	929.54167
2946.634	902.875
2948.744	855.20833
2950.851	870.875
2952.958	807.875
2955.063	792.54167
2957.167	776.54167
2959.269	736.875
2961.371	750.54167
2963.471	692.20833
2965.569	700.54167
2967.666	674.54167
2969.762	646.54167
2971.857	619.54167
2973.95	604.875
2976.042	604.54167
2978.133	568.54167
2980.222	557.20833
2982.31	527.20833
2984.396	515.54167
2986.482	498.54167
2988.566	508.54167
2990.648	484.20833
2992.73	486.875
2994.81	462.875
2996.889	468.20833
2998.966	447.875
3001.042	453.20833
3003.117	444.54167
3005.191	444.20833
3007.263	433.875
3009.334	422.875
3011.403	425.20833
3013.472	401.54167
3015.539	403.54167
3017.604	411.20833
3019.669	377.875
3021.732	377.875
3023.794	379.875
3025.854	356.875
3027.914	357.20833
3029.971	367.875
3032.028	361.875
3034.083	358.20833
3036.137	351.875
3038.19	343.54167
3040.242	326.20833
3042.292	320.875
3044.341	319.54167
3046.388	328.54167
3048.435	301.875
3050.48	319.54167
3052.524	313.875
3054.566	287.54167
3056.607	313.875
3058.647	288.54167
3060.686	280.20833
3062.723	276.875
3064.759	266.20833
3066.794	-0.125
3068.828	-2.79167
3070.86	-2.79167
