-0.839	435.125
3.438	463.79167
7.711	129.125
11.981	55.45833
16.247	42.79167
20.509	40.79167
24.768	49.125
29.024	46.125
33.276	44.45833
37.524	51.125
41.769	40.125
46.01	37.125
50.247	56.125
54.481	62.125
58.712	69.125
62.939	50.79167
67.162	63.45833
71.382	61.45833
75.599	52.125
79.812	68.125
84.021	84.79167
88.227	63.125
92.429	67.45833
96.628	54.45833
100.823	71.125
105.015	79.125
109.204	81.79167
113.388	81.79167
117.57	77.125
121.748	94.79167
125.922	87.79167
130.093	105.125
134.261	108.125
138.425	106.79167
142.585	149.125
146.742	145.79167
150.896	178.125
155.046	212.125
159.193	334.125
163.336	586.79167
167.476	1061.125
171.613	1982.79167
175.746	3308.45833
179.875	4969.45833
184.002	6531.125
188.124	7647.45833
192.244	8027.45833
196.36	7960.79167
200.472	7745.45833
204.581	7503.79167
208.687	7364.79167
212.79	7278.125
216.889	7286.45833
220.984	7405.79167
225.077	7427.125
229.165	7532.125
233.251	7552.45833
237.333	7579.79167
241.412	7525.45833
245.487	7408.45833
249.559	7351.45833
253.628	7265.45833
257.694	7182.79167
261.756	7101.45833
265.814	7019.125
269.87	6815.45833
273.922	6652.45833
277.97	6595.125
282.016	6604.125
286.058	6608.125
290.097	6675.125
294.132	6706.45833
298.164	6638.79167
302.193	6296.45833
306.219	5834.125
310.241	5368.45833
314.26	4887.79167
318.276	4541.125
322.288	4222.125
326.297	4021.125
330.303	3833.79167
334.305	3741.125
338.305	3654.79167
342.301	3627.79167
346.294	3596.45833
350.283	3545.125
354.269	3506.79167
358.252	3516.45833
362.232	3495.125
366.209	3455.125
370.182	3433.79167
374.152	3432.79167
378.119	3424.79167
382.083	3422.45833
386.043	3432.125
390	3400.125
393.954	3374.45833
397.905	3338.79167
401.852	3316.45833
405.797	3242.79167
409.738	3254.125
413.676	3233.79167
417.61	3200.79167
421.542	3171.79167
425.47	3144.79167
429.396	3112.125
433.318	3093.79167
437.236	3087.125
441.152	3085.79167
445.065	3012.79167
448.974	3024.125
452.88	3007.125
456.783	2988.125
460.683	2990.79167
464.58	2971.125
468.473	3001.79167
472.364	2997.125
476.251	3005.125
480.135	3026.79167
484.016	3045.45833
487.894	3097.79167
491.769	3096.79167
495.641	3109.45833
499.509	3089.79167
503.375	3123.79167
507.237	3107.79167
511.096	3108.45833
514.952	3149.45833
518.805	3189.79167
522.655	3208.79167
526.502	3105.125
530.346	3047.125
534.187	3022.79167
538.024	3007.45833
541.859	3017.45833
545.69	3036.79167
549.519	3031.45833
553.344	2983.45833
557.166	2946.125
560.985	2939.45833
564.802	2908.45833
568.615	2852.125
572.425	2820.79167
576.232	2823.79167
580.036	2786.125
583.836	2822.45833
587.634	2828.79167
591.429	2801.79167
595.221	2848.79167
599.01	2882.45833
602.796	2918.79167
606.578	2934.79167
610.358	2953.125
614.135	2921.125
617.909	2898.79167
621.679	2929.125
625.447	2875.79167
629.212	2920.125
632.973	2907.125
636.732	2892.125
640.488	2893.45833
644.241	2865.45833
647.991	2857.125
651.737	2873.79167
655.481	2834.125
659.222	2847.45833
662.96	2835.125
666.695	2852.125
670.427	2851.79167
674.156	2901.125
677.882	2874.45833
681.605	2880.45833
685.325	2841.125
689.043	2879.45833
692.757	2837.79167
696.468	2862.125
700.177	2858.125
703.882	2853.45833
707.585	2865.45833
711.284	2846.45833
714.981	2853.125
718.675	2872.45833
722.366	2872.125
726.054	2874.125
729.739	2857.45833
733.421	2887.45833
737.1	2868.45833
740.777	2899.125
744.45	2918.125
748.121	2926.79167
751.789	2980.125
755.453	2979.45833
759.115	3004.79167
762.774	3030.125
766.431	3063.45833
770.084	3066.45833
773.734	3106.79167
777.382	3152.125
781.027	3164.125
784.669	3199.45833
788.308	3229.125
791.944	3231.125
795.577	3268.125
799.208	3321.125
802.835	3333.125
806.46	3355.45833
810.082	3329.79167
813.701	3370.79167
817.317	3392.45833
820.931	3391.79167
824.542	3394.45833
828.149	3373.79167
831.754	3307.125
835.357	3342.125
838.956	3311.79167
842.553	3315.45833
846.146	3329.125
849.737	3282.79167
853.326	3322.79167
856.911	3310.79167
860.493	3344.45833
864.073	3373.79167
867.65	3430.125
871.225	3459.79167
874.796	3469.125
878.365	3474.79167
881.931	3546.45833
885.494	3537.79167
889.054	3564.79167
892.612	3569.125
896.166	3599.79167
899.719	3558.79167
903.268	3508.125
906.814	3467.45833
910.358	3408.125
913.899	3390.79167
917.438	3403.125
920.973	3380.79167
924.506	3424.45833
928.036	3443.125
931.564	3499.125
935.088	3523.79167
938.61	3525.45833
942.129	3551.125
945.646	3652.125
949.16	3703.125
952.671	3762.125
956.179	3778.45833
959.685	3773.79167
963.188	3754.79167
966.688	3712.125
970.185	3605.79167
973.68	3576.45833
977.173	3590.79167
980.662	3570.79167
984.149	3600.45833
987.633	3579.125
991.114	3660.79167
994.593	3753.45833
998.069	3855.45833
1001.542	3955.125
1005.013	3865.45833
1008.481	3637.79167
1011.947	3558.125
1015.409	3540.125
1018.869	3552.79167
1022.327	3565.45833
1025.782	3561.125
1029.234	3538.125
1032.683	3530.45833
1036.13	3403.79167
1039.574	3253.125
1043.016	3183.79167
1046.455	3123.45833
1049.891	3080.79167
1053.325	3072.45833
1056.756	3071.125
1060.184	3104.45833
1063.61	3123.45833
1067.033	3171.45833
1070.454	3140.45833
1073.872	3170.79167
1077.287	3194.125
1080.7	3198.125
1084.11	3180.125
1087.517	3169.45833
1090.922	3161.45833
1094.325	3129.45833
1097.724	3082.45833
1101.122	3069.79167
1104.516	3072.79167
1107.908	3087.125
1111.298	3131.125
1114.684	3153.125
1118.069	3182.45833
1121.45	3204.79167
1124.83	3212.45833
1128.206	3224.125
1131.58	3276.45833
1134.951	3368.125
1138.32	3444.45833
1141.687	3581.125
1145.05	3676.45833
1148.412	3699.79167
1151.77	3655.79167
1155.126	3656.79167
1158.48	3665.125
1161.831	3680.45833
1165.18	3706.79167
1168.525	3789.79167
1171.869	3799.79167
1175.21	3851.79167
1178.548	3894.79167
1181.884	3914.45833
1185.217	3937.79167
1188.548	4027.125
1191.877	4062.79167
1195.202	4120.125
1198.526	4201.45833
1201.846	4231.45833
1205.165	4237.79167
1208.48	4228.79167
1211.794	4207.79167
1215.104	4213.79167
1218.413	4237.79167
1221.719	4217.45833
1225.022	4200.45833
1228.323	4160.45833
1231.621	4145.45833
1234.917	4140.125
1238.21	4191.45833
1241.501	4183.125
1244.79	4163.45833
1248.076	4174.79167
1251.359	4211.45833
1254.64	4284.79167
1257.919	4297.45833
1261.195	4363.79167
1264.468	4446.125
1267.74	4521.125
1271.008	4514.45833
1274.275	4489.45833
1277.538	4459.79167
1280.8	4427.125
1284.059	4425.79167
1287.315	4472.79167
1290.569	4498.45833
1293.821	4506.45833
1297.07	4515.79167
1300.317	4546.45833
1303.562	4546.79167
1306.803	4489.79167
1310.043	4451.125
1313.28	4368.79167
1316.515	4341.125
1319.747	4310.79167
1322.977	4279.125
1326.204	4246.45833
1329.429	4183.79167
1332.652	4167.79167
1335.872	4160.125
1339.09	4137.45833
1342.306	4131.79167
1345.519	4110.79167
1348.729	4113.45833
1351.938	4073.79167
1355.144	3990.45833
1358.347	3934.125
1361.548	3962.125
1364.747	3951.45833
1367.944	3908.79167
1371.138	3956.79167
1374.329	3967.125
1377.518	4023.45833
1380.705	4078.45833
1383.89	4054.125
1387.072	3931.125
1390.252	3794.125
1393.429	3667.125
1396.605	3538.125
1399.777	3464.79167
1402.948	3437.79167
1406.116	3432.45833
1409.282	3439.79167
1412.445	3442.45833
1415.606	3508.79167
1418.765	3558.79167
1421.921	3592.125
1425.075	3690.79167
1428.227	3803.45833
1431.376	3935.45833
1434.524	4071.45833
1437.668	4170.45833
1440.811	4190.125
1443.951	4217.45833
1447.089	4225.79167
1450.224	4248.79167
1453.357	4209.79167
1456.488	4154.125
1459.617	4113.45833
1462.743	4025.45833
1465.867	3912.45833
1468.989	3875.125
1472.108	3796.125
1475.225	3718.79167
1478.34	3683.125
1481.453	3676.45833
1484.563	3672.125
1487.671	3735.45833
1490.776	3802.45833
1493.88	3862.125
1496.981	3959.125
1500.08	3968.125
1503.176	4042.45833
1506.271	4119.79167
1509.363	4184.125
1512.452	4215.79167
1515.54	4285.45833
1518.625	4387.45833
1521.708	4503.45833
1524.789	4721.79167
1527.867	4963.45833
1530.944	5286.125
1534.018	5568.125
1537.089	5780.45833
1540.159	5829.79167
1543.226	5744.79167
1546.291	5575.45833
1549.354	5423.45833
1552.415	5238.79167
1555.473	5100.45833
1558.529	4966.79167
1561.583	4901.125
1564.634	4824.45833
1567.684	4803.79167
1570.731	4793.125
1573.776	4836.125
1576.819	4841.79167
1579.859	4877.45833
1582.898	4956.45833
1585.934	4938.125
1588.968	4960.79167
1591.999	4919.79167
1595.029	4963.45833
1598.056	4971.125
1601.081	4981.45833
1604.104	4959.79167
1607.125	4935.79167
1610.144	4842.45833
1613.16	4743.125
1616.174	4638.79167
1619.186	4516.45833
1622.196	4414.125
1625.203	4333.125
1628.209	4293.125
1631.212	4229.79167
1634.213	4223.45833
1637.212	4208.45833
1640.209	4146.125
1643.203	4048.125
1646.196	3926.79167
1649.186	3796.125
1652.174	3698.79167
1655.16	3589.79167
1658.144	3485.45833
1661.125	3329.125
1664.105	3201.125
1667.082	3046.79167
1670.057	2898.125
1673.03	2708.45833
1676.001	2528.45833
1678.97	2372.125
1681.937	2213.125
1684.901	2101.79167
1687.863	2032.79167
1690.824	1958.79167
1693.782	1914.125
1696.738	1839.45833
1699.692	1814.125
1702.643	1780.45833
1705.593	1761.125
1708.54	1739.125
1711.486	1727.125
1714.429	1692.79167
1717.37	1675.125
1720.309	1662.125
1723.246	1654.125
1726.181	1625.125
1729.113	1602.45833
1732.044	1605.79167
1734.972	1569.79167
1737.899	1592.45833
1740.823	1557.125
1743.745	1570.79167
1746.665	1512.79167
1749.583	1508.79167
1752.499	1469.79167
1755.413	1461.125
1758.325	1424.79167
1761.235	1421.79167
1764.142	1398.45833
1767.048	1385.125
1769.951	1372.125
1772.852	1351.79167
1775.752	1347.125
1778.649	1363.45833
1781.544	1358.45833
1784.437	1331.125
1787.328	1342.125
1790.217	1315.125
1793.104	1293.45833
1795.989	1295.45833
1798.872	1280.125
1801.753	1306.125
1804.631	1299.45833
1807.508	1315.125
1810.383	1304.45833
1813.255	1289.79167
1816.126	1257.125
1818.994	1270.45833
1821.861	1253.79167
1824.725	1258.125
1827.587	1264.125
1830.448	1247.125
1833.306	1222.45833
1836.162	1230.45833
1839.017	1225.45833
1841.869	1224.125
1844.719	1219.125
1847.567	1206.79167
1850.414	1202.45833
1853.258	1196.125
1856.1	1212.45833
1858.94	1217.125
1861.778	1207.79167
1864.614	1198.45833
1867.448	1185.125
1870.28	1186.45833
1873.111	1198.45833
1875.939	1194.79167
1878.765	1204.125
1881.589	1181.79167
1884.411	1177.79167
1887.231	1185.79167
1890.049	1186.125
1892.865	1164.125
1895.68	1155.45833
1898.492	1174.45833
1901.302	1154.45833
1904.11	1161.125
1906.916	1138.45833
1909.721	1132.79167
1912.523	1142.125
1915.323	1128.125
1918.122	1138.125
1920.918	1135.79167
1923.712	1129.45833
1926.505	1131.45833
1929.295	1116.125
1932.084	1113.45833
1934.87	1125.125
1937.655	1118.125
1940.438	1111.45833
1943.218	1125.125
1945.997	1125.125
1948.774	1115.45833
1951.549	1119.125
1954.322	1109.45833
1957.093	1103.125
1959.862	1110.79167
1962.629	1104.45833
1965.394	1099.45833
1968.157	1078.125
1970.918	1092.45833
1973.678	1088.45833
1976.435	1088.125
1979.19	1062.125
1981.944	1059.79167
1984.696	1064.125
1987.445	1061.125
1990.193	1070.125
1992.939	1071.79167
1995.683	1062.79167
1998.425	1031.45833
2001.165	1074.45833
2003.903	1039.79167
2006.639	1045.125
2009.374	1044.125
2012.106	1043.45833
2014.837	1021.79167
2017.566	1040.45833
2020.292	1046.79167
2023.017	1038.125
2025.74	1019.125
2028.461	1029.45833
2031.18	1034.79167
2033.898	1024.45833
2036.613	1038.79167
2039.327	1027.125
2042.038	1009.79167
2044.748	1019.79167
2047.456	1003.79167
2050.162	990.125
2052.866	1012.79167
2055.568	997.45833
2058.268	1009.79167
2060.967	1019.79167
2063.663	1001.45833
2066.358	1007.125
2069.051	986.45833
2071.742	1001.125
2074.431	1010.125
2077.118	1002.125
2079.804	995.79167
2082.487	1004.125
2085.169	1035.79167
2087.849	1026.125
2090.527	1013.125
2093.203	1036.125
2095.877	1030.79167
2098.55	1055.125
2101.22	1067.45833
2103.889	1098.125
2106.556	1101.125
2109.221	1171.45833
2111.884	1234.45833
2114.546	1330.45833
2117.205	1431.45833
2119.863	1584.125
2122.519	1728.45833
2125.173	1842.125
2127.825	1964.45833
2130.475	1978.79167
2133.124	1902.125
2135.771	1821.79167
2138.416	1726.79167
2141.059	1599.45833
2143.7	1532.125
2146.339	1419.45833
2148.977	1343.79167
2151.613	1299.125
2154.247	1255.79167
2156.879	1208.45833
2159.51	1178.125
2162.138	1140.79167
2164.765	1131.79167
2167.39	1098.79167
2170.013	1109.79167
2172.634	1110.79167
2175.254	1079.125
2177.872	1087.79167
2180.488	1045.45833
2183.102	1053.125
2185.714	1030.79167
2188.325	999.45833
2190.934	1000.79167
2193.541	990.45833
2196.146	982.125
2198.75	953.79167
2201.351	952.79167
2203.951	933.79167
2206.549	939.45833
2209.146	924.79167
2211.74	906.125
2214.333	916.79167
2216.924	892.45833
2219.514	904.125
2222.101	888.45833
2224.687	912.45833
2227.271	886.125
2229.853	869.45833
2232.433	865.79167
2235.012	883.125
2237.589	885.79167
2240.164	870.45833
2242.738	866.45833
2245.309	848.125
2247.879	854.125
2250.448	865.45833
2253.014	839.79167
2255.579	812.125
2258.142	813.79167
2260.703	806.45833
2263.262	805.79167
2265.82	800.45833
2268.376	818.125
2270.93	789.125
2273.483	794.45833
2276.033	799.79167
2278.583	788.125
2281.13	779.45833
2283.675	767.79167
2286.219	768.125
2288.761	766.45833
2291.302	786.125
2293.841	774.79167
2296.377	750.79167
2298.913	756.79167
2301.446	772.45833
2303.978	763.125
2306.508	759.125
2309.037	760.125
2311.563	757.45833
2314.088	766.125
2316.612	734.45833
2319.133	754.45833
2321.653	747.79167
2324.171	748.79167
2326.688	750.45833
2329.202	735.125
2331.715	734.125
2334.227	727.45833
2336.736	725.79167
2339.244	714.125
2341.751	711.45833
2344.255	727.79167
2346.758	714.79167
2349.259	711.125
2351.759	715.125
2354.257	708.125
2356.753	695.125
2359.247	711.125
2361.74	709.45833
2364.231	702.45833
2366.721	719.45833
2369.209	692.125
2371.695	705.79167
2374.179	698.45833
2376.662	692.45833
2379.143	708.125
2381.622	702.79167
2384.1	701.45833
2386.576	684.79167
2389.051	707.125
2391.524	707.125
2393.995	700.125
2396.464	685.125
2398.932	684.79167
2401.398	693.45833
2403.863	688.79167
2406.325	690.79167
2408.787	688.125
2411.246	683.79167
2413.704	674.45833
2416.16	659.79167
2418.615	671.79167
2421.068	682.125
2423.519	673.79167
2425.969	668.125
2428.417	681.79167
2430.863	689.45833
2433.308	683.79167
2435.751	670.79167
2438.193	666.45833
2440.633	666.79167
2443.071	674.45833
2445.508	660.79167
2447.943	659.45833
2450.376	643.125
2452.808	665.79167
2455.238	647.125
2457.667	687.79167
2460.093	659.45833
2462.519	638.45833
2464.942	651.125
2467.365	657.125
2469.785	655.79167
2472.204	637.45833
2474.621	634.45833
2477.037	670.125
2479.451	633.45833
2481.863	639.45833
2484.274	628.45833
2486.683	636.45833
2489.091	642.45833
2491.497	636.45833
2493.901	637.125
2496.304	632.79167
2498.705	641.79167
2501.105	621.79167
2503.503	656.45833
2505.899	622.79167
2508.294	647.79167
2510.687	616.45833
2513.079	622.79167
2515.469	617.125
2517.858	623.45833
2520.245	637.45833
2522.63	616.125
2525.014	623.125
2527.396	612.45833
2529.776	623.79167
2532.156	622.125
2534.533	611.125
2536.909	616.79167
2539.283	595.125
2541.656	624.45833
2544.027	639.79167
2546.397	625.125
2548.765	618.125
2551.131	600.125
2553.496	608.45833
2555.86	617.125
2558.221	608.79167
2560.582	613.125
2562.94	597.45833
2565.298	609.125
2567.653	625.125
2570.007	596.45833
2572.36	610.125
2574.711	600.45833
2577.06	622.45833
2579.408	611.79167
2581.754	611.125
2584.099	596.125
2586.442	610.45833
2588.784	611.45833
2591.124	604.45833
2593.463	595.125
2595.8	607.125
2598.135	590.79167
2600.469	597.125
2602.802	613.125
2605.133	607.79167
2607.462	588.79167
2609.79	594.45833
2612.116	601.79167
2614.441	599.125
2616.764	611.79167
2619.086	606.45833
2621.406	590.45833
2623.725	616.125
2626.042	592.45833
2628.358	598.79167
2630.672	591.125
2632.985	608.45833
2635.296	610.45833
2637.606	602.45833
2639.914	592.79167
2642.22	600.125
2644.525	606.45833
2646.829	596.79167
2649.131	616.79167
2651.432	616.125
2653.731	610.45833
2656.028	630.125
2658.324	607.45833
2660.619	613.125
2662.912	631.79167
2665.204	607.125
2667.494	623.45833
2669.782	609.79167
2672.07	623.79167
2674.355	622.45833
2676.639	610.125
2678.922	609.45833
2681.203	624.45833
2683.483	608.45833
2685.761	610.45833
2688.038	626.79167
2690.313	637.79167
2692.587	621.125
2694.859	621.79167
2697.13	624.125
2699.399	629.79167
2701.667	641.125
2703.933	640.45833
2706.198	647.125
2708.461	648.125
2710.723	649.125
2712.984	649.45833
2715.243	673.79167
2717.5	653.79167
2719.757	677.125
2722.011	653.45833
2724.264	675.45833
2726.516	693.45833
2728.766	673.79167
2731.015	672.125
2733.262	665.79167
2735.508	672.79167
2737.753	659.45833
2739.996	649.45833
2742.237	650.45833
2744.477	659.79167
2746.716	668.125
2748.953	651.79167
2751.189	648.79167
2753.423	643.125
2755.656	638.125
2757.887	637.79167
2760.117	636.79167
2762.346	642.125
2764.573	633.125
2766.798	631.79167
2769.022	637.125
2771.245	645.125
2773.467	649.79167
2775.686	652.125
2777.905	655.79167
2780.122	653.45833
2782.337	655.45833
2784.552	658.79167
2786.764	668.125
2788.976	679.125
2791.186	693.125
2793.394	687.45833
2795.601	697.125
2797.807	709.125
2800.011	716.125
2802.214	733.79167
2804.415	733.125
2806.615	741.125
2808.814	754.79167
2811.011	760.79167
2813.206	769.125
2815.401	791.45833
2817.594	783.125
2819.785	807.79167
2821.975	803.45833
2824.164	832.79167
2826.351	851.125
2828.537	859.79167
2830.722	875.125
2832.905	877.79167
2835.086	931.45833
2837.267	954.79167
2839.445	987.125
2841.623	1003.125
2843.799	1038.79167
2845.974	1094.125
2848.147	1123.125
2850.319	1165.79167
2852.489	1199.125
2854.659	1205.45833
2856.826	1220.125
2858.993	1249.125
2861.158	1241.79167
2863.321	1222.125
2865.483	1249.45833
2867.644	1247.45833
2869.804	1262.125
2871.962	1240.79167
2874.118	1245.45833
2876.274	1239.125
2878.428	1232.79167
2880.58	1230.79167
2882.731	1211.79167
2884.881	1225.125
2887.03	1221.125
2889.177	1229.79167
2891.322	1245.79167
2893.467	1223.45833
2895.61	1233.45833
2897.751	1253.79167
2899.892	1254.45833
2902.03	1262.79167
2904.168	1268.125
2906.304	1260.45833
2908.439	1284.45833
2910.572	1262.125
2912.704	1287.79167
2914.835	1284.45833
2916.965	1283.125
2919.093	1273.125
2921.219	1246.79167
2923.345	1262.45833
2925.469	1223.79167
2927.591	1222.45833
2929.712	1167.79167
2931.832	1166.79167
2933.951	1132.125
2936.068	1121.125
2938.184	1086.79167
2940.299	1058.125
2942.412	1030.45833
2944.524	981.45833
2946.634	962.79167
2948.744	918.79167
2950.851	928.125
2952.958	878.45833
2955.063	871.79167
2957.167	854.125
2959.269	828.79167
2961.371	829.125
2963.471	784.45833
2965.569	787.45833
2967.666	765.125
2969.762	752.45833
2971.857	724.45833
2973.95	706.79167
2976.042	687.45833
2978.133	681.45833
2980.222	652.45833
2982.31	642.125
2984.396	619.45833
2986.482	614.45833
2988.566	604.125
2990.648	588.125
2992.73	583.45833
2994.81	583.45833
2996.889	587.79167
2998.966	574.79167
3001.042	577.45833
3003.117	578.79167
3005.191	564.45833
3007.263	567.125
3009.334	548.45833
3011.403	536.45833
3013.472	520.45833
3015.539	518.45833
3017.604	522.79167
3019.669	494.45833
3021.732	502.45833
3023.794	503.45833
3025.854	486.125
3027.914	486.45833
3029.971	483.79167
3032.028	488.125
3034.083	476.45833
3036.137	480.45833
3038.19	459.125
3040.242	449.125
3042.292	433.45833
3044.341	434.45833
3046.388	445.45833
3048.435	418.45833
3050.48	438.45833
3052.524	424.79167
3054.566	398.45833
3056.607	413.125
3058.647	398.79167
3060.686	385.79167
3062.723	378.45833
3064.759	360.79167
3066.794	-0.20833
3068.828	-1.20833
3070.86	-2.54167
