-0.839	430.83333
3.438	467.5
7.711	130.16667
11.981	55.16667
16.247	45.5
20.509	44.16667
24.768	45.83333
29.024	48.16667
33.276	42.5
37.524	51.83333
41.769	41.83333
46.01	35.5
50.247	53.5
54.481	59.5
58.712	68.83333
62.939	48.5
67.162	64.5
71.382	56.5
75.599	48.83333
79.812	59.5
84.021	81.83333
88.227	60.16667
92.429	70.16667
96.628	52.16667
100.823	70.83333
105.015	76.5
109.204	78.83333
113.388	82.5
117.57	77.5
121.748	95.16667
125.922	86.5
130.093	101.83333
134.261	113.5
138.425	102.5
142.585	153.16667
146.742	148.83333
150.896	177.16667
155.046	222.5
159.193	355.16667
163.336	624.5
167.476	1155.16667
171.613	2134.83333
175.746	3582.5
179.875	5358.83333
184.002	7021.16667
188.124	8110.5
192.244	8486.83333
196.36	8330.16667
200.472	8052.16667
204.581	7740.5
208.687	7477.16667
212.79	7276.5
216.889	7208.5
220.984	7216.16667
225.077	7220.83333
229.165	7231.83333
233.251	7255.16667
237.333	7230.16667
241.412	7176.16667
245.487	7105.83333
249.559	7045.16667
253.628	6969.83333
257.694	6904.83333
261.756	6837.5
265.814	6745.5
269.87	6604.5
273.922	6418.16667
277.97	6367.16667
282.016	6338.16667
286.058	6364.5
290.097	6439.16667
294.132	6532.83333
298.164	6495.5
302.193	6251.83333
306.219	5794.83333
310.241	5288.5
314.26	4828.5
318.276	4444.5
322.288	4122.5
326.297	3879.16667
330.303	3721.16667
334.305	3598.5
338.305	3540.16667
342.301	3470.83333
346.294	3416.16667
350.283	3383.16667
354.269	3358.16667
358.252	3351.83333
362.232	3290.5
366.209	3266.83333
370.182	3249.5
374.152	3235.16667
378.119	3238.83333
382.083	3197.5
386.043	3233.83333
390	3197.83333
393.954	3163.83333
397.905	3149.16667
401.852	3133.83333
405.797	3088.16667
409.738	3040.16667
413.676	3058.83333
417.61	3020.5
421.542	3000.83333
425.47	2994.5
429.396	2957.5
433.318	2929.5
437.236	2874.5
441.152	2930.5
445.065	2849.16667
448.974	2856.83333
452.88	2821.83333
456.783	2796.83333
460.683	2774.83333
464.58	2780.5
468.473	2771.83333
472.364	2777.16667
476.251	2800.83333
480.135	2824.83333
484.016	2876.5
487.894	2898.5
491.769	2897.83333
495.641	2906.16667
499.509	2895.83333
503.375	2913.16667
507.237	2906.5
511.096	2906.5
514.952	2920.83333
518.805	2959.16667
522.655	2938.83333
526.502	2873.16667
530.346	2843.5
534.187	2863.5
538.024	2885.5
541.859	2893.5
545.69	2905.5
549.519	2899.5
553.344	2844.5
557.166	2815.16667
560.985	2786.83333
564.802	2759.16667
568.615	2709.16667
572.425	2658.83333
576.232	2661.16667
580.036	2632.5
583.836	2653.16667
587.634	2661.83333
591.429	2646.83333
595.221	2700.5
599.01	2730.16667
602.796	2743.5
606.578	2779.16667
610.358	2789.16667
614.135	2769.16667
617.909	2754.16667
621.679	2727.16667
625.447	2721.83333
629.212	2728.16667
632.973	2718.83333
636.732	2709.5
640.488	2740.16667
644.241	2682.5
647.991	2672.16667
651.737	2720.5
655.481	2664.5
659.222	2700.83333
662.96	2685.5
666.695	2700.16667
670.427	2701.83333
674.156	2732.16667
677.882	2732.83333
681.605	2706.83333
685.325	2675.83333
689.043	2690.5
692.757	2681.16667
696.468	2673.16667
700.177	2678.16667
703.882	2665.16667
707.585	2654.16667
711.284	2660.16667
714.981	2674.83333
718.675	2679.16667
722.366	2683.5
726.054	2677.16667
729.739	2684.5
733.421	2659.5
737.1	2671.83333
740.777	2676.5
744.45	2701.83333
748.121	2720.16667
751.789	2789.5
755.453	2784.83333
759.115	2769.16667
762.774	2817.5
766.431	2844.16667
770.084	2860.5
773.734	2880.16667
777.382	2934.5
781.027	2967.5
784.669	2981.16667
788.308	2967.5
791.944	2998.5
795.577	3031.83333
799.208	3034.83333
802.835	3051.83333
806.46	3070.5
810.082	3104.16667
813.701	3093.83333
817.317	3127.16667
820.931	3125.5
824.542	3115.83333
828.149	3073.16667
831.754	3070.16667
835.357	3057.83333
838.956	3082.83333
842.553	3031.16667
846.146	3022.83333
849.737	2992.83333
853.326	3001.83333
856.911	3038.16667
860.493	3044.83333
864.073	3095.16667
867.65	3115.83333
871.225	3159.83333
874.796	3172.16667
878.365	3182.83333
881.931	3216.5
885.494	3232.5
889.054	3264.83333
892.612	3283.83333
896.166	3296.16667
899.719	3251.83333
903.268	3221.83333
906.814	3171.83333
910.358	3147.83333
913.899	3101.83333
917.438	3104.83333
920.973	3067.16667
924.506	3168.5
928.036	3181.83333
931.564	3238.16667
935.088	3244.83333
938.61	3234.16667
942.129	3284.83333
945.646	3349.83333
949.16	3459.5
952.671	3490.83333
956.179	3535.16667
959.685	3500.16667
963.188	3487.83333
966.688	3428.5
970.185	3319.83333
973.68	3259.83333
977.173	3242.83333
980.662	3213.83333
984.149	3234.83333
987.633	3226.5
991.114	3296.83333
994.593	3391.16667
998.069	3478.83333
1001.542	3607.16667
1005.013	3522.16667
1008.481	3336.83333
1011.947	3238.83333
1015.409	3221.16667
1018.869	3228.16667
1022.327	3223.16667
1025.782	3208.16667
1029.234	3225.5
1032.683	3213.5
1036.13	3090.83333
1039.574	2984.83333
1043.016	2924.16667
1046.455	2843.16667
1049.891	2807.16667
1053.325	2822.83333
1056.756	2804.5
1060.184	2842.5
1063.61	2839.83333
1067.033	2849.5
1070.454	2858.5
1073.872	2884.16667
1077.287	2893.83333
1080.7	2921.83333
1084.11	2916.83333
1087.517	2891.5
1090.922	2869.5
1094.325	2819.5
1097.724	2809.83333
1101.122	2815.16667
1104.516	2787.83333
1107.908	2804.83333
1111.298	2844.5
1114.684	2865.16667
1118.069	2897.83333
1121.45	2921.16667
1124.83	2891.83333
1128.206	2956.83333
1131.58	2987.5
1134.951	3114.16667
1138.32	3211.5
1141.687	3353.83333
1145.05	3437.16667
1148.412	3425.5
1151.77	3391.83333
1155.126	3404.83333
1158.48	3353.83333
1161.831	3354.16667
1165.18	3386.5
1168.525	3444.83333
1171.869	3455.5
1175.21	3501.5
1178.548	3524.16667
1181.884	3578.16667
1185.217	3589.16667
1188.548	3645.16667
1191.877	3735.16667
1195.202	3829.16667
1198.526	3867.5
1201.846	3904.16667
1205.165	3883.83333
1208.48	3880.5
1211.794	3877.83333
1215.104	3924.16667
1218.413	3916.5
1221.719	3906.83333
1225.022	3882.16667
1228.323	3815.5
1231.621	3802.83333
1234.917	3766.5
1238.21	3823.16667
1241.501	3777.16667
1244.79	3737.16667
1248.076	3756.16667
1251.359	3811.83333
1254.64	3867.5
1257.919	3930.83333
1261.195	4001.83333
1264.468	4067.16667
1267.74	4163.83333
1271.008	4160.5
1274.275	4153.5
1277.538	4081.5
1280.8	4082.16667
1284.059	4078.5
1287.315	4126.83333
1290.569	4150.5
1293.821	4175.83333
1297.07	4163.5
1300.317	4167.83333
1303.562	4172.83333
1306.803	4123.16667
1310.043	4082.5
1313.28	4031.5
1316.515	4008.83333
1319.747	3980.16667
1322.977	3984.5
1326.204	3902.16667
1329.429	3889.5
1332.652	3867.83333
1335.872	3847.83333
1339.09	3799.16667
1342.306	3768.83333
1345.519	3710.16667
1348.729	3703.5
1351.938	3644.83333
1355.144	3612.83333
1358.347	3572.16667
1361.548	3599.83333
1364.747	3587.5
1367.944	3591.83333
1371.138	3623.83333
1374.329	3634.5
1377.518	3681.5
1380.705	3777.16667
1383.89	3720.5
1387.072	3617.83333
1390.252	3471.5
1393.429	3360.5
1396.605	3233.16667
1399.777	3136.5
1402.948	3146.5
1406.116	3127.5
1409.282	3127.16667
1412.445	3159.5
1415.606	3170.5
1418.765	3214.16667
1421.921	3287.5
1425.075	3343.83333
1428.227	3456.16667
1431.376	3618.16667
1434.524	3729.83333
1437.668	3798.5
1440.811	3863.5
1443.951	3918.16667
1447.089	3912.16667
1450.224	3907.83333
1453.357	3876.83333
1456.488	3830.16667
1459.617	3773.83333
1462.743	3728.83333
1465.867	3617.5
1468.989	3571.5
1472.108	3509.5
1475.225	3457.83333
1478.34	3432.5
1481.453	3400.16667
1484.563	3422.83333
1487.671	3470.83333
1490.776	3515.16667
1493.88	3583.5
1496.981	3657.5
1500.08	3700.83333
1503.176	3730.83333
1506.271	3810.16667
1509.363	3847.83333
1512.452	3877.5
1515.54	3932.16667
1518.625	4003.5
1521.708	4131.16667
1524.789	4325.83333
1527.867	4494.16667
1530.944	4758.5
1534.018	4954.16667
1537.089	5168.5
1540.159	5155.16667
1543.226	5076.83333
1546.291	4933.83333
1549.354	4799.83333
1552.415	4655.5
1555.473	4540.16667
1558.529	4474.5
1561.583	4388.5
1564.634	4313.16667
1567.684	4292.83333
1570.731	4319.16667
1573.776	4346.83333
1576.819	4369.16667
1579.859	4411.16667
1582.898	4444.16667
1585.934	4470.5
1588.968	4495.83333
1591.999	4489.5
1595.029	4487.83333
1598.056	4514.83333
1601.081	4523.83333
1604.104	4521.83333
1607.125	4464.83333
1610.144	4365.5
1613.16	4291.16667
1616.174	4213.16667
1619.186	4116.83333
1622.196	4037.16667
1625.203	3933.83333
1628.209	3910.5
1631.212	3843.5
1634.213	3809.16667
1637.212	3801.83333
1640.209	3754.16667
1643.203	3656.5
1646.196	3564.83333
1649.186	3424.83333
1652.174	3340.5
1655.16	3230.5
1658.144	3181.83333
1661.125	3046.16667
1664.105	2925.83333
1667.082	2767.16667
1670.057	2647.5
1673.03	2473.5
1676.001	2286.83333
1678.97	2146.16667
1681.937	2021.16667
1684.901	1888.5
1687.863	1836.16667
1690.824	1763.16667
1693.782	1720.5
1696.738	1653.16667
1699.692	1622.16667
1702.643	1576.16667
1705.593	1566.83333
1708.54	1522.83333
1711.486	1537.5
1714.429	1496.83333
1717.37	1481.5
1720.309	1467.83333
1723.246	1454.5
1726.181	1432.16667
1729.113	1448.16667
1732.044	1425.5
1734.972	1394.83333
1737.899	1410.16667
1740.823	1393.83333
1743.745	1395.5
1746.665	1339.5
1749.583	1318.83333
1752.499	1306.83333
1755.413	1273.83333
1758.325	1265.83333
1761.235	1271.16667
1764.142	1247.16667
1767.048	1225.5
1769.951	1232.16667
1772.852	1207.5
1775.752	1201.5
1778.649	1202.83333
1781.544	1194.16667
1784.437	1167.16667
1787.328	1180.83333
1790.217	1171.83333
1793.104	1153.83333
1795.989	1149.16667
1798.872	1136.16667
1801.753	1164.16667
1804.631	1141.5
1807.508	1165.5
1810.383	1148.16667
1813.255	1123.83333
1816.126	1135.83333
1818.994	1119.16667
1821.861	1117.83333
1824.725	1111.16667
1827.587	1106.83333
1830.448	1106.5
1833.306	1074.16667
1836.162	1094.5
1839.017	1093.16667
1841.869	1078.16667
1844.719	1072.5
1847.567	1067.16667
1850.414	1060.83333
1853.258	1058.83333
1856.1	1071.83333
1858.94	1088.5
1861.778	1066.83333
1864.614	1045.83333
1867.448	1062.5
1870.28	1039.5
1873.111	1063.5
1875.939	1047.83333
1878.765	1071.16667
1881.589	1038.5
1884.411	1049.83333
1887.231	1051.83333
1890.049	1040.16667
1892.865	1036.16667
1895.68	1042.16667
1898.492	1020.83333
1901.302	1010.16667
1904.11	1016.83333
1906.916	999.16667
1909.721	1001.5
1912.523	1014.83333
1915.323	991.83333
1918.122	997.83333
1920.918	990.5
1923.712	980.16667
1926.505	986.83333
1929.295	978.5
1932.084	994.83333
1934.87	986.5
1937.655	975.16667
1940.438	971.83333
1943.218	976.5
1945.997	977.16667
1948.774	981.5
1951.549	984.5
1954.322	966.83333
1957.093	969.16667
1959.862	962.83333
1962.629	946.83333
1965.394	946.83333
1968.157	944.16667
1970.918	949.5
1973.678	933.16667
1976.435	942.5
1979.19	937.5
1981.944	923.5
1984.696	932.5
1987.445	916.16667
1990.193	919.16667
1992.939	935.5
1995.683	927.83333
1998.425	895.83333
2001.165	937.5
2003.903	913.83333
2006.639	917.5
2009.374	914.16667
2012.106	915.16667
2014.837	896.83333
2017.566	913.83333
2020.292	908.16667
2023.017	894.83333
2025.74	882.83333
2028.461	892.16667
2031.18	900.16667
2033.898	885.83333
2036.613	896.5
2039.327	898.83333
2042.038	889.83333
2044.748	874.83333
2047.456	884.5
2050.162	870.83333
2052.866	864.83333
2055.568	877.16667
2058.268	852.83333
2060.967	873.5
2063.663	864.5
2066.358	863.5
2069.051	856.83333
2071.742	849.16667
2074.431	871.16667
2077.118	850.83333
2079.804	837.5
2082.487	867.16667
2085.169	869.16667
2087.849	882.16667
2090.527	858.83333
2093.203	863.83333
2095.877	874.16667
2098.55	865.16667
2101.22	884.16667
2103.889	894.5
2106.556	883.83333
2109.221	917.5
2111.884	949.16667
2114.546	1004.16667
2117.205	1069.83333
2119.863	1172.5
2122.519	1239.83333
2125.173	1315.83333
2127.825	1405.5
2130.475	1401.16667
2133.124	1358.5
2135.771	1298.83333
2138.416	1249.16667
2141.059	1154.5
2143.7	1119.5
2146.339	1040.16667
2148.977	986.16667
2151.613	973.83333
2154.247	941.16667
2156.879	917.5
2159.51	895.83333
2162.138	861.5
2164.765	880.16667
2167.39	846.83333
2170.013	873.16667
2172.634	857.16667
2175.254	833.16667
2177.872	874.5
2180.488	828.5
2183.102	842.83333
2185.714	810.83333
2188.325	789.16667
2190.934	805.83333
2193.541	795.83333
2196.146	797.16667
2198.75	779.16667
2201.351	790.83333
2203.951	750.83333
2206.549	785.5
2209.146	758.83333
2211.74	748.16667
2214.333	757.5
2216.924	738.5
2219.514	744.83333
2222.101	743.83333
2224.687	761.5
2227.271	726.16667
2229.853	731.83333
2232.433	717.16667
2235.012	752.83333
2237.589	737.83333
2240.164	736.5
2242.738	726.83333
2245.309	715.16667
2247.879	722.5
2250.448	728.5
2253.014	703.5
2255.579	683.83333
2258.142	684.5
2260.703	671.5
2263.262	674.16667
2265.82	671.5
2268.376	679.5
2270.93	668.83333
2273.483	659.83333
2276.033	669.5
2278.583	656.5
2281.13	658.83333
2283.675	639.5
2286.219	653.83333
2288.761	642.83333
2291.302	660.16667
2293.841	648.16667
2296.377	631.5
2298.913	645.5
2301.446	653.5
2303.978	641.16667
2306.508	629.83333
2309.037	648.5
2311.563	629.16667
2314.088	635.16667
2316.612	618.5
2319.133	629.16667
2321.653	625.16667
2324.171	616.5
2326.688	626.5
2329.202	620.83333
2331.715	627.83333
2334.227	603.5
2336.736	597.83333
2339.244	601.16667
2341.751	595.83333
2344.255	601.5
2346.758	596.83333
2349.259	596.16667
2351.759	589.5
2354.257	582.83333
2356.753	587.16667
2359.247	581.16667
2361.74	594.83333
2364.231	578.16667
2366.721	596.5
2369.209	581.16667
2371.695	580.5
2374.179	573.83333
2376.662	573.5
2379.143	600.5
2381.622	577.5
2384.1	580.83333
2386.576	571.5
2389.051	574.5
2391.524	595.16667
2393.995	585.16667
2396.464	572.5
2398.932	562.83333
2401.398	576.5
2403.863	560.83333
2406.325	567.5
2408.787	579.83333
2411.246	565.83333
2413.704	560.16667
2416.16	554.5
2418.615	570.16667
2421.068	566.5
2423.519	562.5
2425.969	549.5
2428.417	558.16667
2430.863	585.83333
2433.308	567.16667
2435.751	548.83333
2438.193	564.16667
2440.633	560.5
2443.071	556.16667
2445.508	540.16667
2447.943	545.5
2450.376	535.16667
2452.808	545.83333
2455.238	536.16667
2457.667	571.16667
2460.093	551.16667
2462.519	530.83333
2464.942	526.16667
2467.365	537.16667
2469.785	529.83333
2472.204	527.83333
2474.621	527.5
2477.037	548.5
2479.451	515.83333
2481.863	516.83333
2484.274	519.5
2486.683	527.5
2489.091	529.16667
2491.497	537.16667
2493.901	519.16667
2496.304	511.16667
2498.705	526.16667
2501.105	522.16667
2503.503	544.83333
2505.899	514.5
2508.294	530.5
2510.687	500.5
2513.079	514.16667
2515.469	498.16667
2517.858	506.16667
2520.245	530.16667
2522.63	513.83333
2525.014	500.83333
2527.396	502.16667
2529.776	502.5
2532.156	510.5
2534.533	491.16667
2536.909	497.16667
2539.283	483.83333
2541.656	496.83333
2544.027	516.16667
2546.397	505.5
2548.765	499.16667
2551.131	499.5
2553.496	493.16667
2555.86	503.5
2558.221	495.5
2560.582	488.83333
2562.94	475.83333
2565.298	486.83333
2567.653	516.5
2570.007	480.5
2572.36	493.83333
2574.711	489.83333
2577.06	511.16667
2579.408	487.16667
2581.754	496.16667
2584.099	483.83333
2586.442	476.16667
2588.784	492.83333
2591.124	490.83333
2593.463	483.16667
2595.8	491.5
2598.135	472.5
2600.469	488.16667
2602.802	495.83333
2605.133	490.83333
2607.462	475.5
2609.79	476.83333
2612.116	480.16667
2614.441	479.5
2616.764	494.83333
2619.086	483.16667
2621.406	476.16667
2623.725	490.16667
2626.042	484.16667
2628.358	482.16667
2630.672	481.16667
2632.985	491.16667
2635.296	487.5
2637.606	496.16667
2639.914	476.16667
2642.22	481.16667
2644.525	480.5
2646.829	489.5
2649.131	495.5
2651.432	494.83333
2653.731	479.16667
2656.028	498.5
2658.324	493.5
2660.619	479.83333
2662.912	499.16667
2665.204	477.83333
2667.494	495.16667
2669.782	485.5
2672.07	494.5
2674.355	507.16667
2676.639	493.5
2678.922	484.83333
2681.203	495.5
2683.483	481.5
2685.761	477.5
2688.038	488.16667
2690.313	497.83333
2692.587	489.16667
2694.859	487.16667
2697.13	498.16667
2699.399	502.83333
2701.667	515.16667
2703.933	511.5
2706.198	513.5
2708.461	526.83333
2710.723	511.83333
2712.984	513.16667
2715.243	531.16667
2717.5	524.83333
2719.757	538.5
2722.011	523.5
2724.264	536.16667
2726.516	557.83333
2728.766	534.16667
2731.015	544.5
2733.262	528.83333
2735.508	532.5
2737.753	535.5
2739.996	517.16667
2742.237	508.16667
2744.477	531.5
2746.716	532.83333
2748.953	513.16667
2751.189	515.83333
2753.423	501.16667
2755.656	495.5
2757.887	503.5
2760.117	501.5
2762.346	497.16667
2764.573	490.83333
2766.798	488.16667
2769.022	507.5
2771.245	510.16667
2773.467	508.16667
2775.686	508.5
2777.905	515.5
2780.122	515.5
2782.337	525.83333
2784.552	513.5
2786.764	518.16667
2788.976	528.5
2791.186	534.83333
2793.394	542.83333
2795.601	550.5
2797.807	559.5
2800.011	558.5
2802.214	574.16667
2804.415	569.83333
2806.615	572.5
2808.814	594.5
2811.011	596.83333
2813.206	597.83333
2815.401	617.16667
2817.594	624.16667
2819.785	644.83333
2821.975	629.83333
2824.164	640.16667
2826.351	669.16667
2828.537	681.16667
2830.722	684.5
2832.905	710.5
2835.086	734.16667
2837.267	775.83333
2839.445	816.5
2841.623	825.5
2843.799	868.83333
2845.974	898.83333
2848.147	948.16667
2850.319	978.16667
2852.489	1020.5
2854.659	1026.5
2856.826	1037.5
2858.993	1058.83333
2861.158	1051.5
2863.321	1057.16667
2865.483	1074.5
2867.644	1080.83333
2869.804	1062.16667
2871.962	1073.16667
2874.118	1055.83333
2876.274	1055.5
2878.428	1062.5
2880.58	1046.5
2882.731	1037.83333
2884.881	1049.83333
2887.03	1045.16667
2889.177	1061.16667
2891.322	1071.16667
2893.467	1057.16667
2895.61	1055.16667
2897.751	1102.16667
2899.892	1071.5
2902.03	1081.16667
2904.168	1111.16667
2906.304	1100.5
2908.439	1121.83333
2910.572	1118.16667
2912.704	1116.83333
2914.835	1126.83333
2916.965	1114.83333
2919.093	1126.5
2921.219	1088.16667
2923.345	1095.16667
2925.469	1080.16667
2927.591	1066.16667
2929.712	1028.83333
2931.832	1023.5
2933.951	1008.16667
2936.068	974.16667
2938.184	958.16667
2940.299	930.5
2942.412	897.5
2944.524	847.5
2946.634	837.83333
2948.744	783.83333
2950.851	795.16667
2952.958	759.16667
2955.063	747.5
2957.167	735.83333
2959.269	694.16667
2961.371	719.5
2963.471	665.5
2965.569	673.5
2967.666	642.83333
2969.762	623.16667
2971.857	596.16667
2973.95	576.5
2976.042	574.16667
2978.133	570.83333
2980.222	550.83333
2982.31	524.5
2984.396	515.16667
2986.482	504.5
2988.566	501.83333
2990.648	492.83333
2992.73	483.5
2994.81	459.83333
2996.889	471.83333
2998.966	469.83333
3001.042	471.16667
3003.117	454.16667
3005.191	456.83333
3007.263	448.5
3009.334	449.5
3011.403	440.5
3013.472	422.83333
3015.539	421.83333
3017.604	436.83333
3019.669	395.16667
3021.732	402.16667
3023.794	403.16667
3025.854	389.83333
3027.914	388.5
3029.971	392.5
3032.028	386.5
3034.083	383.5
3036.137	377.83333
3038.19	362.5
3040.242	354.16667
3042.292	343.16667
3044.341	340.83333
3046.388	352.5
3048.435	327.16667
3050.48	351.16667
3052.524	336.16667
3054.566	321.5
3056.607	335.5
3058.647	325.5
3060.686	305.16667
3062.723	301.16667
3064.759	283.16667
3066.794	0.16667
3068.828	-0.5
3070.86	-2.83333
