-0.839	434.79167
3.438	462.79167
7.711	133.125
11.981	55.45833
16.247	46.45833
20.509	45.45833
24.768	43.125
29.024	47.125
33.276	39.79167
37.524	51.125
41.769	38.79167
46.01	39.125
50.247	49.45833
54.481	60.125
58.712	65.125
62.939	49.45833
67.162	60.125
71.382	55.125
75.599	44.79167
79.812	65.79167
84.021	82.79167
88.227	63.45833
92.429	64.45833
96.628	51.125
100.823	71.125
105.015	77.45833
109.204	77.125
113.388	78.79167
117.57	76.125
121.748	92.79167
125.922	87.79167
130.093	105.79167
134.261	113.125
138.425	109.45833
142.585	150.79167
146.742	147.79167
150.896	176.45833
155.046	222.79167
159.193	356.79167
163.336	619.125
167.476	1137.79167
171.613	2102.45833
175.746	3556.79167
179.875	5334.79167
184.002	6898.45833
188.124	8016.45833
192.244	8313.79167
196.36	8224.45833
200.472	7886.79167
204.581	7569.125
208.687	7300.79167
212.79	7130.79167
216.889	7032.125
220.984	7060.79167
225.077	7052.45833
229.165	7076.125
233.251	7076.79167
237.333	7048.125
241.412	6978.79167
245.487	6935.125
249.559	6862.125
253.628	6808.125
257.694	6706.79167
261.756	6661.125
265.814	6555.79167
269.87	6383.45833
273.922	6232.79167
277.97	6153.125
282.016	6154.125
286.058	6128.125
290.097	6271.125
294.132	6375.125
298.164	6283.79167
302.193	6040.125
306.219	5597.79167
310.241	5083.125
314.26	4621.45833
318.276	4243.125
322.288	3947.45833
326.297	3681.45833
330.303	3574.79167
334.305	3432.79167
338.305	3341.79167
342.301	3306.45833
346.294	3239.45833
350.283	3195.45833
354.269	3188.125
358.252	3168.125
362.232	3109.45833
366.209	3099.45833
370.182	3049.45833
374.152	3016.125
378.119	3039.45833
382.083	3029.79167
386.043	3035.79167
390	2992.45833
393.954	2985.79167
397.905	2937.125
401.852	2922.125
405.797	2882.79167
409.738	2846.79167
413.676	2856.45833
417.61	2833.45833
421.542	2812.79167
425.47	2788.125
429.396	2769.79167
433.318	2744.125
437.236	2730.45833
441.152	2731.125
445.065	2664.45833
448.974	2672.125
452.88	2640.79167
456.783	2597.125
460.683	2600.45833
464.58	2609.125
468.473	2589.79167
472.364	2602.125
476.251	2608.45833
480.135	2612.45833
484.016	2659.79167
487.894	2683.125
491.769	2717.45833
495.641	2702.79167
499.509	2713.79167
503.375	2720.125
507.237	2697.79167
511.096	2695.45833
514.952	2714.125
518.805	2740.125
522.655	2769.125
526.502	2680.79167
530.346	2685.45833
534.187	2694.45833
538.024	2702.125
541.859	2728.125
545.69	2728.79167
549.519	2686.45833
553.344	2660.125
557.166	2623.45833
560.985	2581.79167
564.802	2575.125
568.615	2505.79167
572.425	2481.125
576.232	2487.125
580.036	2447.79167
583.836	2465.45833
587.634	2462.45833
591.429	2468.45833
595.221	2511.45833
599.01	2543.45833
602.796	2581.125
606.578	2604.125
610.358	2601.79167
614.135	2579.45833
617.909	2583.45833
621.679	2548.125
625.447	2539.125
629.212	2537.79167
632.973	2540.125
636.732	2526.125
640.488	2533.125
644.241	2515.45833
647.991	2502.79167
651.737	2531.125
655.481	2488.79167
659.222	2506.125
662.96	2488.79167
666.695	2523.125
670.427	2528.45833
674.156	2545.45833
677.882	2549.79167
681.605	2524.79167
685.325	2504.79167
689.043	2513.125
692.757	2474.79167
696.468	2493.125
700.177	2494.79167
703.882	2462.45833
707.585	2456.45833
711.284	2481.125
714.981	2483.79167
718.675	2486.79167
722.366	2514.45833
726.054	2477.125
729.739	2503.79167
733.421	2503.125
737.1	2478.79167
740.777	2554.125
744.45	2546.79167
748.121	2554.79167
751.789	2578.125
755.453	2619.125
759.115	2615.45833
762.774	2635.125
766.431	2665.45833
770.084	2696.45833
773.734	2704.79167
777.382	2768.79167
781.027	2792.45833
784.669	2805.125
788.308	2825.125
791.944	2834.79167
795.577	2844.79167
799.208	2876.45833
802.835	2896.79167
806.46	2904.79167
810.082	2910.45833
813.701	2925.45833
817.317	2969.125
820.931	2964.45833
824.542	2966.45833
828.149	2921.125
831.754	2914.125
835.357	2876.125
838.956	2909.125
842.553	2876.125
846.146	2868.79167
849.737	2865.125
853.326	2863.125
856.911	2886.79167
860.493	2888.125
864.073	2932.45833
867.65	3002.45833
871.225	3011.45833
874.796	3023.79167
878.365	3047.45833
881.931	3059.125
885.494	3087.125
889.054	3121.45833
892.612	3133.45833
896.166	3137.125
899.719	3124.45833
903.268	3063.125
906.814	3050.45833
910.358	2974.45833
913.899	2947.125
917.438	2968.79167
920.973	2941.79167
924.506	2973.79167
928.036	3043.125
931.564	3079.79167
935.088	3109.79167
938.61	3106.125
942.129	3144.79167
945.646	3226.125
949.16	3317.79167
952.671	3381.45833
956.179	3416.45833
959.685	3360.79167
963.188	3323.79167
966.688	3266.45833
970.185	3188.125
973.68	3128.79167
977.173	3098.125
980.662	3087.125
984.149	3083.45833
987.633	3088.45833
991.114	3152.79167
994.593	3227.45833
998.069	3322.125
1001.542	3454.125
1005.013	3373.79167
1008.481	3186.125
1011.947	3101.125
1015.409	3098.79167
1018.869	3110.125
1022.327	3090.125
1025.782	3084.125
1029.234	3085.79167
1032.683	3059.125
1036.13	2970.79167
1039.574	2817.45833
1043.016	2768.45833
1046.455	2715.125
1049.891	2692.45833
1053.325	2668.45833
1056.756	2682.79167
1060.184	2732.79167
1063.61	2722.125
1067.033	2741.125
1070.454	2735.45833
1073.872	2778.125
1077.287	2768.45833
1080.7	2796.125
1084.11	2779.45833
1087.517	2766.125
1090.922	2746.79167
1094.325	2703.125
1097.724	2693.125
1101.122	2676.125
1104.516	2672.125
1107.908	2688.79167
1111.298	2721.45833
1114.684	2769.125
1118.069	2786.79167
1121.45	2810.79167
1124.83	2810.45833
1128.206	2857.125
1131.58	2905.79167
1134.951	2990.125
1138.32	3110.79167
1141.687	3255.125
1145.05	3326.125
1148.412	3298.45833
1151.77	3312.45833
1155.126	3275.45833
1158.48	3275.79167
1161.831	3265.125
1165.18	3292.45833
1168.525	3322.125
1171.869	3363.79167
1175.21	3398.45833
1178.548	3429.79167
1181.884	3430.79167
1185.217	3470.45833
1188.548	3556.125
1191.877	3630.45833
1195.202	3725.125
1198.526	3796.79167
1201.846	3776.125
1205.165	3799.79167
1208.48	3783.125
1211.794	3764.79167
1215.104	3791.125
1218.413	3809.45833
1221.719	3827.79167
1225.022	3779.79167
1228.323	3713.79167
1231.621	3688.45833
1234.917	3672.125
1238.21	3682.79167
1241.501	3671.45833
1244.79	3675.125
1248.076	3708.45833
1251.359	3696.45833
1254.64	3781.79167
1257.919	3814.125
1261.195	3880.45833
1264.468	3989.79167
1267.74	4061.125
1271.008	4083.45833
1274.275	4048.45833
1277.538	3989.45833
1280.8	3992.45833
1284.059	3950.79167
1287.315	4023.79167
1290.569	4033.125
1293.821	4047.45833
1297.07	4073.79167
1300.317	4075.79167
1303.562	4069.125
1306.803	4029.125
1310.043	4013.79167
1313.28	3960.45833
1316.515	3896.45833
1319.747	3919.79167
1322.977	3844.79167
1326.204	3789.125
1329.429	3750.45833
1332.652	3766.45833
1335.872	3724.125
1339.09	3690.45833
1342.306	3653.45833
1345.519	3583.125
1348.729	3554.79167
1351.938	3537.79167
1355.144	3474.79167
1358.347	3416.45833
1361.548	3468.79167
1364.747	3469.45833
1367.944	3473.79167
1371.138	3487.79167
1374.329	3539.79167
1377.518	3576.125
1380.705	3638.125
1383.89	3632.79167
1387.072	3501.125
1390.252	3372.45833
1393.429	3259.45833
1396.605	3121.79167
1399.777	3038.79167
1402.948	3040.79167
1406.116	3001.125
1409.282	3025.45833
1412.445	3043.45833
1415.606	3065.125
1418.765	3108.79167
1421.921	3180.125
1425.075	3260.79167
1428.227	3351.45833
1431.376	3510.125
1434.524	3617.125
1437.668	3736.79167
1440.811	3769.45833
1443.951	3786.45833
1447.089	3818.125
1450.224	3791.79167
1453.357	3761.125
1456.488	3718.125
1459.617	3665.79167
1462.743	3636.125
1465.867	3520.79167
1468.989	3471.125
1472.108	3391.45833
1475.225	3319.79167
1478.34	3290.45833
1481.453	3321.45833
1484.563	3317.45833
1487.671	3377.79167
1490.776	3427.79167
1493.88	3498.125
1496.981	3555.125
1500.08	3620.79167
1503.176	3672.125
1506.271	3709.45833
1509.363	3769.45833
1512.452	3816.45833
1515.54	3860.79167
1518.625	3928.125
1521.708	4032.79167
1524.789	4210.125
1527.867	4384.45833
1530.944	4682.79167
1534.018	4918.79167
1537.089	5046.79167
1540.159	5064.125
1543.226	5025.125
1546.291	4879.45833
1549.354	4743.125
1552.415	4619.45833
1555.473	4453.125
1558.529	4387.125
1561.583	4336.79167
1564.634	4258.45833
1567.684	4267.45833
1570.731	4235.45833
1573.776	4308.45833
1576.819	4304.45833
1579.859	4359.79167
1582.898	4406.125
1585.934	4420.125
1588.968	4445.45833
1591.999	4409.45833
1595.029	4442.125
1598.056	4454.125
1601.081	4488.45833
1604.104	4462.125
1607.125	4370.45833
1610.144	4324.125
1613.16	4234.79167
1616.174	4158.125
1619.186	4059.79167
1622.196	3952.125
1625.203	3840.125
1628.209	3781.79167
1631.212	3747.79167
1634.213	3746.79167
1637.212	3692.125
1640.209	3639.125
1643.203	3533.79167
1646.196	3417.45833
1649.186	3307.79167
1652.174	3254.79167
1655.16	3167.79167
1658.144	3050.125
1661.125	2935.125
1664.105	2807.45833
1667.082	2703.125
1670.057	2542.45833
1673.03	2373.45833
1676.001	2238.45833
1678.97	2058.79167
1681.937	1927.79167
1684.901	1819.79167
1687.863	1755.125
1690.824	1672.45833
1693.782	1640.79167
1696.738	1572.45833
1699.692	1559.125
1702.643	1514.45833
1705.593	1478.45833
1708.54	1463.125
1711.486	1468.45833
1714.429	1420.125
1717.37	1410.125
1720.309	1378.79167
1723.246	1394.125
1726.181	1367.79167
1729.113	1359.45833
1732.044	1328.125
1734.972	1332.45833
1737.899	1333.79167
1740.823	1323.125
1743.745	1336.125
1746.665	1281.125
1749.583	1241.79167
1752.499	1237.45833
1755.413	1221.125
1758.325	1191.125
1761.235	1186.45833
1764.142	1161.79167
1767.048	1157.79167
1769.951	1147.125
1772.852	1127.45833
1775.752	1140.45833
1778.649	1130.79167
1781.544	1136.45833
1784.437	1096.45833
1787.328	1106.45833
1790.217	1096.79167
1793.104	1073.45833
1795.989	1086.125
1798.872	1078.45833
1801.753	1098.125
1804.631	1070.79167
1807.508	1094.45833
1810.383	1080.45833
1813.255	1053.125
1816.126	1054.125
1818.994	1060.79167
1821.861	1044.79167
1824.725	1043.79167
1827.587	1043.125
1830.448	1047.79167
1833.306	1009.79167
1836.162	1027.79167
1839.017	1008.79167
1841.869	1010.79167
1844.719	1006.125
1847.567	1001.79167
1850.414	997.125
1853.258	1001.79167
1856.1	996.79167
1858.94	1004.45833
1861.778	993.79167
1864.614	989.45833
1867.448	983.79167
1870.28	990.125
1873.111	1017.125
1875.939	993.45833
1878.765	992.125
1881.589	985.125
1884.411	980.125
1887.231	987.125
1890.049	964.125
1892.865	969.125
1895.68	955.79167
1898.492	955.45833
1901.302	951.45833
1904.11	957.45833
1906.916	944.79167
1909.721	935.125
1912.523	951.45833
1915.323	930.45833
1918.122	937.45833
1920.918	943.125
1923.712	916.45833
1926.505	930.125
1929.295	916.79167
1932.084	923.45833
1934.87	931.125
1937.655	918.45833
1940.438	895.45833
1943.218	922.79167
1945.997	927.45833
1948.774	934.45833
1951.549	924.79167
1954.322	917.45833
1957.093	913.125
1959.862	907.45833
1962.629	889.125
1965.394	895.79167
1968.157	880.79167
1970.918	900.45833
1973.678	887.125
1976.435	894.45833
1979.19	876.79167
1981.944	872.45833
1984.696	868.125
1987.445	864.79167
1990.193	868.79167
1992.939	889.79167
1995.683	877.45833
1998.425	856.45833
2001.165	886.79167
2003.903	852.125
2006.639	857.125
2009.374	860.45833
2012.106	862.79167
2014.837	836.79167
2017.566	858.45833
2020.292	858.125
2023.017	851.45833
2025.74	839.125
2028.461	847.79167
2031.18	851.79167
2033.898	836.79167
2036.613	848.45833
2039.327	848.125
2042.038	832.125
2044.748	837.79167
2047.456	823.45833
2050.162	812.125
2052.866	816.79167
2055.568	820.45833
2058.268	828.125
2060.967	823.125
2063.663	814.45833
2066.358	814.45833
2069.051	806.125
2071.742	820.125
2074.431	799.45833
2077.118	809.45833
2079.804	795.45833
2082.487	802.125
2085.169	821.45833
2087.849	825.79167
2090.527	810.45833
2093.203	820.79167
2095.877	819.125
2098.55	831.45833
2101.22	837.125
2103.889	837.79167
2106.556	850.125
2109.221	885.45833
2111.884	912.125
2114.546	970.79167
2117.205	1034.125
2119.863	1112.79167
2122.519	1202.125
2125.173	1285.79167
2127.825	1380.125
2130.475	1367.79167
2133.124	1341.125
2135.771	1251.79167
2138.416	1201.125
2141.059	1130.45833
2143.7	1067.45833
2146.339	993.125
2148.977	953.79167
2151.613	925.79167
2154.247	902.125
2156.879	878.79167
2159.51	857.125
2162.138	839.125
2164.765	835.125
2167.39	801.45833
2170.013	823.45833
2172.634	814.79167
2175.254	809.79167
2177.872	819.45833
2180.488	795.79167
2183.102	796.125
2185.714	779.45833
2188.325	764.45833
2190.934	767.125
2193.541	769.125
2196.146	754.45833
2198.75	738.45833
2201.351	741.79167
2203.951	729.79167
2206.549	743.79167
2209.146	725.125
2211.74	721.79167
2214.333	730.125
2216.924	701.45833
2219.514	719.125
2222.101	688.125
2224.687	716.45833
2227.271	700.79167
2229.853	695.125
2232.433	688.79167
2235.012	709.45833
2237.589	698.79167
2240.164	709.125
2242.738	686.45833
2245.309	682.45833
2247.879	692.45833
2250.448	694.125
2253.014	671.125
2255.579	653.79167
2258.142	659.45833
2260.703	643.45833
2263.262	633.79167
2265.82	642.45833
2268.376	651.125
2270.93	620.79167
2273.483	628.79167
2276.033	639.79167
2278.583	633.45833
2281.13	623.125
2283.675	612.79167
2286.219	627.45833
2288.761	623.125
2291.302	623.125
2293.841	624.125
2296.377	599.125
2298.913	611.125
2301.446	628.45833
2303.978	618.79167
2306.508	597.79167
2309.037	591.125
2311.563	603.79167
2314.088	615.45833
2316.612	579.79167
2319.133	605.45833
2321.653	595.45833
2324.171	588.45833
2326.688	597.125
2329.202	586.79167
2331.715	585.45833
2334.227	588.125
2336.736	578.79167
2339.244	584.125
2341.751	569.45833
2344.255	582.79167
2346.758	566.125
2349.259	561.45833
2351.759	576.45833
2354.257	568.125
2356.753	562.45833
2359.247	563.125
2361.74	567.125
2364.231	554.79167
2366.721	566.125
2369.209	555.79167
2371.695	552.79167
2374.179	558.79167
2376.662	547.45833
2379.143	568.125
2381.622	553.125
2384.1	557.79167
2386.576	555.79167
2389.051	558.45833
2391.524	571.125
2393.995	564.79167
2396.464	544.45833
2398.932	541.79167
2401.398	537.45833
2403.863	541.79167
2406.325	540.125
2408.787	543.45833
2411.246	535.125
2413.704	534.125
2416.16	535.45833
2418.615	536.45833
2421.068	541.79167
2423.519	538.79167
2425.969	539.125
2428.417	544.125
2430.863	548.125
2433.308	549.45833
2435.751	540.125
2438.193	530.125
2440.633	531.79167
2443.071	532.45833
2445.508	520.125
2447.943	528.79167
2450.376	516.79167
2452.808	526.45833
2455.238	515.125
2457.667	547.79167
2460.093	522.125
2462.519	503.79167
2464.942	512.79167
2467.365	523.79167
2469.785	517.79167
2472.204	510.45833
2474.621	501.79167
2477.037	528.125
2479.451	500.79167
2481.863	505.125
2484.274	499.45833
2486.683	503.79167
2489.091	506.45833
2491.497	510.125
2493.901	505.125
2496.304	501.125
2498.705	507.125
2501.105	497.125
2503.503	526.125
2505.899	500.79167
2508.294	511.45833
2510.687	495.45833
2513.079	493.125
2515.469	490.45833
2517.858	489.125
2520.245	506.125
2522.63	492.125
2525.014	491.79167
2527.396	483.45833
2529.776	491.125
2532.156	495.79167
2534.533	472.45833
2536.909	473.45833
2539.283	472.45833
2541.656	487.45833
2544.027	500.79167
2546.397	490.125
2548.765	488.125
2551.131	481.79167
2553.496	480.79167
2555.86	483.79167
2558.221	481.125
2560.582	480.45833
2562.94	460.79167
2565.298	478.45833
2567.653	493.125
2570.007	463.79167
2572.36	480.45833
2574.711	483.45833
2577.06	491.79167
2579.408	474.125
2581.754	474.79167
2584.099	469.79167
2586.442	477.45833
2588.784	485.45833
2591.124	479.79167
2593.463	478.45833
2595.8	475.79167
2598.135	453.79167
2600.469	467.45833
2602.802	485.125
2605.133	475.79167
2607.462	465.79167
2609.79	462.125
2612.116	472.79167
2614.441	461.45833
2616.764	470.125
2619.086	466.125
2621.406	467.45833
2623.725	480.79167
2626.042	463.79167
2628.358	460.79167
2630.672	467.125
2632.985	480.79167
2635.296	474.79167
2637.606	470.125
2639.914	464.79167
2642.22	471.45833
2644.525	467.125
2646.829	479.125
2649.131	481.79167
2651.432	478.125
2653.731	474.125
2656.028	479.79167
2658.324	476.45833
2660.619	470.125
2662.912	478.125
2665.204	466.79167
2667.494	483.125
2669.782	475.125
2672.07	484.79167
2674.355	490.125
2676.639	478.45833
2678.922	475.79167
2681.203	479.79167
2683.483	469.125
2685.761	471.125
2688.038	488.79167
2690.313	499.45833
2692.587	485.125
2694.859	467.125
2697.13	484.125
2699.399	488.45833
2701.667	506.79167
2703.933	499.125
2706.198	500.125
2708.461	520.125
2710.723	514.79167
2712.984	502.45833
2715.243	514.45833
2717.5	517.79167
2719.757	531.45833
2722.011	509.125
2724.264	540.45833
2726.516	544.45833
2728.766	524.45833
2731.015	523.45833
2733.262	523.45833
2735.508	522.79167
2737.753	516.125
2739.996	506.79167
2742.237	508.45833
2744.477	514.125
2746.716	510.125
2748.953	510.79167
2751.189	512.45833
2753.423	495.79167
2755.656	493.45833
2757.887	494.125
2760.117	496.125
2762.346	486.45833
2764.573	482.45833
2766.798	482.79167
2769.022	498.79167
2771.245	494.45833
2773.467	503.45833
2775.686	495.125
2777.905	509.125
2780.122	511.79167
2782.337	514.79167
2784.552	512.125
2786.764	513.125
2788.976	523.79167
2791.186	533.79167
2793.394	532.45833
2795.601	529.45833
2797.807	547.45833
2800.011	555.79167
2802.214	571.125
2804.415	568.45833
2806.615	571.125
2808.814	585.45833
2811.011	591.125
2813.206	591.125
2815.401	603.79167
2817.594	619.125
2819.785	631.79167
2821.975	625.125
2824.164	647.125
2826.351	654.79167
2828.537	675.79167
2830.722	695.125
2832.905	699.79167
2835.086	734.45833
2837.267	771.45833
2839.445	801.79167
2841.623	821.45833
2843.799	859.45833
2845.974	902.79167
2848.147	938.125
2850.319	972.79167
2852.489	999.79167
2854.659	1027.45833
2856.826	1039.125
2858.993	1062.79167
2861.158	1040.45833
2863.321	1045.79167
2865.483	1073.125
2867.644	1065.45833
2869.804	1055.125
2871.962	1051.79167
2874.118	1048.45833
2876.274	1035.79167
2878.428	1052.45833
2880.58	1045.79167
2882.731	1030.45833
2884.881	1035.125
2887.03	1046.125
2889.177	1049.79167
2891.322	1059.125
2893.467	1056.45833
2895.61	1054.79167
2897.751	1077.125
2899.892	1077.79167
2902.03	1086.79167
2904.168	1087.125
2906.304	1091.79167
2908.439	1127.45833
2910.572	1094.125
2912.704	1122.45833
2914.835	1114.125
2916.965	1108.45833
2919.093	1126.79167
2921.219	1086.125
2923.345	1109.45833
2925.469	1077.125
2927.591	1059.125
2929.712	1038.45833
2931.832	1025.125
2933.951	1007.125
2936.068	981.125
2938.184	955.45833
2940.299	923.79167
2942.412	900.125
2944.524	856.125
2946.634	830.45833
2948.744	780.125
2950.851	805.45833
2952.958	743.125
2955.063	734.79167
2957.167	726.79167
2959.269	693.45833
2961.371	702.45833
2963.471	659.79167
2965.569	658.45833
2967.666	629.125
2969.762	622.79167
2971.857	602.45833
2973.95	580.125
2976.042	588.125
2978.133	556.125
2980.222	537.45833
2982.31	527.45833
2984.396	502.125
2986.482	501.125
2988.566	509.125
2990.648	473.79167
2992.73	484.125
2994.81	479.125
2996.889	472.45833
2998.966	470.125
3001.042	461.45833
3003.117	453.125
3005.191	455.79167
3007.263	451.79167
3009.334	439.125
3011.403	442.45833
3013.472	414.45833
3015.539	424.79167
3017.604	428.79167
3019.669	391.125
3021.732	403.79167
3023.794	400.45833
3025.854	376.45833
3027.914	386.79167
3029.971	394.79167
3032.028	380.125
3034.083	386.125
3036.137	379.125
3038.19	361.125
3040.242	348.125
3042.292	341.125
3044.341	342.45833
3046.388	363.79167
3048.435	326.125
3050.48	343.45833
3052.524	340.45833
3054.566	308.45833
3056.607	335.125
3058.647	322.45833
3060.686	303.45833
3062.723	300.79167
3064.759	292.125
3066.794	0.79167
3068.828	-2.54167
3070.86	-1.20833
