-0.839	416.29167
3.438	446.625
7.711	128.625
11.981	57.29167
16.247	47.95833
20.509	41.625
24.768	43.95833
29.024	45.29167
33.276	41.29167
37.524	48.95833
41.769	38.95833
46.01	35.95833
50.247	48.29167
54.481	57.95833
58.712	68.29167
62.939	47.95833
67.162	59.95833
71.382	58.625
75.599	46.29167
79.812	66.29167
84.021	76.95833
88.227	60.625
92.429	61.29167
96.628	48.95833
100.823	68.29167
105.015	75.29167
109.204	74.625
113.388	78.95833
117.57	73.95833
121.748	88.95833
125.922	81.95833
130.093	97.625
134.261	103.625
138.425	98.625
142.585	136.29167
146.742	137.625
150.896	162.625
155.046	197.95833
159.193	306.95833
163.336	522.29167
167.476	932.95833
171.613	1730.29167
175.746	2922.625
179.875	4350.29167
184.002	5692.625
188.124	6614.95833
192.244	6948.29167
196.36	6877.95833
200.472	6694.95833
204.581	6496.29167
208.687	6286.29167
212.79	6224.29167
216.889	6176.95833
220.984	6231.95833
225.077	6255.625
229.165	6272.625
233.251	6315.95833
237.333	6314.625
241.412	6224.29167
245.487	6199.95833
249.559	6154.625
253.628	6099.625
257.694	6048.29167
261.756	6002.625
265.814	5930.95833
269.87	5793.625
273.922	5695.29167
277.97	5696.95833
282.016	5726.29167
286.058	5796.29167
290.097	5906.29167
294.132	6000.625
298.164	5964.95833
302.193	5664.95833
306.219	5284.625
310.241	4816.95833
314.26	4380.625
318.276	4019.625
322.288	3759.29167
326.297	3515.625
330.303	3380.625
334.305	3287.29167
338.305	3188.29167
342.301	3137.95833
346.294	3124.625
350.283	3085.95833
354.269	3047.29167
358.252	3031.625
362.232	3010.29167
366.209	2996.625
370.182	2952.95833
374.152	2925.95833
378.119	2915.625
382.083	2908.95833
386.043	2957.29167
390	2890.29167
393.954	2871.625
397.905	2840.625
401.852	2843.95833
405.797	2808.29167
409.738	2797.95833
413.676	2787.29167
417.61	2776.625
421.542	2777.29167
425.47	2732.29167
429.396	2696.95833
433.318	2680.29167
437.236	2667.625
441.152	2697.625
445.065	2623.625
448.974	2633.95833
452.88	2591.95833
456.783	2594.95833
460.683	2574.95833
464.58	2578.95833
468.473	2600.625
472.364	2601.95833
476.251	2603.625
480.135	2638.625
484.016	2665.625
487.894	2663.29167
491.769	2722.95833
495.641	2716.95833
499.509	2732.95833
503.375	2753.29167
507.237	2727.95833
511.096	2734.625
514.952	2908.29167
518.805	3075.29167
522.655	3087.95833
526.502	2858.29167
530.346	2702.625
534.187	2692.29167
538.024	2688.95833
541.859	2700.625
545.69	2717.29167
549.519	2678.95833
553.344	2661.625
557.166	2617.95833
560.985	2571.95833
564.802	2570.625
568.615	2503.95833
572.425	2482.29167
576.232	2449.625
580.036	2437.29167
583.836	2469.625
587.634	2473.625
591.429	2448.29167
595.221	2523.625
599.01	2523.625
602.796	2546.29167
606.578	2587.95833
610.358	2596.625
614.135	2581.95833
617.909	2555.625
621.679	2555.95833
625.447	2511.625
629.212	2540.95833
632.973	2527.29167
636.732	2528.29167
640.488	2509.29167
644.241	2488.29167
647.991	2471.625
651.737	2490.625
655.481	2473.625
659.222	2505.29167
662.96	2457.95833
666.695	2475.625
670.427	2506.95833
674.156	2518.95833
677.882	2500.625
681.605	2531.625
685.325	2500.95833
689.043	2511.29167
692.757	2473.95833
696.468	2456.95833
700.177	2480.625
703.882	2472.29167
707.585	2463.625
711.284	2478.95833
714.981	2485.95833
718.675	2510.95833
722.366	2497.625
726.054	2476.625
729.739	2467.29167
733.421	2491.29167
737.1	2491.625
740.777	2487.625
744.45	2529.95833
748.121	2542.29167
751.789	2581.625
755.453	2559.29167
759.115	2612.29167
762.774	2629.625
766.431	2649.29167
770.084	2669.29167
773.734	2715.625
777.382	2742.625
781.027	2750.29167
784.669	2766.625
788.308	2772.625
791.944	2805.29167
795.577	2831.95833
799.208	2844.29167
802.835	2865.29167
806.46	2869.95833
810.082	2899.95833
813.701	2886.29167
817.317	2913.95833
820.931	2909.29167
824.542	2900.95833
828.149	2902.95833
831.754	2850.95833
835.357	2845.95833
838.956	2849.625
842.553	2848.95833
846.146	2826.95833
849.737	2828.29167
853.326	2826.625
856.911	2801.95833
860.493	2860.625
864.073	2883.625
867.65	2924.95833
871.225	2971.625
874.796	2955.29167
878.365	2983.625
881.931	3008.95833
885.494	3023.625
889.054	3044.95833
892.612	3081.29167
896.166	3063.29167
899.719	3051.95833
903.268	2970.29167
906.814	2958.95833
910.358	2928.29167
913.899	2881.29167
917.438	2907.29167
920.973	2885.29167
924.506	2927.95833
928.036	2969.29167
931.564	3011.625
935.088	3029.95833
938.61	3046.29167
942.129	3086.29167
945.646	3179.29167
949.16	3273.95833
952.671	3333.625
956.179	3315.95833
959.685	3281.95833
963.188	3251.95833
966.688	3181.29167
970.185	3086.95833
973.68	3038.95833
977.173	3015.95833
980.662	2981.625
984.149	2987.625
987.633	2980.29167
991.114	3009.95833
994.593	3119.29167
998.069	3216.95833
1001.542	3314.95833
1005.013	3232.95833
1008.481	3057.625
1011.947	2997.29167
1015.409	2955.29167
1018.869	2971.29167
1022.327	2987.29167
1025.782	2970.625
1029.234	2971.625
1032.683	2952.95833
1036.13	2829.95833
1039.574	2758.95833
1043.016	2701.625
1046.455	2631.625
1049.891	2587.625
1053.325	2613.625
1056.756	2598.625
1060.184	2634.625
1063.61	2640.95833
1067.033	2676.29167
1070.454	2662.29167
1073.872	2714.625
1077.287	2670.95833
1080.7	2708.625
1084.11	2739.29167
1087.517	2698.625
1090.922	2674.29167
1094.325	2630.29167
1097.724	2597.95833
1101.122	2614.95833
1104.516	2595.95833
1107.908	2587.95833
1111.298	2643.29167
1114.684	2674.625
1118.069	2687.29167
1121.45	2731.29167
1124.83	2722.95833
1128.206	2776.95833
1131.58	2823.95833
1134.951	2911.625
1138.32	3013.29167
1141.687	3113.95833
1145.05	3157.29167
1148.412	3179.95833
1151.77	3156.29167
1155.126	3135.29167
1158.48	3121.95833
1161.831	3156.29167
1165.18	3172.95833
1168.525	3235.95833
1171.869	3223.95833
1175.21	3247.29167
1178.548	3329.95833
1181.884	3352.625
1185.217	3401.29167
1188.548	3448.29167
1191.877	3494.29167
1195.202	3595.625
1198.526	3654.625
1201.846	3658.95833
1205.165	3674.625
1208.48	3663.29167
1211.794	3681.29167
1215.104	3680.29167
1218.413	3702.625
1221.719	3687.625
1225.022	3634.625
1228.323	3608.29167
1231.621	3565.29167
1234.917	3542.625
1238.21	3566.625
1241.501	3536.29167
1244.79	3541.625
1248.076	3522.95833
1251.359	3574.625
1254.64	3650.29167
1257.919	3664.29167
1261.195	3728.625
1264.468	3786.95833
1267.74	3839.625
1271.008	3861.95833
1274.275	3859.29167
1277.538	3829.625
1280.8	3805.29167
1284.059	3820.95833
1287.315	3893.95833
1290.569	3895.29167
1293.821	3932.29167
1297.07	3911.29167
1300.317	3944.29167
1303.562	3929.625
1306.803	3862.29167
1310.043	3829.29167
1313.28	3817.625
1316.515	3758.625
1319.747	3749.95833
1322.977	3702.95833
1326.204	3650.95833
1329.429	3626.29167
1332.652	3602.29167
1335.872	3572.29167
1339.09	3546.29167
1342.306	3522.625
1345.519	3464.95833
1348.729	3406.95833
1351.938	3399.29167
1355.144	3322.625
1358.347	3322.625
1361.548	3314.625
1364.747	3338.29167
1367.944	3316.95833
1371.138	3338.95833
1374.329	3370.29167
1377.518	3419.95833
1380.705	3456.625
1383.89	3402.95833
1387.072	3327.625
1390.252	3202.625
1393.429	3109.95833
1396.605	3022.95833
1399.777	2945.29167
1402.948	2921.95833
1406.116	2897.625
1409.282	2930.95833
1412.445	2930.29167
1415.606	2987.95833
1418.765	3042.625
1421.921	3077.625
1425.075	3161.95833
1428.227	3236.625
1431.376	3343.95833
1434.524	3493.625
1437.668	3571.29167
1440.811	3604.625
1443.951	3622.625
1447.089	3633.29167
1450.224	3622.625
1453.357	3604.29167
1456.488	3568.95833
1459.617	3537.95833
1462.743	3469.29167
1465.867	3376.95833
1468.989	3334.625
1472.108	3271.29167
1475.225	3204.29167
1478.34	3183.95833
1481.453	3170.29167
1484.563	3180.625
1487.671	3213.625
1490.776	3276.95833
1493.88	3344.29167
1496.981	3416.625
1500.08	3462.29167
1503.176	3469.29167
1506.271	3532.625
1509.363	3582.95833
1512.452	3633.29167
1515.54	3682.625
1518.625	3764.625
1521.708	3862.625
1524.789	4019.95833
1527.867	4192.95833
1530.944	4412.29167
1534.018	4607.95833
1537.089	4774.625
1540.159	4805.95833
1543.226	4774.29167
1546.291	4642.95833
1549.354	4530.29167
1552.415	4411.95833
1555.473	4278.625
1558.529	4184.625
1561.583	4121.29167
1564.634	4044.625
1567.684	4071.29167
1570.731	4052.95833
1573.776	4079.625
1576.819	4073.625
1579.859	4090.29167
1582.898	4146.29167
1585.934	4172.95833
1588.968	4187.625
1591.999	4187.95833
1595.029	4171.625
1598.056	4221.29167
1601.081	4205.29167
1604.104	4201.625
1607.125	4165.29167
1610.144	4079.625
1613.16	3983.95833
1616.174	3882.29167
1619.186	3780.95833
1622.196	3690.95833
1625.203	3621.625
1628.209	3562.625
1631.212	3517.95833
1634.213	3497.29167
1637.212	3461.29167
1640.209	3380.95833
1643.203	3286.625
1646.196	3193.95833
1649.186	3067.29167
1652.174	3026.29167
1655.16	2929.625
1658.144	2858.625
1661.125	2747.625
1664.105	2623.95833
1667.082	2521.29167
1670.057	2391.95833
1673.03	2250.29167
1676.001	2090.95833
1678.97	1946.29167
1681.937	1849.95833
1684.901	1741.625
1687.863	1693.95833
1690.824	1608.625
1693.782	1603.95833
1696.738	1537.625
1699.692	1523.29167
1702.643	1456.625
1705.593	1475.29167
1708.54	1420.29167
1711.486	1437.95833
1714.429	1377.95833
1717.37	1382.29167
1720.309	1354.29167
1723.246	1366.29167
1726.181	1329.29167
1729.113	1349.95833
1732.044	1319.95833
1734.972	1319.95833
1737.899	1316.29167
1740.823	1304.625
1743.745	1304.95833
1746.665	1263.95833
1749.583	1232.29167
1752.499	1225.29167
1755.413	1206.95833
1758.325	1172.29167
1761.235	1185.95833
1764.142	1166.95833
1767.048	1145.29167
1769.951	1151.625
1772.852	1120.29167
1775.752	1129.95833
1778.649	1131.29167
1781.544	1113.625
1784.437	1102.29167
1787.328	1122.29167
1790.217	1103.95833
1793.104	1069.95833
1795.989	1074.625
1798.872	1058.29167
1801.753	1084.29167
1804.631	1075.625
1807.508	1075.95833
1810.383	1072.95833
1813.255	1065.95833
1816.126	1056.29167
1818.994	1060.95833
1821.861	1055.95833
1824.725	1057.95833
1827.587	1049.625
1830.448	1037.29167
1833.306	1008.95833
1836.162	1039.95833
1839.017	1008.95833
1841.869	1017.625
1844.719	1015.625
1847.567	995.29167
1850.414	992.625
1853.258	1012.29167
1856.1	1015.29167
1858.94	1014.29167
1861.778	1008.625
1864.614	986.29167
1867.448	1006.95833
1870.28	987.95833
1873.111	1025.95833
1875.939	990.625
1878.765	1007.29167
1881.589	980.29167
1884.411	1001.95833
1887.231	1007.95833
1890.049	987.95833
1892.865	974.95833
1895.68	970.625
1898.492	975.29167
1901.302	971.625
1904.11	957.29167
1906.916	959.29167
1909.721	955.29167
1912.523	953.95833
1915.323	931.29167
1918.122	936.95833
1920.918	953.625
1923.712	949.29167
1926.505	950.625
1929.295	926.95833
1932.084	952.625
1934.87	950.625
1937.655	931.625
1940.438	930.625
1943.218	938.95833
1945.997	921.29167
1948.774	943.29167
1951.549	938.29167
1954.322	923.625
1957.093	929.95833
1959.862	923.625
1962.629	913.29167
1965.394	905.625
1968.157	899.95833
1970.918	925.29167
1973.678	895.625
1976.435	907.625
1979.19	881.95833
1981.944	898.95833
1984.696	898.625
1987.445	884.625
1990.193	894.29167
1992.939	903.625
1995.683	892.625
1998.425	864.95833
2001.165	898.625
2003.903	878.625
2006.639	873.625
2009.374	874.29167
2012.106	888.29167
2014.837	858.95833
2017.566	882.95833
2020.292	876.95833
2023.017	876.625
2025.74	863.625
2028.461	862.625
2031.18	869.29167
2033.898	857.625
2036.613	863.625
2039.327	862.95833
2042.038	843.625
2044.748	856.625
2047.456	851.625
2050.162	831.625
2052.866	837.95833
2055.568	864.29167
2058.268	845.95833
2060.967	844.625
2063.663	830.625
2066.358	842.95833
2069.051	827.625
2071.742	842.625
2074.431	839.29167
2077.118	825.95833
2079.804	824.95833
2082.487	828.625
2085.169	845.95833
2087.849	845.29167
2090.527	843.95833
2093.203	853.95833
2095.877	848.95833
2098.55	850.95833
2101.22	870.29167
2103.889	895.29167
2106.556	886.95833
2109.221	927.95833
2111.884	946.95833
2114.546	1013.29167
2117.205	1077.95833
2119.863	1155.29167
2122.519	1227.625
2125.173	1297.625
2127.825	1359.95833
2130.475	1357.625
2133.124	1300.29167
2135.771	1239.95833
2138.416	1193.625
2141.059	1120.95833
2143.7	1076.95833
2146.339	1015.29167
2148.977	965.95833
2151.613	944.29167
2154.247	932.29167
2156.879	901.95833
2159.51	880.95833
2162.138	868.625
2164.765	876.29167
2167.39	848.29167
2170.013	861.625
2172.634	848.625
2175.254	833.29167
2177.872	855.95833
2180.488	822.625
2183.102	823.625
2185.714	825.95833
2188.325	793.95833
2190.934	798.29167
2193.541	794.29167
2196.146	786.625
2198.75	789.29167
2201.351	785.95833
2203.951	744.95833
2206.549	798.29167
2209.146	767.29167
2211.74	752.625
2214.333	759.625
2216.924	744.95833
2219.514	751.625
2222.101	733.95833
2224.687	750.625
2227.271	734.29167
2229.853	731.95833
2232.433	719.95833
2235.012	748.95833
2237.589	734.29167
2240.164	746.95833
2242.738	734.95833
2245.309	721.625
2247.879	734.29167
2250.448	732.29167
2253.014	709.95833
2255.579	696.29167
2258.142	701.29167
2260.703	680.625
2263.262	688.95833
2265.82	690.625
2268.376	691.95833
2270.93	670.625
2273.483	673.29167
2276.033	676.625
2278.583	671.29167
2281.13	659.95833
2283.675	672.95833
2286.219	675.625
2288.761	677.95833
2291.302	680.29167
2293.841	670.95833
2296.377	662.95833
2298.913	656.29167
2301.446	666.29167
2303.978	661.29167
2306.508	649.625
2309.037	660.95833
2311.563	663.29167
2314.088	659.29167
2316.612	633.95833
2319.133	649.29167
2321.653	631.95833
2324.171	644.95833
2326.688	649.29167
2329.202	639.29167
2331.715	643.625
2334.227	627.625
2336.736	635.625
2339.244	635.95833
2341.751	622.625
2344.255	649.625
2346.758	625.625
2349.259	617.29167
2351.759	627.625
2354.257	626.625
2356.753	632.95833
2359.247	624.625
2361.74	620.625
2364.231	620.29167
2366.721	626.625
2369.209	612.29167
2371.695	621.95833
2374.179	608.29167
2376.662	615.625
2379.143	639.625
2381.622	619.29167
2384.1	615.29167
2386.576	609.95833
2389.051	631.95833
2391.524	633.95833
2393.995	627.625
2396.464	609.95833
2398.932	602.625
2401.398	616.95833
2403.863	603.625
2406.325	609.625
2408.787	610.95833
2411.246	616.625
2413.704	596.95833
2416.16	598.29167
2418.615	611.29167
2421.068	613.625
2423.519	607.95833
2425.969	607.29167
2428.417	618.625
2430.863	617.95833
2433.308	612.95833
2435.751	597.95833
2438.193	601.29167
2440.633	615.625
2443.071	610.95833
2445.508	588.95833
2447.943	597.29167
2450.376	596.95833
2452.808	601.625
2455.238	587.29167
2457.667	626.95833
2460.093	593.29167
2462.519	585.95833
2464.942	583.95833
2467.365	598.95833
2469.785	605.625
2472.204	594.29167
2474.621	581.95833
2477.037	605.29167
2479.451	578.95833
2481.863	581.29167
2484.274	576.29167
2486.683	588.95833
2489.091	594.95833
2491.497	588.95833
2493.901	581.29167
2496.304	583.29167
2498.705	593.95833
2501.105	588.625
2503.503	605.625
2505.899	577.29167
2508.294	603.95833
2510.687	570.625
2513.079	578.625
2515.469	582.625
2517.858	578.29167
2520.245	602.95833
2522.63	578.29167
2525.014	570.95833
2527.396	576.625
2529.776	575.625
2532.156	577.625
2534.533	564.625
2536.909	569.95833
2539.283	569.625
2541.656	568.29167
2544.027	591.29167
2546.397	583.625
2548.765	561.29167
2551.131	571.95833
2553.496	578.625
2555.86	581.29167
2558.221	578.95833
2560.582	570.625
2562.94	562.625
2565.298	574.95833
2567.653	586.29167
2570.007	556.625
2572.36	570.95833
2574.711	568.625
2577.06	596.625
2579.408	575.95833
2581.754	575.29167
2584.099	573.29167
2586.442	580.29167
2588.784	569.29167
2591.124	579.29167
2593.463	572.625
2595.8	578.29167
2598.135	561.29167
2600.469	564.95833
2602.802	594.625
2605.133	587.625
2607.462	563.625
2609.79	568.95833
2612.116	575.95833
2614.441	576.95833
2616.764	579.29167
2619.086	572.625
2621.406	572.29167
2623.725	591.29167
2626.042	586.29167
2628.358	575.625
2630.672	571.625
2632.985	607.29167
2635.296	579.95833
2637.606	592.625
2639.914	571.95833
2642.22	590.95833
2644.525	585.29167
2646.829	597.95833
2649.131	600.95833
2651.432	609.625
2653.731	589.625
2656.028	602.95833
2658.324	598.95833
2660.619	585.95833
2662.912	607.625
2665.204	591.29167
2667.494	614.95833
2669.782	599.29167
2672.07	609.625
2674.355	618.95833
2676.639	609.29167
2678.922	597.625
2681.203	623.95833
2683.483	604.625
2685.761	587.95833
2688.038	610.95833
2690.313	628.29167
2692.587	623.625
2694.859	606.29167
2697.13	618.95833
2699.399	613.95833
2701.667	629.625
2703.933	637.95833
2706.198	633.95833
2708.461	636.29167
2710.723	647.29167
2712.984	640.95833
2715.243	658.625
2717.5	639.625
2719.757	669.625
2722.011	666.95833
2724.264	661.29167
2726.516	673.95833
2728.766	661.29167
2731.015	673.29167
2733.262	664.95833
2735.508	661.95833
2737.753	664.625
2739.996	641.625
2742.237	648.625
2744.477	663.29167
2746.716	649.625
2748.953	652.29167
2751.189	648.625
2753.423	630.29167
2755.656	632.625
2757.887	637.625
2760.117	637.95833
2762.346	633.625
2764.573	631.29167
2766.798	634.625
2769.022	639.95833
2771.245	643.95833
2773.467	650.29167
2775.686	654.29167
2777.905	655.29167
2780.122	661.29167
2782.337	664.625
2784.552	658.95833
2786.764	675.95833
2788.976	681.625
2791.186	690.95833
2793.394	684.95833
2795.601	699.625
2797.807	712.625
2800.011	712.625
2802.214	728.625
2804.415	730.625
2806.615	735.95833
2808.814	756.625
2811.011	762.625
2813.206	764.95833
2815.401	767.625
2817.594	784.29167
2819.785	794.625
2821.975	782.95833
2824.164	801.29167
2826.351	828.95833
2828.537	848.625
2830.722	857.625
2832.905	861.625
2835.086	889.95833
2837.267	930.625
2839.445	969.625
2841.623	983.95833
2843.799	1008.625
2845.974	1057.625
2848.147	1085.29167
2850.319	1093.29167
2852.489	1162.625
2854.659	1160.29167
2856.826	1188.95833
2858.993	1206.29167
2861.158	1184.95833
2863.321	1198.625
2865.483	1205.95833
2867.644	1193.625
2869.804	1205.625
2871.962	1211.95833
2874.118	1199.29167
2876.274	1194.625
2878.428	1192.625
2880.58	1191.625
2882.731	1172.95833
2884.881	1178.95833
2887.03	1184.95833
2889.177	1171.625
2891.322	1194.95833
2893.467	1185.625
2895.61	1184.95833
2897.751	1217.625
2899.892	1206.625
2902.03	1210.29167
2904.168	1228.95833
2906.304	1213.625
2908.439	1249.95833
2910.572	1235.625
2912.704	1247.95833
2914.835	1251.625
2916.965	1237.625
2919.093	1242.95833
2921.219	1217.29167
2923.345	1240.625
2925.469	1208.95833
2927.591	1188.95833
2929.712	1161.29167
2931.832	1163.625
2933.951	1132.625
2936.068	1100.625
2938.184	1077.95833
2940.299	1054.625
2942.412	1023.95833
2944.524	980.95833
2946.634	959.625
2948.744	921.29167
2950.851	946.95833
2952.958	883.625
2955.063	887.625
2957.167	874.625
2959.269	844.29167
2961.371	860.625
2963.471	825.29167
2965.569	817.29167
2967.666	781.95833
2969.762	776.95833
2971.857	755.95833
2973.95	750.625
2976.042	740.95833
2978.133	719.625
2980.222	705.29167
2982.31	675.95833
2984.396	671.95833
2986.482	654.625
2988.566	655.29167
2990.648	648.625
2992.73	638.625
2994.81	626.29167
2996.889	636.625
2998.966	619.625
3001.042	624.95833
3003.117	618.95833
3005.191	615.625
3007.263	611.95833
3009.334	602.29167
3011.403	605.29167
3013.472	577.29167
3015.539	578.29167
3017.604	596.95833
3019.669	538.95833
3021.732	553.29167
3023.794	554.95833
3025.854	539.95833
3027.914	533.29167
3029.971	543.625
3032.028	537.29167
3034.083	543.29167
3036.137	532.625
3038.19	511.95833
3040.242	503.625
3042.292	493.625
3044.341	483.95833
3046.388	497.29167
3048.435	467.625
3050.48	486.625
3052.524	484.29167
3054.566	450.625
3056.607	471.95833
3058.647	462.625
3060.686	433.625
3062.723	427.29167
3064.759	416.29167
3066.794	0.625
3068.828	-2.04167
3070.86	-4.70833
