-0.839	402.79167
3.438	432.79167
7.711	124.45833
11.981	54.45833
16.247	48.125
20.509	45.45833
24.768	47.125
29.024	48.45833
33.276	44.45833
37.524	49.45833
41.769	39.45833
46.01	38.79167
50.247	54.45833
54.481	62.45833
58.712	65.45833
62.939	52.79167
67.162	65.79167
71.382	60.125
75.599	54.125
79.812	69.45833
84.021	83.45833
88.227	62.45833
92.429	67.125
96.628	48.125
100.823	69.125
105.015	77.125
109.204	77.79167
113.388	81.125
117.57	77.125
121.748	93.45833
125.922	84.45833
130.093	101.125
134.261	111.125
138.425	103.125
142.585	143.79167
146.742	146.125
150.896	168.79167
155.046	212.125
159.193	327.45833
163.336	555.125
167.476	1028.125
171.613	1898.79167
175.746	3199.125
179.875	4807.45833
184.002	6353.125
188.124	7387.79167
192.244	7744.79167
196.36	7731.79167
200.472	7508.79167
204.581	7337.45833
208.687	7198.45833
212.79	7133.79167
216.889	7177.125
220.984	7246.79167
225.077	7337.45833
229.165	7414.79167
233.251	7441.79167
237.333	7518.79167
241.412	7444.79167
245.487	7398.45833
249.559	7331.125
253.628	7256.45833
257.694	7205.125
261.756	7178.79167
265.814	7000.79167
269.87	6835.45833
273.922	6705.125
277.97	6665.79167
282.016	6697.125
286.058	6761.79167
290.097	6882.79167
294.132	6922.45833
298.164	6801.125
302.193	6480.45833
306.219	5984.125
310.241	5456.79167
314.26	4930.45833
318.276	4518.125
322.288	4212.45833
326.297	3964.125
330.303	3763.125
334.305	3611.79167
338.305	3546.125
342.301	3489.45833
346.294	3443.79167
350.283	3407.79167
354.269	3364.79167
358.252	3379.79167
362.232	3363.45833
366.209	3328.79167
370.182	3284.45833
374.152	3247.125
378.119	3269.125
382.083	3238.45833
386.043	3260.45833
390	3220.125
393.954	3191.79167
397.905	3143.45833
401.852	3126.125
405.797	3102.45833
409.738	3080.45833
413.676	3035.79167
417.61	3001.79167
421.542	3000.45833
425.47	2972.45833
429.396	2928.79167
433.318	2916.125
437.236	2909.45833
441.152	2912.79167
445.065	2860.45833
448.974	2845.45833
452.88	2840.45833
456.783	2800.125
460.683	2784.79167
464.58	2795.79167
468.473	2808.45833
472.364	2804.79167
476.251	2835.125
480.135	2820.79167
484.016	2854.79167
487.894	2874.125
491.769	2897.45833
495.641	2901.125
499.509	2923.79167
503.375	2904.125
507.237	2918.45833
511.096	2896.125
514.952	2896.125
518.805	2903.79167
522.655	2927.79167
526.502	2854.79167
530.346	2853.79167
534.187	2852.45833
538.024	2852.45833
541.859	2851.125
545.69	2882.125
549.519	2868.125
553.344	2854.79167
557.166	2798.45833
560.985	2765.79167
564.802	2747.45833
568.615	2711.125
572.425	2674.79167
576.232	2652.79167
580.036	2650.125
583.836	2649.45833
587.634	2647.125
591.429	2639.125
595.221	2684.79167
599.01	2724.45833
602.796	2767.45833
606.578	2790.125
610.358	2780.79167
614.135	2771.79167
617.909	2769.125
621.679	2725.125
625.447	2724.79167
629.212	2746.79167
632.973	2756.79167
636.732	2741.125
640.488	2726.45833
644.241	2692.45833
647.991	2697.45833
651.737	2726.45833
655.481	2680.45833
659.222	2673.45833
662.96	2660.45833
666.695	2690.45833
670.427	2688.45833
674.156	2711.125
677.882	2739.45833
681.605	2725.125
685.325	2702.45833
689.043	2705.45833
692.757	2685.79167
696.468	2713.125
700.177	2696.45833
703.882	2719.125
707.585	2688.125
711.284	2700.125
714.981	2736.79167
718.675	2702.45833
722.366	2731.125
726.054	2710.125
729.739	2712.45833
733.421	2723.45833
737.1	2712.45833
740.777	2750.79167
744.45	2768.79167
748.121	2808.125
751.789	2832.79167
755.453	2824.45833
759.115	2859.45833
762.774	2887.125
766.431	2912.79167
770.084	2931.125
773.734	2981.45833
777.382	3016.125
781.027	3058.45833
784.669	3077.79167
788.308	3087.125
791.944	3117.125
795.577	3163.125
799.208	3173.125
802.835	3187.79167
806.46	3215.45833
810.082	3211.79167
813.701	3225.79167
817.317	3249.79167
820.931	3280.125
824.542	3275.79167
828.149	3245.125
831.754	3218.79167
835.357	3239.79167
838.956	3220.79167
842.553	3180.45833
846.146	3190.45833
849.737	3181.79167
853.326	3175.79167
856.911	3225.79167
860.493	3270.45833
864.073	3292.79167
867.65	3331.125
871.225	3380.79167
874.796	3374.79167
878.365	3420.45833
881.931	3429.125
885.494	3461.45833
889.054	3469.45833
892.612	3485.45833
896.166	3481.125
899.719	3430.45833
903.268	3387.45833
906.814	3351.45833
910.358	3329.45833
913.899	3299.125
917.438	3285.79167
920.973	3275.79167
924.506	3335.125
928.036	3354.45833
931.564	3403.125
935.088	3430.125
938.61	3428.45833
942.129	3477.125
945.646	3562.125
949.16	3650.45833
952.671	3707.79167
956.179	3726.45833
959.685	3697.45833
963.188	3647.125
966.688	3602.79167
970.185	3485.79167
973.68	3439.45833
977.173	3437.125
980.662	3396.79167
984.149	3417.45833
987.633	3449.79167
991.114	3530.45833
994.593	3617.79167
998.069	3713.125
1001.542	3816.45833
1005.013	3734.45833
1008.481	3537.45833
1011.947	3455.79167
1015.409	3451.125
1018.869	3451.125
1022.327	3439.45833
1025.782	3432.79167
1029.234	3439.79167
1032.683	3405.79167
1036.13	3312.79167
1039.574	3192.79167
1043.016	3094.79167
1046.455	3034.125
1049.891	2978.125
1053.325	2988.79167
1056.756	3013.45833
1060.184	3046.125
1063.61	3045.45833
1067.033	3053.125
1070.454	3048.79167
1073.872	3098.45833
1077.287	3086.79167
1080.7	3111.45833
1084.11	3121.45833
1087.517	3100.45833
1090.922	3063.125
1094.325	3031.45833
1097.724	2992.125
1101.122	2983.125
1104.516	2959.79167
1107.908	2989.125
1111.298	3037.79167
1114.684	3059.125
1118.069	3105.79167
1121.45	3138.125
1124.83	3127.79167
1128.206	3173.45833
1131.58	3251.125
1134.951	3319.79167
1138.32	3417.125
1141.687	3528.125
1145.05	3614.125
1148.412	3649.45833
1151.77	3601.125
1155.126	3625.125
1158.48	3617.45833
1161.831	3653.79167
1165.18	3667.125
1168.525	3732.79167
1171.869	3771.79167
1175.21	3799.79167
1178.548	3819.125
1181.884	3872.125
1185.217	3865.125
1188.548	3969.125
1191.877	4071.125
1195.202	4115.45833
1198.526	4180.125
1201.846	4230.79167
1205.165	4223.125
1208.48	4222.79167
1211.794	4190.45833
1215.104	4146.125
1218.413	4169.125
1221.719	4170.125
1225.022	4164.125
1228.323	4130.79167
1231.621	4097.45833
1234.917	4072.45833
1238.21	4147.125
1241.501	4101.79167
1244.79	4115.79167
1248.076	4129.45833
1251.359	4154.45833
1254.64	4228.79167
1257.919	4283.125
1261.195	4317.45833
1264.468	4392.45833
1267.74	4447.125
1271.008	4446.79167
1274.275	4433.125
1277.538	4406.79167
1280.8	4394.45833
1284.059	4395.45833
1287.315	4443.125
1290.569	4486.45833
1293.821	4508.79167
1297.07	4521.45833
1300.317	4551.125
1303.562	4496.125
1306.803	4460.125
1310.043	4410.45833
1313.28	4377.45833
1316.515	4360.45833
1319.747	4270.79167
1322.977	4239.125
1326.204	4162.45833
1329.429	4119.45833
1332.652	4103.125
1335.872	4091.45833
1339.09	4048.79167
1342.306	4053.45833
1345.519	4016.45833
1348.729	4017.79167
1351.938	3959.79167
1355.144	3943.125
1358.347	3901.79167
1361.548	3889.79167
1364.747	3902.45833
1367.944	3870.79167
1371.138	3889.125
1374.329	3971.125
1377.518	4000.45833
1380.705	4068.79167
1383.89	3999.125
1387.072	3899.79167
1390.252	3765.125
1393.429	3629.79167
1396.605	3519.45833
1399.777	3427.125
1402.948	3422.45833
1406.116	3381.45833
1409.282	3387.45833
1412.445	3426.45833
1415.606	3471.125
1418.765	3497.79167
1421.921	3589.125
1425.075	3654.45833
1428.227	3799.125
1431.376	3909.79167
1434.524	4063.125
1437.668	4128.125
1440.811	4166.125
1443.951	4193.45833
1447.089	4194.45833
1450.224	4199.79167
1453.357	4162.45833
1456.488	4132.45833
1459.617	4062.45833
1462.743	3993.79167
1465.867	3915.79167
1468.989	3869.45833
1472.108	3791.45833
1475.225	3709.45833
1478.34	3689.125
1481.453	3672.125
1484.563	3676.79167
1487.671	3735.79167
1490.776	3794.45833
1493.88	3874.125
1496.981	3955.45833
1500.08	4038.45833
1503.176	4116.45833
1506.271	4156.45833
1509.363	4221.125
1512.452	4293.45833
1515.54	4383.45833
1518.625	4446.79167
1521.708	4587.125
1524.789	4793.125
1527.867	5075.125
1530.944	5383.45833
1534.018	5670.125
1537.089	5894.125
1540.159	5970.45833
1543.226	5870.79167
1546.291	5691.79167
1549.354	5525.125
1552.415	5360.79167
1555.473	5167.125
1558.529	5079.45833
1561.583	4984.79167
1564.634	4897.125
1567.684	4893.125
1570.731	4869.125
1573.776	4876.79167
1576.819	4915.45833
1579.859	4923.45833
1582.898	4963.125
1585.934	5014.125
1588.968	5050.125
1591.999	5029.79167
1595.029	5033.79167
1598.056	5061.45833
1601.081	5078.79167
1604.104	5040.79167
1607.125	5001.45833
1610.144	4873.125
1613.16	4766.79167
1616.174	4643.79167
1619.186	4529.79167
1622.196	4414.125
1625.203	4273.45833
1628.209	4187.79167
1631.212	4181.79167
1634.213	4107.79167
1637.212	4083.45833
1640.209	4026.79167
1643.203	3885.79167
1646.196	3811.125
1649.186	3677.79167
1652.174	3591.45833
1655.16	3495.79167
1658.144	3409.79167
1661.125	3241.79167
1664.105	3106.79167
1667.082	2968.125
1670.057	2821.79167
1673.03	2630.79167
1676.001	2493.125
1678.97	2310.125
1681.937	2159.125
1684.901	2047.45833
1687.863	1996.45833
1690.824	1897.45833
1693.782	1880.45833
1696.738	1822.125
1699.692	1763.79167
1702.643	1728.125
1705.593	1711.79167
1708.54	1676.45833
1711.486	1676.45833
1714.429	1648.45833
1717.37	1632.79167
1720.309	1599.79167
1723.246	1602.79167
1726.181	1567.45833
1729.113	1566.45833
1732.044	1551.125
1734.972	1536.79167
1737.899	1534.45833
1740.823	1526.125
1743.745	1517.45833
1746.665	1446.79167
1749.583	1452.45833
1752.499	1411.125
1755.413	1393.125
1758.325	1380.45833
1761.235	1354.79167
1764.142	1327.79167
1767.048	1323.45833
1769.951	1311.79167
1772.852	1312.45833
1775.752	1306.125
1778.649	1308.45833
1781.544	1299.45833
1784.437	1271.125
1787.328	1267.79167
1790.217	1255.125
1793.104	1247.125
1795.989	1230.45833
1798.872	1224.79167
1801.753	1245.45833
1804.631	1254.79167
1807.508	1244.79167
1810.383	1236.125
1813.255	1222.45833
1816.126	1221.125
1818.994	1221.45833
1821.861	1214.79167
1824.725	1197.125
1827.587	1196.45833
1830.448	1177.45833
1833.306	1165.125
1836.162	1190.125
1839.017	1161.125
1841.869	1160.125
1844.719	1167.125
1847.567	1165.125
1850.414	1134.45833
1853.258	1146.125
1856.1	1171.45833
1858.94	1186.125
1861.778	1140.125
1864.614	1124.79167
1867.448	1142.45833
1870.28	1128.45833
1873.111	1155.45833
1875.939	1130.79167
1878.765	1155.79167
1881.589	1124.79167
1884.411	1126.79167
1887.231	1140.45833
1890.049	1130.125
1892.865	1135.125
1895.68	1112.79167
1898.492	1115.125
1901.302	1110.79167
1904.11	1097.45833
1906.916	1088.45833
1909.721	1091.125
1912.523	1115.125
1915.323	1069.125
1918.122	1081.79167
1920.918	1086.79167
1923.712	1080.125
1926.505	1066.79167
1929.295	1071.125
1932.084	1101.125
1934.87	1090.79167
1937.655	1067.79167
1940.438	1063.45833
1943.218	1067.45833
1945.997	1061.125
1948.774	1070.45833
1951.549	1070.125
1954.322	1061.79167
1957.093	1064.125
1959.862	1051.79167
1962.629	1046.79167
1965.394	1047.125
1968.157	1021.125
1970.918	1043.79167
1973.678	1026.79167
1976.435	1042.125
1979.19	1022.45833
1981.944	1015.45833
1984.696	1010.79167
1987.445	1004.45833
1990.193	1022.45833
1992.939	1017.125
1995.683	1011.79167
1998.425	999.125
2001.165	1020.45833
2003.903	987.45833
2006.639	1004.45833
2009.374	995.125
2012.106	1004.125
2014.837	971.125
2017.566	987.125
2020.292	1002.125
2023.017	1002.45833
2025.74	973.79167
2028.461	979.45833
2031.18	981.79167
2033.898	982.125
2036.613	976.45833
2039.327	988.45833
2042.038	963.79167
2044.748	965.79167
2047.456	966.45833
2050.162	948.125
2052.866	955.45833
2055.568	971.45833
2058.268	957.79167
2060.967	968.125
2063.663	934.125
2066.358	959.125
2069.051	949.79167
2071.742	954.79167
2074.431	942.79167
2077.118	962.125
2079.804	935.125
2082.487	959.45833
2085.169	968.45833
2087.849	977.45833
2090.527	968.45833
2093.203	984.45833
2095.877	998.79167
2098.55	998.45833
2101.22	1023.125
2103.889	1038.45833
2106.556	1037.45833
2109.221	1112.45833
2111.884	1147.125
2114.546	1268.45833
2117.205	1378.79167
2119.863	1511.45833
2122.519	1650.79167
2125.173	1751.79167
2127.825	1850.45833
2130.475	1850.79167
2133.124	1776.45833
2135.771	1703.79167
2138.416	1618.45833
2141.059	1497.125
2143.7	1416.125
2146.339	1315.79167
2148.977	1245.125
2151.613	1216.125
2154.247	1149.45833
2156.879	1109.79167
2159.51	1079.125
2162.138	1075.125
2164.765	1046.45833
2167.39	1029.125
2170.013	1021.45833
2172.634	1022.79167
2175.254	1007.45833
2177.872	1011.79167
2180.488	969.125
2183.102	970.79167
2185.714	948.45833
2188.325	932.125
2190.934	928.79167
2193.541	933.125
2196.146	911.79167
2198.75	902.45833
2201.351	890.79167
2203.951	872.79167
2206.549	875.45833
2209.146	870.45833
2211.74	858.45833
2214.333	865.45833
2216.924	845.125
2219.514	847.125
2222.101	838.45833
2224.687	854.45833
2227.271	830.125
2229.853	827.79167
2232.433	817.45833
2235.012	837.45833
2237.589	819.79167
2240.164	829.79167
2242.738	809.125
2245.309	804.125
2247.879	812.45833
2250.448	810.45833
2253.014	790.125
2255.579	763.79167
2258.142	775.79167
2260.703	762.79167
2263.262	759.125
2265.82	751.125
2268.376	770.45833
2270.93	752.79167
2273.483	744.125
2276.033	743.125
2278.583	731.45833
2281.13	739.45833
2283.675	714.79167
2286.219	733.45833
2288.761	726.79167
2291.302	729.79167
2293.841	731.125
2296.377	702.79167
2298.913	725.79167
2301.446	731.45833
2303.978	716.45833
2306.508	702.45833
2309.037	699.79167
2311.563	714.125
2314.088	718.125
2316.612	687.79167
2319.133	697.79167
2321.653	700.79167
2324.171	687.125
2326.688	698.79167
2329.202	685.125
2331.715	688.79167
2334.227	676.79167
2336.736	674.79167
2339.244	673.45833
2341.751	658.79167
2344.255	675.45833
2346.758	653.79167
2349.259	648.45833
2351.759	653.79167
2354.257	658.125
2356.753	648.79167
2359.247	657.79167
2361.74	658.125
2364.231	645.79167
2366.721	661.45833
2369.209	645.45833
2371.695	636.45833
2374.179	637.45833
2376.662	637.79167
2379.143	652.79167
2381.622	645.79167
2384.1	644.45833
2386.576	635.79167
2389.051	650.45833
2391.524	643.79167
2393.995	641.125
2396.464	631.125
2398.932	632.125
2401.398	635.45833
2403.863	620.45833
2406.325	625.125
2408.787	624.125
2411.246	633.79167
2413.704	620.125
2416.16	611.79167
2418.615	614.125
2421.068	618.125
2423.519	621.45833
2425.969	601.79167
2428.417	616.125
2430.863	629.79167
2433.308	616.125
2435.751	612.45833
2438.193	596.45833
2440.633	606.125
2443.071	611.79167
2445.508	590.45833
2447.943	598.79167
2450.376	597.125
2452.808	598.45833
2455.238	593.45833
2457.667	618.79167
2460.093	592.45833
2462.519	579.45833
2464.942	584.125
2467.365	605.45833
2469.785	591.45833
2472.204	581.79167
2474.621	581.79167
2477.037	596.125
2479.451	572.125
2481.863	565.125
2484.274	571.125
2486.683	570.125
2489.091	585.79167
2491.497	585.125
2493.901	570.79167
2496.304	573.125
2498.705	577.45833
2501.105	556.79167
2503.503	592.79167
2505.899	556.125
2508.294	580.125
2510.687	551.125
2513.079	560.45833
2515.469	551.79167
2517.858	552.125
2520.245	569.79167
2522.63	546.79167
2525.014	557.79167
2527.396	550.125
2529.776	538.45833
2532.156	553.45833
2534.533	535.125
2536.909	537.125
2539.283	529.45833
2541.656	547.125
2544.027	557.45833
2546.397	543.45833
2548.765	542.45833
2551.131	530.79167
2553.496	541.45833
2555.86	549.79167
2558.221	524.45833
2560.582	538.125
2562.94	522.79167
2565.298	528.125
2567.653	550.79167
2570.007	513.125
2572.36	533.125
2574.711	518.125
2577.06	558.45833
2579.408	527.79167
2581.754	544.125
2584.099	525.125
2586.442	530.45833
2588.784	534.45833
2591.124	532.125
2593.463	525.125
2595.8	524.125
2598.135	515.125
2600.469	517.45833
2602.802	537.125
2605.133	527.125
2607.462	508.79167
2609.79	516.125
2612.116	519.79167
2614.441	516.79167
2616.764	522.125
2619.086	518.125
2621.406	518.79167
2623.725	522.45833
2626.042	518.125
2628.358	511.79167
2630.672	521.79167
2632.985	524.125
2635.296	518.125
2637.606	520.45833
2639.914	512.125
2642.22	513.45833
2644.525	514.125
2646.829	514.45833
2649.131	531.79167
2651.432	522.45833
2653.731	524.45833
2656.028	535.125
2658.324	522.79167
2660.619	513.45833
2662.912	527.45833
2665.204	506.125
2667.494	533.79167
2669.782	520.79167
2672.07	522.45833
2674.355	539.79167
2676.639	515.125
2678.922	522.125
2681.203	538.125
2683.483	510.125
2685.761	509.79167
2688.038	540.79167
2690.313	543.45833
2692.587	531.45833
2694.859	528.79167
2697.13	533.79167
2699.399	531.45833
2701.667	550.45833
2703.933	549.125
2706.198	547.79167
2708.461	563.125
2710.723	564.79167
2712.984	556.45833
2715.243	573.125
2717.5	563.45833
2719.757	571.79167
2722.011	572.79167
2724.264	576.45833
2726.516	577.79167
2728.766	566.79167
2731.015	577.45833
2733.262	579.125
2735.508	565.79167
2737.753	575.45833
2739.996	550.125
2742.237	550.45833
2744.477	568.45833
2746.716	562.125
2748.953	557.79167
2751.189	560.125
2753.423	538.45833
2755.656	531.79167
2757.887	526.45833
2760.117	538.125
2762.346	523.79167
2764.573	534.45833
2766.798	526.125
2769.022	539.79167
2771.245	543.79167
2773.467	552.79167
2775.686	541.125
2777.905	564.79167
2780.122	563.45833
2782.337	564.125
2784.552	571.45833
2786.764	576.45833
2788.976	586.79167
2791.186	602.79167
2793.394	596.45833
2795.601	608.79167
2797.807	619.125
2800.011	623.45833
2802.214	637.79167
2804.415	644.125
2806.615	657.45833
2808.814	675.125
2811.011	670.45833
2813.206	680.79167
2815.401	701.125
2817.594	727.79167
2819.785	730.125
2821.975	718.79167
2824.164	741.79167
2826.351	761.45833
2828.537	776.79167
2830.722	792.79167
2832.905	813.79167
2835.086	841.125
2837.267	886.45833
2839.445	905.45833
2841.623	917.79167
2843.799	987.45833
2845.974	1028.79167
2848.147	1065.125
2850.319	1095.79167
2852.489	1138.79167
2854.659	1128.45833
2856.826	1152.125
2858.993	1175.125
2861.158	1180.125
2863.321	1152.79167
2865.483	1192.79167
2867.644	1171.125
2869.804	1171.45833
2871.962	1163.79167
2874.118	1167.125
2876.274	1158.79167
2878.428	1154.79167
2880.58	1149.125
2882.731	1122.79167
2884.881	1137.79167
2887.03	1135.125
2889.177	1136.125
2891.322	1149.125
2893.467	1150.125
2895.61	1155.125
2897.751	1188.125
2899.892	1151.45833
2902.03	1174.79167
2904.168	1185.45833
2906.304	1190.45833
2908.439	1187.125
2910.572	1178.45833
2912.704	1188.45833
2914.835	1201.45833
2916.965	1179.45833
2919.093	1193.79167
2921.219	1154.125
2923.345	1179.79167
2925.469	1138.45833
2927.591	1127.79167
2929.712	1085.79167
2931.832	1062.125
2933.951	1043.125
2936.068	1013.45833
2938.184	985.45833
2940.299	951.45833
2942.412	929.45833
2944.524	875.79167
2946.634	848.79167
2948.744	792.45833
2950.851	810.45833
2952.958	751.125
2955.063	744.45833
2957.167	719.125
2959.269	692.45833
2961.371	702.45833
2963.471	658.45833
2965.569	656.79167
2967.666	619.45833
2969.762	617.79167
2971.857	592.45833
2973.95	566.125
2976.042	559.79167
2978.133	548.45833
2980.222	526.125
2982.31	495.45833
2984.396	487.125
2986.482	473.45833
2988.566	474.45833
2990.648	453.125
2992.73	456.79167
2994.81	435.45833
2996.889	443.45833
2998.966	426.125
3001.042	433.79167
3003.117	419.125
3005.191	427.45833
3007.263	413.79167
3009.334	398.45833
3011.403	400.45833
3013.472	381.125
3015.539	379.79167
3017.604	389.45833
3019.669	357.125
3021.732	358.45833
3023.794	360.45833
3025.854	336.79167
3027.914	338.79167
3029.971	347.45833
3032.028	330.79167
3034.083	333.79167
3036.137	332.45833
3038.19	315.125
3040.242	307.45833
3042.292	312.45833
3044.341	302.125
3046.388	316.79167
3048.435	289.125
3050.48	307.125
3052.524	298.125
3054.566	276.79167
3056.607	290.125
3058.647	277.45833
3060.686	268.45833
3062.723	256.125
3064.759	252.45833
3066.794	1.125
3068.828	0.125
3070.86	-2.54167
