-0.839	401.79167
3.438	428.125
7.711	123.79167
11.981	58.125
16.247	48.79167
20.509	46.125
24.768	45.79167
29.024	47.45833
33.276	44.125
37.524	50.125
41.769	42.125
46.01	37.125
50.247	53.79167
54.481	59.79167
58.712	71.45833
62.939	51.125
67.162	61.125
71.382	58.79167
75.599	50.125
79.812	64.79167
84.021	83.79167
88.227	63.79167
92.429	66.45833
96.628	48.45833
100.823	71.125
105.015	77.79167
109.204	80.45833
113.388	79.125
117.57	76.79167
121.748	95.125
125.922	81.125
130.093	102.125
134.261	108.45833
138.425	108.79167
142.585	148.45833
146.742	144.45833
150.896	168.45833
155.046	211.45833
159.193	335.45833
163.336	568.125
167.476	1043.125
171.613	1937.125
175.746	3268.125
179.875	4919.45833
184.002	6484.79167
188.124	7551.125
192.244	7941.125
196.36	7918.79167
200.472	7683.45833
204.581	7498.45833
208.687	7317.79167
212.79	7266.79167
216.889	7305.45833
220.984	7414.45833
225.077	7480.125
229.165	7590.125
233.251	7631.45833
237.333	7671.125
241.412	7627.79167
245.487	7539.125
249.559	7501.45833
253.628	7443.125
257.694	7366.79167
261.756	7294.45833
265.814	7132.125
269.87	6985.45833
273.922	6840.79167
277.97	6808.45833
282.016	6791.79167
286.058	6872.45833
290.097	7027.45833
294.132	7077.79167
298.164	6937.45833
302.193	6612.79167
306.219	6088.45833
310.241	5572.79167
314.26	5069.125
318.276	4638.79167
322.288	4292.125
326.297	4015.79167
330.303	3832.79167
334.305	3741.125
338.305	3624.125
342.301	3589.125
346.294	3541.79167
350.283	3502.79167
354.269	3452.79167
358.252	3454.45833
362.232	3437.45833
366.209	3403.45833
370.182	3375.125
374.152	3338.79167
378.119	3369.45833
382.083	3332.125
386.043	3372.79167
390	3308.79167
393.954	3278.125
397.905	3233.125
401.852	3221.125
405.797	3166.45833
409.738	3143.125
413.676	3140.125
417.61	3102.45833
421.542	3085.45833
425.47	3048.125
429.396	2999.125
433.318	2991.79167
437.236	2970.45833
441.152	2987.79167
445.065	2956.79167
448.974	2929.79167
452.88	2921.79167
456.783	2886.45833
460.683	2879.45833
464.58	2876.45833
468.473	2881.125
472.364	2917.79167
476.251	2901.79167
480.135	2913.79167
484.016	2965.45833
487.894	2959.125
491.769	2993.45833
495.641	2988.125
499.509	2991.79167
503.375	3001.79167
507.237	2988.79167
511.096	2985.79167
514.952	2971.79167
518.805	2983.45833
522.655	2974.79167
526.502	2923.79167
530.346	2916.45833
534.187	2945.125
538.024	2956.79167
541.859	2953.79167
545.69	2969.45833
549.519	2914.79167
553.344	2927.79167
557.166	2885.125
560.985	2856.45833
564.802	2819.45833
568.615	2774.45833
572.425	2736.125
576.232	2747.79167
580.036	2712.125
583.836	2724.45833
587.634	2718.125
591.429	2716.45833
595.221	2760.79167
599.01	2803.125
602.796	2831.45833
606.578	2861.45833
610.358	2847.79167
614.135	2847.125
617.909	2833.79167
621.679	2826.125
625.447	2824.79167
629.212	2821.45833
632.973	2820.45833
636.732	2811.125
640.488	2796.45833
644.241	2768.79167
647.991	2778.79167
651.737	2798.45833
655.481	2742.125
659.222	2769.79167
662.96	2745.79167
666.695	2778.45833
670.427	2769.45833
674.156	2814.79167
677.882	2829.45833
681.605	2799.79167
685.325	2769.45833
689.043	2781.125
692.757	2786.125
696.468	2783.45833
700.177	2791.45833
703.882	2772.45833
707.585	2759.45833
711.284	2787.125
714.981	2804.79167
718.675	2807.79167
722.366	2820.125
726.054	2787.45833
729.739	2792.125
733.421	2811.125
737.1	2768.45833
740.777	2838.45833
744.45	2847.79167
748.121	2876.125
751.789	2938.45833
755.453	2912.79167
759.115	2934.79167
762.774	2981.125
766.431	2977.45833
770.084	3008.79167
773.734	3028.45833
777.382	3124.79167
781.027	3129.45833
784.669	3134.79167
788.308	3171.45833
791.944	3213.45833
795.577	3242.125
799.208	3262.125
802.835	3282.125
806.46	3316.125
810.082	3293.125
813.701	3336.45833
817.317	3353.125
820.931	3362.125
824.542	3347.125
828.149	3309.125
831.754	3303.125
835.357	3293.45833
838.956	3280.125
842.553	3264.79167
846.146	3240.45833
849.737	3250.125
853.326	3275.125
856.911	3283.125
860.493	3340.45833
864.073	3331.125
867.65	3411.45833
871.225	3448.125
874.796	3457.79167
878.365	3471.45833
881.931	3501.45833
885.494	3530.125
889.054	3526.45833
892.612	3564.125
896.166	3550.125
899.719	3511.45833
903.268	3482.125
906.814	3413.45833
910.358	3387.79167
913.899	3387.125
917.438	3361.125
920.973	3343.125
924.506	3407.79167
928.036	3438.79167
931.564	3472.45833
935.088	3523.45833
938.61	3513.79167
942.129	3564.45833
945.646	3648.125
949.16	3739.45833
952.671	3759.45833
956.179	3830.79167
959.685	3787.125
963.188	3733.45833
966.688	3673.79167
970.185	3579.45833
973.68	3531.45833
977.173	3507.45833
980.662	3506.79167
984.149	3519.45833
987.633	3514.79167
991.114	3619.125
994.593	3700.45833
998.069	3829.125
1001.542	3912.125
1005.013	3795.79167
1008.481	3615.125
1011.947	3561.45833
1015.409	3521.125
1018.869	3544.125
1022.327	3537.125
1025.782	3545.125
1029.234	3536.45833
1032.683	3492.79167
1036.13	3401.79167
1039.574	3248.125
1043.016	3193.45833
1046.455	3114.79167
1049.891	3070.79167
1053.325	3084.45833
1056.756	3085.125
1060.184	3105.45833
1063.61	3131.45833
1067.033	3137.45833
1070.454	3118.79167
1073.872	3172.79167
1077.287	3174.79167
1080.7	3186.45833
1084.11	3212.45833
1087.517	3177.45833
1090.922	3141.79167
1094.325	3091.79167
1097.724	3049.125
1101.122	3059.45833
1104.516	3049.45833
1107.908	3064.125
1111.298	3110.45833
1114.684	3156.125
1118.069	3173.79167
1121.45	3204.125
1124.83	3206.125
1128.206	3226.79167
1131.58	3272.125
1134.951	3346.79167
1138.32	3468.45833
1141.687	3593.79167
1145.05	3674.79167
1148.412	3684.79167
1151.77	3678.45833
1155.126	3692.125
1158.48	3694.45833
1161.831	3706.79167
1165.18	3718.125
1168.525	3796.79167
1171.869	3824.125
1175.21	3862.125
1178.548	3894.45833
1181.884	3951.125
1185.217	3978.45833
1188.548	4042.79167
1191.877	4104.125
1195.202	4219.79167
1198.526	4278.125
1201.846	4286.79167
1205.165	4311.45833
1208.48	4300.79167
1211.794	4274.45833
1215.104	4280.79167
1218.413	4309.79167
1221.719	4278.125
1225.022	4234.125
1228.323	4244.79167
1231.621	4233.125
1234.917	4198.79167
1238.21	4205.125
1241.501	4204.79167
1244.79	4192.79167
1248.076	4230.125
1251.359	4280.45833
1254.64	4356.79167
1257.919	4362.125
1261.195	4418.125
1264.468	4520.125
1267.74	4559.45833
1271.008	4548.79167
1274.275	4523.45833
1277.538	4529.45833
1280.8	4516.125
1284.059	4492.45833
1287.315	4549.45833
1290.569	4569.125
1293.821	4638.125
1297.07	4615.79167
1300.317	4650.125
1303.562	4613.45833
1306.803	4575.125
1310.043	4542.45833
1313.28	4470.45833
1316.515	4393.125
1319.747	4386.45833
1322.977	4329.125
1326.204	4256.79167
1329.429	4225.45833
1332.652	4220.45833
1335.872	4197.45833
1339.09	4174.45833
1342.306	4168.79167
1345.519	4107.45833
1348.729	4114.45833
1351.938	4044.125
1355.144	4023.45833
1358.347	3984.79167
1361.548	3960.45833
1364.747	3972.79167
1367.944	3982.45833
1371.138	4022.125
1374.329	4063.125
1377.518	4122.79167
1380.705	4172.125
1383.89	4117.45833
1387.072	4006.125
1390.252	3863.125
1393.429	3737.45833
1396.605	3613.125
1399.777	3510.125
1402.948	3483.125
1406.116	3498.79167
1409.282	3496.45833
1412.445	3514.125
1415.606	3534.45833
1418.765	3591.45833
1421.921	3688.125
1425.075	3746.125
1428.227	3887.125
1431.376	4010.45833
1434.524	4150.79167
1437.668	4241.45833
1440.811	4269.79167
1443.951	4319.125
1447.089	4303.125
1450.224	4282.125
1453.357	4256.125
1456.488	4216.79167
1459.617	4146.125
1462.743	4098.125
1465.867	4000.45833
1468.989	3924.79167
1472.108	3858.125
1475.225	3812.125
1478.34	3774.45833
1481.453	3753.79167
1484.563	3740.45833
1487.671	3827.79167
1490.776	3882.79167
1493.88	3942.79167
1496.981	4017.79167
1500.08	4105.125
1503.176	4152.45833
1506.271	4218.79167
1509.363	4311.45833
1512.452	4370.79167
1515.54	4441.79167
1518.625	4509.79167
1521.708	4685.125
1524.789	4900.79167
1527.867	5167.45833
1530.944	5503.125
1534.018	5782.125
1537.089	6007.125
1540.159	6035.79167
1543.226	5951.125
1546.291	5763.79167
1549.354	5618.45833
1552.415	5442.45833
1555.473	5235.125
1558.529	5135.79167
1561.583	5059.79167
1564.634	5006.79167
1567.684	4961.79167
1570.731	4960.79167
1573.776	4963.45833
1576.819	5002.125
1579.859	5039.79167
1582.898	5071.79167
1585.934	5130.79167
1588.968	5109.125
1591.999	5089.79167
1595.029	5091.45833
1598.056	5120.125
1601.081	5165.125
1604.104	5154.79167
1607.125	5082.45833
1610.144	4955.79167
1613.16	4861.79167
1616.174	4741.125
1619.186	4612.125
1622.196	4533.125
1625.203	4368.45833
1628.209	4326.125
1631.212	4280.79167
1634.213	4252.125
1637.212	4192.79167
1640.209	4141.45833
1643.203	4012.79167
1646.196	3947.45833
1649.186	3813.125
1652.174	3702.45833
1655.16	3594.79167
1658.144	3507.125
1661.125	3351.79167
1664.105	3217.45833
1667.082	3076.125
1670.057	2916.79167
1673.03	2715.125
1676.001	2559.79167
1678.97	2368.125
1681.937	2236.125
1684.901	2110.125
1687.863	2045.79167
1690.824	1959.79167
1693.782	1924.79167
1696.738	1848.45833
1699.692	1837.125
1702.643	1773.79167
1705.593	1751.79167
1708.54	1737.79167
1711.486	1733.79167
1714.429	1698.125
1717.37	1688.79167
1720.309	1658.45833
1723.246	1653.45833
1726.181	1603.125
1729.113	1611.79167
1732.044	1583.125
1734.972	1573.79167
1737.899	1590.45833
1740.823	1561.125
1743.745	1559.45833
1746.665	1504.45833
1749.583	1478.79167
1752.499	1462.45833
1755.413	1451.79167
1758.325	1414.125
1761.235	1418.45833
1764.142	1385.125
1767.048	1382.45833
1769.951	1369.79167
1772.852	1347.45833
1775.752	1348.45833
1778.649	1351.79167
1781.544	1345.125
1784.437	1297.45833
1787.328	1318.125
1790.217	1303.79167
1793.104	1282.79167
1795.989	1284.125
1798.872	1280.79167
1801.753	1292.45833
1804.631	1275.79167
1807.508	1298.45833
1810.383	1277.125
1813.255	1271.45833
1816.126	1260.45833
1818.994	1252.79167
1821.861	1255.79167
1824.725	1234.79167
1827.587	1241.125
1830.448	1228.79167
1833.306	1207.79167
1836.162	1222.125
1839.017	1211.79167
1841.869	1210.79167
1844.719	1211.125
1847.567	1185.45833
1850.414	1166.125
1853.258	1198.125
1856.1	1200.79167
1858.94	1199.45833
1861.778	1194.125
1864.614	1180.125
1867.448	1181.125
1870.28	1179.125
1873.111	1187.79167
1875.939	1183.125
1878.765	1196.45833
1881.589	1166.125
1884.411	1164.79167
1887.231	1176.79167
1890.049	1168.125
1892.865	1165.125
1895.68	1141.125
1898.492	1145.45833
1901.302	1133.79167
1904.11	1149.125
1906.916	1133.79167
1909.721	1126.45833
1912.523	1134.45833
1915.323	1111.45833
1918.122	1098.125
1920.918	1113.45833
1923.712	1110.45833
1926.505	1115.45833
1929.295	1097.79167
1932.084	1111.79167
1934.87	1114.125
1937.655	1097.125
1940.438	1110.45833
1943.218	1093.45833
1945.997	1106.125
1948.774	1103.45833
1951.549	1108.79167
1954.322	1099.45833
1957.093	1099.79167
1959.862	1089.45833
1962.629	1091.79167
1965.394	1074.125
1968.157	1064.79167
1970.918	1072.125
1973.678	1062.45833
1976.435	1070.125
1979.19	1062.45833
1981.944	1046.45833
1984.696	1040.79167
1987.445	1049.125
1990.193	1050.45833
1992.939	1060.125
1995.683	1061.45833
1998.425	1032.79167
2001.165	1047.125
2003.903	1027.79167
2006.639	1045.125
2009.374	1035.125
2012.106	1032.45833
2014.837	1029.79167
2017.566	1037.125
2020.292	1032.125
2023.017	1013.45833
2025.74	1015.125
2028.461	1007.125
2031.18	1023.125
2033.898	1016.45833
2036.613	1013.125
2039.327	1018.79167
2042.038	987.125
2044.748	1006.79167
2047.456	1002.45833
2050.162	997.45833
2052.866	991.79167
2055.568	1003.45833
2058.268	988.79167
2060.967	996.45833
2063.663	976.79167
2066.358	990.125
2069.051	975.125
2071.742	991.125
2074.431	996.79167
2077.118	994.125
2079.804	974.45833
2082.487	993.125
2085.169	994.45833
2087.849	1011.79167
2090.527	985.79167
2093.203	1015.45833
2095.877	1028.45833
2098.55	1044.45833
2101.22	1056.125
2103.889	1081.125
2106.556	1071.79167
2109.221	1129.125
2111.884	1198.79167
2114.546	1315.79167
2117.205	1399.79167
2119.863	1543.45833
2122.519	1691.125
2125.173	1779.79167
2127.825	1885.79167
2130.475	1888.45833
2133.124	1845.45833
2135.771	1738.79167
2138.416	1655.125
2141.059	1532.79167
2143.7	1451.45833
2146.339	1361.45833
2148.977	1280.45833
2151.613	1259.79167
2154.247	1202.45833
2156.879	1160.125
2159.51	1132.45833
2162.138	1097.125
2164.765	1085.45833
2167.39	1055.79167
2170.013	1064.79167
2172.634	1042.45833
2175.254	1022.125
2177.872	1042.45833
2180.488	1003.45833
2183.102	1003.125
2185.714	990.45833
2188.325	955.45833
2190.934	971.125
2193.541	954.125
2196.146	942.125
2198.75	925.79167
2201.351	925.79167
2203.951	895.45833
2206.549	916.125
2209.146	883.125
2211.74	900.125
2214.333	891.79167
2216.924	874.45833
2219.514	876.79167
2222.101	868.125
2224.687	879.79167
2227.271	862.45833
2229.853	848.79167
2232.433	850.125
2235.012	867.125
2237.589	851.125
2240.164	847.79167
2242.738	847.45833
2245.309	824.125
2247.879	836.79167
2250.448	836.125
2253.014	824.45833
2255.579	800.125
2258.142	802.79167
2260.703	785.79167
2263.262	799.125
2265.82	772.45833
2268.376	783.125
2270.93	770.79167
2273.483	756.125
2276.033	774.125
2278.583	762.45833
2281.13	762.45833
2283.675	746.45833
2286.219	756.125
2288.761	747.45833
2291.302	757.125
2293.841	752.79167
2296.377	738.125
2298.913	730.79167
2301.446	750.125
2303.978	733.45833
2306.508	729.45833
2309.037	728.79167
2311.563	728.125
2314.088	737.79167
2316.612	699.79167
2319.133	719.79167
2321.653	725.125
2324.171	713.125
2326.688	715.45833
2329.202	709.125
2331.715	706.45833
2334.227	696.125
2336.736	696.45833
2339.244	695.79167
2341.751	688.125
2344.255	700.125
2346.758	684.45833
2349.259	680.45833
2351.759	689.45833
2354.257	678.79167
2356.753	681.45833
2359.247	671.45833
2361.74	678.45833
2364.231	672.125
2366.721	680.79167
2369.209	676.45833
2371.695	678.125
2374.179	662.45833
2376.662	658.125
2379.143	689.125
2381.622	669.45833
2384.1	666.125
2386.576	657.125
2389.051	679.125
2391.524	675.125
2393.995	668.45833
2396.464	649.45833
2398.932	653.125
2401.398	650.45833
2403.863	633.79167
2406.325	648.45833
2408.787	644.79167
2411.246	645.79167
2413.704	644.45833
2416.16	640.125
2418.615	636.79167
2421.068	643.125
2423.519	628.45833
2425.969	627.125
2428.417	638.125
2430.863	657.79167
2433.308	652.79167
2435.751	636.125
2438.193	631.125
2440.633	635.79167
2443.071	636.125
2445.508	603.125
2447.943	620.45833
2450.376	618.45833
2452.808	622.45833
2455.238	614.79167
2457.667	633.79167
2460.093	603.79167
2462.519	592.79167
2464.942	602.125
2467.365	610.125
2469.785	603.79167
2472.204	610.45833
2474.621	596.79167
2477.037	619.79167
2479.451	594.45833
2481.863	585.45833
2484.274	581.125
2486.683	595.125
2489.091	594.45833
2491.497	598.45833
2493.901	598.45833
2496.304	591.45833
2498.705	582.45833
2501.105	581.45833
2503.503	605.125
2505.899	564.45833
2508.294	604.79167
2510.687	572.125
2513.079	570.79167
2515.469	572.79167
2517.858	565.45833
2520.245	595.125
2522.63	558.45833
2525.014	556.125
2527.396	560.79167
2529.776	570.79167
2532.156	563.79167
2534.533	559.79167
2536.909	552.79167
2539.283	551.45833
2541.656	549.79167
2544.027	576.79167
2546.397	566.125
2548.765	563.79167
2551.131	555.45833
2553.496	554.125
2555.86	562.125
2558.221	553.45833
2560.582	547.79167
2562.94	538.125
2565.298	549.79167
2567.653	566.79167
2570.007	529.125
2572.36	549.79167
2574.711	545.125
2577.06	566.45833
2579.408	536.45833
2581.754	541.79167
2584.099	544.79167
2586.442	537.125
2588.784	541.79167
2591.124	549.125
2593.463	537.45833
2595.8	539.125
2598.135	528.45833
2600.469	534.45833
2602.802	545.45833
2605.133	555.125
2607.462	531.79167
2609.79	526.79167
2612.116	532.45833
2614.441	524.45833
2616.764	532.125
2619.086	531.79167
2621.406	532.125
2623.725	547.45833
2626.042	528.125
2628.358	530.125
2630.672	533.79167
2632.985	535.79167
2635.296	531.79167
2637.606	530.125
2639.914	525.45833
2642.22	531.125
2644.525	525.125
2646.829	536.125
2649.131	553.45833
2651.432	548.45833
2653.731	537.45833
2656.028	544.125
2658.324	540.125
2660.619	527.45833
2662.912	546.125
2665.204	534.79167
2667.494	540.125
2669.782	531.45833
2672.07	545.45833
2674.355	549.125
2676.639	536.45833
2678.922	533.125
2681.203	549.125
2683.483	522.45833
2685.761	537.79167
2688.038	551.79167
2690.313	550.45833
2692.587	541.45833
2694.859	534.79167
2697.13	538.79167
2699.399	545.79167
2701.667	576.79167
2703.933	555.79167
2706.198	563.79167
2708.461	574.45833
2710.723	574.125
2712.984	574.45833
2715.243	585.45833
2717.5	579.125
2719.757	594.79167
2722.011	595.45833
2724.264	593.125
2726.516	608.45833
2728.766	589.45833
2731.015	589.45833
2733.262	603.79167
2735.508	582.79167
2737.753	591.45833
2739.996	560.79167
2742.237	556.79167
2744.477	576.125
2746.716	573.125
2748.953	567.45833
2751.189	570.125
2753.423	556.125
2755.656	552.125
2757.887	556.125
2760.117	559.79167
2762.346	560.79167
2764.573	537.79167
2766.798	545.79167
2769.022	555.45833
2771.245	555.45833
2773.467	560.45833
2775.686	566.45833
2777.905	562.45833
2780.122	577.45833
2782.337	587.45833
2784.552	575.45833
2786.764	602.79167
2788.976	591.45833
2791.186	603.79167
2793.394	607.45833
2795.601	619.79167
2797.807	638.79167
2800.011	645.45833
2802.214	666.79167
2804.415	662.45833
2806.615	669.45833
2808.814	680.125
2811.011	690.125
2813.206	692.125
2815.401	715.45833
2817.594	740.45833
2819.785	740.125
2821.975	732.79167
2824.164	754.79167
2826.351	778.45833
2828.537	800.79167
2830.722	817.125
2832.905	830.45833
2835.086	861.45833
2837.267	894.45833
2839.445	927.45833
2841.623	949.125
2843.799	988.125
2845.974	1048.125
2848.147	1087.79167
2850.319	1119.125
2852.489	1156.79167
2854.659	1177.125
2856.826	1181.79167
2858.993	1200.125
2861.158	1194.45833
2863.321	1196.45833
2865.483	1221.79167
2867.644	1210.79167
2869.804	1215.45833
2871.962	1200.79167
2874.118	1184.45833
2876.274	1192.125
2878.428	1192.125
2880.58	1182.79167
2882.731	1172.125
2884.881	1178.79167
2887.03	1168.45833
2889.177	1165.79167
2891.322	1198.79167
2893.467	1174.125
2895.61	1185.45833
2897.751	1217.79167
2899.892	1208.125
2902.03	1207.79167
2904.168	1214.45833
2906.304	1223.125
2908.439	1228.45833
2910.572	1220.125
2912.704	1221.125
2914.835	1217.79167
2916.965	1205.45833
2919.093	1235.125
2921.219	1186.79167
2923.345	1206.45833
2925.469	1183.79167
2927.591	1154.79167
2929.712	1117.45833
2931.832	1108.45833
2933.951	1066.45833
2936.068	1046.45833
2938.184	1017.125
2940.299	973.79167
2942.412	947.45833
2944.524	890.45833
2946.634	890.79167
2948.744	816.79167
2950.851	839.45833
2952.958	781.45833
2955.063	770.79167
2957.167	749.125
2959.269	714.125
2961.371	718.45833
2963.471	672.45833
2965.569	675.125
2967.666	641.125
2969.762	616.79167
2971.857	600.79167
2973.95	584.125
2976.042	575.125
2978.133	554.125
2980.222	530.79167
2982.31	507.125
2984.396	498.125
2986.482	495.45833
2988.566	486.125
2990.648	460.45833
2992.73	461.125
2994.81	447.79167
2996.889	451.79167
2998.966	438.45833
3001.042	444.79167
3003.117	436.79167
3005.191	436.45833
3007.263	427.125
3009.334	411.45833
3011.403	404.125
3013.472	388.79167
3015.539	395.125
3017.604	396.79167
3019.669	357.79167
3021.732	365.125
3023.794	367.125
3025.854	347.125
3027.914	348.79167
3029.971	358.79167
3032.028	339.125
3034.083	339.79167
3036.137	349.45833
3038.19	324.125
3040.242	317.79167
3042.292	315.79167
3044.341	305.45833
3046.388	321.125
3048.435	290.45833
3050.48	313.125
3052.524	305.125
3054.566	277.125
3056.607	303.125
3058.647	284.79167
3060.686	265.125
3062.723	261.79167
3064.759	253.125
3066.794	-0.875
3068.828	-0.20833
3070.86	-0.875
