-0.839	424.45833
3.438	471.45833
7.711	133.79167
11.981	54.45833
16.247	44.79167
20.509	45.125
24.768	44.79167
29.024	48.79167
33.276	44.125
37.524	49.125
41.769	41.79167
46.01	38.79167
50.247	52.45833
54.481	60.45833
58.712	71.79167
62.939	52.45833
67.162	62.79167
71.382	60.125
75.599	47.45833
79.812	65.125
84.021	80.125
88.227	61.79167
92.429	62.45833
96.628	51.79167
100.823	72.125
105.015	77.79167
109.204	80.45833
113.388	84.125
117.57	79.125
121.748	93.125
125.922	84.45833
130.093	103.79167
134.261	111.125
138.425	103.79167
142.585	147.125
146.742	151.45833
150.896	179.79167
155.046	222.79167
159.193	360.79167
163.336	623.79167
167.476	1141.125
171.613	2117.45833
175.746	3565.79167
179.875	5325.79167
184.002	6902.45833
188.124	7988.79167
192.244	8300.79167
196.36	8173.45833
200.472	7845.79167
204.581	7532.45833
208.687	7242.45833
212.79	7066.45833
216.889	7027.45833
220.984	6978.79167
225.077	7002.45833
229.165	7013.45833
233.251	6986.45833
237.333	7011.125
241.412	6959.45833
245.487	6848.125
249.559	6749.45833
253.628	6709.79167
257.694	6634.125
261.756	6626.125
265.814	6515.125
269.87	6322.125
273.922	6202.45833
277.97	6097.125
282.016	6054.125
286.058	6127.79167
290.097	6241.125
294.132	6330.79167
298.164	6274.125
302.193	5986.45833
306.219	5537.45833
310.241	5058.79167
314.26	4582.79167
318.276	4183.45833
322.288	3883.45833
326.297	3652.79167
330.303	3488.125
334.305	3371.79167
338.305	3280.79167
342.301	3212.45833
346.294	3188.79167
350.283	3147.125
354.269	3105.125
358.252	3093.79167
362.232	3064.125
366.209	3019.45833
370.182	2973.125
374.152	2982.45833
378.119	2985.45833
382.083	2960.79167
386.043	2960.45833
390	2921.125
393.954	2919.45833
397.905	2866.79167
401.852	2875.125
405.797	2803.79167
409.738	2800.125
413.676	2795.79167
417.61	2771.79167
421.542	2750.79167
425.47	2721.45833
429.396	2696.45833
433.318	2676.125
437.236	2639.45833
441.152	2671.45833
445.065	2589.79167
448.974	2583.45833
452.88	2570.79167
456.783	2519.45833
460.683	2524.45833
464.58	2534.125
468.473	2544.45833
472.364	2540.79167
476.251	2549.79167
480.135	2563.45833
484.016	2601.45833
487.894	2615.125
491.769	2632.45833
495.641	2650.45833
499.509	2643.125
503.375	2645.125
507.237	2640.45833
511.096	2624.125
514.952	2649.79167
518.805	2680.45833
522.655	2675.79167
526.502	2632.125
530.346	2627.125
534.187	2646.125
538.024	2648.125
541.859	2663.125
545.69	2684.79167
549.519	2622.79167
553.344	2606.125
557.166	2580.125
560.985	2544.79167
564.802	2523.79167
568.615	2474.45833
572.425	2417.45833
576.232	2393.45833
580.036	2400.45833
583.836	2422.125
587.634	2412.79167
591.429	2422.45833
595.221	2451.45833
599.01	2480.125
602.796	2507.79167
606.578	2534.79167
610.358	2527.45833
614.135	2509.79167
617.909	2479.125
621.679	2505.79167
625.447	2506.45833
629.212	2488.45833
632.973	2498.125
636.732	2483.125
640.488	2471.79167
644.241	2434.45833
647.991	2450.125
651.737	2434.125
655.481	2424.79167
659.222	2422.125
662.96	2446.125
666.695	2438.45833
670.427	2454.45833
674.156	2486.125
677.882	2479.125
681.605	2482.79167
685.325	2429.45833
689.043	2459.45833
692.757	2428.45833
696.468	2426.79167
700.177	2438.125
703.882	2405.79167
707.585	2424.125
711.284	2401.45833
714.981	2415.79167
718.675	2427.125
722.366	2452.125
726.054	2446.79167
729.739	2447.125
733.421	2416.45833
737.1	2441.125
740.777	2475.45833
744.45	2493.125
748.121	2474.45833
751.789	2542.79167
755.453	2547.45833
759.115	2552.45833
762.774	2587.125
766.431	2611.45833
770.084	2633.45833
773.734	2667.79167
777.382	2710.79167
781.027	2755.125
784.669	2765.125
788.308	2758.45833
791.944	2791.45833
795.577	2811.79167
799.208	2854.79167
802.835	2839.45833
806.46	2846.79167
810.082	2871.79167
813.701	2873.79167
817.317	2895.125
820.931	2903.45833
824.542	2904.45833
828.149	2870.45833
831.754	2836.45833
835.357	2848.45833
838.956	2846.79167
842.553	2838.45833
846.146	2827.125
849.737	2814.45833
853.326	2835.45833
856.911	2873.45833
860.493	2889.45833
864.073	2895.79167
867.65	2938.45833
871.225	3002.45833
874.796	2978.125
878.365	3009.45833
881.931	3042.125
885.494	3076.79167
889.054	3094.45833
892.612	3108.125
896.166	3086.79167
899.719	3093.79167
903.268	3021.79167
906.814	3011.79167
910.358	2935.79167
913.899	2927.79167
917.438	2937.45833
920.973	2914.45833
924.506	2948.125
928.036	2996.45833
931.564	3024.79167
935.088	3048.45833
938.61	3062.125
942.129	3119.45833
945.646	3184.125
949.16	3307.79167
952.671	3325.45833
956.179	3342.45833
959.685	3298.125
963.188	3285.125
966.688	3216.79167
970.185	3124.79167
973.68	3073.125
977.173	3058.45833
980.662	3024.125
984.149	3018.45833
987.633	3043.125
991.114	3087.125
994.593	3183.45833
998.069	3299.125
1001.542	3389.125
1005.013	3306.45833
1008.481	3147.79167
1011.947	3051.125
1015.409	3056.125
1018.869	3022.79167
1022.327	3057.125
1025.782	3043.79167
1029.234	3040.45833
1032.683	3017.45833
1036.13	2911.45833
1039.574	2799.45833
1043.016	2728.79167
1046.455	2663.125
1049.891	2646.45833
1053.325	2633.125
1056.756	2645.79167
1060.184	2649.45833
1063.61	2654.45833
1067.033	2712.125
1070.454	2703.79167
1073.872	2723.125
1077.287	2731.125
1080.7	2746.45833
1084.11	2739.45833
1087.517	2748.79167
1090.922	2702.125
1094.325	2661.79167
1097.724	2646.125
1101.122	2636.79167
1104.516	2627.45833
1107.908	2652.79167
1111.298	2681.79167
1114.684	2725.45833
1118.069	2733.125
1121.45	2765.45833
1124.83	2756.79167
1128.206	2826.79167
1131.58	2871.79167
1134.951	2949.45833
1138.32	3078.45833
1141.687	3211.45833
1145.05	3273.79167
1148.412	3298.45833
1151.77	3248.45833
1155.126	3248.125
1158.48	3209.79167
1161.831	3250.79167
1165.18	3267.79167
1168.525	3303.45833
1171.869	3343.45833
1175.21	3365.45833
1178.548	3431.79167
1181.884	3444.79167
1185.217	3463.125
1188.548	3557.79167
1191.877	3584.45833
1195.202	3663.79167
1198.526	3726.125
1201.846	3788.45833
1205.165	3770.125
1208.48	3771.79167
1211.794	3761.79167
1215.104	3765.125
1218.413	3770.45833
1221.719	3776.125
1225.022	3726.125
1228.323	3690.125
1231.621	3661.125
1234.917	3634.79167
1238.21	3661.45833
1241.501	3632.79167
1244.79	3631.125
1248.076	3639.45833
1251.359	3667.79167
1254.64	3757.45833
1257.919	3767.125
1261.195	3852.125
1264.468	3943.79167
1267.74	4022.45833
1271.008	4038.125
1274.275	3999.45833
1277.538	3979.79167
1280.8	3944.45833
1284.059	3961.45833
1287.315	3983.79167
1290.569	4018.79167
1293.821	4040.79167
1297.07	4039.79167
1300.317	4047.45833
1303.562	4057.125
1306.803	4007.125
1310.043	3965.125
1313.28	3917.125
1316.515	3894.45833
1319.747	3859.79167
1322.977	3800.125
1326.204	3762.125
1329.429	3741.45833
1332.652	3720.79167
1335.872	3696.45833
1339.09	3604.45833
1342.306	3622.125
1345.519	3570.45833
1348.729	3487.45833
1351.938	3474.45833
1355.144	3433.125
1358.347	3404.79167
1361.548	3425.125
1364.747	3422.79167
1367.944	3390.79167
1371.138	3431.125
1374.329	3472.125
1377.518	3545.125
1380.705	3603.79167
1383.89	3565.45833
1387.072	3446.79167
1390.252	3330.79167
1393.429	3211.125
1396.605	3090.125
1399.777	3015.45833
1402.948	3001.125
1406.116	2976.125
1409.282	2983.45833
1412.445	2995.45833
1415.606	3022.45833
1418.765	3076.79167
1421.921	3172.125
1425.075	3199.125
1428.227	3338.45833
1431.376	3460.125
1434.524	3589.79167
1437.668	3690.125
1440.811	3746.125
1443.951	3760.79167
1447.089	3777.79167
1450.224	3759.79167
1453.357	3709.45833
1456.488	3693.125
1459.617	3632.125
1462.743	3568.45833
1465.867	3480.45833
1468.989	3437.125
1472.108	3391.125
1475.225	3294.45833
1478.34	3256.125
1481.453	3284.79167
1484.563	3301.125
1487.671	3348.79167
1490.776	3412.79167
1493.88	3484.79167
1496.981	3545.125
1500.08	3622.45833
1503.176	3636.45833
1506.271	3693.79167
1509.363	3755.45833
1512.452	3790.79167
1515.54	3843.79167
1518.625	3907.79167
1521.708	4034.45833
1524.789	4198.45833
1527.867	4412.45833
1530.944	4653.79167
1534.018	4870.125
1537.089	5060.45833
1540.159	5082.79167
1543.226	5021.45833
1546.291	4890.45833
1549.354	4756.125
1552.415	4621.45833
1555.473	4500.79167
1558.529	4381.79167
1561.583	4348.45833
1564.634	4287.45833
1567.684	4260.79167
1570.731	4262.45833
1573.776	4279.45833
1576.819	4312.125
1579.859	4321.125
1582.898	4371.45833
1585.934	4423.125
1588.968	4432.45833
1591.999	4430.79167
1595.029	4450.45833
1598.056	4469.125
1601.081	4489.125
1604.104	4458.125
1607.125	4419.125
1610.144	4315.45833
1613.16	4236.79167
1616.174	4103.79167
1619.186	4012.79167
1622.196	3924.79167
1625.203	3820.79167
1628.209	3768.125
1631.212	3717.125
1634.213	3681.125
1637.212	3654.45833
1640.209	3595.125
1643.203	3483.45833
1646.196	3372.45833
1649.186	3238.79167
1652.174	3160.79167
1655.16	3070.79167
1658.144	2991.45833
1661.125	2875.45833
1664.105	2776.125
1667.082	2670.125
1670.057	2516.45833
1673.03	2347.79167
1676.001	2167.79167
1678.97	2019.45833
1681.937	1888.125
1684.901	1793.125
1687.863	1727.125
1690.824	1639.125
1693.782	1617.45833
1696.738	1552.125
1699.692	1520.125
1702.643	1475.79167
1705.593	1455.45833
1708.54	1442.79167
1711.486	1434.79167
1714.429	1398.79167
1717.37	1389.45833
1720.309	1383.125
1723.246	1367.79167
1726.181	1317.79167
1729.113	1328.45833
1732.044	1304.79167
1734.972	1310.45833
1737.899	1281.125
1740.823	1293.125
1743.745	1292.45833
1746.665	1236.79167
1749.583	1211.45833
1752.499	1209.79167
1755.413	1192.125
1758.325	1164.79167
1761.235	1160.125
1764.142	1140.45833
1767.048	1130.45833
1769.951	1113.45833
1772.852	1116.79167
1775.752	1117.79167
1778.649	1094.125
1781.544	1091.79167
1784.437	1065.125
1787.328	1088.79167
1790.217	1076.125
1793.104	1045.45833
1795.989	1059.125
1798.872	1021.45833
1801.753	1053.79167
1804.631	1053.125
1807.508	1054.79167
1810.383	1055.125
1813.255	1033.79167
1816.126	1036.125
1818.994	1028.79167
1821.861	1027.79167
1824.725	1019.79167
1827.587	1012.45833
1830.448	1020.45833
1833.306	988.45833
1836.162	1010.45833
1839.017	984.45833
1841.869	985.45833
1844.719	979.125
1847.567	969.125
1850.414	974.79167
1853.258	963.45833
1856.1	968.79167
1858.94	982.45833
1861.778	983.79167
1864.614	966.79167
1867.448	964.45833
1870.28	957.45833
1873.111	988.45833
1875.939	966.125
1878.765	966.45833
1881.589	953.45833
1884.411	957.79167
1887.231	963.45833
1890.049	940.79167
1892.865	956.79167
1895.68	935.125
1898.492	936.125
1901.302	923.125
1904.11	930.125
1906.916	925.125
1909.721	925.125
1912.523	933.125
1915.323	893.45833
1918.122	914.79167
1920.918	916.79167
1923.712	905.45833
1926.505	925.125
1929.295	894.125
1932.084	914.125
1934.87	903.79167
1937.655	889.45833
1940.438	881.125
1943.218	894.125
1945.997	899.125
1948.774	911.45833
1951.549	887.79167
1954.322	890.79167
1957.093	891.125
1959.862	871.45833
1962.629	876.45833
1965.394	870.125
1968.157	861.79167
1970.918	870.79167
1973.678	865.45833
1976.435	869.45833
1979.19	859.79167
1981.944	854.45833
1984.696	848.125
1987.445	848.125
1990.193	853.45833
1992.939	859.45833
1995.683	855.125
1998.425	843.79167
2001.165	856.125
2003.903	843.45833
2006.639	837.45833
2009.374	841.125
2012.106	848.79167
2014.837	821.45833
2017.566	836.79167
2020.292	835.79167
2023.017	843.45833
2025.74	827.79167
2028.461	827.45833
2031.18	821.45833
2033.898	815.79167
2036.613	820.79167
2039.327	836.45833
2042.038	806.79167
2044.748	819.45833
2047.456	813.125
2050.162	797.45833
2052.866	800.45833
2055.568	809.79167
2058.268	795.79167
2060.967	803.125
2063.663	790.45833
2066.358	794.125
2069.051	782.45833
2071.742	797.125
2074.431	795.125
2077.118	789.45833
2079.804	787.45833
2082.487	800.79167
2085.169	812.125
2087.849	811.79167
2090.527	798.45833
2093.203	809.79167
2095.877	812.45833
2098.55	809.125
2101.22	832.79167
2103.889	834.45833
2106.556	819.79167
2109.221	869.125
2111.884	901.45833
2114.546	939.125
2117.205	1020.125
2119.863	1124.125
2122.519	1210.79167
2125.173	1276.125
2127.825	1354.125
2130.475	1364.79167
2133.124	1310.125
2135.771	1261.125
2138.416	1174.45833
2141.059	1110.79167
2143.7	1073.45833
2146.339	983.125
2148.977	933.45833
2151.613	912.79167
2154.247	882.79167
2156.879	864.125
2159.51	837.45833
2162.138	821.125
2164.765	816.45833
2167.39	810.45833
2170.013	827.45833
2172.634	810.79167
2175.254	795.79167
2177.872	821.45833
2180.488	786.79167
2183.102	781.45833
2185.714	762.79167
2188.325	754.79167
2190.934	757.125
2193.541	753.45833
2196.146	749.125
2198.75	731.45833
2201.351	729.45833
2203.951	707.45833
2206.549	722.79167
2209.146	714.45833
2211.74	704.79167
2214.333	708.79167
2216.924	693.79167
2219.514	700.125
2222.101	688.45833
2224.687	700.79167
2227.271	684.125
2229.853	680.45833
2232.433	676.79167
2235.012	690.79167
2237.589	697.125
2240.164	699.125
2242.738	693.45833
2245.309	671.125
2247.879	671.79167
2250.448	674.125
2253.014	649.45833
2255.579	643.125
2258.142	656.79167
2260.703	640.79167
2263.262	634.79167
2265.82	640.79167
2268.376	627.125
2270.93	626.45833
2273.483	612.45833
2276.033	626.45833
2278.583	619.125
2281.13	604.79167
2283.675	603.125
2286.219	611.125
2288.761	617.125
2291.302	607.125
2293.841	610.125
2296.377	602.125
2298.913	603.125
2301.446	617.45833
2303.978	594.79167
2306.508	589.45833
2309.037	599.79167
2311.563	606.125
2314.088	600.79167
2316.612	576.45833
2319.133	589.45833
2321.653	587.125
2324.171	572.125
2326.688	593.79167
2329.202	564.125
2331.715	583.45833
2334.227	573.79167
2336.736	568.79167
2339.244	569.45833
2341.751	546.125
2344.255	577.45833
2346.758	551.125
2349.259	561.125
2351.759	570.79167
2354.257	547.45833
2356.753	548.125
2359.247	556.45833
2361.74	566.79167
2364.231	555.79167
2366.721	564.125
2369.209	547.45833
2371.695	550.45833
2374.179	541.45833
2376.662	545.125
2379.143	556.125
2381.622	552.79167
2384.1	552.125
2386.576	540.125
2389.051	544.45833
2391.524	550.45833
2393.995	548.79167
2396.464	541.79167
2398.932	528.125
2401.398	539.45833
2403.863	526.79167
2406.325	531.79167
2408.787	535.45833
2411.246	530.125
2413.704	522.125
2416.16	522.79167
2418.615	525.45833
2421.068	537.45833
2423.519	538.125
2425.969	532.45833
2428.417	535.125
2430.863	537.125
2433.308	533.125
2435.751	525.125
2438.193	524.45833
2440.633	523.79167
2443.071	534.79167
2445.508	509.79167
2447.943	525.125
2450.376	505.45833
2452.808	521.79167
2455.238	512.79167
2457.667	537.45833
2460.093	512.125
2462.519	491.125
2464.942	513.79167
2467.365	514.79167
2469.785	516.79167
2472.204	493.79167
2474.621	502.45833
2477.037	522.45833
2479.451	498.45833
2481.863	490.79167
2484.274	498.45833
2486.683	494.125
2489.091	505.79167
2491.497	511.45833
2493.901	499.125
2496.304	499.79167
2498.705	497.79167
2501.105	489.45833
2503.503	520.45833
2505.899	485.79167
2508.294	504.125
2510.687	485.125
2513.079	491.79167
2515.469	482.45833
2517.858	485.79167
2520.245	499.125
2522.63	479.79167
2525.014	487.45833
2527.396	474.45833
2529.776	473.45833
2532.156	492.79167
2534.533	469.79167
2536.909	479.45833
2539.283	473.79167
2541.656	475.79167
2544.027	495.79167
2546.397	473.45833
2548.765	479.125
2551.131	469.79167
2553.496	475.125
2555.86	484.125
2558.221	481.125
2560.582	467.79167
2562.94	458.125
2565.298	477.125
2567.653	491.79167
2570.007	457.79167
2572.36	473.45833
2574.711	462.45833
2577.06	477.45833
2579.408	474.125
2581.754	477.45833
2584.099	478.79167
2586.442	469.125
2588.784	477.79167
2591.124	463.45833
2593.463	464.125
2595.8	468.79167
2598.135	454.125
2600.469	462.125
2602.802	475.79167
2605.133	468.79167
2607.462	462.79167
2609.79	459.125
2612.116	475.125
2614.441	474.79167
2616.764	472.79167
2619.086	465.125
2621.406	453.45833
2623.725	470.79167
2626.042	467.45833
2628.358	463.125
2630.672	468.79167
2632.985	480.45833
2635.296	462.125
2637.606	471.125
2639.914	459.79167
2642.22	467.125
2644.525	468.79167
2646.829	468.45833
2649.131	472.45833
2651.432	482.45833
2653.731	472.45833
2656.028	478.125
2658.324	471.79167
2660.619	469.45833
2662.912	485.79167
2665.204	468.125
2667.494	484.125
2669.782	473.45833
2672.07	485.45833
2674.355	490.79167
2676.639	473.79167
2678.922	464.79167
2681.203	481.125
2683.483	468.79167
2685.761	463.125
2688.038	480.45833
2690.313	494.45833
2692.587	480.45833
2694.859	473.79167
2697.13	481.45833
2699.399	489.125
2701.667	508.45833
2703.933	498.125
2706.198	506.79167
2708.461	506.79167
2710.723	501.125
2712.984	512.79167
2715.243	512.45833
2717.5	509.125
2719.757	527.79167
2722.011	509.45833
2724.264	522.45833
2726.516	530.125
2728.766	514.45833
2731.015	511.45833
2733.262	514.125
2735.508	519.125
2737.753	520.79167
2739.996	494.45833
2742.237	507.79167
2744.477	515.125
2746.716	510.125
2748.953	501.125
2751.189	506.125
2753.423	496.79167
2755.656	485.79167
2757.887	496.45833
2760.117	491.45833
2762.346	494.79167
2764.573	487.125
2766.798	479.125
2769.022	493.45833
2771.245	501.45833
2773.467	493.125
2775.686	492.79167
2777.905	501.125
2780.122	509.125
2782.337	513.45833
2784.552	506.45833
2786.764	512.125
2788.976	517.79167
2791.186	535.45833
2793.394	531.79167
2795.601	554.45833
2797.807	551.125
2800.011	555.45833
2802.214	566.79167
2804.415	581.79167
2806.615	572.79167
2808.814	591.125
2811.011	586.45833
2813.206	596.125
2815.401	608.79167
2817.594	626.125
2819.785	647.125
2821.975	627.79167
2824.164	643.125
2826.351	651.125
2828.537	679.125
2830.722	688.45833
2832.905	701.125
2835.086	728.125
2837.267	772.45833
2839.445	793.79167
2841.623	836.125
2843.799	862.79167
2845.974	902.45833
2848.147	947.45833
2850.319	962.125
2852.489	1003.45833
2854.659	1015.45833
2856.826	1048.125
2858.993	1057.125
2861.158	1055.79167
2863.321	1048.45833
2865.483	1082.45833
2867.644	1070.45833
2869.804	1060.45833
2871.962	1061.125
2874.118	1062.45833
2876.274	1056.125
2878.428	1041.45833
2880.58	1044.45833
2882.731	1036.45833
2884.881	1040.45833
2887.03	1037.79167
2889.177	1046.125
2891.322	1072.45833
2893.467	1047.45833
2895.61	1062.125
2897.751	1090.125
2899.892	1070.45833
2902.03	1074.45833
2904.168	1090.79167
2906.304	1100.45833
2908.439	1120.79167
2910.572	1095.125
2912.704	1128.45833
2914.835	1110.125
2916.965	1115.125
2919.093	1125.79167
2921.219	1092.79167
2923.345	1106.45833
2925.469	1087.125
2927.591	1057.45833
2929.712	1027.125
2931.832	1025.45833
2933.951	1007.125
2936.068	978.79167
2938.184	954.79167
2940.299	918.45833
2942.412	892.125
2944.524	859.125
2946.634	845.45833
2948.744	787.45833
2950.851	792.125
2952.958	745.45833
2955.063	735.79167
2957.167	723.79167
2959.269	697.125
2961.371	709.125
2963.471	661.45833
2965.569	666.79167
2967.666	641.79167
2969.762	622.79167
2971.857	611.79167
2973.95	585.79167
2976.042	585.45833
2978.133	564.79167
2980.222	538.79167
2982.31	520.125
2984.396	509.45833
2986.482	507.125
2988.566	502.79167
2990.648	481.79167
2992.73	485.79167
2994.81	460.79167
2996.889	472.79167
2998.966	459.79167
3001.042	464.45833
3003.117	453.125
3005.191	455.79167
3007.263	449.45833
3009.334	448.45833
3011.403	434.79167
3013.472	421.45833
3015.539	429.125
3017.604	426.125
3019.669	399.45833
3021.732	392.79167
3023.794	398.45833
3025.854	386.79167
3027.914	381.45833
3029.971	384.79167
3032.028	387.45833
3034.083	380.125
3036.137	383.79167
3038.19	358.125
3040.242	359.79167
3042.292	344.45833
3044.341	346.45833
3046.388	360.125
3048.435	328.125
3050.48	351.125
3052.524	343.79167
3054.566	320.125
3056.607	338.45833
3058.647	322.45833
3060.686	304.45833
3062.723	296.125
3064.759	289.79167
3066.794	0.125
3068.828	-1.875
3070.86	-2.875
