-0.839	417.75
3.438	445.41667
7.711	124.41667
11.981	54.41667
16.247	45.75
20.509	43.75
24.768	47.75
29.024	47.41667
33.276	46.75
37.524	48.41667
41.769	43.08333
46.01	37.75
50.247	54.75
54.481	60.08333
58.712	66.08333
62.939	50.41667
67.162	59.75
71.382	59.41667
75.599	48.08333
79.812	63.75
84.021	77.75
88.227	58.08333
92.429	64.75
96.628	48.41667
100.823	67.75
105.015	74.08333
109.204	77.08333
113.388	71.75
117.57	68.75
121.748	91.75
125.922	79.75
130.093	95.41667
134.261	107.08333
138.425	100.08333
142.585	138.75
146.742	134.08333
150.896	163.75
155.046	195.75
159.193	310.75
163.336	531.75
167.476	968.75
171.613	1779.08333
175.746	2997.75
179.875	4489.08333
184.002	5847.41667
188.124	6780.75
192.244	7129.75
196.36	7005.75
200.472	6782.08333
204.581	6566.75
208.687	6395.41667
212.79	6283.08333
216.889	6234.75
220.984	6285.75
225.077	6257.08333
229.165	6276.08333
233.251	6280.41667
237.333	6272.41667
241.412	6192.75
245.487	6192.08333
249.559	6117.41667
253.628	6054.41667
257.694	6046.75
261.756	6011.75
265.814	5895.75
269.87	5765.75
273.922	5647.75
277.97	5692.08333
282.016	5690.08333
286.058	5758.41667
290.097	5931.75
294.132	6009.41667
298.164	5942.75
302.193	5640.08333
306.219	5268.08333
310.241	4786.41667
314.26	4352.08333
318.276	4006.41667
322.288	3708.41667
326.297	3487.75
330.303	3342.08333
334.305	3247.08333
338.305	3162.08333
342.301	3100.41667
346.294	3090.41667
350.283	3017.08333
354.269	3005.08333
358.252	2991.08333
362.232	2963.08333
366.209	2934.75
370.182	2894.08333
374.152	2891.41667
378.119	2873.75
382.083	2851.08333
386.043	2861.41667
390	2828.41667
393.954	2807.08333
397.905	2776.41667
401.852	2785.41667
405.797	2730.41667
409.738	2708.41667
413.676	2731.08333
417.61	2705.41667
421.542	2674.41667
425.47	2667.75
429.396	2622.75
433.318	2613.08333
437.236	2602.41667
441.152	2628.41667
445.065	2554.75
448.974	2568.75
452.88	2542.41667
456.783	2520.41667
460.683	2487.75
464.58	2512.41667
468.473	2506.08333
472.364	2518.08333
476.251	2537.75
480.135	2562.41667
484.016	2580.08333
487.894	2614.41667
491.769	2633.41667
495.641	2643.75
499.509	2644.75
503.375	2646.75
507.237	2668.08333
511.096	2684.75
514.952	2812.08333
518.805	2965.08333
522.655	2993.75
526.502	2770.08333
530.346	2641.08333
534.187	2611.41667
538.024	2619.08333
541.859	2633.41667
545.69	2621.75
549.519	2617.75
553.344	2585.41667
557.166	2548.08333
560.985	2516.41667
564.802	2473.08333
568.615	2450.08333
572.425	2406.75
576.232	2402.41667
580.036	2382.75
583.836	2391.08333
587.634	2390.08333
591.429	2390.75
595.221	2432.08333
599.01	2487.41667
602.796	2488.41667
606.578	2508.41667
610.358	2515.41667
614.135	2486.41667
617.909	2487.41667
621.679	2489.75
625.447	2461.08333
629.212	2445.75
632.973	2463.41667
636.732	2451.41667
640.488	2443.41667
644.241	2398.08333
647.991	2411.41667
651.737	2415.41667
655.481	2397.08333
659.222	2399.08333
662.96	2400.41667
666.695	2411.08333
670.427	2429.75
674.156	2435.08333
677.882	2436.08333
681.605	2461.75
685.325	2405.75
689.043	2419.08333
692.757	2391.75
696.468	2423.08333
700.177	2419.75
703.882	2397.08333
707.585	2398.08333
711.284	2403.75
714.981	2390.75
718.675	2415.08333
722.366	2440.41667
726.054	2404.75
729.739	2407.75
733.421	2386.08333
737.1	2411.41667
740.777	2444.08333
744.45	2449.08333
748.121	2464.41667
751.789	2522.75
755.453	2502.75
759.115	2523.08333
762.774	2541.41667
766.431	2578.41667
770.084	2597.75
773.734	2614.08333
777.382	2666.75
781.027	2682.75
784.669	2726.75
788.308	2714.08333
791.944	2718.08333
795.577	2764.41667
799.208	2787.08333
802.835	2793.08333
806.46	2809.41667
810.082	2806.41667
813.701	2835.41667
817.317	2840.41667
820.931	2851.08333
824.542	2837.41667
828.149	2827.08333
831.754	2829.08333
835.357	2796.75
838.956	2811.08333
842.553	2792.41667
846.146	2786.41667
849.737	2759.08333
853.326	2768.75
856.911	2765.75
860.493	2820.75
864.073	2843.41667
867.65	2865.41667
871.225	2906.75
874.796	2905.41667
878.365	2942.08333
881.931	2953.75
885.494	2984.08333
889.054	2991.75
892.612	3048.08333
896.166	3031.41667
899.719	2979.08333
903.268	2968.08333
906.814	2907.08333
910.358	2859.75
913.899	2871.08333
917.438	2847.75
920.973	2846.08333
924.506	2876.08333
928.036	2928.41667
931.564	2985.41667
935.088	2991.75
938.61	3011.08333
942.129	3046.08333
945.646	3130.08333
949.16	3232.41667
952.671	3251.41667
956.179	3295.75
959.685	3236.41667
963.188	3194.75
966.688	3138.08333
970.185	3028.41667
973.68	2978.41667
977.173	2947.75
980.662	2928.41667
984.149	2924.75
987.633	2924.08333
991.114	2964.75
994.593	3051.41667
998.069	3152.75
1001.542	3264.75
1005.013	3180.75
1008.481	2986.08333
1011.947	2941.41667
1015.409	2922.41667
1018.869	2937.08333
1022.327	2954.41667
1025.782	2910.41667
1029.234	2927.75
1032.683	2890.75
1036.13	2816.41667
1039.574	2692.41667
1043.016	2637.08333
1046.455	2589.75
1049.891	2536.41667
1053.325	2546.41667
1056.756	2571.41667
1060.184	2597.41667
1063.61	2597.75
1067.033	2610.41667
1070.454	2621.08333
1073.872	2650.08333
1077.287	2624.08333
1080.7	2643.75
1084.11	2662.08333
1087.517	2639.08333
1090.922	2619.41667
1094.325	2596.75
1097.724	2574.41667
1101.122	2559.75
1104.516	2545.08333
1107.908	2540.41667
1111.298	2626.75
1114.684	2625.08333
1118.069	2657.08333
1121.45	2689.75
1124.83	2703.75
1128.206	2744.41667
1131.58	2800.75
1134.951	2855.08333
1138.32	2973.75
1141.687	3059.41667
1145.05	3159.75
1148.412	3134.75
1151.77	3140.75
1155.126	3117.08333
1158.48	3119.08333
1161.831	3136.41667
1165.18	3159.08333
1168.525	3198.41667
1171.869	3234.75
1175.21	3261.75
1178.548	3281.41667
1181.884	3314.08333
1185.217	3358.75
1188.548	3420.75
1191.877	3485.41667
1195.202	3565.41667
1198.526	3612.41667
1201.846	3648.75
1205.165	3652.41667
1208.48	3642.41667
1211.794	3643.75
1215.104	3663.75
1218.413	3647.41667
1221.719	3625.75
1225.022	3601.75
1228.323	3547.41667
1231.621	3548.75
1234.917	3531.75
1238.21	3555.41667
1241.501	3513.08333
1244.79	3517.75
1248.076	3529.08333
1251.359	3546.41667
1254.64	3636.75
1257.919	3670.08333
1261.195	3738.41667
1264.468	3808.41667
1267.74	3847.75
1271.008	3837.41667
1274.275	3853.41667
1277.538	3803.41667
1280.8	3805.41667
1284.059	3808.08333
1287.315	3838.41667
1290.569	3863.08333
1293.821	3866.08333
1297.07	3894.08333
1300.317	3892.08333
1303.562	3885.08333
1306.803	3864.41667
1310.043	3813.75
1313.28	3771.41667
1316.515	3753.08333
1319.747	3737.08333
1322.977	3678.41667
1326.204	3635.75
1329.429	3611.75
1332.652	3554.75
1335.872	3565.08333
1339.09	3514.08333
1342.306	3481.08333
1345.519	3419.08333
1348.729	3380.41667
1351.938	3352.75
1355.144	3290.08333
1358.347	3258.08333
1361.548	3281.08333
1364.747	3306.08333
1367.944	3274.75
1371.138	3328.41667
1374.329	3319.41667
1377.518	3378.41667
1380.705	3434.41667
1383.89	3395.75
1387.072	3286.41667
1390.252	3169.41667
1393.429	3054.08333
1396.605	2975.41667
1399.777	2905.75
1402.948	2908.08333
1406.116	2891.75
1409.282	2905.08333
1412.445	2917.41667
1415.606	2953.41667
1418.765	3006.75
1421.921	3057.75
1425.075	3126.75
1428.227	3222.41667
1431.376	3332.08333
1434.524	3467.08333
1437.668	3562.41667
1440.811	3605.75
1443.951	3639.08333
1447.089	3620.75
1450.224	3594.75
1453.357	3596.08333
1456.488	3538.41667
1459.617	3506.75
1462.743	3428.08333
1465.867	3367.75
1468.989	3318.41667
1472.108	3251.75
1475.225	3199.41667
1478.34	3163.41667
1481.453	3147.41667
1484.563	3172.08333
1487.671	3209.75
1490.776	3265.08333
1493.88	3310.08333
1496.981	3385.08333
1500.08	3443.08333
1503.176	3481.41667
1506.271	3579.75
1509.363	3587.75
1512.452	3633.08333
1515.54	3697.08333
1518.625	3760.41667
1521.708	3876.75
1524.789	4018.75
1527.867	4177.41667
1530.944	4422.41667
1534.018	4616.41667
1537.089	4772.08333
1540.159	4850.08333
1543.226	4767.75
1546.291	4645.41667
1549.354	4545.75
1552.415	4434.41667
1555.473	4294.08333
1558.529	4197.75
1561.583	4146.41667
1564.634	4089.41667
1567.684	4068.41667
1570.731	4100.75
1573.776	4080.75
1576.819	4115.08333
1579.859	4093.08333
1582.898	4163.41667
1585.934	4171.75
1588.968	4229.08333
1591.999	4198.41667
1595.029	4188.08333
1598.056	4192.75
1601.081	4213.08333
1604.104	4215.41667
1607.125	4194.41667
1610.144	4059.75
1613.16	3984.08333
1616.174	3887.41667
1619.186	3796.08333
1622.196	3688.75
1625.203	3605.08333
1628.209	3547.41667
1631.212	3525.75
1634.213	3455.08333
1637.212	3424.75
1640.209	3338.41667
1643.203	3239.41667
1646.196	3172.41667
1649.186	3042.75
1652.174	2983.41667
1655.16	2890.75
1658.144	2816.08333
1661.125	2707.75
1664.105	2604.41667
1667.082	2478.08333
1670.057	2370.08333
1673.03	2208.75
1676.001	2065.75
1678.97	1936.75
1681.937	1809.75
1684.901	1720.41667
1687.863	1662.41667
1690.824	1582.75
1693.782	1557.75
1696.738	1501.41667
1699.692	1479.08333
1702.643	1437.08333
1705.593	1416.41667
1708.54	1407.75
1711.486	1383.75
1714.429	1351.75
1717.37	1351.41667
1720.309	1331.75
1723.246	1340.08333
1726.181	1298.41667
1729.113	1310.75
1732.044	1299.75
1734.972	1281.08333
1737.899	1282.75
1740.823	1289.75
1743.745	1274.41667
1746.665	1210.41667
1749.583	1202.08333
1752.499	1206.08333
1755.413	1175.08333
1758.325	1141.08333
1761.235	1163.75
1764.142	1125.08333
1767.048	1115.08333
1769.951	1111.08333
1772.852	1106.41667
1775.752	1102.08333
1778.649	1111.08333
1781.544	1101.75
1784.437	1080.08333
1787.328	1077.41667
1790.217	1074.08333
1793.104	1041.08333
1795.989	1047.08333
1798.872	1037.75
1801.753	1055.41667
1804.631	1036.75
1807.508	1057.08333
1810.383	1056.75
1813.255	1041.08333
1816.126	1035.41667
1818.994	1030.41667
1821.861	1022.41667
1824.725	1020.41667
1827.587	1007.75
1830.448	1011.08333
1833.306	987.41667
1836.162	1003.75
1839.017	984.41667
1841.869	993.41667
1844.719	991.08333
1847.567	973.75
1850.414	978.08333
1853.258	965.08333
1856.1	985.75
1858.94	982.08333
1861.778	979.75
1864.614	964.08333
1867.448	984.41667
1870.28	959.75
1873.111	971.75
1875.939	986.75
1878.765	964.41667
1881.589	959.08333
1884.411	970.08333
1887.231	981.08333
1890.049	952.41667
1892.865	954.75
1895.68	952.08333
1898.492	955.41667
1901.302	941.08333
1904.11	945.75
1906.916	920.75
1909.721	934.08333
1912.523	923.75
1915.323	908.41667
1918.122	914.08333
1920.918	927.41667
1923.712	917.75
1926.505	921.08333
1929.295	912.08333
1932.084	925.41667
1934.87	912.41667
1937.655	908.41667
1940.438	902.08333
1943.218	909.08333
1945.997	923.41667
1948.774	919.41667
1951.549	915.75
1954.322	897.08333
1957.093	920.08333
1959.862	899.75
1962.629	896.75
1965.394	889.41667
1968.157	875.41667
1970.918	907.41667
1973.678	875.08333
1976.435	873.08333
1979.19	870.41667
1981.944	858.08333
1984.696	861.41667
1987.445	854.41667
1990.193	869.08333
1992.939	877.08333
1995.683	886.75
1998.425	851.41667
2001.165	872.41667
2003.903	869.75
2006.639	857.08333
2009.374	859.41667
2012.106	862.08333
2014.837	842.75
2017.566	854.41667
2020.292	853.75
2023.017	862.41667
2025.74	841.75
2028.461	838.75
2031.18	848.41667
2033.898	826.41667
2036.613	848.41667
2039.327	836.41667
2042.038	825.75
2044.748	825.41667
2047.456	828.08333
2050.162	810.08333
2052.866	828.75
2055.568	824.75
2058.268	833.75
2060.967	841.75
2063.663	810.75
2066.358	814.08333
2069.051	816.41667
2071.742	818.75
2074.431	828.41667
2077.118	809.75
2079.804	803.08333
2082.487	818.41667
2085.169	823.08333
2087.849	841.08333
2090.527	826.08333
2093.203	833.08333
2095.877	834.75
2098.55	826.75
2101.22	860.41667
2103.889	867.08333
2106.556	872.75
2109.221	905.41667
2111.884	934.41667
2114.546	1011.75
2117.205	1081.75
2119.863	1172.08333
2122.519	1232.41667
2125.173	1286.41667
2127.825	1344.75
2130.475	1347.08333
2133.124	1297.75
2135.771	1233.08333
2138.416	1188.75
2141.059	1103.75
2143.7	1061.08333
2146.339	1009.41667
2148.977	947.75
2151.613	937.41667
2154.247	912.41667
2156.879	898.75
2159.51	871.41667
2162.138	852.08333
2164.765	854.75
2167.39	846.41667
2170.013	851.41667
2172.634	835.08333
2175.254	822.41667
2177.872	836.41667
2180.488	794.75
2183.102	805.75
2185.714	794.75
2188.325	773.41667
2190.934	786.75
2193.541	794.41667
2196.146	781.41667
2198.75	766.75
2201.351	762.75
2203.951	743.41667
2206.549	771.08333
2209.146	746.08333
2211.74	741.08333
2214.333	759.75
2216.924	732.08333
2219.514	735.41667
2222.101	727.41667
2224.687	740.41667
2227.271	714.75
2229.853	718.08333
2232.433	705.75
2235.012	733.41667
2237.589	731.08333
2240.164	717.75
2242.738	720.08333
2245.309	707.41667
2247.879	709.08333
2250.448	708.75
2253.014	695.75
2255.579	680.75
2258.142	690.41667
2260.703	673.41667
2263.262	683.41667
2265.82	677.41667
2268.376	681.41667
2270.93	658.08333
2273.483	660.08333
2276.033	663.75
2278.583	662.08333
2281.13	665.41667
2283.675	643.75
2286.219	653.41667
2288.761	655.08333
2291.302	664.75
2293.841	673.08333
2296.377	649.08333
2298.913	642.41667
2301.446	668.08333
2303.978	650.08333
2306.508	638.75
2309.037	641.41667
2311.563	650.41667
2314.088	653.08333
2316.612	632.75
2319.133	642.75
2321.653	638.41667
2324.171	620.75
2326.688	642.75
2329.202	634.41667
2331.715	641.75
2334.227	625.75
2336.736	625.75
2339.244	620.75
2341.751	618.08333
2344.255	628.75
2346.758	613.41667
2349.259	608.08333
2351.759	609.41667
2354.257	612.75
2356.753	617.75
2359.247	612.75
2361.74	613.41667
2364.231	609.41667
2366.721	620.08333
2369.209	613.41667
2371.695	603.41667
2374.179	612.41667
2376.662	612.08333
2379.143	618.41667
2381.622	606.08333
2384.1	605.08333
2386.576	602.75
2389.051	623.41667
2391.524	621.08333
2393.995	623.75
2396.464	608.41667
2398.932	598.75
2401.398	601.08333
2403.863	593.41667
2406.325	597.75
2408.787	592.08333
2411.246	611.08333
2413.704	600.41667
2416.16	604.41667
2418.615	604.41667
2421.068	606.75
2423.519	599.41667
2425.969	585.75
2428.417	607.41667
2430.863	618.41667
2433.308	610.08333
2435.751	585.08333
2438.193	606.75
2440.633	604.41667
2443.071	594.08333
2445.508	580.75
2447.943	596.41667
2450.376	581.75
2452.808	591.41667
2455.238	586.08333
2457.667	626.08333
2460.093	583.41667
2462.519	573.75
2464.942	586.08333
2467.365	599.41667
2469.785	592.08333
2472.204	583.75
2474.621	578.75
2477.037	604.75
2479.451	573.75
2481.863	577.08333
2484.274	570.41667
2486.683	582.75
2489.091	592.75
2491.497	595.41667
2493.901	580.41667
2496.304	578.41667
2498.705	587.75
2501.105	571.08333
2503.503	604.08333
2505.899	573.08333
2508.294	592.75
2510.687	577.41667
2513.079	572.41667
2515.469	574.08333
2517.858	565.75
2520.245	588.41667
2522.63	562.41667
2525.014	583.75
2527.396	571.08333
2529.776	575.08333
2532.156	576.75
2534.533	556.75
2536.909	566.08333
2539.283	557.41667
2541.656	567.41667
2544.027	598.08333
2546.397	573.41667
2548.765	571.08333
2551.131	573.75
2553.496	561.75
2555.86	576.75
2558.221	570.08333
2560.582	565.75
2562.94	556.75
2565.298	565.08333
2567.653	590.75
2570.007	555.41667
2572.36	572.41667
2574.711	566.41667
2577.06	582.75
2579.408	567.75
2581.754	567.08333
2584.099	578.75
2586.442	558.41667
2588.784	573.41667
2591.124	575.75
2593.463	580.08333
2595.8	579.08333
2598.135	559.08333
2600.469	573.75
2602.802	594.08333
2605.133	580.08333
2607.462	564.75
2609.79	571.41667
2612.116	570.08333
2614.441	569.41667
2616.764	588.75
2619.086	576.41667
2621.406	572.41667
2623.725	581.08333
2626.042	580.41667
2628.358	570.75
2630.672	564.08333
2632.985	592.08333
2635.296	590.08333
2637.606	588.08333
2639.914	569.75
2642.22	582.75
2644.525	578.75
2646.829	581.75
2649.131	596.08333
2651.432	605.08333
2653.731	580.75
2656.028	605.75
2658.324	596.75
2660.619	591.75
2662.912	603.75
2665.204	582.08333
2667.494	609.08333
2669.782	589.41667
2672.07	607.75
2674.355	607.75
2676.639	596.41667
2678.922	595.08333
2681.203	608.75
2683.483	586.08333
2685.761	588.41667
2688.038	618.08333
2690.313	623.08333
2692.587	624.08333
2694.859	606.75
2697.13	615.08333
2699.399	622.41667
2701.667	627.08333
2703.933	633.08333
2706.198	638.41667
2708.461	634.41667
2710.723	652.75
2712.984	639.75
2715.243	651.41667
2717.5	638.41667
2719.757	669.08333
2722.011	648.75
2724.264	661.75
2726.516	673.75
2728.766	653.08333
2731.015	670.75
2733.262	648.75
2735.508	655.41667
2737.753	658.08333
2739.996	648.75
2742.237	632.75
2744.477	652.75
2746.716	652.75
2748.953	645.75
2751.189	643.08333
2753.423	640.75
2755.656	633.41667
2757.887	626.41667
2760.117	635.08333
2762.346	628.75
2764.573	629.75
2766.798	638.41667
2769.022	643.41667
2771.245	639.08333
2773.467	636.75
2775.686	642.08333
2777.905	659.75
2780.122	663.08333
2782.337	663.41667
2784.552	659.41667
2786.764	680.75
2788.976	684.41667
2791.186	697.08333
2793.394	686.08333
2795.601	718.41667
2797.807	708.41667
2800.011	715.41667
2802.214	726.08333
2804.415	731.75
2806.615	747.08333
2808.814	759.75
2811.011	779.41667
2813.206	765.08333
2815.401	774.75
2817.594	787.08333
2819.785	809.08333
2821.975	789.75
2824.164	809.08333
2826.351	831.75
2828.537	845.75
2830.722	865.41667
2832.905	865.75
2835.086	911.41667
2837.267	932.08333
2839.445	964.08333
2841.623	984.41667
2843.799	1020.75
2845.974	1065.41667
2848.147	1086.08333
2850.319	1115.41667
2852.489	1152.08333
2854.659	1162.75
2856.826	1195.75
2858.993	1214.08333
2861.158	1186.08333
2863.321	1190.75
2865.483	1211.08333
2867.644	1220.41667
2869.804	1200.08333
2871.962	1212.75
2874.118	1208.41667
2876.274	1197.08333
2878.428	1195.08333
2880.58	1182.08333
2882.731	1179.75
2884.881	1181.41667
2887.03	1172.75
2889.177	1178.41667
2891.322	1196.08333
2893.467	1204.75
2895.61	1196.75
2897.751	1217.08333
2899.892	1208.75
2902.03	1227.08333
2904.168	1234.08333
2906.304	1239.41667
2908.439	1244.41667
2910.572	1227.41667
2912.704	1258.41667
2914.835	1252.75
2916.965	1248.41667
2919.093	1259.08333
2921.219	1217.41667
2923.345	1243.41667
2925.469	1206.75
2927.591	1218.41667
2929.712	1166.75
2931.832	1161.75
2933.951	1121.08333
2936.068	1116.08333
2938.184	1076.08333
2940.299	1049.75
2942.412	1024.08333
2944.524	973.41667
2946.634	965.75
2948.744	908.41667
2950.851	955.41667
2952.958	898.41667
2955.063	893.75
2957.167	872.41667
2959.269	839.75
2961.371	857.75
2963.471	816.75
2965.569	837.41667
2967.666	790.41667
2969.762	767.41667
2971.857	773.08333
2973.95	743.41667
2976.042	730.75
2978.133	707.41667
2980.222	712.75
2982.31	672.41667
2984.396	667.08333
2986.482	658.75
2988.566	667.08333
2990.648	642.41667
2992.73	643.08333
2994.81	629.41667
2996.889	628.75
2998.966	619.41667
3001.042	629.08333
3003.117	612.41667
3005.191	628.08333
3007.263	605.41667
3009.334	597.41667
3011.403	586.08333
3013.472	574.41667
3015.539	581.08333
3017.604	587.75
3019.669	544.75
3021.732	555.08333
3023.794	555.41667
3025.854	535.08333
3027.914	539.75
3029.971	544.41667
3032.028	538.08333
3034.083	538.41667
3036.137	531.41667
3038.19	507.75
3040.242	506.75
3042.292	495.41667
3044.341	492.41667
3046.388	495.41667
3048.435	470.08333
3050.48	489.41667
3052.524	477.75
3054.566	449.75
3056.607	478.41667
3058.647	458.41667
3060.686	436.75
3062.723	424.75
3064.759	421.75
3066.794	-0.25
3068.828	0.08333
3070.86	-3.58333
