-0.839	413.70833
3.438	439.04167
7.711	127.04167
11.981	54.375
16.247	44.04167
20.509	43.70833
24.768	46.04167
29.024	46.04167
33.276	42.375
37.524	45.70833
41.769	44.04167
46.01	37.70833
50.247	51.375
54.481	60.70833
58.712	66.04167
62.939	48.70833
67.162	63.70833
71.382	60.04167
75.599	46.04167
79.812	63.04167
84.021	80.04167
88.227	55.04167
92.429	62.70833
96.628	46.375
100.823	64.375
105.015	71.04167
109.204	79.70833
113.388	79.375
117.57	70.375
121.748	93.70833
125.922	79.375
130.093	98.04167
134.261	100.375
138.425	97.70833
142.585	136.375
146.742	134.70833
150.896	153.70833
155.046	194.375
159.193	300.70833
163.336	505.04167
167.476	946.375
171.613	1748.70833
175.746	2927.04167
179.875	4346.70833
184.002	5689.70833
188.124	6632.04167
192.244	6907.375
196.36	6881.375
200.472	6659.375
204.581	6453.04167
208.687	6254.70833
212.79	6154.04167
216.889	6165.04167
220.984	6156.70833
225.077	6224.70833
229.165	6213.70833
233.251	6252.375
237.333	6247.375
241.412	6201.04167
245.487	6179.70833
249.559	6088.04167
253.628	6038.70833
257.694	5999.375
261.756	5952.04167
265.814	5871.04167
269.87	5714.04167
273.922	5646.375
277.97	5598.375
282.016	5645.375
286.058	5707.70833
290.097	5873.70833
294.132	5945.04167
298.164	5900.04167
302.193	5596.375
306.219	5210.70833
310.241	4769.70833
314.26	4332.70833
318.276	3974.04167
322.288	3691.04167
326.297	3473.70833
330.303	3332.70833
334.305	3254.375
338.305	3161.70833
342.301	3093.04167
346.294	3082.375
350.283	3060.04167
354.269	2990.375
358.252	2983.04167
362.232	2945.70833
366.209	2924.70833
370.182	2875.70833
374.152	2878.375
378.119	2860.04167
382.083	2846.375
386.043	2869.04167
390	2826.375
393.954	2787.375
397.905	2783.375
401.852	2777.04167
405.797	2749.70833
409.738	2725.70833
413.676	2744.375
417.61	2717.70833
421.542	2685.375
425.47	2664.04167
429.396	2638.70833
433.318	2636.70833
437.236	2610.04167
441.152	2646.70833
445.065	2547.70833
448.974	2561.04167
452.88	2528.375
456.783	2541.04167
460.683	2498.04167
464.58	2528.375
468.473	2531.375
472.364	2532.375
476.251	2552.375
480.135	2562.04167
484.016	2598.375
487.894	2639.70833
491.769	2650.375
495.641	2642.04167
499.509	2668.375
503.375	2665.04167
507.237	2662.375
511.096	2684.04167
514.952	2805.04167
518.805	2984.04167
522.655	3041.375
526.502	2780.70833
530.346	2632.04167
534.187	2627.04167
538.024	2611.375
541.859	2618.04167
545.69	2633.375
549.519	2609.375
553.344	2584.70833
557.166	2536.375
560.985	2533.04167
564.802	2492.70833
568.615	2443.70833
572.425	2401.04167
576.232	2404.375
580.036	2406.375
583.836	2410.70833
587.634	2397.70833
591.429	2402.04167
595.221	2468.375
599.01	2473.04167
602.796	2511.70833
606.578	2529.70833
610.358	2518.70833
614.135	2496.04167
617.909	2481.375
621.679	2493.375
625.447	2471.04167
629.212	2468.04167
632.973	2463.70833
636.732	2462.70833
640.488	2459.70833
644.241	2424.70833
647.991	2419.04167
651.737	2429.04167
655.481	2411.04167
659.222	2423.04167
662.96	2414.70833
666.695	2441.375
670.427	2441.375
674.156	2453.04167
677.882	2468.04167
681.605	2446.04167
685.325	2424.04167
689.043	2432.04167
692.757	2406.04167
696.468	2436.04167
700.177	2431.70833
703.882	2432.375
707.585	2404.375
711.284	2417.375
714.981	2414.375
718.675	2433.04167
722.366	2443.375
726.054	2426.04167
729.739	2418.04167
733.421	2430.04167
737.1	2419.04167
740.777	2464.375
744.45	2464.70833
748.121	2477.375
751.789	2535.70833
755.453	2515.375
759.115	2531.375
762.774	2555.04167
766.431	2583.04167
770.084	2590.375
773.734	2641.04167
777.382	2683.375
781.027	2684.04167
784.669	2705.04167
788.308	2720.375
791.944	2749.375
795.577	2768.375
799.208	2797.375
802.835	2797.04167
806.46	2811.375
810.082	2842.70833
813.701	2824.70833
817.317	2867.70833
820.931	2846.70833
824.542	2858.375
828.149	2831.375
831.754	2805.70833
835.357	2800.70833
838.956	2815.375
842.553	2778.70833
846.146	2797.375
849.737	2790.70833
853.326	2786.04167
856.911	2757.04167
860.493	2827.375
864.073	2818.04167
867.65	2887.70833
871.225	2908.04167
874.796	2894.04167
878.365	2942.70833
881.931	2966.375
885.494	2983.70833
889.054	2988.375
892.612	3016.375
896.166	3004.375
899.719	2997.375
903.268	2959.04167
906.814	2929.375
910.358	2893.70833
913.899	2846.70833
917.438	2857.375
920.973	2820.70833
924.506	2881.375
928.036	2933.04167
931.564	2963.70833
935.088	3004.70833
938.61	2989.375
942.129	3044.04167
945.646	3122.70833
949.16	3210.375
952.671	3266.375
956.179	3280.70833
959.685	3244.70833
963.188	3191.04167
966.688	3143.04167
970.185	3056.70833
973.68	2969.04167
977.173	2956.70833
980.662	2932.375
984.149	2944.04167
987.633	2935.375
991.114	2992.04167
994.593	3065.70833
998.069	3151.04167
1001.542	3218.375
1005.013	3178.04167
1008.481	2997.04167
1011.947	2952.375
1015.409	2938.04167
1018.869	2942.04167
1022.327	2946.70833
1025.782	2918.04167
1029.234	2939.70833
1032.683	2913.70833
1036.13	2817.04167
1039.574	2695.375
1043.016	2648.375
1046.455	2587.375
1049.891	2548.375
1053.325	2554.70833
1056.756	2567.04167
1060.184	2594.375
1063.61	2587.70833
1067.033	2626.04167
1070.454	2617.04167
1073.872	2655.04167
1077.287	2660.70833
1080.7	2654.375
1084.11	2664.70833
1087.517	2656.70833
1090.922	2627.375
1094.325	2584.70833
1097.724	2548.04167
1101.122	2558.70833
1104.516	2541.04167
1107.908	2561.70833
1111.298	2611.375
1114.684	2649.04167
1118.069	2650.70833
1121.45	2688.04167
1124.83	2690.70833
1128.206	2737.375
1131.58	2780.375
1134.951	2876.375
1138.32	2947.375
1141.687	3086.04167
1145.05	3145.04167
1148.412	3137.70833
1151.77	3135.70833
1155.126	3119.04167
1158.48	3109.70833
1161.831	3134.04167
1165.18	3141.04167
1168.525	3192.375
1171.869	3240.375
1175.21	3237.04167
1178.548	3276.375
1181.884	3316.04167
1185.217	3329.04167
1188.548	3432.70833
1191.877	3484.70833
1195.202	3545.375
1198.526	3606.70833
1201.846	3615.375
1205.165	3655.375
1208.48	3652.70833
1211.794	3615.70833
1215.104	3648.70833
1218.413	3643.375
1221.719	3652.375
1225.022	3595.375
1228.323	3563.70833
1231.621	3537.375
1234.917	3529.70833
1238.21	3542.70833
1241.501	3514.04167
1244.79	3511.70833
1248.076	3488.375
1251.359	3559.375
1254.64	3612.70833
1257.919	3612.375
1261.195	3701.70833
1264.468	3766.375
1267.74	3817.375
1271.008	3841.375
1274.275	3819.375
1277.538	3786.375
1280.8	3811.70833
1284.059	3782.70833
1287.315	3833.04167
1290.569	3846.375
1293.821	3876.04167
1297.07	3873.375
1300.317	3904.70833
1303.562	3875.04167
1306.803	3849.70833
1310.043	3828.375
1313.28	3795.70833
1316.515	3746.04167
1319.747	3709.04167
1322.977	3662.375
1326.204	3635.04167
1329.429	3587.04167
1332.652	3583.70833
1335.872	3557.70833
1339.09	3489.70833
1342.306	3475.04167
1345.519	3423.70833
1348.729	3379.375
1351.938	3338.70833
1355.144	3285.375
1358.347	3243.70833
1361.548	3281.70833
1364.747	3295.70833
1367.944	3243.375
1371.138	3316.375
1374.329	3310.04167
1377.518	3366.04167
1380.705	3413.04167
1383.89	3384.70833
1387.072	3266.04167
1390.252	3174.375
1393.429	3057.70833
1396.605	2969.04167
1399.777	2896.04167
1402.948	2884.04167
1406.116	2871.04167
1409.282	2909.70833
1412.445	2906.70833
1415.606	2961.375
1418.765	3010.70833
1421.921	3054.70833
1425.075	3111.70833
1428.227	3204.375
1431.376	3341.70833
1434.524	3461.70833
1437.668	3549.04167
1440.811	3566.70833
1443.951	3605.375
1447.089	3630.04167
1450.224	3597.375
1453.357	3572.375
1456.488	3536.375
1459.617	3504.375
1462.743	3437.04167
1465.867	3344.375
1468.989	3290.375
1472.108	3250.70833
1475.225	3158.04167
1478.34	3144.70833
1481.453	3154.04167
1484.563	3158.04167
1487.671	3203.04167
1490.776	3242.375
1493.88	3299.70833
1496.981	3372.375
1500.08	3409.70833
1503.176	3465.04167
1506.271	3518.70833
1509.363	3592.70833
1512.452	3597.04167
1515.54	3671.04167
1518.625	3757.375
1521.708	3885.04167
1524.789	3988.375
1527.867	4156.375
1530.944	4419.70833
1534.018	4592.375
1537.089	4754.375
1540.159	4781.04167
1543.226	4764.70833
1546.291	4632.375
1549.354	4511.375
1552.415	4371.04167
1555.473	4271.04167
1558.529	4160.70833
1561.583	4120.70833
1564.634	4062.04167
1567.684	4047.70833
1570.731	4038.375
1573.776	4033.70833
1576.819	4062.70833
1579.859	4099.04167
1582.898	4150.70833
1585.934	4150.70833
1588.968	4176.04167
1591.999	4150.04167
1595.029	4158.70833
1598.056	4194.375
1601.081	4210.375
1604.104	4202.375
1607.125	4135.70833
1610.144	4053.375
1613.16	3939.375
1616.174	3879.04167
1619.186	3783.70833
1622.196	3666.70833
1625.203	3577.04167
1628.209	3546.04167
1631.212	3482.375
1634.213	3438.70833
1637.212	3386.70833
1640.209	3345.04167
1643.203	3234.375
1646.196	3130.70833
1649.186	3055.375
1652.174	2968.04167
1655.16	2899.04167
1658.144	2818.04167
1661.125	2699.04167
1664.105	2586.04167
1667.082	2492.375
1670.057	2345.70833
1673.03	2223.70833
1676.001	2064.04167
1678.97	1931.04167
1681.937	1811.04167
1684.901	1708.04167
1687.863	1667.70833
1690.824	1582.70833
1693.782	1570.04167
1696.738	1511.04167
1699.692	1478.04167
1702.643	1434.375
1705.593	1410.04167
1708.54	1401.375
1711.486	1397.04167
1714.429	1383.04167
1717.37	1360.04167
1720.309	1351.70833
1723.246	1340.04167
1726.181	1319.04167
1729.113	1329.70833
1732.044	1294.375
1734.972	1283.70833
1737.899	1284.04167
1740.823	1280.375
1743.745	1293.70833
1746.665	1235.70833
1749.583	1206.04167
1752.499	1206.04167
1755.413	1174.70833
1758.325	1154.70833
1761.235	1167.70833
1764.142	1123.375
1767.048	1128.70833
1769.951	1114.70833
1772.852	1102.70833
1775.752	1098.70833
1778.649	1109.04167
1781.544	1101.375
1784.437	1070.70833
1787.328	1089.04167
1790.217	1064.04167
1793.104	1047.04167
1795.989	1059.375
1798.872	1030.04167
1801.753	1054.04167
1804.631	1045.04167
1807.508	1062.375
1810.383	1048.70833
1813.255	1049.04167
1816.126	1047.375
1818.994	1047.375
1821.861	1031.70833
1824.725	1019.375
1827.587	1038.04167
1830.448	1010.375
1833.306	992.70833
1836.162	1002.70833
1839.017	989.70833
1841.869	996.70833
1844.719	1009.04167
1847.567	977.04167
1850.414	977.375
1853.258	981.04167
1856.1	978.04167
1858.94	997.04167
1861.778	972.04167
1864.614	986.04167
1867.448	958.375
1870.28	968.04167
1873.111	998.70833
1875.939	968.375
1878.765	986.04167
1881.589	978.04167
1884.411	963.70833
1887.231	986.375
1890.049	958.70833
1892.865	949.70833
1895.68	954.04167
1898.492	951.70833
1901.302	946.70833
1904.11	941.375
1906.916	932.375
1909.721	927.04167
1912.523	944.70833
1915.323	929.70833
1918.122	937.70833
1920.918	935.375
1923.712	905.04167
1926.505	934.70833
1929.295	909.70833
1932.084	931.04167
1934.87	922.375
1937.655	916.375
1940.438	904.04167
1943.218	915.04167
1945.997	912.375
1948.774	920.04167
1951.549	904.04167
1954.322	903.70833
1957.093	911.375
1959.862	897.375
1962.629	890.04167
1965.394	890.04167
1968.157	887.375
1970.918	898.375
1973.678	880.04167
1976.435	898.375
1979.19	882.04167
1981.944	868.375
1984.696	867.70833
1987.445	855.70833
1990.193	864.04167
1992.939	887.04167
1995.683	867.375
1998.425	849.70833
2001.165	889.375
2003.903	850.375
2006.639	842.04167
2009.374	860.70833
2012.106	865.70833
2014.837	835.04167
2017.566	845.70833
2020.292	851.375
2023.017	869.04167
2025.74	853.04167
2028.461	850.70833
2031.18	851.04167
2033.898	836.70833
2036.613	848.70833
2039.327	847.04167
2042.038	835.375
2044.748	839.375
2047.456	836.70833
2050.162	816.04167
2052.866	831.70833
2055.568	842.70833
2058.268	832.04167
2060.967	836.375
2063.663	821.04167
2066.358	818.04167
2069.051	810.375
2071.742	830.04167
2074.431	829.04167
2077.118	824.375
2079.804	802.375
2082.487	823.04167
2085.169	834.04167
2087.849	845.04167
2090.527	816.70833
2093.203	845.375
2095.877	845.04167
2098.55	843.70833
2101.22	865.375
2103.889	869.375
2106.556	873.70833
2109.221	913.04167
2111.884	949.70833
2114.546	1011.70833
2117.205	1073.375
2119.863	1157.70833
2122.519	1223.70833
2125.173	1299.04167
2127.825	1345.04167
2130.475	1342.04167
2133.124	1293.04167
2135.771	1241.375
2138.416	1187.375
2141.059	1108.70833
2143.7	1075.04167
2146.339	1015.375
2148.977	956.375
2151.613	943.70833
2154.247	916.04167
2156.879	890.70833
2159.51	854.70833
2162.138	853.375
2164.765	861.04167
2167.39	832.375
2170.013	844.04167
2172.634	833.04167
2175.254	816.70833
2177.872	851.70833
2180.488	810.04167
2183.102	824.375
2185.714	811.375
2188.325	767.375
2190.934	781.375
2193.541	787.04167
2196.146	780.04167
2198.75	776.70833
2201.351	757.04167
2203.951	755.04167
2206.549	753.04167
2209.146	754.04167
2211.74	737.375
2214.333	748.375
2216.924	733.375
2219.514	737.70833
2222.101	728.375
2224.687	750.70833
2227.271	719.70833
2229.853	736.70833
2232.433	708.70833
2235.012	715.375
2237.589	732.375
2240.164	741.04167
2242.738	725.04167
2245.309	715.375
2247.879	723.70833
2250.448	707.375
2253.014	695.375
2255.579	690.375
2258.142	698.70833
2260.703	670.70833
2263.262	669.04167
2265.82	671.04167
2268.376	673.375
2270.93	668.70833
2273.483	662.70833
2276.033	675.04167
2278.583	653.04167
2281.13	657.375
2283.675	657.375
2286.219	659.04167
2288.761	657.70833
2291.302	664.70833
2293.841	671.70833
2296.377	626.70833
2298.913	652.70833
2301.446	660.375
2303.978	649.70833
2306.508	653.70833
2309.037	653.70833
2311.563	648.70833
2314.088	648.04167
2316.612	623.70833
2319.133	646.04167
2321.653	638.70833
2324.171	616.04167
2326.688	637.375
2329.202	625.04167
2331.715	634.70833
2334.227	633.04167
2336.736	624.375
2339.244	620.375
2341.751	622.04167
2344.255	627.04167
2346.758	619.375
2349.259	619.04167
2351.759	627.04167
2354.257	615.375
2356.753	610.70833
2359.247	625.375
2361.74	628.70833
2364.231	604.04167
2366.721	618.04167
2369.209	599.375
2371.695	614.375
2374.179	603.70833
2376.662	594.70833
2379.143	622.04167
2381.622	609.375
2384.1	610.70833
2386.576	599.04167
2389.051	627.375
2391.524	634.04167
2393.995	617.70833
2396.464	611.04167
2398.932	602.375
2401.398	609.04167
2403.863	595.375
2406.325	601.04167
2408.787	594.04167
2411.246	610.04167
2413.704	595.04167
2416.16	592.70833
2418.615	603.04167
2421.068	616.04167
2423.519	608.375
2425.969	588.70833
2428.417	600.04167
2430.863	627.70833
2433.308	613.04167
2435.751	597.70833
2438.193	598.375
2440.633	609.375
2443.071	609.70833
2445.508	583.04167
2447.943	592.375
2450.376	581.70833
2452.808	594.70833
2455.238	592.04167
2457.667	609.70833
2460.093	592.04167
2462.519	576.70833
2464.942	584.04167
2467.365	603.04167
2469.785	591.375
2472.204	594.04167
2474.621	573.04167
2477.037	600.70833
2479.451	577.04167
2481.863	579.04167
2484.274	569.375
2486.683	586.375
2489.091	574.70833
2491.497	587.04167
2493.901	578.375
2496.304	573.70833
2498.705	592.375
2501.105	579.04167
2503.503	613.70833
2505.899	570.70833
2508.294	591.375
2510.687	574.04167
2513.079	571.375
2515.469	576.04167
2517.858	580.70833
2520.245	590.70833
2522.63	579.375
2525.014	573.375
2527.396	573.375
2529.776	566.70833
2532.156	576.375
2534.533	561.375
2536.909	570.04167
2539.283	560.04167
2541.656	567.375
2544.027	603.70833
2546.397	578.70833
2548.765	572.375
2551.131	567.70833
2553.496	579.04167
2555.86	585.375
2558.221	580.04167
2560.582	569.375
2562.94	565.375
2565.298	562.04167
2567.653	590.04167
2570.007	562.70833
2572.36	580.70833
2574.711	559.70833
2577.06	592.375
2579.408	567.04167
2581.754	577.04167
2584.099	577.375
2586.442	579.70833
2588.784	582.70833
2591.124	588.375
2593.463	571.04167
2595.8	586.04167
2598.135	557.70833
2600.469	570.70833
2602.802	587.375
2605.133	584.375
2607.462	569.04167
2609.79	557.375
2612.116	572.375
2614.441	578.70833
2616.764	589.04167
2619.086	581.70833
2621.406	573.04167
2623.725	588.375
2626.042	578.70833
2628.358	574.375
2630.672	569.04167
2632.985	594.375
2635.296	589.04167
2637.606	588.70833
2639.914	573.04167
2642.22	597.70833
2644.525	592.04167
2646.829	594.70833
2649.131	595.70833
2651.432	610.70833
2653.731	584.375
2656.028	597.04167
2658.324	600.04167
2660.619	595.70833
2662.912	611.04167
2665.204	595.375
2667.494	602.70833
2669.782	588.70833
2672.07	611.04167
2674.355	616.375
2676.639	612.04167
2678.922	597.04167
2681.203	615.375
2683.483	584.375
2685.761	591.04167
2688.038	609.70833
2690.313	624.04167
2692.587	610.04167
2694.859	599.70833
2697.13	610.04167
2699.399	623.375
2701.667	634.04167
2703.933	631.04167
2706.198	628.375
2708.461	642.375
2710.723	634.375
2712.984	643.70833
2715.243	657.375
2717.5	637.70833
2719.757	661.04167
2722.011	662.375
2724.264	666.04167
2726.516	688.375
2728.766	664.375
2731.015	673.375
2733.262	670.375
2735.508	657.375
2737.753	668.375
2739.996	653.375
2742.237	640.70833
2744.477	657.375
2746.716	654.70833
2748.953	657.04167
2751.189	654.70833
2753.423	649.375
2755.656	637.375
2757.887	637.375
2760.117	631.375
2762.346	633.04167
2764.573	637.70833
2766.798	637.70833
2769.022	645.04167
2771.245	641.04167
2773.467	646.04167
2775.686	662.70833
2777.905	659.04167
2780.122	662.375
2782.337	667.70833
2784.552	673.04167
2786.764	673.375
2788.976	679.70833
2791.186	699.70833
2793.394	694.70833
2795.601	714.375
2797.807	716.375
2800.011	727.04167
2802.214	735.04167
2804.415	745.375
2806.615	737.70833
2808.814	756.04167
2811.011	766.70833
2813.206	767.04167
2815.401	777.04167
2817.594	798.04167
2819.785	803.70833
2821.975	798.70833
2824.164	809.375
2826.351	829.375
2828.537	833.70833
2830.722	863.04167
2832.905	878.375
2835.086	913.04167
2837.267	940.04167
2839.445	967.375
2841.623	978.375
2843.799	1006.375
2845.974	1062.04167
2848.147	1089.04167
2850.319	1122.70833
2852.489	1172.375
2854.659	1171.04167
2856.826	1188.70833
2858.993	1216.375
2861.158	1200.04167
2863.321	1194.04167
2865.483	1219.70833
2867.644	1204.375
2869.804	1192.70833
2871.962	1209.04167
2874.118	1204.375
2876.274	1203.70833
2878.428	1189.70833
2880.58	1183.70833
2882.731	1183.375
2884.881	1178.70833
2887.03	1182.375
2889.177	1183.04167
2891.322	1194.70833
2893.467	1189.375
2895.61	1194.04167
2897.751	1227.70833
2899.892	1213.70833
2902.03	1212.70833
2904.168	1229.04167
2906.304	1238.04167
2908.439	1267.70833
2910.572	1228.375
2912.704	1257.375
2914.835	1238.375
2916.965	1245.04167
2919.093	1258.70833
2921.219	1218.375
2923.345	1243.375
2925.469	1218.375
2927.591	1204.04167
2929.712	1186.70833
2931.832	1164.375
2933.951	1128.375
2936.068	1116.04167
2938.184	1096.70833
2940.299	1053.70833
2942.412	1032.70833
2944.524	985.04167
2946.634	963.375
2948.744	936.70833
2950.851	955.04167
2952.958	903.04167
2955.063	897.04167
2957.167	877.70833
2959.269	854.375
2961.371	877.375
2963.471	825.375
2965.569	828.04167
2967.666	796.375
2969.762	780.375
2971.857	761.04167
2973.95	748.70833
2976.042	747.04167
2978.133	732.70833
2980.222	715.375
2982.31	685.70833
2984.396	668.70833
2986.482	663.04167
2988.566	660.70833
2990.648	662.375
2992.73	641.70833
2994.81	631.04167
2996.889	631.70833
2998.966	622.70833
3001.042	641.70833
3003.117	626.04167
3005.191	632.70833
3007.263	620.375
3009.334	607.04167
3011.403	598.375
3013.472	583.04167
3015.539	584.375
3017.604	593.375
3019.669	548.70833
3021.732	555.375
3023.794	560.04167
3025.854	543.70833
3027.914	552.04167
3029.971	551.375
3032.028	538.70833
3034.083	550.04167
3036.137	537.375
3038.19	520.70833
3040.242	507.04167
3042.292	492.375
3044.341	487.04167
3046.388	505.04167
3048.435	471.375
3050.48	493.375
3052.524	490.04167
3054.566	466.375
3056.607	469.375
3058.647	464.70833
3060.686	445.70833
3062.723	427.04167
3064.759	419.04167
3066.794	0.70833
3068.828	-1.29167
3070.86	-0.29167
