-0.839	412.91667
3.438	447.25
7.711	128.91667
11.981	53.58333
16.247	43.58333
20.509	48.58333
24.768	48.25
29.024	47.91667
33.276	43.91667
37.524	49.25
41.769	40.91667
46.01	36.91667
50.247	51.91667
54.481	58.58333
58.712	67.58333
62.939	46.91667
67.162	58.58333
71.382	54.91667
75.599	49.58333
79.812	64.58333
84.021	81.91667
88.227	58.58333
92.429	65.91667
96.628	47.91667
100.823	67.91667
105.015	78.58333
109.204	71.58333
113.388	74.25
117.57	72.25
121.748	89.91667
125.922	78.25
130.093	96.91667
134.261	97.25
138.425	96.91667
142.585	139.91667
146.742	134.25
150.896	156.58333
155.046	195.91667
159.193	306.58333
163.336	521.58333
167.476	952.25
171.613	1736.58333
175.746	2913.91667
179.875	4384.91667
184.002	5745.91667
188.124	6679.91667
192.244	6996.25
196.36	6943.58333
200.472	6780.25
204.581	6535.91667
208.687	6310.25
212.79	6251.91667
216.889	6259.91667
220.984	6285.58333
225.077	6300.25
229.165	6330.91667
233.251	6340.91667
237.333	6359.91667
241.412	6308.25
245.487	6291.91667
249.559	6221.25
253.628	6170.25
257.694	6127.25
261.756	6101.25
265.814	6000.91667
269.87	5885.25
273.922	5814.25
277.97	5786.58333
282.016	5789.58333
286.058	5845.91667
290.097	5997.91667
294.132	6062.58333
298.164	6018.91667
302.193	5766.25
306.219	5349.91667
310.241	4872.25
314.26	4451.58333
318.276	4095.25
322.288	3844.91667
326.297	3597.25
330.303	3446.58333
334.305	3347.58333
338.305	3294.58333
342.301	3225.91667
346.294	3207.91667
350.283	3176.58333
354.269	3146.25
358.252	3103.25
362.232	3094.58333
366.209	3059.25
370.182	3047.91667
374.152	3025.91667
378.119	3018.91667
382.083	2998.91667
386.043	3018.25
390	2977.58333
393.954	2973.91667
397.905	2927.91667
401.852	2943.58333
405.797	2897.58333
409.738	2884.58333
413.676	2887.91667
417.61	2850.58333
421.542	2813.25
425.47	2808.58333
429.396	2786.25
433.318	2780.25
437.236	2771.91667
441.152	2754.91667
445.065	2714.91667
448.974	2702.25
452.88	2701.58333
456.783	2671.91667
460.683	2666.25
464.58	2662.25
468.473	2667.91667
472.364	2694.91667
476.251	2688.91667
480.135	2742.58333
484.016	2771.25
487.894	2808.58333
491.769	2776.25
495.641	2814.91667
499.509	2809.91667
503.375	2796.25
507.237	2836.58333
511.096	2828.25
514.952	2966.58333
518.805	3124.25
522.655	3165.91667
526.502	2940.91667
530.346	2794.91667
534.187	2772.25
538.024	2781.91667
541.859	2757.25
545.69	2795.25
549.519	2757.58333
553.344	2740.91667
557.166	2677.58333
560.985	2682.58333
564.802	2638.58333
568.615	2612.25
572.425	2582.58333
576.232	2544.58333
580.036	2529.25
583.836	2524.58333
587.634	2557.25
591.429	2537.25
595.221	2623.91667
599.01	2641.25
602.796	2648.58333
606.578	2659.91667
610.358	2670.25
614.135	2664.58333
617.909	2646.58333
621.679	2625.91667
625.447	2611.25
629.212	2626.58333
632.973	2596.58333
636.732	2603.58333
640.488	2609.58333
644.241	2556.58333
647.991	2562.58333
651.737	2598.58333
655.481	2556.25
659.222	2568.91667
662.96	2573.25
666.695	2568.58333
670.427	2594.25
674.156	2602.25
677.882	2616.25
681.605	2604.25
685.325	2565.58333
689.043	2572.25
692.757	2569.58333
696.468	2558.91667
700.177	2558.58333
703.882	2541.58333
707.585	2540.58333
711.284	2576.58333
714.981	2557.25
718.675	2569.25
722.366	2592.58333
726.054	2569.25
729.739	2573.58333
733.421	2545.25
737.1	2553.58333
740.777	2585.91667
744.45	2577.91667
748.121	2619.25
751.789	2674.25
755.453	2641.25
759.115	2659.25
762.774	2695.91667
766.431	2718.58333
770.084	2760.25
773.734	2761.58333
777.382	2833.58333
781.027	2818.58333
784.669	2818.58333
788.308	2884.91667
791.944	2856.58333
795.577	2897.25
799.208	2912.25
802.835	2930.91667
806.46	2935.25
810.082	2956.25
813.701	2979.58333
817.317	2989.91667
820.931	2986.25
824.542	3003.58333
828.149	2948.58333
831.754	2936.91667
835.357	2921.91667
838.956	2935.58333
842.553	2913.91667
846.146	2905.25
849.737	2880.91667
853.326	2890.25
856.911	2893.25
860.493	2939.91667
864.073	2939.25
867.65	2990.58333
871.225	3040.58333
874.796	3015.25
878.365	3046.25
881.931	3076.58333
885.494	3090.25
889.054	3127.58333
892.612	3135.25
896.166	3116.58333
899.719	3086.25
903.268	3061.58333
906.814	3006.58333
910.358	2986.25
913.899	2947.91667
917.438	2981.25
920.973	2950.25
924.506	3004.25
928.036	3042.58333
931.564	3083.25
935.088	3112.91667
938.61	3122.91667
942.129	3177.91667
945.646	3211.58333
949.16	3323.58333
952.671	3360.91667
956.179	3393.25
959.685	3338.25
963.188	3316.91667
966.688	3250.58333
970.185	3169.25
973.68	3089.25
977.173	3080.25
980.662	3049.25
984.149	3033.25
987.633	3038.91667
991.114	3095.91667
994.593	3181.58333
998.069	3264.25
1001.542	3352.25
1005.013	3294.58333
1008.481	3085.58333
1011.947	3051.58333
1015.409	3036.58333
1018.869	3050.25
1022.327	3042.25
1025.782	3022.25
1029.234	3061.91667
1032.683	3014.58333
1036.13	2906.91667
1039.574	2807.58333
1043.016	2745.25
1046.455	2704.58333
1049.891	2657.25
1053.325	2662.91667
1056.756	2681.91667
1060.184	2691.25
1063.61	2702.25
1067.033	2734.91667
1070.454	2713.25
1073.872	2747.25
1077.287	2751.58333
1080.7	2775.58333
1084.11	2776.91667
1087.517	2758.25
1090.922	2738.58333
1094.325	2686.58333
1097.724	2649.58333
1101.122	2657.91667
1104.516	2649.25
1107.908	2665.25
1111.298	2697.91667
1114.684	2724.91667
1118.069	2751.58333
1121.45	2775.91667
1124.83	2787.25
1128.206	2819.91667
1131.58	2890.25
1134.951	2956.58333
1138.32	3061.58333
1141.687	3183.25
1145.05	3209.58333
1148.412	3242.91667
1151.77	3208.25
1155.126	3222.58333
1158.48	3189.25
1161.831	3185.58333
1165.18	3209.91667
1168.525	3253.25
1171.869	3306.25
1175.21	3305.25
1178.548	3365.25
1181.884	3408.91667
1185.217	3422.58333
1188.548	3456.25
1191.877	3542.25
1195.202	3621.58333
1198.526	3694.91667
1201.846	3707.25
1205.165	3716.91667
1208.48	3718.25
1211.794	3713.91667
1215.104	3741.25
1218.413	3748.25
1221.719	3719.25
1225.022	3668.58333
1228.323	3639.25
1231.621	3597.25
1234.917	3591.91667
1238.21	3615.58333
1241.501	3581.91667
1244.79	3576.58333
1248.076	3586.58333
1251.359	3606.91667
1254.64	3692.91667
1257.919	3704.25
1261.195	3760.58333
1264.468	3826.25
1267.74	3891.91667
1271.008	3930.58333
1274.275	3898.91667
1277.538	3876.58333
1280.8	3871.91667
1284.059	3863.91667
1287.315	3928.91667
1290.569	3914.91667
1293.821	3944.91667
1297.07	3949.58333
1300.317	4002.58333
1303.562	3957.58333
1306.803	3918.58333
1310.043	3889.58333
1313.28	3821.58333
1316.515	3803.91667
1319.747	3788.25
1322.977	3776.58333
1326.204	3714.58333
1329.429	3645.91667
1332.652	3665.25
1335.872	3661.25
1339.09	3585.91667
1342.306	3562.91667
1345.519	3495.25
1348.729	3477.91667
1351.938	3444.25
1355.144	3383.91667
1358.347	3354.58333
1361.548	3378.91667
1364.747	3391.25
1367.944	3370.25
1371.138	3392.58333
1374.329	3422.91667
1377.518	3450.58333
1380.705	3509.58333
1383.89	3463.58333
1387.072	3359.58333
1390.252	3242.58333
1393.429	3139.91667
1396.605	3042.58333
1399.777	2979.58333
1402.948	2971.25
1406.116	2942.25
1409.282	2980.91667
1412.445	2979.91667
1415.606	3046.58333
1418.765	3070.58333
1421.921	3139.58333
1425.075	3190.25
1428.227	3292.91667
1431.376	3420.25
1434.524	3529.58333
1437.668	3612.91667
1440.811	3674.25
1443.951	3684.25
1447.089	3693.25
1450.224	3691.25
1453.357	3648.58333
1456.488	3637.91667
1459.617	3576.25
1462.743	3515.25
1465.867	3420.25
1468.989	3400.25
1472.108	3326.91667
1475.225	3260.91667
1478.34	3228.91667
1481.453	3218.91667
1484.563	3212.25
1487.671	3289.25
1490.776	3316.58333
1493.88	3398.58333
1496.981	3452.58333
1500.08	3481.91667
1503.176	3519.58333
1506.271	3575.91667
1509.363	3626.91667
1512.452	3671.58333
1515.54	3729.25
1518.625	3778.25
1521.708	3915.25
1524.789	4042.25
1527.867	4246.91667
1530.944	4450.58333
1534.018	4674.25
1537.089	4813.58333
1540.159	4860.25
1543.226	4787.58333
1546.291	4684.91667
1549.354	4558.58333
1552.415	4426.25
1555.473	4297.25
1558.529	4214.58333
1561.583	4135.91667
1564.634	4088.91667
1567.684	4080.91667
1570.731	4083.91667
1573.776	4107.58333
1576.819	4094.25
1579.859	4127.91667
1582.898	4157.58333
1585.934	4194.91667
1588.968	4229.25
1591.999	4202.58333
1595.029	4195.91667
1598.056	4221.25
1601.081	4220.25
1604.104	4212.91667
1607.125	4175.25
1610.144	4107.25
1613.16	4017.25
1616.174	3913.25
1619.186	3841.58333
1622.196	3741.91667
1625.203	3635.25
1628.209	3614.91667
1631.212	3548.25
1634.213	3515.91667
1637.212	3486.25
1640.209	3432.58333
1643.203	3345.25
1646.196	3235.25
1649.186	3150.58333
1652.174	3063.91667
1655.16	2977.25
1658.144	2896.25
1661.125	2777.91667
1664.105	2677.91667
1667.082	2572.58333
1670.057	2443.58333
1673.03	2277.91667
1676.001	2148.25
1678.97	2004.58333
1681.937	1886.25
1684.901	1761.25
1687.863	1706.25
1690.824	1651.91667
1693.782	1627.91667
1696.738	1555.58333
1699.692	1552.25
1702.643	1502.58333
1705.593	1486.91667
1708.54	1452.25
1711.486	1445.25
1714.429	1423.25
1717.37	1422.91667
1720.309	1398.58333
1723.246	1395.58333
1726.181	1371.91667
1729.113	1373.91667
1732.044	1350.58333
1734.972	1342.25
1737.899	1336.91667
1740.823	1329.91667
1743.745	1333.58333
1746.665	1279.58333
1749.583	1282.91667
1752.499	1266.25
1755.413	1228.58333
1758.325	1221.25
1761.235	1217.91667
1764.142	1180.58333
1767.048	1191.91667
1769.951	1173.91667
1772.852	1158.25
1775.752	1152.58333
1778.649	1163.25
1781.544	1170.58333
1784.437	1131.91667
1787.328	1138.91667
1790.217	1139.25
1793.104	1113.25
1795.989	1101.91667
1798.872	1106.25
1801.753	1128.25
1804.631	1110.58333
1807.508	1122.58333
1810.383	1098.25
1813.255	1102.25
1816.126	1090.91667
1818.994	1086.58333
1821.861	1080.25
1824.725	1075.25
1827.587	1070.58333
1830.448	1074.58333
1833.306	1044.91667
1836.162	1055.91667
1839.017	1047.91667
1841.869	1047.25
1844.719	1044.91667
1847.567	1038.91667
1850.414	1025.25
1853.258	1033.91667
1856.1	1044.58333
1858.94	1049.58333
1861.778	1019.91667
1864.614	1020.58333
1867.448	1028.58333
1870.28	1013.91667
1873.111	1039.58333
1875.939	1026.25
1878.765	1045.58333
1881.589	1015.25
1884.411	1016.91667
1887.231	1021.91667
1890.049	1018.91667
1892.865	1022.25
1895.68	996.91667
1898.492	1009.58333
1901.302	992.91667
1904.11	989.25
1906.916	989.58333
1909.721	967.91667
1912.523	985.25
1915.323	968.25
1918.122	965.58333
1920.918	973.25
1923.712	965.58333
1926.505	971.58333
1929.295	943.58333
1932.084	965.58333
1934.87	971.58333
1937.655	965.91667
1940.438	946.91667
1943.218	956.58333
1945.997	946.58333
1948.774	967.25
1951.549	967.91667
1954.322	940.58333
1957.093	958.58333
1959.862	930.91667
1962.629	934.58333
1965.394	929.25
1968.157	916.91667
1970.918	929.58333
1973.678	924.58333
1976.435	915.91667
1979.19	920.25
1981.944	906.58333
1984.696	920.25
1987.445	897.58333
1990.193	917.25
1992.939	921.91667
1995.683	914.91667
1998.425	892.25
2001.165	929.91667
2003.903	900.25
2006.639	900.58333
2009.374	913.58333
2012.106	907.91667
2014.837	875.58333
2017.566	896.58333
2020.292	897.91667
2023.017	906.91667
2025.74	892.91667
2028.461	893.58333
2031.18	883.91667
2033.898	884.58333
2036.613	891.91667
2039.327	886.91667
2042.038	864.91667
2044.748	868.58333
2047.456	873.91667
2050.162	855.25
2052.866	852.58333
2055.568	865.58333
2058.268	860.91667
2060.967	869.25
2063.663	840.91667
2066.358	862.58333
2069.051	850.91667
2071.742	859.58333
2074.431	867.91667
2077.118	847.58333
2079.804	839.58333
2082.487	851.91667
2085.169	853.58333
2087.849	881.58333
2090.527	865.58333
2093.203	860.91667
2095.877	864.58333
2098.55	868.91667
2101.22	890.25
2103.889	901.58333
2106.556	889.58333
2109.221	931.58333
2111.884	975.25
2114.546	1018.91667
2117.205	1101.58333
2119.863	1181.91667
2122.519	1240.91667
2125.173	1299.25
2127.825	1370.58333
2130.475	1361.58333
2133.124	1327.58333
2135.771	1254.58333
2138.416	1202.58333
2141.059	1135.58333
2143.7	1102.91667
2146.339	1014.58333
2148.977	974.58333
2151.613	972.91667
2154.247	943.25
2156.879	922.58333
2159.51	917.58333
2162.138	884.91667
2164.765	863.25
2167.39	850.25
2170.013	882.25
2172.634	870.58333
2175.254	849.91667
2177.872	868.58333
2180.488	827.25
2183.102	836.25
2185.714	826.25
2188.325	796.25
2190.934	813.91667
2193.541	796.91667
2196.146	800.25
2198.75	793.58333
2201.351	788.25
2203.951	768.58333
2206.549	798.25
2209.146	769.25
2211.74	765.91667
2214.333	774.25
2216.924	756.91667
2219.514	753.58333
2222.101	758.25
2224.687	767.25
2227.271	754.58333
2229.853	753.58333
2232.433	731.25
2235.012	744.25
2237.589	752.91667
2240.164	753.58333
2242.738	747.91667
2245.309	726.25
2247.879	739.91667
2250.448	739.91667
2253.014	710.91667
2255.579	711.58333
2258.142	698.25
2260.703	703.25
2263.262	703.25
2265.82	703.58333
2268.376	704.58333
2270.93	682.58333
2273.483	677.58333
2276.033	691.58333
2278.583	674.91667
2281.13	678.58333
2283.675	668.58333
2286.219	683.91667
2288.761	677.25
2291.302	673.91667
2293.841	685.58333
2296.377	661.25
2298.913	670.58333
2301.446	685.58333
2303.978	672.58333
2306.508	667.58333
2309.037	672.25
2311.563	662.58333
2314.088	675.25
2316.612	649.25
2319.133	662.25
2321.653	656.91667
2324.171	637.91667
2326.688	653.25
2329.202	641.58333
2331.715	655.91667
2334.227	639.25
2336.736	648.91667
2339.244	642.58333
2341.751	630.58333
2344.255	658.25
2346.758	633.91667
2349.259	640.25
2351.759	629.91667
2354.257	628.91667
2356.753	632.58333
2359.247	629.58333
2361.74	644.58333
2364.231	633.25
2366.721	642.58333
2369.209	622.58333
2371.695	623.58333
2374.179	616.91667
2376.662	625.25
2379.143	642.58333
2381.622	614.25
2384.1	629.91667
2386.576	633.91667
2389.051	647.91667
2391.524	644.25
2393.995	634.25
2396.464	613.58333
2398.932	619.25
2401.398	623.25
2403.863	610.25
2406.325	615.91667
2408.787	613.58333
2411.246	623.91667
2413.704	614.58333
2416.16	603.25
2418.615	614.25
2421.068	617.25
2423.519	607.91667
2425.969	605.58333
2428.417	622.58333
2430.863	634.58333
2433.308	627.91667
2435.751	605.91667
2438.193	607.91667
2440.633	611.25
2443.071	611.25
2445.508	601.58333
2447.943	599.91667
2450.376	597.58333
2452.808	607.91667
2455.238	600.58333
2457.667	633.91667
2460.093	610.25
2462.519	592.91667
2464.942	589.25
2467.365	607.25
2469.785	607.58333
2472.204	599.58333
2474.621	587.58333
2477.037	614.58333
2479.451	579.91667
2481.863	584.25
2484.274	586.91667
2486.683	587.25
2489.091	596.91667
2491.497	593.91667
2493.901	587.25
2496.304	596.91667
2498.705	609.25
2501.105	587.25
2503.503	605.91667
2505.899	581.91667
2508.294	616.91667
2510.687	579.91667
2513.079	586.25
2515.469	576.91667
2517.858	577.91667
2520.245	603.58333
2522.63	584.58333
2525.014	579.25
2527.396	573.58333
2529.776	582.91667
2532.156	589.91667
2534.533	567.58333
2536.909	570.25
2539.283	563.58333
2541.656	572.58333
2544.027	596.58333
2546.397	588.58333
2548.765	579.58333
2551.131	570.91667
2553.496	578.91667
2555.86	589.58333
2558.221	591.25
2560.582	579.58333
2562.94	567.91667
2565.298	581.25
2567.653	593.25
2570.007	556.25
2572.36	586.25
2574.711	567.58333
2577.06	597.25
2579.408	579.58333
2581.754	572.91667
2584.099	579.91667
2586.442	591.25
2588.784	580.25
2591.124	587.91667
2593.463	571.91667
2595.8	586.58333
2598.135	566.58333
2600.469	578.25
2602.802	589.91667
2605.133	582.58333
2607.462	573.58333
2609.79	577.25
2612.116	583.25
2614.441	580.91667
2616.764	578.25
2619.086	575.58333
2621.406	584.58333
2623.725	588.25
2626.042	583.58333
2628.358	582.25
2630.672	577.91667
2632.985	601.25
2635.296	586.58333
2637.606	591.25
2639.914	581.58333
2642.22	581.58333
2644.525	577.58333
2646.829	609.58333
2649.131	599.25
2651.432	604.91667
2653.731	590.91667
2656.028	610.25
2658.324	601.58333
2660.619	595.58333
2662.912	608.25
2665.204	589.91667
2667.494	604.91667
2669.782	593.58333
2672.07	609.25
2674.355	618.91667
2676.639	591.91667
2678.922	596.25
2681.203	616.25
2683.483	593.58333
2685.761	598.91667
2688.038	614.25
2690.313	626.91667
2692.587	607.91667
2694.859	615.25
2697.13	613.58333
2699.399	616.25
2701.667	628.91667
2703.933	631.25
2706.198	643.91667
2708.461	634.91667
2710.723	636.58333
2712.984	640.58333
2715.243	643.91667
2717.5	659.91667
2719.757	659.91667
2722.011	645.58333
2724.264	666.58333
2726.516	681.91667
2728.766	667.25
2731.015	672.25
2733.262	667.25
2735.508	664.91667
2737.753	672.25
2739.996	644.58333
2742.237	651.25
2744.477	651.91667
2746.716	660.91667
2748.953	647.91667
2751.189	648.91667
2753.423	645.91667
2755.656	647.91667
2757.887	631.91667
2760.117	638.25
2762.346	640.91667
2764.573	631.91667
2766.798	645.25
2769.022	652.58333
2771.245	640.91667
2773.467	637.25
2775.686	649.91667
2777.905	655.91667
2780.122	662.25
2782.337	669.58333
2784.552	660.25
2786.764	677.25
2788.976	679.58333
2791.186	694.25
2793.394	688.58333
2795.601	701.91667
2797.807	717.25
2800.011	715.58333
2802.214	729.25
2804.415	740.91667
2806.615	737.58333
2808.814	748.58333
2811.011	759.91667
2813.206	751.58333
2815.401	767.25
2817.594	778.25
2819.785	796.58333
2821.975	787.25
2824.164	793.91667
2826.351	824.25
2828.537	849.25
2830.722	855.58333
2832.905	852.25
2835.086	885.25
2837.267	922.91667
2839.445	965.25
2841.623	963.91667
2843.799	1007.91667
2845.974	1048.91667
2848.147	1081.58333
2850.319	1098.91667
2852.489	1143.58333
2854.659	1161.25
2856.826	1191.58333
2858.993	1207.25
2861.158	1182.58333
2863.321	1186.58333
2865.483	1210.91667
2867.644	1201.58333
2869.804	1200.58333
2871.962	1185.58333
2874.118	1193.91667
2876.274	1186.91667
2878.428	1187.25
2880.58	1167.25
2882.731	1162.58333
2884.881	1170.25
2887.03	1181.25
2889.177	1172.91667
2891.322	1204.58333
2893.467	1178.91667
2895.61	1192.58333
2897.751	1206.58333
2899.892	1208.91667
2902.03	1222.91667
2904.168	1214.58333
2906.304	1230.58333
2908.439	1242.25
2910.572	1227.91667
2912.704	1233.58333
2914.835	1236.58333
2916.965	1233.25
2919.093	1250.58333
2921.219	1204.58333
2923.345	1218.91667
2925.469	1192.58333
2927.591	1188.91667
2929.712	1169.91667
2931.832	1141.58333
2933.951	1135.25
2936.068	1100.58333
2938.184	1077.25
2940.299	1047.25
2942.412	1021.58333
2944.524	990.58333
2946.634	968.58333
2948.744	910.58333
2950.851	933.91667
2952.958	897.25
2955.063	888.58333
2957.167	863.58333
2959.269	827.25
2961.371	850.25
2963.471	814.25
2965.569	820.25
2967.666	783.58333
2969.762	779.25
2971.857	746.91667
2973.95	733.25
2976.042	729.91667
2978.133	710.58333
2980.222	692.58333
2982.31	673.91667
2984.396	668.91667
2986.482	657.58333
2988.566	664.58333
2990.648	628.91667
2992.73	629.58333
2994.81	627.25
2996.889	628.91667
2998.966	617.91667
3001.042	622.91667
3003.117	610.91667
3005.191	609.91667
3007.263	602.25
3009.334	594.91667
3011.403	593.25
3013.472	572.25
3015.539	565.58333
3017.604	576.91667
3019.669	549.58333
3021.732	551.25
3023.794	558.58333
3025.854	542.58333
3027.914	529.25
3029.971	537.25
3032.028	543.58333
3034.083	539.25
3036.137	521.58333
3038.19	507.25
3040.242	492.25
3042.292	485.91667
3044.341	480.91667
3046.388	489.58333
3048.435	472.91667
3050.48	495.58333
3052.524	472.25
3054.566	455.25
3056.607	471.58333
3058.647	459.58333
3060.686	431.91667
3062.723	426.91667
3064.759	407.91667
3066.794	-1.75
3068.828	0.58333
3070.86	-1.41667
