-0.839	427.54167
3.438	454.875
7.711	133.875
11.981	56.875
16.247	45.875
20.509	44.875
24.768	46.54167
29.024	49.875
33.276	42.54167
37.524	54.20833
41.769	42.54167
46.01	37.875
50.247	55.875
54.481	60.875
58.712	65.20833
62.939	50.20833
67.162	67.20833
71.382	55.875
75.599	45.875
79.812	62.54167
84.021	80.20833
88.227	58.20833
92.429	68.20833
96.628	54.20833
100.823	73.20833
105.015	78.20833
109.204	79.20833
113.388	82.875
117.57	76.20833
121.748	94.54167
125.922	86.54167
130.093	103.54167
134.261	113.20833
138.425	106.54167
142.585	153.20833
146.742	149.875
150.896	181.20833
155.046	229.875
159.193	363.875
163.336	613.54167
167.476	1135.20833
171.613	2092.54167
175.746	3552.54167
179.875	5284.875
184.002	6879.20833
188.124	7968.875
192.244	8256.20833
196.36	8198.54167
200.472	7816.875
204.581	7517.54167
208.687	7194.20833
212.79	7071.20833
216.889	6992.875
220.984	6979.20833
225.077	6990.54167
229.165	7005.875
233.251	7000.54167
237.333	6974.54167
241.412	6926.20833
245.487	6850.20833
249.559	6767.875
253.628	6714.20833
257.694	6627.875
261.756	6554.875
265.814	6476.20833
269.87	6271.20833
273.922	6161.875
277.97	6092.875
282.016	6081.875
286.058	6097.20833
290.097	6230.54167
294.132	6315.54167
298.164	6279.875
302.193	6011.20833
306.219	5542.875
310.241	5028.875
314.26	4584.54167
318.276	4168.20833
322.288	3891.54167
326.297	3663.20833
330.303	3471.54167
334.305	3355.20833
338.305	3267.20833
342.301	3197.54167
346.294	3167.875
350.283	3108.20833
354.269	3082.54167
358.252	3087.54167
362.232	3049.20833
366.209	2995.875
370.182	2968.875
374.152	2948.875
378.119	2944.54167
382.083	2953.20833
386.043	2946.20833
390	2888.875
393.954	2876.54167
397.905	2833.875
401.852	2816.54167
405.797	2811.875
409.738	2763.20833
413.676	2744.20833
417.61	2746.54167
421.542	2721.875
425.47	2679.875
429.396	2657.20833
433.318	2641.875
437.236	2636.20833
441.152	2642.20833
445.065	2579.54167
448.974	2573.20833
452.88	2537.20833
456.783	2531.20833
460.683	2502.54167
464.58	2492.54167
468.473	2515.20833
472.364	2511.20833
476.251	2528.875
480.135	2536.20833
484.016	2567.875
487.894	2585.20833
491.769	2614.54167
495.641	2632.54167
499.509	2610.20833
503.375	2623.20833
507.237	2614.54167
511.096	2620.20833
514.952	2644.875
518.805	2653.875
522.655	2686.54167
526.502	2592.875
530.346	2601.54167
534.187	2597.875
538.024	2613.875
541.859	2632.875
545.69	2661.20833
549.519	2618.20833
553.344	2577.54167
557.166	2549.875
560.985	2512.54167
564.802	2478.54167
568.615	2438.20833
572.425	2401.875
576.232	2400.20833
580.036	2388.20833
583.836	2401.54167
587.634	2386.20833
591.429	2384.875
595.221	2446.20833
599.01	2471.54167
602.796	2503.875
606.578	2524.54167
610.358	2533.54167
614.135	2499.20833
617.909	2498.20833
621.679	2473.20833
625.447	2441.20833
629.212	2451.20833
632.973	2459.875
636.732	2437.54167
640.488	2470.54167
644.241	2402.875
647.991	2431.20833
651.737	2466.20833
655.481	2423.54167
659.222	2415.54167
662.96	2411.54167
666.695	2430.20833
670.427	2436.54167
674.156	2454.20833
677.882	2455.54167
681.605	2456.54167
685.325	2419.54167
689.043	2434.20833
692.757	2414.20833
696.468	2399.54167
700.177	2407.875
703.882	2396.20833
707.585	2411.54167
711.284	2401.54167
714.981	2391.875
718.675	2428.20833
722.366	2424.875
726.054	2411.20833
729.739	2395.20833
733.421	2426.54167
737.1	2425.54167
740.777	2439.875
744.45	2453.20833
748.121	2458.54167
751.789	2524.20833
755.453	2539.20833
759.115	2524.20833
762.774	2560.54167
766.431	2581.54167
770.084	2615.20833
773.734	2650.54167
777.382	2706.875
781.027	2726.20833
784.669	2742.875
788.308	2736.54167
791.944	2764.20833
795.577	2780.54167
799.208	2803.54167
802.835	2813.20833
806.46	2840.875
810.082	2846.54167
813.701	2865.54167
817.317	2876.875
820.931	2886.875
824.542	2886.875
828.149	2858.54167
831.754	2838.54167
835.357	2836.54167
838.956	2836.20833
842.553	2813.20833
846.146	2810.20833
849.737	2784.20833
853.326	2828.54167
856.911	2815.54167
860.493	2885.875
864.073	2886.20833
867.65	2942.875
871.225	2963.875
874.796	2966.875
878.365	2982.54167
881.931	3039.20833
885.494	3055.875
889.054	3071.54167
892.612	3108.54167
896.166	3114.875
899.719	3092.54167
903.268	3027.875
906.814	2979.20833
910.358	2929.20833
913.899	2903.875
917.438	2892.54167
920.973	2910.20833
924.506	2947.875
928.036	3007.875
931.564	2996.875
935.088	3051.54167
938.61	3055.875
942.129	3079.875
945.646	3166.54167
949.16	3247.54167
952.671	3323.54167
956.179	3342.54167
959.685	3286.20833
963.188	3243.875
966.688	3185.54167
970.185	3103.54167
973.68	3054.54167
977.173	3031.875
980.662	2993.875
984.149	3008.54167
987.633	3006.54167
991.114	3047.54167
994.593	3168.20833
998.069	3253.875
1001.542	3371.20833
1005.013	3292.54167
1008.481	3098.875
1011.947	3039.875
1015.409	3006.54167
1018.869	3023.875
1022.327	3021.875
1025.782	2999.875
1029.234	2994.54167
1032.683	3021.54167
1036.13	2894.20833
1039.574	2790.54167
1043.016	2703.875
1046.455	2654.20833
1049.891	2610.54167
1053.325	2606.54167
1056.756	2623.20833
1060.184	2650.20833
1063.61	2649.54167
1067.033	2669.54167
1070.454	2673.875
1073.872	2703.54167
1077.287	2725.54167
1080.7	2706.20833
1084.11	2715.54167
1087.517	2708.875
1090.922	2660.20833
1094.325	2645.20833
1097.724	2637.20833
1101.122	2610.875
1104.516	2630.20833
1107.908	2623.875
1111.298	2655.54167
1114.684	2718.20833
1118.069	2740.875
1121.45	2746.875
1124.83	2758.54167
1128.206	2810.54167
1131.58	2874.54167
1134.951	2946.54167
1138.32	3079.54167
1141.687	3185.20833
1145.05	3293.54167
1148.412	3277.20833
1151.77	3252.875
1155.126	3247.20833
1158.48	3232.54167
1161.831	3250.20833
1165.18	3256.875
1168.525	3287.875
1171.869	3361.54167
1175.21	3356.875
1178.548	3389.20833
1181.884	3421.875
1185.217	3461.20833
1188.548	3503.54167
1191.877	3590.875
1195.202	3700.20833
1198.526	3729.20833
1201.846	3756.20833
1205.165	3788.875
1208.48	3750.54167
1211.794	3743.875
1215.104	3758.54167
1218.413	3751.875
1221.719	3770.875
1225.022	3720.54167
1228.323	3675.875
1231.621	3653.54167
1234.917	3632.875
1238.21	3640.875
1241.501	3632.54167
1244.79	3619.54167
1248.076	3631.875
1251.359	3648.20833
1254.64	3729.20833
1257.919	3752.54167
1261.195	3877.875
1264.468	3926.54167
1267.74	3973.875
1271.008	4008.54167
1274.275	3975.875
1277.538	3948.20833
1280.8	3917.54167
1284.059	3940.20833
1287.315	3978.54167
1290.569	4010.875
1293.821	4042.54167
1297.07	4040.875
1300.317	4040.20833
1303.562	4055.875
1306.803	4008.20833
1310.043	3978.20833
1313.28	3919.875
1316.515	3868.875
1319.747	3833.875
1322.977	3796.20833
1326.204	3752.20833
1329.429	3716.875
1332.652	3672.54167
1335.872	3687.20833
1339.09	3628.875
1342.306	3602.875
1345.519	3539.20833
1348.729	3478.20833
1351.938	3472.20833
1355.144	3409.875
1358.347	3381.20833
1361.548	3384.875
1364.747	3406.54167
1367.944	3400.54167
1371.138	3410.20833
1374.329	3479.54167
1377.518	3511.20833
1380.705	3592.20833
1383.89	3548.54167
1387.072	3437.875
1390.252	3307.875
1393.429	3161.54167
1396.605	3079.54167
1399.777	2983.875
1402.948	2991.20833
1406.116	2969.54167
1409.282	2955.20833
1412.445	2983.875
1415.606	3030.20833
1418.765	3078.20833
1421.921	3137.54167
1425.075	3212.20833
1428.227	3292.875
1431.376	3428.875
1434.524	3562.875
1437.668	3680.20833
1440.811	3702.54167
1443.951	3772.54167
1447.089	3760.20833
1450.224	3744.54167
1453.357	3706.20833
1456.488	3694.20833
1459.617	3625.20833
1462.743	3572.20833
1465.867	3473.20833
1468.989	3425.20833
1472.108	3375.54167
1475.225	3313.20833
1478.34	3277.20833
1481.453	3259.20833
1484.563	3303.20833
1487.671	3360.20833
1490.776	3420.54167
1493.88	3458.20833
1496.981	3546.54167
1500.08	3619.54167
1503.176	3670.875
1506.271	3691.20833
1509.363	3719.20833
1512.452	3792.20833
1515.54	3850.54167
1518.625	3892.875
1521.708	4041.20833
1524.789	4189.20833
1527.867	4400.875
1530.944	4641.20833
1534.018	4867.54167
1537.089	5013.20833
1540.159	5093.20833
1543.226	5036.54167
1546.291	4893.875
1549.354	4748.20833
1552.415	4612.875
1555.473	4492.20833
1558.529	4366.20833
1561.583	4311.20833
1564.634	4272.875
1567.684	4265.875
1570.731	4277.875
1573.776	4280.54167
1576.819	4311.20833
1579.859	4357.54167
1582.898	4416.20833
1585.934	4425.54167
1588.968	4452.20833
1591.999	4432.20833
1595.029	4436.54167
1598.056	4480.54167
1601.081	4474.875
1604.104	4460.875
1607.125	4399.20833
1610.144	4312.54167
1613.16	4211.54167
1616.174	4117.54167
1619.186	4030.20833
1622.196	3937.20833
1625.203	3785.20833
1628.209	3737.875
1631.212	3681.54167
1634.213	3654.875
1637.212	3610.54167
1640.209	3541.20833
1643.203	3446.20833
1646.196	3353.54167
1649.186	3220.54167
1652.174	3164.54167
1655.16	3073.54167
1658.144	2991.20833
1661.125	2846.20833
1664.105	2724.54167
1667.082	2607.875
1670.057	2480.54167
1673.03	2315.54167
1676.001	2176.20833
1678.97	2029.875
1681.937	1905.20833
1684.901	1780.54167
1687.863	1708.875
1690.824	1629.54167
1693.782	1605.54167
1696.738	1538.54167
1699.692	1507.54167
1702.643	1477.54167
1705.593	1454.875
1708.54	1434.20833
1711.486	1413.54167
1714.429	1373.20833
1717.37	1377.54167
1720.309	1354.20833
1723.246	1362.20833
1726.181	1324.54167
1729.113	1326.875
1732.044	1317.875
1734.972	1285.20833
1737.899	1287.20833
1740.823	1274.20833
1743.745	1297.875
1746.665	1220.20833
1749.583	1215.54167
1752.499	1191.54167
1755.413	1176.20833
1758.325	1153.20833
1761.235	1161.54167
1764.142	1127.20833
1767.048	1129.875
1769.951	1094.54167
1772.852	1087.875
1775.752	1079.54167
1778.649	1098.875
1781.544	1091.875
1784.437	1050.875
1787.328	1077.875
1790.217	1070.20833
1793.104	1037.54167
1795.989	1051.20833
1798.872	1033.54167
1801.753	1047.54167
1804.631	1038.54167
1807.508	1049.20833
1810.383	1039.54167
1813.255	1043.20833
1816.126	1027.875
1818.994	1014.54167
1821.861	1024.20833
1824.725	1018.54167
1827.587	1012.54167
1830.448	992.20833
1833.306	985.20833
1836.162	985.20833
1839.017	985.875
1841.869	969.20833
1844.719	976.54167
1847.567	955.875
1850.414	965.54167
1853.258	954.875
1856.1	971.54167
1858.94	975.20833
1861.778	957.20833
1864.614	953.54167
1867.448	959.20833
1870.28	950.20833
1873.111	965.20833
1875.939	942.20833
1878.765	967.20833
1881.589	952.875
1884.411	948.875
1887.231	937.875
1890.049	953.54167
1892.865	934.54167
1895.68	923.54167
1898.492	937.54167
1901.302	912.875
1904.11	916.54167
1906.916	911.875
1909.721	915.20833
1912.523	910.54167
1915.323	885.54167
1918.122	901.875
1920.918	907.54167
1923.712	900.54167
1926.505	904.20833
1929.295	862.875
1932.084	911.54167
1934.87	892.875
1937.655	869.54167
1940.438	887.20833
1943.218	874.875
1945.997	884.875
1948.774	904.875
1951.549	891.875
1954.322	888.20833
1957.093	892.875
1959.862	877.54167
1962.629	861.20833
1965.394	866.875
1968.157	865.20833
1970.918	855.875
1973.678	846.875
1976.435	855.875
1979.19	849.875
1981.944	850.54167
1984.696	859.54167
1987.445	846.20833
1990.193	838.875
1992.939	860.20833
1995.683	847.20833
1998.425	814.54167
2001.165	846.20833
2003.903	829.20833
2006.639	826.20833
2009.374	838.875
2012.106	835.875
2014.837	812.875
2017.566	830.54167
2020.292	832.20833
2023.017	835.875
2025.74	809.54167
2028.461	806.54167
2031.18	814.20833
2033.898	813.875
2036.613	816.875
2039.327	818.20833
2042.038	797.54167
2044.748	802.54167
2047.456	812.20833
2050.162	789.875
2052.866	808.54167
2055.568	808.875
2058.268	791.20833
2060.967	809.875
2063.663	793.54167
2066.358	787.20833
2069.051	788.875
2071.742	789.20833
2074.431	797.54167
2077.118	788.54167
2079.804	782.54167
2082.487	793.875
2085.169	798.20833
2087.849	801.54167
2090.527	777.20833
2093.203	798.875
2095.877	811.54167
2098.55	808.875
2101.22	823.54167
2103.889	823.54167
2106.556	829.54167
2109.221	864.54167
2111.884	883.20833
2114.546	963.54167
2117.205	1017.20833
2119.863	1122.875
2122.519	1200.54167
2125.173	1273.54167
2127.825	1349.875
2130.475	1352.875
2133.124	1315.20833
2135.771	1238.875
2138.416	1190.20833
2141.059	1106.20833
2143.7	1046.54167
2146.339	975.20833
2148.977	920.54167
2151.613	919.54167
2154.247	882.54167
2156.879	858.54167
2159.51	834.54167
2162.138	812.54167
2164.765	822.54167
2167.39	805.54167
2170.013	816.875
2172.634	804.875
2175.254	793.875
2177.872	810.54167
2180.488	788.875
2183.102	774.875
2185.714	768.20833
2188.325	743.54167
2190.934	756.20833
2193.541	750.875
2196.146	735.875
2198.75	735.20833
2201.351	728.875
2203.951	710.20833
2206.549	724.54167
2209.146	710.20833
2211.74	707.54167
2214.333	711.875
2216.924	691.20833
2219.514	704.875
2222.101	682.20833
2224.687	701.54167
2227.271	684.54167
2229.853	681.875
2232.433	670.54167
2235.012	695.54167
2237.589	688.875
2240.164	693.54167
2242.738	678.20833
2245.309	672.54167
2247.879	679.20833
2250.448	670.20833
2253.014	649.54167
2255.579	628.875
2258.142	645.875
2260.703	624.875
2263.262	630.875
2265.82	631.20833
2268.376	625.875
2270.93	619.54167
2273.483	618.54167
2276.033	630.20833
2278.583	623.875
2281.13	617.20833
2283.675	604.54167
2286.219	612.20833
2288.761	606.20833
2291.302	606.20833
2293.841	620.875
2296.377	591.54167
2298.913	596.875
2301.446	608.875
2303.978	595.20833
2306.508	593.875
2309.037	583.875
2311.563	605.54167
2314.088	597.54167
2316.612	570.20833
2319.133	579.54167
2321.653	582.54167
2324.171	557.875
2326.688	588.875
2329.202	564.54167
2331.715	583.875
2334.227	578.54167
2336.736	571.54167
2339.244	561.54167
2341.751	555.20833
2344.255	575.54167
2346.758	559.54167
2349.259	558.20833
2351.759	557.54167
2354.257	550.54167
2356.753	553.54167
2359.247	543.875
2361.74	565.20833
2364.231	546.875
2366.721	557.875
2369.209	541.54167
2371.695	541.54167
2374.179	544.54167
2376.662	540.875
2379.143	560.20833
2381.622	545.875
2384.1	545.54167
2386.576	533.20833
2389.051	559.54167
2391.524	547.20833
2393.995	549.20833
2396.464	541.20833
2398.932	526.20833
2401.398	535.54167
2403.863	532.54167
2406.325	532.54167
2408.787	520.54167
2411.246	525.54167
2413.704	528.54167
2416.16	519.875
2418.615	524.20833
2421.068	534.875
2423.519	528.20833
2425.969	528.20833
2428.417	526.20833
2430.863	542.20833
2433.308	539.54167
2435.751	530.20833
2438.193	523.875
2440.633	522.20833
2443.071	519.20833
2445.508	509.20833
2447.943	517.54167
2450.376	507.20833
2452.808	514.20833
2455.238	514.54167
2457.667	530.20833
2460.093	515.54167
2462.519	500.875
2464.942	490.54167
2467.365	511.20833
2469.785	511.20833
2472.204	503.20833
2474.621	493.20833
2477.037	523.54167
2479.451	486.20833
2481.863	487.54167
2484.274	491.875
2486.683	500.54167
2489.091	506.875
2491.497	489.54167
2493.901	491.54167
2496.304	495.20833
2498.705	501.54167
2501.105	491.20833
2503.503	515.20833
2505.899	489.875
2508.294	502.54167
2510.687	483.20833
2513.079	482.20833
2515.469	483.20833
2517.858	469.20833
2520.245	503.54167
2522.63	485.20833
2525.014	478.875
2527.396	479.20833
2529.776	479.875
2532.156	487.875
2534.533	472.54167
2536.909	475.875
2539.283	467.20833
2541.656	476.54167
2544.027	497.54167
2546.397	482.875
2548.765	474.20833
2551.131	473.54167
2553.496	467.20833
2555.86	485.20833
2558.221	467.875
2560.582	476.20833
2562.94	447.20833
2565.298	470.20833
2567.653	480.54167
2570.007	456.20833
2572.36	470.20833
2574.711	468.20833
2577.06	476.54167
2579.408	468.20833
2581.754	460.875
2584.099	471.20833
2586.442	460.54167
2588.784	474.54167
2591.124	471.20833
2593.463	467.20833
2595.8	466.54167
2598.135	462.54167
2600.469	459.20833
2602.802	482.875
2605.133	480.20833
2607.462	456.54167
2609.79	460.54167
2612.116	466.54167
2614.441	470.875
2616.764	468.875
2619.086	450.54167
2621.406	453.875
2623.725	481.875
2626.042	467.54167
2628.358	465.20833
2630.672	457.20833
2632.985	469.875
2635.296	468.20833
2637.606	467.20833
2639.914	456.54167
2642.22	464.54167
2644.525	460.54167
2646.829	469.875
2649.131	473.875
2651.432	479.54167
2653.731	474.20833
2656.028	489.20833
2658.324	472.875
2660.619	464.875
2662.912	479.54167
2665.204	461.875
2667.494	481.20833
2669.782	466.54167
2672.07	480.875
2674.355	483.20833
2676.639	474.20833
2678.922	471.54167
2681.203	485.54167
2683.483	471.54167
2685.761	466.875
2688.038	476.54167
2690.313	496.54167
2692.587	474.875
2694.859	473.20833
2697.13	488.54167
2699.399	480.875
2701.667	500.54167
2703.933	496.20833
2706.198	496.875
2708.461	495.20833
2710.723	508.20833
2712.984	505.20833
2715.243	515.20833
2717.5	513.875
2719.757	525.20833
2722.011	512.54167
2724.264	522.54167
2726.516	535.54167
2728.766	528.875
2731.015	528.54167
2733.262	519.875
2735.508	522.20833
2737.753	517.20833
2739.996	499.20833
2742.237	500.54167
2744.477	517.54167
2746.716	517.20833
2748.953	505.54167
2751.189	519.54167
2753.423	495.875
2755.656	500.54167
2757.887	494.875
2760.117	499.875
2762.346	488.20833
2764.573	488.875
2766.798	481.875
2769.022	492.875
2771.245	494.20833
2773.467	502.875
2775.686	504.54167
2777.905	508.20833
2780.122	516.54167
2782.337	511.20833
2784.552	512.875
2786.764	516.20833
2788.976	522.875
2791.186	531.54167
2793.394	531.875
2795.601	540.875
2797.807	555.54167
2800.011	559.20833
2802.214	567.54167
2804.415	575.20833
2806.615	574.20833
2808.814	589.54167
2811.011	589.54167
2813.206	600.875
2815.401	620.875
2817.594	622.20833
2819.785	636.54167
2821.975	626.20833
2824.164	641.20833
2826.351	665.54167
2828.537	686.54167
2830.722	700.875
2832.905	716.54167
2835.086	732.875
2837.267	793.20833
2839.445	813.20833
2841.623	827.54167
2843.799	863.20833
2845.974	907.875
2848.147	957.875
2850.319	974.875
2852.489	1009.20833
2854.659	1016.20833
2856.826	1036.20833
2858.993	1068.54167
2861.158	1050.20833
2863.321	1043.20833
2865.483	1072.875
2867.644	1077.54167
2869.804	1060.20833
2871.962	1066.875
2874.118	1076.54167
2876.274	1051.20833
2878.428	1062.54167
2880.58	1049.875
2882.731	1045.54167
2884.881	1049.20833
2887.03	1051.54167
2889.177	1049.54167
2891.322	1072.20833
2893.467	1064.875
2895.61	1065.20833
2897.751	1079.875
2899.892	1073.20833
2902.03	1084.54167
2904.168	1113.20833
2906.304	1098.54167
2908.439	1132.875
2910.572	1098.20833
2912.704	1121.875
2914.835	1114.875
2916.965	1114.875
2919.093	1135.875
2921.219	1086.54167
2923.345	1111.20833
2925.469	1076.875
2927.591	1070.20833
2929.712	1032.875
2931.832	1027.54167
2933.951	1000.54167
2936.068	977.875
2938.184	960.20833
2940.299	909.20833
2942.412	897.875
2944.524	846.875
2946.634	844.54167
2948.744	784.54167
2950.851	796.54167
2952.958	760.875
2955.063	743.54167
2957.167	720.20833
2959.269	699.54167
2961.371	704.875
2963.471	661.54167
2965.569	661.20833
2967.666	638.54167
2969.762	626.54167
2971.857	607.20833
2973.95	586.54167
2976.042	585.20833
2978.133	572.875
2980.222	539.875
2982.31	528.54167
2984.396	512.20833
2986.482	501.20833
2988.566	506.875
2990.648	491.875
2992.73	481.875
2994.81	471.20833
2996.889	471.20833
2998.966	471.20833
3001.042	472.54167
3003.117	461.875
3005.191	456.54167
3007.263	450.875
3009.334	450.54167
3011.403	440.20833
3013.472	417.54167
3015.539	423.20833
3017.604	440.20833
3019.669	404.20833
3021.732	402.54167
3023.794	404.54167
3025.854	383.54167
3027.914	392.20833
3029.971	394.875
3032.028	384.54167
3034.083	375.54167
3036.137	385.20833
3038.19	366.54167
3040.242	354.54167
3042.292	345.54167
3044.341	339.20833
3046.388	357.875
3048.435	334.54167
3050.48	355.54167
3052.524	336.20833
3054.566	313.54167
3056.607	331.20833
3058.647	320.875
3060.686	306.875
3062.723	291.875
3064.759	288.875
3066.794	-0.45833
3068.828	-0.125
3070.86	-1.79167
