-0.839	433.83333
3.438	464.16667
7.711	130.5
11.981	55.5
16.247	47.16667
20.509	45.16667
24.768	50.16667
29.024	48.16667
33.276	46.16667
37.524	48.16667
41.769	41.83333
46.01	40.83333
50.247	55.5
54.481	62.16667
58.712	67.16667
62.939	50.5
67.162	65.16667
71.382	59.5
75.599	45.5
79.812	64.83333
84.021	82.83333
88.227	61.83333
92.429	67.16667
96.628	50.5
100.823	67.83333
105.015	79.16667
109.204	80.83333
113.388	80.16667
117.57	75.16667
121.748	93.16667
125.922	85.83333
130.093	105.16667
134.261	115.5
138.425	104.16667
142.585	147.16667
146.742	140.5
150.896	168.5
155.046	217.5
159.193	341.5
163.336	578.83333
167.476	1056.83333
171.613	1964.83333
175.746	3307.83333
179.875	4931.16667
184.002	6501.5
188.124	7545.16667
192.244	7953.83333
196.36	7858.83333
200.472	7644.16667
204.581	7404.16667
208.687	7230.16667
212.79	7109.16667
216.889	7139.16667
220.984	7240.5
225.077	7308.16667
229.165	7391.16667
233.251	7424.5
237.333	7393.83333
241.412	7358.16667
245.487	7285.5
249.559	7206.5
253.628	7125.16667
257.694	7061.5
261.756	6982.16667
265.814	6829.5
269.87	6677.16667
273.922	6520.83333
277.97	6460.83333
282.016	6448.16667
286.058	6489.16667
290.097	6548.16667
294.132	6618.16667
298.164	6443.16667
302.193	6176.5
306.219	5701.83333
310.241	5245.83333
314.26	4789.83333
318.276	4423.16667
322.288	4127.83333
326.297	3892.16667
330.303	3723.5
334.305	3626.5
338.305	3542.5
342.301	3500.83333
346.294	3437.83333
350.283	3422.5
354.269	3385.83333
358.252	3368.16667
362.232	3349.16667
366.209	3336.16667
370.182	3302.83333
374.152	3294.83333
378.119	3288.16667
382.083	3297.16667
386.043	3300.83333
390	3257.5
393.954	3233.83333
397.905	3222.83333
401.852	3164.83333
405.797	3113.16667
409.738	3105.83333
413.676	3100.5
417.61	3061.83333
421.542	3025.83333
425.47	3007.16667
429.396	2972.16667
433.318	2960.83333
437.236	2924.16667
441.152	2953.83333
445.065	2865.5
448.974	2884.5
452.88	2857.16667
456.783	2861.16667
460.683	2839.83333
464.58	2848.5
468.473	2861.83333
472.364	2858.83333
476.251	2882.5
480.135	2895.83333
484.016	2923.5
487.894	2948.16667
491.769	2961.16667
495.641	2969.83333
499.509	2973.83333
503.375	2974.16667
507.237	2967.5
511.096	2957.83333
514.952	3015.5
518.805	3048.83333
522.655	3065.83333
526.502	2949.5
530.346	2902.83333
534.187	2902.16667
538.024	2894.16667
541.859	2900.83333
545.69	2915.16667
549.519	2885.5
553.344	2870.5
557.166	2827.16667
560.985	2814.5
564.802	2785.5
568.615	2732.83333
572.425	2709.16667
576.232	2686.5
580.036	2703.83333
583.836	2678.16667
587.634	2685.5
591.429	2681.5
595.221	2744.83333
599.01	2773.83333
602.796	2794.83333
606.578	2827.83333
610.358	2811.16667
614.135	2796.5
617.909	2803.16667
621.679	2774.83333
625.447	2758.16667
629.212	2775.16667
632.973	2794.5
636.732	2763.16667
640.488	2771.83333
644.241	2732.83333
647.991	2698.83333
651.737	2738.83333
655.481	2704.16667
659.222	2689.83333
662.96	2693.5
666.695	2739.83333
670.427	2749.83333
674.156	2748.16667
677.882	2748.5
681.605	2765.5
685.325	2725.83333
689.043	2712.83333
692.757	2728.16667
696.468	2728.5
700.177	2749.83333
703.882	2729.16667
707.585	2719.83333
711.284	2716.16667
714.981	2735.83333
718.675	2765.16667
722.366	2769.5
726.054	2746.16667
729.739	2741.83333
733.421	2741.16667
737.1	2736.83333
740.777	2761.16667
744.45	2763.83333
748.121	2809.16667
751.789	2846.83333
755.453	2860.5
759.115	2876.5
762.774	2896.83333
766.431	2941.83333
770.084	2969.5
773.734	3000.16667
777.382	3041.16667
781.027	3080.5
784.669	3085.5
788.308	3119.5
791.944	3141.83333
795.577	3168.5
799.208	3200.16667
802.835	3211.16667
806.46	3195.5
810.082	3235.5
813.701	3229.5
817.317	3267.83333
820.931	3248.16667
824.542	3264.5
828.149	3232.16667
831.754	3203.5
835.357	3195.16667
838.956	3220.83333
842.553	3203.16667
846.146	3189.5
849.737	3182.83333
853.326	3217.16667
856.911	3227.16667
860.493	3261.5
864.073	3292.83333
867.65	3338.5
871.225	3379.5
874.796	3364.83333
878.365	3390.5
881.931	3403.5
885.494	3430.83333
889.054	3458.83333
892.612	3485.83333
896.166	3473.16667
899.719	3455.5
903.268	3398.16667
906.814	3349.16667
910.358	3320.5
913.899	3288.16667
917.438	3322.83333
920.973	3270.83333
924.506	3330.83333
928.036	3341.5
931.564	3375.16667
935.088	3404.16667
938.61	3436.5
942.129	3472.5
945.646	3508.16667
949.16	3592.16667
952.671	3671.83333
956.179	3685.83333
959.685	3656.16667
963.188	3616.83333
966.688	3601.16667
970.185	3513.5
973.68	3470.5
977.173	3434.5
980.662	3464.83333
984.149	3491.5
987.633	3477.5
991.114	3529.16667
994.593	3653.16667
998.069	3761.16667
1001.542	3868.16667
1005.013	3712.5
1008.481	3519.5
1011.947	3491.5
1015.409	3478.16667
1018.869	3480.16667
1022.327	3453.83333
1025.782	3418.5
1029.234	3463.83333
1032.683	3432.16667
1036.13	3308.16667
1039.574	3197.83333
1043.016	3091.16667
1046.455	3042.16667
1049.891	2977.5
1053.325	2990.83333
1056.756	2989.83333
1060.184	3039.16667
1063.61	3044.83333
1067.033	3049.5
1070.454	3052.16667
1073.872	3068.5
1077.287	3104.83333
1080.7	3101.5
1084.11	3091.83333
1087.517	3083.83333
1090.922	3053.83333
1094.325	3030.83333
1097.724	2980.16667
1101.122	2987.5
1104.516	2970.5
1107.908	2986.83333
1111.298	3034.83333
1114.684	3075.5
1118.069	3085.5
1121.45	3149.5
1124.83	3103.83333
1128.206	3150.83333
1131.58	3222.16667
1134.951	3264.5
1138.32	3379.83333
1141.687	3525.83333
1145.05	3595.83333
1148.412	3616.83333
1151.77	3599.16667
1155.126	3598.83333
1158.48	3583.16667
1161.831	3629.83333
1165.18	3626.16667
1168.525	3691.83333
1171.869	3755.5
1175.21	3774.83333
1178.548	3798.16667
1181.884	3835.16667
1185.217	3864.16667
1188.548	3953.83333
1191.877	3991.5
1195.202	4084.5
1198.526	4156.5
1201.846	4170.5
1205.165	4157.16667
1208.48	4138.5
1211.794	4149.5
1215.104	4140.83333
1218.413	4167.16667
1221.719	4147.16667
1225.022	4129.83333
1228.323	4063.16667
1231.621	4062.5
1234.917	4057.16667
1238.21	4099.5
1241.501	4090.5
1244.79	4096.5
1248.076	4115.16667
1251.359	4147.83333
1254.64	4220.5
1257.919	4206.16667
1261.195	4298.16667
1264.468	4346.16667
1267.74	4435.83333
1271.008	4428.5
1274.275	4412.5
1277.538	4358.83333
1280.8	4365.83333
1284.059	4331.83333
1287.315	4423.16667
1290.569	4427.16667
1293.821	4430.83333
1297.07	4488.5
1300.317	4474.5
1303.562	4454.83333
1306.803	4415.83333
1310.043	4365.83333
1313.28	4300.83333
1316.515	4267.16667
1319.747	4221.5
1322.977	4207.16667
1326.204	4166.83333
1329.429	4099.83333
1332.652	4071.16667
1335.872	4061.5
1339.09	4042.83333
1342.306	4034.5
1345.519	4010.83333
1348.729	3973.5
1351.938	3976.16667
1355.144	3906.83333
1358.347	3869.5
1361.548	3858.16667
1364.747	3842.5
1367.944	3837.5
1371.138	3867.16667
1374.329	3899.83333
1377.518	3926.83333
1380.705	4000.5
1383.89	3946.16667
1387.072	3822.5
1390.252	3712.5
1393.429	3586.5
1396.605	3478.16667
1399.777	3390.5
1402.948	3375.83333
1406.116	3348.16667
1409.282	3377.5
1412.445	3392.83333
1415.606	3402.16667
1418.765	3490.83333
1421.921	3537.16667
1425.075	3610.16667
1428.227	3717.16667
1431.376	3879.83333
1434.524	4004.16667
1437.668	4066.83333
1440.811	4104.5
1443.951	4155.83333
1447.089	4163.5
1450.224	4153.83333
1453.357	4096.16667
1456.488	4079.5
1459.617	4001.5
1462.743	3964.16667
1465.867	3844.16667
1468.989	3805.16667
1472.108	3723.83333
1475.225	3665.5
1478.34	3604.5
1481.453	3631.16667
1484.563	3617.16667
1487.671	3684.16667
1490.776	3748.5
1493.88	3833.83333
1496.981	3885.16667
1500.08	3958.16667
1503.176	4000.16667
1506.271	4042.16667
1509.363	4140.83333
1512.452	4147.16667
1515.54	4216.16667
1518.625	4289.16667
1521.708	4490.5
1524.789	4681.83333
1527.867	4888.16667
1530.944	5242.16667
1534.018	5512.16667
1537.089	5716.83333
1540.159	5751.5
1543.226	5718.16667
1546.291	5536.83333
1549.354	5375.16667
1552.415	5197.5
1555.473	5039.16667
1558.529	4924.5
1561.583	4855.16667
1564.634	4807.5
1567.684	4785.83333
1570.731	4767.5
1573.776	4792.83333
1576.819	4812.83333
1579.859	4866.16667
1582.898	4872.83333
1585.934	4906.83333
1588.968	4954.83333
1591.999	4936.83333
1595.029	4911.5
1598.056	4952.5
1601.081	4945.16667
1604.104	4937.83333
1607.125	4894.83333
1610.144	4794.5
1613.16	4694.5
1616.174	4583.83333
1619.186	4471.5
1622.196	4386.83333
1625.203	4263.5
1628.209	4203.83333
1631.212	4166.5
1634.213	4142.83333
1637.212	4108.16667
1640.209	4062.83333
1643.203	3935.83333
1646.196	3827.83333
1649.186	3731.5
1652.174	3614.16667
1655.16	3507.83333
1658.144	3391.5
1661.125	3277.5
1664.105	3123.16667
1667.082	2985.5
1670.057	2824.83333
1673.03	2634.5
1676.001	2480.16667
1678.97	2317.16667
1681.937	2167.5
1684.901	2059.5
1687.863	1998.83333
1690.824	1912.5
1693.782	1869.16667
1696.738	1799.83333
1699.692	1770.83333
1702.643	1731.16667
1705.593	1722.83333
1708.54	1674.5
1711.486	1665.5
1714.429	1636.83333
1717.37	1620.16667
1720.309	1586.16667
1723.246	1595.16667
1726.181	1563.83333
1729.113	1558.83333
1732.044	1541.16667
1734.972	1532.83333
1737.899	1514.5
1740.823	1508.16667
1743.745	1509.16667
1746.665	1455.16667
1749.583	1444.5
1752.499	1425.16667
1755.413	1411.16667
1758.325	1361.83333
1761.235	1371.5
1764.142	1340.5
1767.048	1324.83333
1769.951	1312.83333
1772.852	1312.83333
1775.752	1301.83333
1778.649	1308.16667
1781.544	1310.83333
1784.437	1258.83333
1787.328	1276.5
1790.217	1274.16667
1793.104	1244.16667
1795.989	1244.83333
1798.872	1244.83333
1801.753	1275.16667
1804.631	1237.16667
1807.508	1252.83333
1810.383	1238.5
1813.255	1225.5
1816.126	1244.16667
1818.994	1226.5
1821.861	1208.83333
1824.725	1196.16667
1827.587	1203.83333
1830.448	1187.83333
1833.306	1180.16667
1836.162	1178.83333
1839.017	1167.16667
1841.869	1163.83333
1844.719	1177.5
1847.567	1163.5
1850.414	1139.16667
1853.258	1156.16667
1856.1	1156.16667
1858.94	1163.16667
1861.778	1166.83333
1864.614	1156.83333
1867.448	1152.16667
1870.28	1120.5
1873.111	1168.5
1875.939	1143.5
1878.765	1156.5
1881.589	1135.5
1884.411	1134.16667
1887.231	1148.16667
1890.049	1134.5
1892.865	1131.16667
1895.68	1118.5
1898.492	1108.83333
1901.302	1113.5
1904.11	1119.16667
1906.916	1100.83333
1909.721	1098.83333
1912.523	1107.83333
1915.323	1082.83333
1918.122	1093.83333
1920.918	1089.83333
1923.712	1081.5
1926.505	1090.16667
1929.295	1067.83333
1932.084	1085.5
1934.87	1080.5
1937.655	1056.83333
1940.438	1070.83333
1943.218	1065.5
1945.997	1079.16667
1948.774	1092.83333
1951.549	1078.5
1954.322	1072.16667
1957.093	1057.5
1959.862	1046.83333
1962.629	1069.5
1965.394	1052.5
1968.157	1041.16667
1970.918	1052.16667
1973.678	1028.16667
1976.435	1042.5
1979.19	1030.5
1981.944	1021.16667
1984.696	1027.16667
1987.445	1018.83333
1990.193	1008.83333
1992.939	1034.16667
1995.683	1034.16667
1998.425	1001.16667
2001.165	1032.5
2003.903	1001.5
2006.639	1007.16667
2009.374	1009.83333
2012.106	1027.16667
2014.837	974.83333
2017.566	1011.5
2020.292	1004.83333
2023.017	1006.5
2025.74	993.83333
2028.461	1000.83333
2031.18	998.16667
2033.898	989.5
2036.613	991.5
2039.327	1005.16667
2042.038	970.83333
2044.748	984.5
2047.456	984.83333
2050.162	966.5
2052.866	978.83333
2055.568	969.83333
2058.268	966.83333
2060.967	971.83333
2063.663	949.5
2066.358	967.83333
2069.051	964.5
2071.742	965.5
2074.431	968.83333
2077.118	972.83333
2079.804	966.16667
2082.487	979.16667
2085.169	989.83333
2087.849	997.16667
2090.527	977.16667
2093.203	1004.5
2095.877	1004.5
2098.55	1027.16667
2101.22	1042.16667
2103.889	1052.83333
2106.556	1090.16667
2109.221	1127.83333
2111.884	1194.83333
2114.546	1291.5
2117.205	1429.83333
2119.863	1579.16667
2122.519	1709.16667
2125.173	1833.16667
2127.825	1926.5
2130.475	1942.5
2133.124	1858.16667
2135.771	1791.5
2138.416	1716.5
2141.059	1560.5
2143.7	1508.16667
2146.339	1393.16667
2148.977	1292.16667
2151.613	1263.16667
2154.247	1216.5
2156.879	1178.83333
2159.51	1147.5
2162.138	1110.16667
2164.765	1114.83333
2167.39	1082.83333
2170.013	1090.5
2172.634	1074.5
2175.254	1054.5
2177.872	1086.16667
2180.488	1023.16667
2183.102	1026.83333
2185.714	1000.83333
2188.325	985.16667
2190.934	974.16667
2193.541	971.83333
2196.146	958.16667
2198.75	927.5
2201.351	932.83333
2203.951	904.5
2206.549	922.83333
2209.146	884.83333
2211.74	886.16667
2214.333	887.83333
2216.924	874.16667
2219.514	874.5
2222.101	857.5
2224.687	884.5
2227.271	848.16667
2229.853	839.16667
2232.433	837.83333
2235.012	856.16667
2237.589	851.16667
2240.164	848.83333
2242.738	841.16667
2245.309	835.83333
2247.879	837.5
2250.448	834.5
2253.014	802.5
2255.579	809.16667
2258.142	797.16667
2260.703	787.16667
2263.262	786.83333
2265.82	777.16667
2268.376	787.16667
2270.93	769.83333
2273.483	768.5
2276.033	770.83333
2278.583	756.5
2281.13	750.83333
2283.675	755.5
2286.219	762.83333
2288.761	750.16667
2291.302	754.83333
2293.841	756.83333
2296.377	736.16667
2298.913	728.16667
2301.446	754.16667
2303.978	735.16667
2306.508	737.5
2309.037	727.83333
2311.563	748.5
2314.088	737.83333
2316.612	707.5
2319.133	729.5
2321.653	724.16667
2324.171	714.83333
2326.688	722.16667
2329.202	713.5
2331.715	719.5
2334.227	716.16667
2336.736	700.5
2339.244	707.16667
2341.751	685.5
2344.255	713.16667
2346.758	685.83333
2349.259	691.16667
2351.759	695.5
2354.257	692.16667
2356.753	685.83333
2359.247	686.83333
2361.74	688.5
2364.231	686.16667
2366.721	694.5
2369.209	681.16667
2371.695	682.16667
2374.179	679.5
2376.662	677.83333
2379.143	688.16667
2381.622	667.5
2384.1	684.5
2386.576	674.83333
2389.051	687.5
2391.524	689.16667
2393.995	680.5
2396.464	668.83333
2398.932	659.5
2401.398	661.16667
2403.863	661.16667
2406.325	669.83333
2408.787	662.16667
2411.246	669.83333
2413.704	659.83333
2416.16	659.16667
2418.615	661.5
2421.068	663.83333
2423.519	647.16667
2425.969	653.5
2428.417	663.16667
2430.863	685.5
2433.308	660.16667
2435.751	651.16667
2438.193	658.83333
2440.633	652.5
2443.071	656.5
2445.508	638.5
2447.943	656.83333
2450.376	648.16667
2452.808	643.83333
2455.238	642.5
2457.667	667.5
2460.093	645.5
2462.519	634.16667
2464.942	626.16667
2467.365	637.83333
2469.785	636.83333
2472.204	628.83333
2474.621	616.5
2477.037	643.83333
2479.451	618.83333
2481.863	624.83333
2484.274	626.83333
2486.683	630.83333
2489.091	630.16667
2491.497	623.16667
2493.901	625.5
2496.304	613.83333
2498.705	623.83333
2501.105	613.16667
2503.503	655.16667
2505.899	618.83333
2508.294	638.5
2510.687	610.16667
2513.079	617.16667
2515.469	612.16667
2517.858	613.5
2520.245	630.5
2522.63	605.83333
2525.014	615.16667
2527.396	591.5
2529.776	605.16667
2532.156	614.5
2534.533	596.83333
2536.909	603.5
2539.283	599.83333
2541.656	599.16667
2544.027	618.5
2546.397	606.16667
2548.765	594.5
2551.131	593.5
2553.496	596.83333
2555.86	602.83333
2558.221	614.5
2560.582	603.83333
2562.94	586.5
2565.298	604.5
2567.653	608.83333
2570.007	586.5
2572.36	606.5
2574.711	583.83333
2577.06	608.5
2579.408	594.16667
2581.754	596.16667
2584.099	593.83333
2586.442	596.5
2588.784	601.83333
2591.124	604.5
2593.463	595.5
2595.8	592.5
2598.135	585.5
2600.469	600.16667
2602.802	609.16667
2605.133	612.83333
2607.462	588.83333
2609.79	594.5
2612.116	583.16667
2614.441	592.16667
2616.764	593.5
2619.086	593.16667
2621.406	586.5
2623.725	601.16667
2626.042	589.16667
2628.358	594.5
2630.672	591.16667
2632.985	607.5
2635.296	589.16667
2637.606	603.16667
2639.914	584.83333
2642.22	597.16667
2644.525	598.5
2646.829	599.83333
2649.131	609.83333
2651.432	599.16667
2653.731	603.83333
2656.028	614.83333
2658.324	602.83333
2660.619	589.16667
2662.912	614.16667
2665.204	593.83333
2667.494	619.5
2669.782	596.83333
2672.07	621.16667
2674.355	611.16667
2676.639	605.5
2678.922	605.83333
2681.203	622.83333
2683.483	604.83333
2685.761	593.5
2688.038	612.83333
2690.313	627.83333
2692.587	614.5
2694.859	607.83333
2697.13	609.5
2699.399	616.16667
2701.667	636.5
2703.933	633.83333
2706.198	631.16667
2708.461	642.83333
2710.723	641.16667
2712.984	654.83333
2715.243	652.16667
2717.5	654.83333
2719.757	671.83333
2722.011	656.16667
2724.264	669.16667
2726.516	680.16667
2728.766	661.5
2731.015	668.83333
2733.262	664.16667
2735.508	662.16667
2737.753	666.83333
2739.996	640.16667
2742.237	644.5
2744.477	645.83333
2746.716	657.83333
2748.953	648.5
2751.189	657.83333
2753.423	644.16667
2755.656	627.83333
2757.887	625.83333
2760.117	633.5
2762.346	624.16667
2764.573	626.16667
2766.798	629.5
2769.022	639.16667
2771.245	638.83333
2773.467	635.5
2775.686	641.83333
2777.905	650.16667
2780.122	662.83333
2782.337	667.16667
2784.552	659.16667
2786.764	667.5
2788.976	666.16667
2791.186	690.5
2793.394	685.83333
2795.601	700.5
2797.807	714.83333
2800.011	709.16667
2802.214	735.83333
2804.415	743.16667
2806.615	742.83333
2808.814	755.16667
2811.011	757.83333
2813.206	766.16667
2815.401	782.83333
2817.594	785.83333
2819.785	804.83333
2821.975	794.16667
2824.164	822.83333
2826.351	831.83333
2828.537	862.5
2830.722	886.5
2832.905	893.83333
2835.086	922.83333
2837.267	968.83333
2839.445	982.5
2841.623	1006.5
2843.799	1043.83333
2845.974	1088.83333
2848.147	1115.16667
2850.319	1154.83333
2852.489	1193.83333
2854.659	1196.5
2856.826	1221.5
2858.993	1241.16667
2861.158	1230.83333
2863.321	1221.16667
2865.483	1253.5
2867.644	1234.83333
2869.804	1255.5
2871.962	1227.83333
2874.118	1234.83333
2876.274	1237.5
2878.428	1226.83333
2880.58	1218.5
2882.731	1219.16667
2884.881	1200.83333
2887.03	1212.5
2889.177	1229.83333
2891.322	1240.83333
2893.467	1223.16667
2895.61	1236.5
2897.751	1266.5
2899.892	1238.83333
2902.03	1253.5
2904.168	1269.16667
2906.304	1267.83333
2908.439	1293.5
2910.572	1265.83333
2912.704	1271.5
2914.835	1287.83333
2916.965	1279.5
2919.093	1273.83333
2921.219	1241.16667
2923.345	1258.16667
2925.469	1235.16667
2927.591	1227.16667
2929.712	1178.83333
2931.832	1165.83333
2933.951	1148.83333
2936.068	1120.16667
2938.184	1084.16667
2940.299	1060.5
2942.412	1028.16667
2944.524	984.16667
2946.634	974.83333
2948.744	911.5
2950.851	935.16667
2952.958	875.83333
2955.063	876.5
2957.167	846.83333
2959.269	813.5
2961.371	836.83333
2963.471	783.5
2965.569	780.83333
2967.666	756.5
2969.762	750.5
2971.857	726.83333
2973.95	703.83333
2976.042	697.83333
2978.133	688.83333
2980.222	656.83333
2982.31	632.5
2984.396	622.16667
2986.482	617.16667
2988.566	610.16667
2990.648	606.5
2992.73	596.16667
2994.81	578.83333
2996.889	589.16667
2998.966	578.16667
3001.042	579.16667
3003.117	565.16667
3005.191	565.5
3007.263	563.16667
3009.334	546.5
3011.403	547.5
3013.472	527.16667
3015.539	530.83333
3017.604	530.83333
3019.669	496.83333
3021.732	505.5
3023.794	509.5
3025.854	491.5
3027.914	478.5
3029.971	494.5
3032.028	478.16667
3034.083	488.16667
3036.137	472.5
3038.19	456.5
3040.242	450.83333
3042.292	434.16667
3044.341	431.16667
3046.388	441.16667
3048.435	416.16667
3050.48	446.83333
3052.524	433.83333
3054.566	404.16667
3056.607	424.16667
3058.647	411.83333
3060.686	393.16667
3062.723	376.16667
3064.759	364.83333
3066.794	0.83333
3068.828	-0.83333
3070.86	-0.83333
