-0.839	440.08333
3.438	466.41667
7.711	134.08333
11.981	52.41667
16.247	47.08333
20.509	46.08333
24.768	48.08333
29.024	48.75
33.276	46.08333
37.524	53.08333
41.769	41.08333
46.01	37.41667
50.247	56.75
54.481	63.75
58.712	67.08333
62.939	48.41667
67.162	67.08333
71.382	56.41667
75.599	51.41667
79.812	65.08333
84.021	84.41667
88.227	61.08333
92.429	67.41667
96.628	54.75
100.823	69.08333
105.015	78.08333
109.204	82.75
113.388	78.08333
117.57	72.75
121.748	95.08333
125.922	84.41667
130.093	100.41667
134.261	109.75
138.425	107.08333
142.585	139.75
146.742	144.75
150.896	173.41667
155.046	212.75
159.193	338.08333
163.336	578.41667
167.476	1064.75
171.613	1947.75
175.746	3276.41667
179.875	4935.08333
184.002	6466.75
188.124	7480.08333
192.244	7853.08333
196.36	7834.08333
200.472	7595.08333
204.581	7398.75
208.687	7161.41667
212.79	7115.08333
216.889	7168.41667
220.984	7192.41667
225.077	7261.41667
229.165	7341.75
233.251	7372.41667
237.333	7390.41667
241.412	7320.75
245.487	7253.08333
249.559	7143.75
253.628	7074.08333
257.694	7024.75
261.756	6942.08333
265.814	6799.08333
269.87	6625.75
273.922	6486.75
277.97	6395.75
282.016	6400.08333
286.058	6425.41667
290.097	6523.41667
294.132	6559.41667
298.164	6416.08333
302.193	6141.08333
306.219	5689.08333
310.241	5170.08333
314.26	4739.41667
318.276	4352.08333
322.288	4093.41667
326.297	3856.75
330.303	3689.08333
334.305	3571.08333
338.305	3530.08333
342.301	3415.41667
346.294	3392.75
350.283	3350.08333
354.269	3332.75
358.252	3320.08333
362.232	3280.41667
366.209	3259.08333
370.182	3247.75
374.152	3252.08333
378.119	3252.08333
382.083	3241.75
386.043	3261.41667
390	3210.75
393.954	3193.75
397.905	3160.08333
401.852	3135.75
405.797	3092.75
409.738	3047.41667
413.676	3048.41667
417.61	3026.75
421.542	2977.41667
425.47	2963.41667
429.396	2911.75
433.318	2894.08333
437.236	2890.75
441.152	2898.75
445.065	2856.75
448.974	2845.41667
452.88	2824.08333
456.783	2815.08333
460.683	2794.41667
464.58	2801.08333
468.473	2790.41667
472.364	2800.75
476.251	2852.41667
480.135	2864.08333
484.016	2880.75
487.894	2903.08333
491.769	2894.75
495.641	2915.41667
499.509	2920.75
503.375	2929.08333
507.237	2899.08333
511.096	2896.75
514.952	2954.08333
518.805	3011.75
522.655	3019.75
526.502	2882.08333
530.346	2866.08333
534.187	2861.08333
538.024	2850.41667
541.859	2864.75
545.69	2889.08333
549.519	2844.75
553.344	2809.41667
557.166	2792.75
560.985	2766.75
564.802	2718.75
568.615	2699.08333
572.425	2663.41667
576.232	2643.75
580.036	2614.41667
583.836	2643.08333
587.634	2659.41667
591.429	2638.41667
595.221	2684.75
599.01	2708.75
602.796	2730.41667
606.578	2762.41667
610.358	2781.41667
614.135	2769.41667
617.909	2734.08333
621.679	2727.75
625.447	2713.75
629.212	2722.75
632.973	2735.75
636.732	2711.75
640.488	2732.41667
644.241	2687.75
647.991	2676.08333
651.737	2697.75
655.481	2647.41667
659.222	2672.41667
662.96	2658.41667
666.695	2658.41667
670.427	2694.41667
674.156	2701.41667
677.882	2706.75
681.605	2691.75
685.325	2669.75
689.043	2683.75
692.757	2662.75
696.468	2679.75
700.177	2701.08333
703.882	2685.41667
707.585	2681.75
711.284	2667.08333
714.981	2675.08333
718.675	2700.75
722.366	2708.08333
726.054	2687.75
729.739	2688.75
733.421	2693.41667
737.1	2692.75
740.777	2726.75
744.45	2743.08333
748.121	2757.08333
751.789	2814.41667
755.453	2810.08333
759.115	2810.75
762.774	2875.08333
766.431	2889.08333
770.084	2926.41667
773.734	2957.08333
777.382	2998.08333
781.027	3023.08333
784.669	3057.08333
788.308	3066.41667
791.944	3103.41667
795.577	3120.41667
799.208	3166.08333
802.835	3187.08333
806.46	3194.75
810.082	3213.41667
813.701	3215.08333
817.317	3234.75
820.931	3229.41667
824.542	3221.08333
828.149	3204.75
831.754	3156.75
835.357	3194.75
838.956	3170.75
842.553	3166.75
846.146	3154.41667
849.737	3153.41667
853.326	3159.41667
856.911	3175.75
860.493	3237.75
864.073	3259.08333
867.65	3308.75
871.225	3353.41667
874.796	3335.41667
878.365	3364.41667
881.931	3400.08333
885.494	3435.75
889.054	3447.41667
892.612	3446.41667
896.166	3437.75
899.719	3442.08333
903.268	3378.08333
906.814	3327.41667
910.358	3287.75
913.899	3276.41667
917.438	3268.41667
920.973	3251.08333
924.506	3268.41667
928.036	3331.41667
931.564	3363.41667
935.088	3362.41667
938.61	3381.08333
942.129	3446.41667
945.646	3479.75
949.16	3565.08333
952.671	3649.08333
956.179	3683.75
959.685	3610.08333
963.188	3611.75
966.688	3544.41667
970.185	3480.75
973.68	3403.41667
977.173	3425.75
980.662	3408.08333
984.149	3430.75
987.633	3435.75
991.114	3520.75
994.593	3607.41667
998.069	3739.75
1001.542	3810.75
1005.013	3756.08333
1008.481	3494.41667
1011.947	3473.75
1015.409	3424.08333
1018.869	3444.75
1022.327	3440.08333
1025.782	3429.41667
1029.234	3401.41667
1032.683	3379.08333
1036.13	3273.41667
1039.574	3140.75
1043.016	3065.75
1046.455	3006.41667
1049.891	2970.41667
1053.325	2948.41667
1056.756	2960.08333
1060.184	2996.75
1063.61	3017.75
1067.033	3021.75
1070.454	3012.08333
1073.872	3060.08333
1077.287	3050.41667
1080.7	3061.41667
1084.11	3094.75
1087.517	3053.41667
1090.922	3030.75
1094.325	2991.08333
1097.724	2976.41667
1101.122	2964.41667
1104.516	2957.75
1107.908	2948.41667
1111.298	2990.08333
1114.684	3047.08333
1118.069	3078.75
1121.45	3102.41667
1124.83	3082.75
1128.206	3128.41667
1131.58	3186.75
1134.951	3266.41667
1138.32	3381.41667
1141.687	3495.08333
1145.05	3591.75
1148.412	3579.08333
1151.77	3587.75
1155.126	3579.75
1158.48	3562.41667
1161.831	3608.08333
1165.18	3622.41667
1168.525	3664.75
1171.869	3729.75
1175.21	3757.75
1178.548	3773.41667
1181.884	3829.41667
1185.217	3858.75
1188.548	3928.75
1191.877	3974.41667
1195.202	4049.75
1198.526	4122.41667
1201.846	4134.41667
1205.165	4150.75
1208.48	4119.75
1211.794	4130.41667
1215.104	4116.08333
1218.413	4150.08333
1221.719	4127.41667
1225.022	4108.08333
1228.323	4045.08333
1231.621	4060.08333
1234.917	4036.08333
1238.21	4080.41667
1241.501	4043.41667
1244.79	4058.08333
1248.076	4092.41667
1251.359	4117.41667
1254.64	4201.75
1257.919	4190.75
1261.195	4293.75
1264.468	4348.08333
1267.74	4412.41667
1271.008	4410.75
1274.275	4406.75
1277.538	4342.75
1280.8	4333.75
1284.059	4329.75
1287.315	4366.75
1290.569	4387.75
1293.821	4419.41667
1297.07	4441.41667
1300.317	4448.41667
1303.562	4440.75
1306.803	4393.75
1310.043	4350.75
1313.28	4326.75
1316.515	4240.08333
1319.747	4189.08333
1322.977	4161.75
1326.204	4117.41667
1329.429	4069.75
1332.652	4040.41667
1335.872	4040.75
1339.09	4005.75
1342.306	3998.41667
1345.519	3976.08333
1348.729	3940.41667
1351.938	3916.41667
1355.144	3855.41667
1358.347	3815.75
1361.548	3814.41667
1364.747	3837.41667
1367.944	3794.75
1371.138	3822.75
1374.329	3879.41667
1377.518	3900.41667
1380.705	3947.08333
1383.89	3893.08333
1387.072	3806.41667
1390.252	3671.41667
1393.429	3564.41667
1396.605	3454.75
1399.777	3366.75
1402.948	3354.08333
1406.116	3316.08333
1409.282	3338.41667
1412.445	3341.41667
1415.606	3394.75
1418.765	3434.75
1421.921	3506.75
1425.075	3585.41667
1428.227	3695.08333
1431.376	3842.75
1434.524	3958.08333
1437.668	4062.08333
1440.811	4074.08333
1443.951	4128.08333
1447.089	4138.08333
1450.224	4112.08333
1453.357	4093.41667
1456.488	4048.08333
1459.617	3981.75
1462.743	3935.08333
1465.867	3814.75
1468.989	3761.08333
1472.108	3690.08333
1475.225	3631.08333
1478.34	3590.08333
1481.453	3593.08333
1484.563	3631.08333
1487.671	3661.75
1490.776	3702.08333
1493.88	3811.41667
1496.981	3853.41667
1500.08	3933.08333
1503.176	3997.08333
1506.271	4055.41667
1509.363	4092.41667
1512.452	4122.75
1515.54	4214.08333
1518.625	4288.08333
1521.708	4460.08333
1524.789	4587.41667
1527.867	4926.08333
1530.944	5213.75
1534.018	5487.41667
1537.089	5697.41667
1540.159	5764.08333
1543.226	5707.08333
1546.291	5553.08333
1549.354	5375.75
1552.415	5202.08333
1555.473	5038.41667
1558.529	4938.08333
1561.583	4868.75
1564.634	4800.08333
1567.684	4800.75
1570.731	4780.08333
1573.776	4804.41667
1576.819	4797.75
1579.859	4827.08333
1582.898	4873.41667
1585.934	4904.75
1588.968	4923.41667
1591.999	4927.75
1595.029	4926.08333
1598.056	4932.08333
1601.081	4944.08333
1604.104	4952.75
1607.125	4871.08333
1610.144	4796.08333
1613.16	4696.75
1616.174	4561.08333
1619.186	4441.08333
1622.196	4350.08333
1625.203	4240.75
1628.209	4202.08333
1631.212	4149.75
1634.213	4102.08333
1637.212	4073.08333
1640.209	4020.75
1643.203	3890.08333
1646.196	3763.75
1649.186	3662.08333
1652.174	3547.41667
1655.16	3486.41667
1658.144	3380.08333
1661.125	3192.08333
1664.105	3078.75
1667.082	2951.41667
1670.057	2777.08333
1673.03	2606.08333
1676.001	2468.75
1678.97	2293.41667
1681.937	2152.08333
1684.901	2027.41667
1687.863	1975.75
1690.824	1881.08333
1693.782	1862.75
1696.738	1784.75
1699.692	1738.41667
1702.643	1697.08333
1705.593	1684.41667
1708.54	1657.41667
1711.486	1661.75
1714.429	1611.75
1717.37	1595.41667
1720.309	1569.75
1723.246	1575.75
1726.181	1553.08333
1729.113	1554.08333
1732.044	1514.41667
1734.972	1504.08333
1737.899	1502.75
1740.823	1506.41667
1743.745	1492.41667
1746.665	1439.75
1749.583	1424.41667
1752.499	1406.08333
1755.413	1393.08333
1758.325	1360.41667
1761.235	1347.08333
1764.142	1325.75
1767.048	1314.41667
1769.951	1294.75
1772.852	1290.41667
1775.752	1285.75
1778.649	1290.75
1781.544	1299.08333
1784.437	1254.75
1787.328	1266.08333
1790.217	1258.75
1793.104	1235.75
1795.989	1213.41667
1798.872	1214.41667
1801.753	1229.41667
1804.631	1236.75
1807.508	1228.08333
1810.383	1230.08333
1813.255	1203.41667
1816.126	1224.75
1818.994	1201.08333
1821.861	1197.41667
1824.725	1185.08333
1827.587	1190.75
1830.448	1182.41667
1833.306	1138.75
1836.162	1159.75
1839.017	1153.41667
1841.869	1161.75
1844.719	1151.41667
1847.567	1132.75
1850.414	1129.41667
1853.258	1128.08333
1856.1	1147.08333
1858.94	1155.08333
1861.778	1134.41667
1864.614	1135.08333
1867.448	1130.41667
1870.28	1128.08333
1873.111	1129.08333
1875.939	1131.41667
1878.765	1142.41667
1881.589	1117.41667
1884.411	1119.41667
1887.231	1135.08333
1890.049	1118.41667
1892.865	1119.08333
1895.68	1101.41667
1898.492	1100.41667
1901.302	1086.41667
1904.11	1094.41667
1906.916	1080.41667
1909.721	1077.08333
1912.523	1087.08333
1915.323	1059.75
1918.122	1076.41667
1920.918	1077.75
1923.712	1049.08333
1926.505	1068.41667
1929.295	1058.75
1932.084	1075.75
1934.87	1084.41667
1937.655	1059.08333
1940.438	1042.75
1943.218	1043.41667
1945.997	1052.41667
1948.774	1072.08333
1951.549	1062.41667
1954.322	1057.41667
1957.093	1054.75
1959.862	1043.75
1962.629	1038.08333
1965.394	1024.41667
1968.157	1016.41667
1970.918	1033.08333
1973.678	1017.08333
1976.435	1025.41667
1979.19	1019.41667
1981.944	1010.75
1984.696	1011.75
1987.445	1000.41667
1990.193	1011.75
1992.939	1021.08333
1995.683	1005.75
1998.425	988.08333
2001.165	1005.75
2003.903	1003.08333
2006.639	991.75
2009.374	993.08333
2012.106	996.08333
2014.837	979.41667
2017.566	993.75
2020.292	1003.41667
2023.017	996.08333
2025.74	991.75
2028.461	974.08333
2031.18	975.41667
2033.898	967.08333
2036.613	987.75
2039.327	983.08333
2042.038	965.75
2044.748	958.41667
2047.456	968.08333
2050.162	961.08333
2052.866	944.41667
2055.568	962.08333
2058.268	951.75
2060.967	977.41667
2063.663	953.75
2066.358	945.75
2069.051	946.41667
2071.742	956.08333
2074.431	963.41667
2077.118	964.08333
2079.804	947.75
2082.487	952.08333
2085.169	960.08333
2087.849	991.08333
2090.527	971.75
2093.203	989.41667
2095.877	1000.41667
2098.55	1009.75
2101.22	1027.41667
2103.889	1051.08333
2106.556	1056.75
2109.221	1132.75
2111.884	1183.75
2114.546	1303.08333
2117.205	1407.08333
2119.863	1574.75
2122.519	1700.75
2125.173	1822.41667
2127.825	1918.41667
2130.475	1927.08333
2133.124	1856.41667
2135.771	1784.75
2138.416	1698.41667
2141.059	1556.41667
2143.7	1476.08333
2146.339	1387.75
2148.977	1298.41667
2151.613	1248.75
2154.247	1210.41667
2156.879	1182.08333
2159.51	1137.41667
2162.138	1109.75
2164.765	1091.08333
2167.39	1068.08333
2170.013	1084.41667
2172.634	1066.41667
2175.254	1049.41667
2177.872	1055.41667
2180.488	998.75
2183.102	1002.41667
2185.714	989.41667
2188.325	967.41667
2190.934	982.41667
2193.541	953.08333
2196.146	933.75
2198.75	918.41667
2201.351	919.41667
2203.951	887.41667
2206.549	902.41667
2209.146	894.75
2211.74	882.08333
2214.333	878.75
2216.924	854.75
2219.514	859.41667
2222.101	850.08333
2224.687	870.75
2227.271	844.75
2229.853	833.08333
2232.433	836.08333
2235.012	856.41667
2237.589	839.08333
2240.164	847.75
2242.738	840.41667
2245.309	821.75
2247.879	817.08333
2250.448	830.75
2253.014	798.75
2255.579	785.41667
2258.142	792.75
2260.703	781.41667
2263.262	777.08333
2265.82	784.75
2268.376	773.75
2270.93	756.75
2273.483	756.41667
2276.033	758.41667
2278.583	755.08333
2281.13	749.75
2283.675	737.75
2286.219	757.41667
2288.761	741.75
2291.302	758.75
2293.841	763.08333
2296.377	726.08333
2298.913	735.75
2301.446	743.08333
2303.978	739.08333
2306.508	739.75
2309.037	709.08333
2311.563	727.75
2314.088	732.08333
2316.612	712.08333
2319.133	724.08333
2321.653	724.08333
2324.171	704.08333
2326.688	734.75
2329.202	699.08333
2331.715	705.08333
2334.227	709.08333
2336.736	701.75
2339.244	699.75
2341.751	683.08333
2344.255	715.75
2346.758	693.75
2349.259	694.41667
2351.759	694.75
2354.257	679.08333
2356.753	684.41667
2359.247	689.41667
2361.74	685.41667
2364.231	674.41667
2366.721	680.75
2369.209	676.75
2371.695	676.08333
2374.179	671.08333
2376.662	674.75
2379.143	688.75
2381.622	670.41667
2384.1	676.08333
2386.576	672.08333
2389.051	683.08333
2391.524	682.41667
2393.995	685.41667
2396.464	667.75
2398.932	650.08333
2401.398	663.75
2403.863	665.75
2406.325	663.41667
2408.787	654.75
2411.246	662.08333
2413.704	650.75
2416.16	649.41667
2418.615	660.41667
2421.068	667.41667
2423.519	656.75
2425.969	646.08333
2428.417	655.08333
2430.863	676.41667
2433.308	659.41667
2435.751	660.41667
2438.193	643.08333
2440.633	661.41667
2443.071	649.75
2445.508	634.08333
2447.943	635.08333
2450.376	634.08333
2452.808	640.75
2455.238	638.75
2457.667	661.41667
2460.093	633.08333
2462.519	624.75
2464.942	626.75
2467.365	642.75
2469.785	636.41667
2472.204	636.41667
2474.621	626.75
2477.037	637.08333
2479.451	613.41667
2481.863	621.41667
2484.274	616.75
2486.683	633.75
2489.091	636.41667
2491.497	620.75
2493.901	626.41667
2496.304	620.75
2498.705	619.75
2501.105	624.08333
2503.503	645.41667
2505.899	608.75
2508.294	638.75
2510.687	607.41667
2513.079	610.08333
2515.469	611.08333
2517.858	611.08333
2520.245	633.41667
2522.63	605.75
2525.014	605.41667
2527.396	609.75
2529.776	608.75
2532.156	609.41667
2534.533	593.75
2536.909	597.08333
2539.283	597.75
2541.656	591.41667
2544.027	622.08333
2546.397	613.08333
2548.765	591.08333
2551.131	595.75
2553.496	592.75
2555.86	613.08333
2558.221	604.41667
2560.582	592.08333
2562.94	584.75
2565.298	600.41667
2567.653	609.75
2570.007	585.75
2572.36	598.08333
2574.711	583.41667
2577.06	605.75
2579.408	597.41667
2581.754	596.75
2584.099	594.75
2586.442	591.41667
2588.784	601.08333
2591.124	604.41667
2593.463	589.41667
2595.8	598.41667
2598.135	581.75
2600.469	593.41667
2602.802	605.41667
2605.133	610.75
2607.462	591.75
2609.79	586.08333
2612.116	591.41667
2614.441	591.08333
2616.764	592.08333
2619.086	581.08333
2621.406	584.41667
2623.725	594.41667
2626.042	587.41667
2628.358	587.08333
2630.672	587.75
2632.985	606.75
2635.296	598.75
2637.606	602.08333
2639.914	581.41667
2642.22	592.08333
2644.525	604.75
2646.829	600.41667
2649.131	613.75
2651.432	605.41667
2653.731	596.41667
2656.028	604.75
2658.324	605.41667
2660.619	587.08333
2662.912	616.08333
2665.204	600.75
2667.494	616.08333
2669.782	609.41667
2672.07	615.08333
2674.355	620.75
2676.639	619.08333
2678.922	602.08333
2681.203	616.75
2683.483	588.75
2685.761	591.75
2688.038	605.08333
2690.313	626.08333
2692.587	610.75
2694.859	613.41667
2697.13	615.08333
2699.399	632.75
2701.667	642.41667
2703.933	645.75
2706.198	643.08333
2708.461	642.41667
2710.723	642.08333
2712.984	646.41667
2715.243	658.41667
2717.5	648.41667
2719.757	662.75
2722.011	645.41667
2724.264	664.08333
2726.516	683.41667
2728.766	667.75
2731.015	665.08333
2733.262	661.41667
2735.508	672.08333
2737.753	659.08333
2739.996	647.75
2742.237	646.75
2744.477	657.41667
2746.716	656.41667
2748.953	649.41667
2751.189	649.75
2753.423	638.41667
2755.656	637.08333
2757.887	626.08333
2760.117	629.08333
2762.346	634.75
2764.573	634.08333
2766.798	627.75
2769.022	645.08333
2771.245	632.41667
2773.467	642.08333
2775.686	640.75
2777.905	654.08333
2780.122	664.08333
2782.337	664.75
2784.552	661.75
2786.764	667.75
2788.976	674.41667
2791.186	683.75
2793.394	698.75
2795.601	702.75
2797.807	710.08333
2800.011	711.08333
2802.214	724.75
2804.415	741.08333
2806.615	736.75
2808.814	756.41667
2811.011	781.75
2813.206	773.08333
2815.401	785.75
2817.594	794.75
2819.785	817.41667
2821.975	810.08333
2824.164	806.08333
2826.351	856.75
2828.537	865.08333
2830.722	869.41667
2832.905	886.08333
2835.086	922.08333
2837.267	947.08333
2839.445	993.75
2841.623	996.41667
2843.799	1043.75
2845.974	1079.41667
2848.147	1124.75
2850.319	1164.08333
2852.489	1188.41667
2854.659	1193.75
2856.826	1231.08333
2858.993	1253.41667
2861.158	1228.75
2863.321	1229.75
2865.483	1255.41667
2867.644	1248.75
2869.804	1244.75
2871.962	1234.08333
2874.118	1236.41667
2876.274	1235.41667
2878.428	1227.41667
2880.58	1217.08333
2882.731	1216.08333
2884.881	1224.75
2887.03	1215.41667
2889.177	1218.41667
2891.322	1245.41667
2893.467	1235.75
2895.61	1234.75
2897.751	1259.75
2899.892	1241.75
2902.03	1251.75
2904.168	1266.75
2906.304	1258.41667
2908.439	1284.08333
2910.572	1261.75
2912.704	1279.41667
2914.835	1290.75
2916.965	1272.08333
2919.093	1272.75
2921.219	1253.41667
2923.345	1251.75
2925.469	1229.08333
2927.591	1216.75
2929.712	1184.75
2931.832	1164.75
2933.951	1134.41667
2936.068	1110.75
2938.184	1093.75
2940.299	1054.41667
2942.412	1024.41667
2944.524	988.75
2946.634	972.75
2948.744	914.08333
2950.851	939.08333
2952.958	880.08333
2955.063	882.08333
2957.167	854.75
2959.269	826.75
2961.371	839.41667
2963.471	793.75
2965.569	790.08333
2967.666	757.75
2969.762	742.75
2971.857	729.08333
2973.95	708.41667
2976.042	700.75
2978.133	679.41667
2980.222	660.08333
2982.31	645.08333
2984.396	616.41667
2986.482	614.41667
2988.566	616.75
2990.648	609.75
2992.73	596.08333
2994.81	592.41667
2996.889	589.41667
2998.966	572.08333
3001.042	575.75
3003.117	575.41667
3005.191	569.08333
3007.263	563.41667
3009.334	554.08333
3011.403	539.75
3013.472	519.75
3015.539	531.75
3017.604	537.41667
3019.669	487.75
3021.732	504.08333
3023.794	496.75
3025.854	485.75
3027.914	487.41667
3029.971	495.75
3032.028	482.75
3034.083	483.41667
3036.137	484.41667
3038.19	473.08333
3040.242	445.41667
3042.292	436.41667
3044.341	438.75
3046.388	451.75
3048.435	417.41667
3050.48	448.41667
3052.524	434.41667
3054.566	411.41667
3056.607	422.41667
3058.647	416.08333
3060.686	390.75
3062.723	374.75
3064.759	367.08333
3066.794	0.41667
3068.828	-0.91667
3070.86	-2.25
