-0.839	396.20833
3.438	418.20833
7.711	124.54167
11.981	55.54167
16.247	46.54167
20.509	44.54167
24.768	47.54167
29.024	45.875
33.276	44.20833
37.524	51.54167
41.769	44.875
46.01	36.875
50.247	51.20833
54.481	62.875
58.712	67.20833
62.939	48.54167
67.162	60.54167
71.382	58.54167
75.599	50.875
79.812	68.54167
84.021	84.20833
88.227	60.20833
92.429	64.875
96.628	51.875
100.823	69.54167
105.015	75.54167
109.204	78.875
113.388	82.20833
117.57	72.54167
121.748	90.54167
125.922	87.20833
130.093	104.20833
134.261	112.875
138.425	103.54167
142.585	142.20833
146.742	143.20833
150.896	163.20833
155.046	209.875
159.193	328.54167
163.336	558.20833
167.476	1010.54167
171.613	1906.20833
175.746	3212.54167
179.875	4850.54167
184.002	6310.20833
188.124	7426.20833
192.244	7762.20833
196.36	7736.54167
200.472	7557.20833
204.581	7351.20833
208.687	7171.875
212.79	7144.54167
216.889	7177.875
220.984	7234.875
225.077	7359.875
229.165	7433.54167
233.251	7493.54167
237.333	7491.54167
241.412	7452.54167
245.487	7426.20833
249.559	7337.875
253.628	7294.54167
257.694	7209.875
261.756	7160.875
265.814	7025.54167
269.87	6867.20833
273.922	6716.20833
277.97	6690.20833
282.016	6706.875
286.058	6773.54167
290.097	6878.20833
294.132	6929.875
298.164	6816.54167
302.193	6491.875
306.219	6006.20833
310.241	5484.20833
314.26	4962.875
318.276	4557.20833
322.288	4226.20833
326.297	3941.875
330.303	3763.20833
334.305	3664.54167
338.305	3549.20833
342.301	3497.20833
346.294	3458.875
350.283	3440.54167
354.269	3406.875
358.252	3373.875
362.232	3351.20833
366.209	3333.20833
370.182	3283.20833
374.152	3263.20833
378.119	3264.875
382.083	3259.20833
386.043	3264.54167
390	3221.54167
393.954	3211.20833
397.905	3172.20833
401.852	3137.20833
405.797	3114.54167
409.738	3067.875
413.676	3044.20833
417.61	3012.20833
421.542	3002.20833
425.47	2963.20833
429.396	2938.54167
433.318	2946.20833
437.236	2902.54167
441.152	2913.875
445.065	2865.20833
448.974	2872.20833
452.88	2827.54167
456.783	2818.875
460.683	2795.54167
464.58	2815.875
468.473	2810.54167
472.364	2836.54167
476.251	2820.20833
480.135	2863.875
484.016	2878.875
487.894	2904.875
491.769	2899.20833
495.641	2914.54167
499.509	2903.20833
503.375	2901.875
507.237	2895.54167
511.096	2901.875
514.952	2887.20833
518.805	2903.54167
522.655	2923.20833
526.502	2867.875
530.346	2866.20833
534.187	2863.20833
538.024	2877.20833
541.859	2881.54167
545.69	2903.54167
549.519	2865.875
553.344	2838.875
557.166	2801.20833
560.985	2787.20833
564.802	2766.875
568.615	2699.20833
572.425	2679.20833
576.232	2645.54167
580.036	2635.54167
583.836	2668.20833
587.634	2669.875
591.429	2662.875
595.221	2703.875
599.01	2727.875
602.796	2764.20833
606.578	2777.54167
610.358	2798.875
614.135	2763.54167
617.909	2752.875
621.679	2765.875
625.447	2728.54167
629.212	2734.20833
632.973	2745.875
636.732	2751.875
640.488	2738.54167
644.241	2701.875
647.991	2714.54167
651.737	2715.875
655.481	2675.54167
659.222	2685.54167
662.96	2677.20833
666.695	2717.20833
670.427	2715.875
674.156	2719.54167
677.882	2733.20833
681.605	2727.20833
685.325	2715.875
689.043	2735.875
692.757	2708.875
696.468	2697.54167
700.177	2730.20833
703.882	2713.54167
707.585	2693.54167
711.284	2703.875
714.981	2710.875
718.675	2735.54167
722.366	2750.20833
726.054	2729.20833
729.739	2730.54167
733.421	2740.20833
737.1	2741.875
740.777	2751.875
744.45	2781.54167
748.121	2789.20833
751.789	2854.20833
755.453	2854.875
759.115	2852.20833
762.774	2888.20833
766.431	2919.54167
770.084	2942.54167
773.734	2982.20833
777.382	3027.875
781.027	3061.875
784.669	3074.875
788.308	3105.875
791.944	3153.54167
795.577	3147.20833
799.208	3206.20833
802.835	3194.20833
806.46	3198.875
810.082	3248.875
813.701	3227.875
817.317	3277.875
820.931	3263.54167
824.542	3273.875
828.149	3235.875
831.754	3225.875
835.357	3217.875
838.956	3223.875
842.553	3193.20833
846.146	3208.875
849.737	3186.20833
853.326	3200.54167
856.911	3221.20833
860.493	3277.54167
864.073	3297.54167
867.65	3332.20833
871.225	3367.20833
874.796	3386.20833
878.365	3401.20833
881.931	3445.875
885.494	3484.875
889.054	3472.54167
892.612	3482.54167
896.166	3490.54167
899.719	3460.20833
903.268	3403.54167
906.814	3373.20833
910.358	3332.875
913.899	3289.875
917.438	3327.875
920.973	3298.54167
924.506	3337.54167
928.036	3377.20833
931.564	3398.875
935.088	3459.54167
938.61	3428.875
942.129	3493.875
945.646	3561.54167
949.16	3684.54167
952.671	3729.20833
956.179	3732.20833
959.685	3713.875
963.188	3665.20833
966.688	3605.20833
970.185	3516.54167
973.68	3455.54167
977.173	3449.54167
980.662	3411.20833
984.149	3448.54167
987.633	3437.54167
991.114	3491.54167
994.593	3621.54167
998.069	3718.875
1001.542	3811.20833
1005.013	3749.20833
1008.481	3530.875
1011.947	3468.875
1015.409	3470.875
1018.869	3465.20833
1022.327	3448.54167
1025.782	3446.20833
1029.234	3475.875
1032.683	3434.875
1036.13	3302.20833
1039.574	3186.875
1043.016	3102.20833
1046.455	3040.20833
1049.891	3005.54167
1053.325	3015.54167
1056.756	3026.54167
1060.184	3050.20833
1063.61	3083.54167
1067.033	3081.54167
1070.454	3045.54167
1073.872	3120.875
1077.287	3108.20833
1080.7	3120.20833
1084.11	3105.54167
1087.517	3091.20833
1090.922	3055.54167
1094.325	3031.20833
1097.724	2990.875
1101.122	3000.875
1104.516	2995.20833
1107.908	2973.20833
1111.298	3065.875
1114.684	3089.20833
1118.069	3121.20833
1121.45	3157.54167
1124.83	3170.875
1128.206	3168.875
1131.58	3228.54167
1134.951	3313.54167
1138.32	3408.54167
1141.687	3538.54167
1145.05	3620.875
1148.412	3636.54167
1151.77	3638.875
1155.126	3615.875
1158.48	3612.20833
1161.831	3661.875
1165.18	3657.54167
1168.525	3713.875
1171.869	3770.875
1175.21	3807.54167
1178.548	3857.20833
1181.884	3866.54167
1185.217	3892.875
1188.548	3984.875
1191.877	4044.54167
1195.202	4139.20833
1198.526	4183.54167
1201.846	4206.875
1205.165	4228.875
1208.48	4216.54167
1211.794	4171.20833
1215.104	4204.20833
1218.413	4205.54167
1221.719	4203.20833
1225.022	4177.20833
1228.323	4151.875
1231.621	4106.54167
1234.917	4133.875
1238.21	4137.54167
1241.501	4107.20833
1244.79	4139.875
1248.076	4124.20833
1251.359	4167.54167
1254.64	4239.20833
1257.919	4283.54167
1261.195	4343.875
1264.468	4410.54167
1267.74	4460.54167
1271.008	4484.54167
1274.275	4472.20833
1277.538	4416.20833
1280.8	4413.20833
1284.059	4434.20833
1287.315	4479.54167
1290.569	4461.875
1293.821	4515.875
1297.07	4535.875
1300.317	4550.20833
1303.562	4544.875
1306.803	4484.54167
1310.043	4434.54167
1313.28	4380.20833
1316.515	4346.54167
1319.747	4294.20833
1322.977	4243.20833
1326.204	4179.20833
1329.429	4145.20833
1332.652	4118.54167
1335.872	4084.20833
1339.09	4051.54167
1342.306	4077.875
1345.519	4014.875
1348.729	4010.875
1351.938	3961.875
1355.144	3920.20833
1358.347	3901.54167
1361.548	3889.875
1364.747	3927.54167
1367.944	3887.875
1371.138	3928.875
1374.329	3960.54167
1377.518	4020.875
1380.705	4072.54167
1383.89	4020.20833
1387.072	3905.875
1390.252	3780.20833
1393.429	3662.875
1396.605	3549.20833
1399.777	3455.54167
1402.948	3415.875
1406.116	3394.54167
1409.282	3413.54167
1412.445	3448.54167
1415.606	3473.54167
1418.765	3541.875
1421.921	3591.54167
1425.075	3673.20833
1428.227	3808.20833
1431.376	3927.875
1434.524	4074.54167
1437.668	4143.875
1440.811	4188.20833
1443.951	4201.20833
1447.089	4183.20833
1450.224	4227.20833
1453.357	4180.20833
1456.488	4130.875
1459.617	4055.875
1462.743	3994.54167
1465.867	3912.20833
1468.989	3850.54167
1472.108	3789.54167
1475.225	3726.875
1478.34	3663.875
1481.453	3664.20833
1484.563	3680.875
1487.671	3723.875
1490.776	3811.54167
1493.88	3886.875
1496.981	3981.20833
1500.08	4045.20833
1503.176	4099.875
1506.271	4136.20833
1509.363	4226.20833
1512.452	4274.54167
1515.54	4381.54167
1518.625	4457.20833
1521.708	4620.20833
1524.789	4808.54167
1527.867	5102.875
1530.944	5424.54167
1534.018	5709.54167
1537.089	5920.20833
1540.159	5962.54167
1543.226	5870.54167
1546.291	5703.20833
1549.354	5525.20833
1552.415	5307.875
1555.473	5175.54167
1558.529	5077.54167
1561.583	4966.875
1564.634	4920.54167
1567.684	4917.54167
1570.731	4882.875
1573.776	4903.875
1576.819	4924.875
1579.859	4956.875
1582.898	5016.20833
1585.934	5030.875
1588.968	5020.54167
1591.999	5043.20833
1595.029	5028.54167
1598.056	5071.54167
1601.081	5066.20833
1604.104	5049.54167
1607.125	5009.875
1610.144	4904.20833
1613.16	4757.54167
1616.174	4648.20833
1619.186	4530.875
1622.196	4410.54167
1625.203	4293.20833
1628.209	4213.20833
1631.212	4162.54167
1634.213	4111.20833
1637.212	4079.875
1640.209	4028.20833
1643.203	3908.20833
1646.196	3815.875
1649.186	3685.54167
1652.174	3613.875
1655.16	3489.875
1658.144	3384.54167
1661.125	3240.54167
1664.105	3115.875
1667.082	2984.875
1670.057	2833.875
1673.03	2638.875
1676.001	2493.875
1678.97	2312.54167
1681.937	2186.20833
1684.901	2071.54167
1687.863	1997.20833
1690.824	1913.875
1693.782	1879.20833
1696.738	1822.20833
1699.692	1784.875
1702.643	1738.875
1705.593	1724.20833
1708.54	1698.20833
1711.486	1680.20833
1714.429	1642.875
1717.37	1626.20833
1720.309	1588.875
1723.246	1608.54167
1726.181	1556.20833
1729.113	1553.875
1732.044	1544.54167
1734.972	1538.875
1737.899	1527.20833
1740.823	1520.20833
1743.745	1507.20833
1746.665	1469.54167
1749.583	1444.54167
1752.499	1434.20833
1755.413	1400.54167
1758.325	1361.875
1761.235	1369.20833
1764.142	1340.54167
1767.048	1320.875
1769.951	1308.875
1772.852	1305.875
1775.752	1296.54167
1778.649	1297.20833
1781.544	1286.20833
1784.437	1265.20833
1787.328	1289.875
1790.217	1267.20833
1793.104	1245.54167
1795.989	1230.20833
1798.872	1228.54167
1801.753	1247.20833
1804.631	1241.875
1807.508	1252.20833
1810.383	1231.875
1813.255	1227.54167
1816.126	1211.20833
1818.994	1211.54167
1821.861	1190.20833
1824.725	1211.54167
1827.587	1192.875
1830.448	1195.20833
1833.306	1162.20833
1836.162	1182.20833
1839.017	1168.20833
1841.869	1181.54167
1844.719	1150.875
1847.567	1155.20833
1850.414	1146.875
1853.258	1150.20833
1856.1	1168.54167
1858.94	1175.20833
1861.778	1156.20833
1864.614	1130.20833
1867.448	1154.875
1870.28	1126.875
1873.111	1151.20833
1875.939	1138.54167
1878.765	1151.20833
1881.589	1142.20833
1884.411	1139.20833
1887.231	1141.20833
1890.049	1133.54167
1892.865	1112.875
1895.68	1110.54167
1898.492	1111.20833
1901.302	1111.20833
1904.11	1105.875
1906.916	1101.54167
1909.721	1092.20833
1912.523	1098.54167
1915.323	1070.20833
1918.122	1075.54167
1920.918	1091.875
1923.712	1078.20833
1926.505	1091.54167
1929.295	1061.54167
1932.084	1086.875
1934.87	1080.20833
1937.655	1064.54167
1940.438	1048.20833
1943.218	1075.875
1945.997	1073.875
1948.774	1072.54167
1951.549	1072.54167
1954.322	1056.875
1957.093	1063.54167
1959.862	1050.54167
1962.629	1054.20833
1965.394	1035.54167
1968.157	1030.20833
1970.918	1034.875
1973.678	1027.875
1976.435	1038.54167
1979.19	1034.54167
1981.944	1014.54167
1984.696	1022.875
1987.445	999.875
1990.193	1015.20833
1992.939	1036.20833
1995.683	1008.54167
1998.425	988.875
2001.165	1032.875
2003.903	1024.20833
2006.639	993.20833
2009.374	990.20833
2012.106	998.54167
2014.837	971.875
2017.566	1003.54167
2020.292	1016.20833
2023.017	1009.54167
2025.74	990.20833
2028.461	979.20833
2031.18	988.20833
2033.898	974.54167
2036.613	996.20833
2039.327	978.54167
2042.038	969.20833
2044.748	977.20833
2047.456	975.20833
2050.162	963.875
2052.866	961.20833
2055.568	973.875
2058.268	961.20833
2060.967	961.54167
2063.663	950.875
2066.358	953.875
2069.051	950.20833
2071.742	961.54167
2074.431	965.54167
2077.118	949.875
2079.804	947.20833
2082.487	963.54167
2085.169	974.54167
2087.849	978.875
2090.527	975.875
2093.203	978.875
2095.877	991.54167
2098.55	1006.54167
2101.22	1025.20833
2103.889	1048.20833
2106.556	1047.875
2109.221	1103.875
2111.884	1151.875
2114.546	1270.54167
2117.205	1375.875
2119.863	1517.54167
2122.519	1629.54167
2125.173	1764.875
2127.825	1848.875
2130.475	1851.875
2133.124	1794.20833
2135.771	1707.20833
2138.416	1628.54167
2141.059	1491.20833
2143.7	1428.875
2146.339	1321.20833
2148.977	1249.20833
2151.613	1204.875
2154.247	1168.54167
2156.879	1128.875
2159.51	1093.20833
2162.138	1063.875
2164.765	1058.54167
2167.39	1035.20833
2170.013	1028.875
2172.634	1023.54167
2175.254	991.20833
2177.872	1031.20833
2180.488	964.54167
2183.102	987.875
2185.714	954.54167
2188.325	920.875
2190.934	936.875
2193.541	930.20833
2196.146	920.875
2198.75	889.20833
2201.351	899.20833
2203.951	874.875
2206.549	907.20833
2209.146	877.54167
2211.74	866.20833
2214.333	865.875
2216.924	846.54167
2219.514	855.875
2222.101	836.20833
2224.687	853.875
2227.271	836.54167
2229.853	818.20833
2232.433	817.875
2235.012	828.20833
2237.589	821.20833
2240.164	832.20833
2242.738	812.20833
2245.309	816.875
2247.879	820.875
2250.448	814.54167
2253.014	785.20833
2255.579	777.20833
2258.142	777.54167
2260.703	768.54167
2263.262	756.54167
2265.82	760.875
2268.376	760.54167
2270.93	745.875
2273.483	749.875
2276.033	750.20833
2278.583	741.20833
2281.13	733.54167
2283.675	723.20833
2286.219	731.20833
2288.761	734.20833
2291.302	748.20833
2293.841	731.875
2296.377	704.875
2298.913	706.54167
2301.446	728.54167
2303.978	718.20833
2306.508	703.54167
2309.037	711.54167
2311.563	705.875
2314.088	723.54167
2316.612	686.20833
2319.133	707.54167
2321.653	693.875
2324.171	683.875
2326.688	690.875
2329.202	683.20833
2331.715	683.875
2334.227	683.54167
2336.736	686.54167
2339.244	670.54167
2341.751	658.54167
2344.255	670.875
2346.758	665.875
2349.259	659.20833
2351.759	666.54167
2354.257	663.875
2356.753	664.54167
2359.247	656.54167
2361.74	665.54167
2364.231	651.875
2366.721	672.20833
2369.209	657.20833
2371.695	651.54167
2374.179	642.875
2376.662	648.54167
2379.143	656.20833
2381.622	660.54167
2384.1	641.875
2386.576	630.875
2389.051	653.20833
2391.524	665.875
2393.995	646.875
2396.464	638.875
2398.932	630.54167
2401.398	631.20833
2403.863	628.20833
2406.325	632.20833
2408.787	637.20833
2411.246	632.54167
2413.704	613.54167
2416.16	605.875
2418.615	616.875
2421.068	616.875
2423.519	624.20833
2425.969	613.20833
2428.417	619.20833
2430.863	624.20833
2433.308	621.875
2435.751	620.20833
2438.193	617.20833
2440.633	618.875
2443.071	610.54167
2445.508	599.875
2447.943	602.20833
2450.376	597.875
2452.808	600.875
2455.238	596.54167
2457.667	627.54167
2460.093	584.20833
2462.519	580.54167
2464.942	583.875
2467.365	588.20833
2469.785	591.875
2472.204	596.54167
2474.621	569.875
2477.037	595.20833
2479.451	574.875
2481.863	571.20833
2484.274	567.20833
2486.683	573.54167
2489.091	584.875
2491.497	572.875
2493.901	564.20833
2496.304	567.20833
2498.705	582.875
2501.105	559.20833
2503.503	595.20833
2505.899	564.875
2508.294	585.20833
2510.687	555.875
2513.079	560.20833
2515.469	554.20833
2517.858	564.20833
2520.245	570.54167
2522.63	554.875
2525.014	547.20833
2527.396	546.54167
2529.776	554.54167
2532.156	547.54167
2534.533	530.20833
2536.909	547.20833
2539.283	541.20833
2541.656	541.54167
2544.027	560.54167
2546.397	546.54167
2548.765	527.875
2551.131	538.54167
2553.496	534.54167
2555.86	557.20833
2558.221	531.54167
2560.582	534.54167
2562.94	517.875
2565.298	525.875
2567.653	552.875
2570.007	524.54167
2572.36	527.20833
2574.711	527.54167
2577.06	546.54167
2579.408	522.875
2581.754	534.54167
2584.099	522.20833
2586.442	527.875
2588.784	537.20833
2591.124	531.20833
2593.463	520.20833
2595.8	521.875
2598.135	503.875
2600.469	517.54167
2602.802	535.54167
2605.133	526.875
2607.462	516.20833
2609.79	507.20833
2612.116	517.20833
2614.441	517.20833
2616.764	516.20833
2619.086	512.875
2621.406	511.20833
2623.725	528.875
2626.042	525.875
2628.358	513.20833
2630.672	515.875
2632.985	533.20833
2635.296	516.54167
2637.606	528.20833
2639.914	498.20833
2642.22	523.875
2644.525	516.20833
2646.829	522.20833
2649.131	541.875
2651.432	530.54167
2653.731	521.20833
2656.028	535.875
2658.324	527.875
2660.619	514.20833
2662.912	529.20833
2665.204	513.54167
2667.494	532.875
2669.782	522.54167
2672.07	534.54167
2674.355	537.875
2676.639	516.20833
2678.922	514.54167
2681.203	530.875
2683.483	509.20833
2685.761	518.20833
2688.038	533.875
2690.313	535.54167
2692.587	531.54167
2694.859	526.54167
2697.13	542.20833
2699.399	538.875
2701.667	550.20833
2703.933	549.54167
2706.198	547.20833
2708.461	557.20833
2710.723	561.20833
2712.984	555.54167
2715.243	559.875
2717.5	558.20833
2719.757	578.20833
2722.011	570.875
2724.264	585.20833
2726.516	601.20833
2728.766	581.20833
2731.015	583.875
2733.262	569.20833
2735.508	569.875
2737.753	575.20833
2739.996	558.20833
2742.237	555.54167
2744.477	572.875
2746.716	561.875
2748.953	541.54167
2751.189	558.20833
2753.423	551.20833
2755.656	532.20833
2757.887	536.54167
2760.117	541.54167
2762.346	528.54167
2764.573	526.54167
2766.798	536.54167
2769.022	550.20833
2771.245	546.20833
2773.467	538.20833
2775.686	554.875
2777.905	554.875
2780.122	554.54167
2782.337	563.20833
2784.552	561.20833
2786.764	571.20833
2788.976	590.54167
2791.186	596.20833
2793.394	602.20833
2795.601	616.20833
2797.807	616.875
2800.011	624.875
2802.214	649.54167
2804.415	634.875
2806.615	665.54167
2808.814	666.875
2811.011	676.54167
2813.206	677.54167
2815.401	706.875
2817.594	710.20833
2819.785	730.875
2821.975	720.54167
2824.164	740.54167
2826.351	759.20833
2828.537	781.875
2830.722	794.54167
2832.905	798.20833
2835.086	837.54167
2837.267	883.875
2839.445	914.54167
2841.623	939.54167
2843.799	978.54167
2845.974	1020.54167
2848.147	1058.54167
2850.319	1083.20833
2852.489	1128.54167
2854.659	1131.20833
2856.826	1174.20833
2858.993	1185.20833
2861.158	1159.54167
2863.321	1175.875
2865.483	1186.20833
2867.644	1192.875
2869.804	1182.875
2871.962	1184.54167
2874.118	1181.20833
2876.274	1165.875
2878.428	1151.20833
2880.58	1142.20833
2882.731	1143.875
2884.881	1137.20833
2887.03	1150.54167
2889.177	1137.20833
2891.322	1163.875
2893.467	1143.875
2895.61	1148.54167
2897.751	1178.20833
2899.892	1166.20833
2902.03	1177.875
2904.168	1185.20833
2906.304	1174.20833
2908.439	1207.875
2910.572	1175.875
2912.704	1200.20833
2914.835	1186.875
2916.965	1178.20833
2919.093	1200.20833
2921.219	1152.54167
2923.345	1164.875
2925.469	1127.54167
2927.591	1126.54167
2929.712	1090.54167
2931.832	1068.54167
2933.951	1053.54167
2936.068	1020.54167
2938.184	989.20833
2940.299	949.875
2942.412	922.54167
2944.524	873.875
2946.634	853.875
2948.744	798.20833
2950.851	813.875
2952.958	763.875
2955.063	742.20833
2957.167	725.54167
2959.269	692.875
2961.371	702.875
2963.471	657.20833
2965.569	668.20833
2967.666	624.875
2969.762	605.54167
2971.857	588.20833
2973.95	573.54167
2976.042	561.875
2978.133	545.54167
2980.222	531.20833
2982.31	502.875
2984.396	488.20833
2986.482	483.875
2988.566	481.54167
2990.648	457.875
2992.73	454.875
2994.81	433.20833
2996.889	440.875
2998.966	424.875
3001.042	434.875
3003.117	424.875
3005.191	418.54167
3007.263	425.20833
3009.334	406.54167
3011.403	404.875
3013.472	375.54167
3015.539	382.20833
3017.604	391.20833
3019.669	360.20833
3021.732	364.20833
3023.794	362.54167
3025.854	342.54167
3027.914	340.20833
3029.971	346.875
3032.028	335.20833
3034.083	333.20833
3036.137	333.875
3038.19	320.54167
3040.242	317.875
3042.292	299.54167
3044.341	294.54167
3046.388	319.875
3048.435	288.54167
3050.48	308.54167
3052.524	299.875
3054.566	267.20833
3056.607	286.875
3058.647	280.20833
3060.686	261.875
3062.723	253.20833
3064.759	248.20833
3066.794	0.54167
3068.828	-1.125
3070.86	-1.45833
