-0.839	403.45833
3.438	426.125
7.711	128.125
11.981	56.125
16.247	48.45833
20.509	44.125
24.768	46.79167
29.024	49.125
33.276	48.45833
37.524	51.45833
41.769	40.125
46.01	40.125
50.247	55.125
54.481	61.125
58.712	66.79167
62.939	53.79167
67.162	68.79167
71.382	62.125
75.599	51.125
79.812	65.45833
84.021	85.125
88.227	64.79167
92.429	66.79167
96.628	52.45833
100.823	72.125
105.015	78.79167
109.204	84.125
113.388	80.79167
117.57	77.125
121.748	94.45833
125.922	87.125
130.093	100.125
134.261	116.79167
138.425	104.125
142.585	148.125
146.742	150.125
150.896	171.45833
155.046	212.79167
159.193	321.45833
163.336	565.125
167.476	1040.45833
171.613	1925.45833
175.746	3241.79167
179.875	4865.79167
184.002	6404.125
188.124	7499.45833
192.244	7866.79167
196.36	7837.125
200.472	7634.79167
204.581	7430.79167
208.687	7284.79167
212.79	7208.125
216.889	7241.125
220.984	7357.79167
225.077	7420.45833
229.165	7525.79167
233.251	7601.125
237.333	7602.125
241.412	7567.45833
245.487	7489.125
249.559	7424.79167
253.628	7384.125
257.694	7319.125
261.756	7250.125
265.814	7097.125
269.87	6906.125
273.922	6813.125
277.97	6759.45833
282.016	6774.79167
286.058	6806.45833
290.097	6967.45833
294.132	7018.79167
298.164	6877.79167
302.193	6549.79167
306.219	6073.45833
310.241	5525.45833
314.26	5016.125
318.276	4571.79167
322.288	4259.79167
326.297	4010.45833
330.303	3807.125
334.305	3700.79167
338.305	3611.79167
342.301	3552.125
346.294	3498.45833
350.283	3487.125
354.269	3449.79167
358.252	3440.45833
362.232	3395.45833
366.209	3353.45833
370.182	3338.79167
374.152	3319.125
378.119	3319.45833
382.083	3321.79167
386.043	3356.45833
390	3302.125
393.954	3240.79167
397.905	3207.45833
401.852	3193.125
405.797	3167.79167
409.738	3110.79167
413.676	3128.45833
417.61	3073.79167
421.542	3042.45833
425.47	3017.79167
429.396	2970.45833
433.318	2979.45833
437.236	2977.45833
441.152	2974.125
445.065	2906.125
448.974	2911.125
452.88	2879.45833
456.783	2866.45833
460.683	2865.45833
464.58	2861.125
468.473	2866.79167
472.364	2873.125
476.251	2876.45833
480.135	2895.79167
484.016	2916.45833
487.894	2956.79167
491.769	2966.125
495.641	2966.79167
499.509	2970.125
503.375	2975.125
507.237	2968.79167
511.096	2980.79167
514.952	2947.45833
518.805	2968.79167
522.655	2966.45833
526.502	2900.79167
530.346	2897.79167
534.187	2917.45833
538.024	2921.45833
541.859	2902.45833
545.69	2936.79167
549.519	2922.45833
553.344	2889.125
557.166	2846.125
560.985	2818.79167
564.802	2778.79167
568.615	2769.79167
572.425	2728.45833
576.232	2717.45833
580.036	2695.45833
583.836	2704.125
587.634	2715.45833
591.429	2703.45833
595.221	2747.45833
599.01	2771.125
602.796	2818.125
606.578	2833.125
610.358	2851.45833
614.135	2836.79167
617.909	2830.125
621.679	2810.79167
625.447	2796.45833
629.212	2802.79167
632.973	2799.79167
636.732	2837.79167
640.488	2795.45833
644.241	2762.45833
647.991	2772.45833
651.737	2766.79167
655.481	2746.125
659.222	2749.125
662.96	2738.45833
666.695	2769.79167
670.427	2764.79167
674.156	2800.45833
677.882	2795.45833
681.605	2787.125
685.325	2759.45833
689.043	2764.125
692.757	2750.125
696.468	2752.45833
700.177	2770.79167
703.882	2764.79167
707.585	2761.79167
711.284	2771.45833
714.981	2766.45833
718.675	2790.45833
722.366	2820.79167
726.054	2779.79167
729.739	2781.45833
733.421	2777.79167
737.1	2766.79167
740.777	2805.79167
744.45	2840.45833
748.121	2836.79167
751.789	2888.125
755.453	2915.45833
759.115	2934.45833
762.774	2946.45833
766.431	2970.79167
770.084	3000.125
773.734	3033.125
777.382	3104.79167
781.027	3124.125
784.669	3143.125
788.308	3157.45833
791.944	3166.79167
795.577	3206.45833
799.208	3259.79167
802.835	3251.45833
806.46	3289.79167
810.082	3285.79167
813.701	3308.45833
817.317	3330.79167
820.931	3337.45833
824.542	3338.125
828.149	3313.79167
831.754	3291.125
835.357	3260.125
838.956	3274.79167
842.553	3255.45833
846.146	3230.79167
849.737	3241.45833
853.326	3236.79167
856.911	3227.79167
860.493	3339.125
864.073	3343.125
867.65	3412.79167
871.225	3438.45833
874.796	3424.79167
878.365	3460.125
881.931	3463.45833
885.494	3514.125
889.054	3478.79167
892.612	3558.125
896.166	3531.125
899.719	3503.79167
903.268	3456.45833
906.814	3405.79167
910.358	3366.45833
913.899	3336.79167
917.438	3349.79167
920.973	3324.125
924.506	3381.79167
928.036	3440.45833
931.564	3443.125
935.088	3480.45833
938.61	3499.125
942.129	3534.125
945.646	3609.79167
949.16	3703.45833
952.671	3773.45833
956.179	3801.79167
959.685	3735.125
963.188	3721.79167
966.688	3638.125
970.185	3573.79167
973.68	3509.45833
977.173	3498.125
980.662	3471.125
984.149	3529.79167
987.633	3500.45833
991.114	3584.45833
994.593	3658.79167
998.069	3772.45833
1001.542	3878.125
1005.013	3785.125
1008.481	3574.79167
1011.947	3498.45833
1015.409	3512.125
1018.869	3527.45833
1022.327	3528.45833
1025.782	3530.45833
1029.234	3526.45833
1032.683	3490.125
1036.13	3343.125
1039.574	3249.125
1043.016	3152.125
1046.455	3098.125
1049.891	3063.79167
1053.325	3054.45833
1056.756	3051.45833
1060.184	3065.45833
1063.61	3086.79167
1067.033	3092.45833
1070.454	3109.45833
1073.872	3157.125
1077.287	3158.45833
1080.7	3173.79167
1084.11	3173.79167
1087.517	3160.79167
1090.922	3120.79167
1094.325	3082.125
1097.724	3040.45833
1101.122	3038.125
1104.516	2988.45833
1107.908	3035.125
1111.298	3106.125
1114.684	3135.79167
1118.069	3156.79167
1121.45	3187.125
1124.83	3186.45833
1128.206	3218.45833
1131.58	3262.45833
1134.951	3343.125
1138.32	3471.125
1141.687	3588.125
1145.05	3665.79167
1148.412	3686.79167
1151.77	3656.45833
1155.126	3667.125
1158.48	3671.45833
1161.831	3681.79167
1165.18	3675.45833
1168.525	3785.79167
1171.869	3808.125
1175.21	3856.125
1178.548	3894.125
1181.884	3915.79167
1185.217	3936.45833
1188.548	4053.125
1191.877	4090.79167
1195.202	4176.125
1198.526	4282.45833
1201.846	4252.79167
1205.165	4258.79167
1208.48	4225.125
1211.794	4242.45833
1215.104	4256.45833
1218.413	4277.45833
1221.719	4258.79167
1225.022	4222.125
1228.323	4172.125
1231.621	4168.45833
1234.917	4157.125
1238.21	4207.125
1241.501	4190.79167
1244.79	4186.45833
1248.076	4182.45833
1251.359	4229.45833
1254.64	4324.45833
1257.919	4327.79167
1261.195	4376.125
1264.468	4476.125
1267.74	4534.125
1271.008	4543.45833
1274.275	4513.45833
1277.538	4499.125
1280.8	4482.125
1284.059	4488.125
1287.315	4546.125
1290.569	4555.45833
1293.821	4581.125
1297.07	4588.45833
1300.317	4582.79167
1303.562	4575.125
1306.803	4552.79167
1310.043	4493.79167
1313.28	4456.79167
1316.515	4373.125
1319.747	4349.125
1322.977	4271.45833
1326.204	4258.125
1329.429	4199.79167
1332.652	4162.45833
1335.872	4177.125
1339.09	4152.79167
1342.306	4128.45833
1345.519	4118.125
1348.729	4035.79167
1351.938	4047.125
1355.144	3968.45833
1358.347	3947.79167
1361.548	3934.125
1364.747	3983.79167
1367.944	3954.79167
1371.138	3988.45833
1374.329	4040.45833
1377.518	4068.45833
1380.705	4114.79167
1383.89	4099.45833
1387.072	4013.125
1390.252	3847.45833
1393.429	3702.125
1396.605	3577.79167
1399.777	3491.45833
1402.948	3463.79167
1406.116	3458.125
1409.282	3469.45833
1412.445	3475.79167
1415.606	3529.125
1418.765	3592.79167
1421.921	3659.79167
1425.075	3735.45833
1428.227	3865.79167
1431.376	3986.125
1434.524	4116.79167
1437.668	4225.45833
1440.811	4259.125
1443.951	4253.45833
1447.089	4283.125
1450.224	4279.79167
1453.357	4211.79167
1456.488	4172.79167
1459.617	4139.79167
1462.743	4055.45833
1465.867	3960.79167
1468.989	3907.45833
1472.108	3814.79167
1475.225	3756.45833
1478.34	3717.79167
1481.453	3731.45833
1484.563	3739.45833
1487.671	3799.79167
1490.776	3839.125
1493.88	3915.79167
1496.981	4002.45833
1500.08	4074.79167
1503.176	4134.125
1506.271	4205.45833
1509.363	4262.45833
1512.452	4327.79167
1515.54	4395.79167
1518.625	4507.125
1521.708	4690.125
1524.789	4875.79167
1527.867	5152.79167
1530.944	5459.45833
1534.018	5782.125
1537.089	5968.125
1540.159	5994.79167
1543.226	5917.45833
1546.291	5769.125
1549.354	5586.79167
1552.415	5372.125
1555.473	5265.125
1558.529	5131.45833
1561.583	5052.79167
1564.634	4980.79167
1567.684	4921.45833
1570.731	4942.125
1573.776	4943.125
1576.819	4960.45833
1579.859	4993.125
1582.898	5033.45833
1585.934	5077.125
1588.968	5065.79167
1591.999	5070.45833
1595.029	5086.79167
1598.056	5100.79167
1601.081	5104.45833
1604.104	5091.45833
1607.125	5091.45833
1610.144	4968.79167
1613.16	4835.45833
1616.174	4717.45833
1619.186	4584.79167
1622.196	4449.125
1625.203	4326.45833
1628.209	4295.79167
1631.212	4233.45833
1634.213	4193.125
1637.212	4183.79167
1640.209	4088.45833
1643.203	3999.79167
1646.196	3898.79167
1649.186	3777.79167
1652.174	3684.79167
1655.16	3551.79167
1658.144	3463.45833
1661.125	3315.79167
1664.105	3188.45833
1667.082	3042.125
1670.057	2874.79167
1673.03	2713.45833
1676.001	2544.125
1678.97	2354.125
1681.937	2237.79167
1684.901	2094.125
1687.863	2018.125
1690.824	1937.45833
1693.782	1896.45833
1696.738	1852.125
1699.692	1816.79167
1702.643	1761.45833
1705.593	1746.79167
1708.54	1713.79167
1711.486	1702.125
1714.429	1674.79167
1717.37	1676.45833
1720.309	1633.125
1723.246	1630.45833
1726.181	1605.45833
1729.113	1609.45833
1732.044	1560.45833
1734.972	1574.125
1737.899	1562.79167
1740.823	1548.125
1743.745	1539.45833
1746.665	1483.79167
1749.583	1460.79167
1752.499	1445.125
1755.413	1428.45833
1758.325	1396.79167
1761.235	1401.79167
1764.142	1369.45833
1767.048	1361.125
1769.951	1337.45833
1772.852	1336.125
1775.752	1342.125
1778.649	1324.125
1781.544	1352.45833
1784.437	1294.79167
1787.328	1312.125
1790.217	1298.79167
1793.104	1263.125
1795.989	1260.125
1798.872	1270.45833
1801.753	1281.79167
1804.631	1273.125
1807.508	1270.45833
1810.383	1261.125
1813.255	1244.125
1816.126	1250.79167
1818.994	1239.79167
1821.861	1236.79167
1824.725	1241.45833
1827.587	1227.125
1830.448	1225.125
1833.306	1189.125
1836.162	1211.125
1839.017	1197.45833
1841.869	1197.79167
1844.719	1202.45833
1847.567	1189.45833
1850.414	1181.45833
1853.258	1176.79167
1856.1	1184.79167
1858.94	1192.79167
1861.778	1192.79167
1864.614	1173.125
1867.448	1167.79167
1870.28	1173.45833
1873.111	1197.125
1875.939	1168.45833
1878.765	1189.125
1881.589	1143.45833
1884.411	1162.125
1887.231	1173.125
1890.049	1159.125
1892.865	1152.79167
1895.68	1140.79167
1898.492	1155.125
1901.302	1116.79167
1904.11	1122.125
1906.916	1123.125
1909.721	1098.79167
1912.523	1119.79167
1915.323	1089.45833
1918.122	1097.125
1920.918	1108.79167
1923.712	1102.45833
1926.505	1116.79167
1929.295	1089.45833
1932.084	1106.125
1934.87	1093.79167
1937.655	1091.45833
1940.438	1083.45833
1943.218	1095.45833
1945.997	1094.45833
1948.774	1110.125
1951.549	1100.45833
1954.322	1078.125
1957.093	1072.45833
1959.862	1065.45833
1962.629	1086.79167
1965.394	1073.79167
1968.157	1056.125
1970.918	1075.79167
1973.678	1061.79167
1976.435	1062.79167
1979.19	1052.79167
1981.944	1041.45833
1984.696	1042.79167
1987.445	1026.79167
1990.193	1042.79167
1992.939	1052.79167
1995.683	1025.45833
1998.425	1014.125
2001.165	1039.79167
2003.903	1019.45833
2006.639	1018.125
2009.374	1020.125
2012.106	1019.45833
2014.837	1010.79167
2017.566	1022.79167
2020.292	1020.79167
2023.017	1013.45833
2025.74	1023.45833
2028.461	1001.79167
2031.18	1002.125
2033.898	1000.125
2036.613	1011.79167
2039.327	1006.45833
2042.038	980.125
2044.748	989.125
2047.456	994.125
2050.162	975.125
2052.866	979.79167
2055.568	1003.79167
2058.268	985.125
2060.967	988.79167
2063.663	972.45833
2066.358	980.79167
2069.051	980.125
2071.742	988.79167
2074.431	985.45833
2077.118	985.79167
2079.804	962.45833
2082.487	987.125
2085.169	1005.45833
2087.849	1003.45833
2090.527	1008.125
2093.203	1001.45833
2095.877	1026.79167
2098.55	1027.45833
2101.22	1048.45833
2103.889	1055.79167
2106.556	1073.79167
2109.221	1118.45833
2111.884	1178.125
2114.546	1293.45833
2117.205	1404.45833
2119.863	1545.79167
2122.519	1658.45833
2125.173	1780.79167
2127.825	1867.45833
2130.475	1865.79167
2133.124	1833.125
2135.771	1721.79167
2138.416	1646.45833
2141.059	1527.79167
2143.7	1451.45833
2146.339	1341.79167
2148.977	1262.45833
2151.613	1240.79167
2154.247	1184.45833
2156.879	1141.79167
2159.51	1120.79167
2162.138	1072.125
2164.765	1056.45833
2167.39	1043.125
2170.013	1055.79167
2172.634	1034.45833
2175.254	1020.125
2177.872	1036.125
2180.488	993.79167
2183.102	987.125
2185.714	973.45833
2188.325	953.45833
2190.934	949.79167
2193.541	948.79167
2196.146	930.79167
2198.75	911.125
2201.351	919.79167
2203.951	897.79167
2206.549	917.125
2209.146	893.45833
2211.74	881.125
2214.333	881.45833
2216.924	873.125
2219.514	860.45833
2222.101	861.125
2224.687	873.125
2227.271	840.45833
2229.853	849.45833
2232.433	822.125
2235.012	858.45833
2237.589	854.79167
2240.164	851.45833
2242.738	835.79167
2245.309	824.125
2247.879	824.79167
2250.448	823.79167
2253.014	813.45833
2255.579	794.79167
2258.142	800.79167
2260.703	775.79167
2263.262	774.45833
2265.82	773.45833
2268.376	778.79167
2270.93	756.125
2273.483	761.79167
2276.033	770.125
2278.583	757.125
2281.13	764.125
2283.675	742.45833
2286.219	747.45833
2288.761	746.79167
2291.302	747.125
2293.841	742.125
2296.377	715.45833
2298.913	728.45833
2301.446	747.125
2303.978	737.125
2306.508	717.125
2309.037	722.125
2311.563	716.79167
2314.088	736.45833
2316.612	706.79167
2319.133	718.125
2321.653	706.45833
2324.171	701.79167
2326.688	711.79167
2329.202	704.125
2331.715	698.45833
2334.227	690.45833
2336.736	694.125
2339.244	692.79167
2341.751	675.79167
2344.255	689.79167
2346.758	678.45833
2349.259	670.125
2351.759	680.125
2354.257	672.45833
2356.753	666.79167
2359.247	678.45833
2361.74	679.45833
2364.231	675.79167
2366.721	678.45833
2369.209	662.45833
2371.695	655.45833
2374.179	660.79167
2376.662	650.125
2379.143	676.45833
2381.622	663.79167
2384.1	656.79167
2386.576	656.79167
2389.051	670.79167
2391.524	668.125
2393.995	656.79167
2396.464	656.125
2398.932	648.45833
2401.398	638.125
2403.863	636.45833
2406.325	634.79167
2408.787	636.79167
2411.246	635.79167
2413.704	630.79167
2416.16	628.125
2418.615	639.79167
2421.068	638.79167
2423.519	641.125
2425.969	621.45833
2428.417	634.45833
2430.863	642.79167
2433.308	634.79167
2435.751	624.125
2438.193	623.125
2440.633	632.125
2443.071	625.79167
2445.508	616.125
2447.943	610.125
2450.376	606.79167
2452.808	618.45833
2455.238	599.79167
2457.667	622.125
2460.093	609.79167
2462.519	597.79167
2464.942	598.125
2467.365	598.125
2469.785	610.45833
2472.204	597.125
2474.621	588.125
2477.037	614.79167
2479.451	582.45833
2481.863	581.45833
2484.274	581.125
2486.683	580.45833
2489.091	589.125
2491.497	590.45833
2493.901	579.79167
2496.304	568.45833
2498.705	585.45833
2501.105	576.79167
2503.503	603.45833
2505.899	569.45833
2508.294	585.125
2510.687	571.125
2513.079	579.45833
2515.469	557.79167
2517.858	570.45833
2520.245	588.45833
2522.63	570.79167
2525.014	565.79167
2527.396	556.45833
2529.776	552.125
2532.156	556.45833
2534.533	544.125
2536.909	558.45833
2539.283	535.79167
2541.656	561.45833
2544.027	580.79167
2546.397	552.45833
2548.765	553.79167
2551.131	549.45833
2553.496	558.125
2555.86	551.79167
2558.221	552.79167
2560.582	542.45833
2562.94	531.79167
2565.298	544.45833
2567.653	559.45833
2570.007	536.45833
2572.36	547.79167
2574.711	529.125
2577.06	562.45833
2579.408	542.45833
2581.754	542.125
2584.099	550.125
2586.442	529.45833
2588.784	548.125
2591.124	547.125
2593.463	541.45833
2595.8	542.45833
2598.135	533.45833
2600.469	534.45833
2602.802	542.125
2605.133	540.125
2607.462	522.125
2609.79	524.45833
2612.116	540.45833
2614.441	526.79167
2616.764	535.79167
2619.086	531.125
2621.406	518.79167
2623.725	532.45833
2626.042	525.45833
2628.358	524.79167
2630.672	526.79167
2632.985	532.45833
2635.296	538.45833
2637.606	537.79167
2639.914	524.125
2642.22	528.79167
2644.525	521.79167
2646.829	536.79167
2649.131	543.79167
2651.432	543.79167
2653.731	526.45833
2656.028	543.45833
2658.324	530.125
2660.619	529.79167
2662.912	544.45833
2665.204	523.79167
2667.494	539.79167
2669.782	523.125
2672.07	544.45833
2674.355	554.79167
2676.639	531.125
2678.922	539.79167
2681.203	546.79167
2683.483	526.79167
2685.761	525.45833
2688.038	549.45833
2690.313	556.125
2692.587	543.79167
2694.859	538.45833
2697.13	545.79167
2699.399	547.125
2701.667	561.125
2703.933	571.79167
2706.198	562.45833
2708.461	560.79167
2710.723	573.125
2712.984	569.45833
2715.243	583.125
2717.5	572.79167
2719.757	587.79167
2722.011	579.125
2724.264	579.45833
2726.516	591.125
2728.766	590.79167
2731.015	581.125
2733.262	587.125
2735.508	578.125
2737.753	569.125
2739.996	559.45833
2742.237	567.125
2744.477	573.79167
2746.716	569.79167
2748.953	560.45833
2751.189	566.79167
2753.423	560.45833
2755.656	548.79167
2757.887	549.45833
2760.117	551.79167
2762.346	550.45833
2764.573	537.45833
2766.798	545.45833
2769.022	552.45833
2771.245	550.79167
2773.467	557.45833
2775.686	566.125
2777.905	563.45833
2780.122	570.79167
2782.337	581.45833
2784.552	571.79167
2786.764	590.79167
2788.976	591.125
2791.186	600.45833
2793.394	606.79167
2795.601	618.79167
2797.807	633.79167
2800.011	637.45833
2802.214	657.45833
2804.415	657.45833
2806.615	666.79167
2808.814	679.45833
2811.011	693.45833
2813.206	698.79167
2815.401	711.79167
2817.594	720.79167
2819.785	740.79167
2821.975	741.45833
2824.164	747.45833
2826.351	779.125
2828.537	785.45833
2830.722	811.45833
2832.905	822.45833
2835.086	850.45833
2837.267	899.125
2839.445	926.79167
2841.623	955.45833
2843.799	987.45833
2845.974	1043.125
2848.147	1083.125
2850.319	1108.79167
2852.489	1140.79167
2854.659	1159.79167
2856.826	1192.45833
2858.993	1187.79167
2861.158	1177.79167
2863.321	1192.79167
2865.483	1209.79167
2867.644	1214.45833
2869.804	1192.79167
2871.962	1199.79167
2874.118	1186.79167
2876.274	1192.125
2878.428	1181.45833
2880.58	1165.45833
2882.731	1163.125
2884.881	1157.125
2887.03	1153.125
2889.177	1167.45833
2891.322	1198.125
2893.467	1173.79167
2895.61	1178.45833
2897.751	1194.45833
2899.892	1182.45833
2902.03	1190.125
2904.168	1210.79167
2906.304	1191.45833
2908.439	1219.45833
2910.572	1204.45833
2912.704	1231.79167
2914.835	1211.79167
2916.965	1206.79167
2919.093	1214.45833
2921.219	1172.45833
2923.345	1189.125
2925.469	1148.45833
2927.591	1147.45833
2929.712	1112.79167
2931.832	1087.45833
2933.951	1069.79167
2936.068	1034.125
2938.184	1007.45833
2940.299	961.45833
2942.412	933.45833
2944.524	891.79167
2946.634	865.79167
2948.744	805.125
2950.851	828.125
2952.958	773.125
2955.063	766.79167
2957.167	740.125
2959.269	700.125
2961.371	726.45833
2963.471	664.79167
2965.569	677.79167
2967.666	637.45833
2969.762	624.125
2971.857	604.79167
2973.95	568.125
2976.042	569.45833
2978.133	556.125
2980.222	530.125
2982.31	504.45833
2984.396	492.125
2986.482	486.125
2988.566	487.79167
2990.648	467.79167
2992.73	457.79167
2994.81	431.45833
2996.889	450.125
2998.966	434.125
3001.042	438.79167
3003.117	428.125
3005.191	430.125
3007.263	424.79167
3009.334	406.45833
3011.403	407.45833
3013.472	386.45833
3015.539	386.79167
3017.604	391.125
3019.669	359.45833
3021.732	360.79167
3023.794	370.125
3025.854	357.45833
3027.914	339.79167
3029.971	349.45833
3032.028	343.125
3034.083	351.79167
3036.137	346.45833
3038.19	325.125
3040.242	318.79167
3042.292	308.79167
3044.341	307.45833
3046.388	318.79167
3048.435	296.45833
3050.48	315.79167
3052.524	297.79167
3054.566	277.125
3056.607	292.79167
3058.647	284.125
3060.686	268.125
3062.723	256.125
3064.759	258.45833
3066.794	-0.20833
3068.828	0.79167
3070.86	-2.20833
