-0.839	435.375
3.438	470.375
7.711	130.375
11.981	57.375
16.247	46.70833
20.509	48.04167
24.768	45.70833
29.024	47.04167
33.276	45.04167
37.524	51.04167
41.769	41.70833
46.01	39.375
50.247	49.70833
54.481	62.375
58.712	68.04167
62.939	50.375
67.162	65.70833
71.382	62.375
75.599	48.70833
79.812	70.04167
84.021	84.04167
88.227	62.04167
92.429	61.70833
96.628	52.70833
100.823	71.70833
105.015	75.04167
109.204	81.70833
113.388	80.70833
117.57	80.375
121.748	91.375
125.922	84.70833
130.093	105.375
134.261	116.375
138.425	105.04167
142.585	152.70833
146.742	143.375
150.896	173.375
155.046	213.70833
159.193	334.04167
163.336	580.375
167.476	1065.375
171.613	1945.70833
175.746	3310.70833
179.875	4930.375
184.002	6431.70833
188.124	7459.04167
192.244	7860.375
196.36	7789.375
200.472	7584.375
204.581	7382.375
208.687	7162.375
212.79	7078.70833
216.889	7098.70833
220.984	7163.375
225.077	7250.375
229.165	7332.375
233.251	7339.04167
237.333	7332.70833
241.412	7272.70833
245.487	7206.70833
249.559	7129.04167
253.628	7069.04167
257.694	6993.04167
261.756	6917.375
265.814	6750.375
269.87	6587.04167
273.922	6427.375
277.97	6390.375
282.016	6348.70833
286.058	6374.04167
290.097	6499.375
294.132	6490.375
298.164	6412.70833
302.193	6079.04167
306.219	5671.375
310.241	5155.04167
314.26	4709.70833
318.276	4359.04167
322.288	4041.04167
326.297	3832.375
330.303	3662.70833
334.305	3560.375
338.305	3464.375
342.301	3440.70833
346.294	3360.70833
350.283	3336.04167
354.269	3317.375
358.252	3302.375
362.232	3293.375
366.209	3270.04167
370.182	3238.70833
374.152	3227.04167
378.119	3202.70833
382.083	3215.375
386.043	3246.70833
390	3173.70833
393.954	3157.375
397.905	3132.375
401.852	3125.375
405.797	3084.70833
409.738	3020.70833
413.676	3023.375
417.61	3002.70833
421.542	2958.375
425.47	2935.04167
429.396	2888.70833
433.318	2889.70833
437.236	2887.70833
441.152	2885.04167
445.065	2831.04167
448.974	2824.375
452.88	2805.04167
456.783	2780.375
460.683	2773.04167
464.58	2782.375
468.473	2791.04167
472.364	2781.375
476.251	2798.70833
480.135	2843.375
484.016	2838.70833
487.894	2878.70833
491.769	2875.70833
495.641	2865.375
499.509	2897.375
503.375	2910.70833
507.237	2900.375
511.096	2883.70833
514.952	2927.70833
518.805	2999.70833
522.655	2983.04167
526.502	2883.375
530.346	2838.375
534.187	2839.375
538.024	2823.04167
541.859	2835.04167
545.69	2846.375
549.519	2830.70833
553.344	2810.375
557.166	2770.70833
560.985	2757.375
564.802	2704.375
568.615	2670.70833
572.425	2642.375
576.232	2623.375
580.036	2620.70833
583.836	2636.70833
587.634	2603.04167
591.429	2642.375
595.221	2666.70833
599.01	2697.04167
602.796	2718.04167
606.578	2755.04167
610.358	2738.375
614.135	2722.04167
617.909	2737.70833
621.679	2692.70833
625.447	2682.04167
629.212	2704.70833
632.973	2703.70833
636.732	2699.375
640.488	2689.375
644.241	2669.375
647.991	2641.04167
651.737	2667.375
655.481	2656.04167
659.222	2627.04167
662.96	2645.04167
666.695	2647.375
670.427	2656.70833
674.156	2648.375
677.882	2685.375
681.605	2693.375
685.325	2644.375
689.043	2653.70833
692.757	2643.70833
696.468	2653.70833
700.177	2662.375
703.882	2662.04167
707.585	2646.375
711.284	2650.04167
714.981	2666.70833
718.675	2676.04167
722.366	2690.70833
726.054	2692.04167
729.739	2659.04167
733.421	2680.04167
737.1	2674.375
740.777	2689.04167
744.45	2719.375
748.121	2743.70833
751.789	2811.70833
755.453	2810.70833
759.115	2804.04167
762.774	2866.375
766.431	2856.04167
770.084	2905.70833
773.734	2908.70833
777.382	2976.375
781.027	3015.70833
784.669	3001.04167
788.308	3035.04167
791.944	3081.04167
795.577	3101.70833
799.208	3104.375
802.835	3142.04167
806.46	3139.04167
810.082	3176.375
813.701	3179.375
817.317	3212.70833
820.931	3209.04167
824.542	3208.04167
828.149	3182.04167
831.754	3153.70833
835.357	3150.70833
838.956	3185.375
842.553	3148.375
846.146	3147.70833
849.737	3147.375
853.326	3146.70833
856.911	3139.375
860.493	3215.04167
864.073	3235.70833
867.65	3275.70833
871.225	3326.04167
874.796	3333.04167
878.365	3354.70833
881.931	3390.70833
885.494	3401.04167
889.054	3422.70833
892.612	3452.04167
896.166	3439.04167
899.719	3416.70833
903.268	3363.04167
906.814	3314.70833
910.358	3264.375
913.899	3228.375
917.438	3244.04167
920.973	3248.04167
924.506	3277.375
928.036	3326.04167
931.564	3332.375
935.088	3361.375
938.61	3354.375
942.129	3403.70833
945.646	3478.04167
949.16	3555.04167
952.671	3626.70833
956.179	3660.375
959.685	3603.70833
963.188	3573.70833
966.688	3521.375
970.185	3453.70833
973.68	3419.70833
977.173	3398.70833
980.662	3388.04167
984.149	3389.04167
987.633	3420.70833
991.114	3485.375
994.593	3599.04167
998.069	3685.70833
1001.542	3791.375
1005.013	3677.70833
1008.481	3479.70833
1011.947	3395.70833
1015.409	3405.375
1018.869	3430.70833
1022.327	3405.04167
1025.782	3395.70833
1029.234	3427.04167
1032.683	3345.70833
1036.13	3241.04167
1039.574	3111.70833
1043.016	3053.375
1046.455	2973.375
1049.891	2927.375
1053.325	2944.375
1056.756	2953.04167
1060.184	2974.375
1063.61	2966.375
1067.033	2993.375
1070.454	2978.04167
1073.872	3050.375
1077.287	3030.70833
1080.7	3046.70833
1084.11	3045.375
1087.517	3053.375
1090.922	3006.70833
1094.325	2955.375
1097.724	2937.70833
1101.122	2930.375
1104.516	2902.375
1107.908	2920.375
1111.298	2988.375
1114.684	3011.04167
1118.069	3050.70833
1121.45	3075.70833
1124.83	3093.70833
1128.206	3112.04167
1131.58	3152.375
1134.951	3239.375
1138.32	3371.375
1141.687	3484.70833
1145.05	3555.04167
1148.412	3601.04167
1151.77	3575.375
1155.126	3560.70833
1158.48	3579.04167
1161.831	3578.04167
1165.18	3618.375
1168.525	3666.70833
1171.869	3745.375
1175.21	3771.70833
1178.548	3797.04167
1181.884	3822.04167
1185.217	3843.70833
1188.548	3893.70833
1191.877	3952.70833
1195.202	4042.375
1198.526	4080.375
1201.846	4135.375
1205.165	4111.375
1208.48	4116.04167
1211.794	4098.375
1215.104	4111.04167
1218.413	4142.70833
1221.719	4115.70833
1225.022	4075.04167
1228.323	4040.70833
1231.621	4031.375
1234.917	4033.04167
1238.21	4046.375
1241.501	4034.04167
1244.79	4056.70833
1248.076	4065.04167
1251.359	4102.375
1254.64	4184.04167
1257.919	4196.70833
1261.195	4272.375
1264.468	4331.04167
1267.74	4398.04167
1271.008	4417.375
1274.275	4349.375
1277.538	4322.70833
1280.8	4302.375
1284.059	4339.04167
1287.315	4378.04167
1290.569	4395.70833
1293.821	4403.375
1297.07	4415.70833
1300.317	4419.375
1303.562	4420.70833
1306.803	4369.375
1310.043	4313.70833
1313.28	4275.70833
1316.515	4229.375
1319.747	4176.70833
1322.977	4133.375
1326.204	4095.375
1329.429	4057.375
1332.652	4040.04167
1335.872	4026.375
1339.09	4002.375
1342.306	4001.70833
1345.519	3940.04167
1348.729	3954.375
1351.938	3896.70833
1355.144	3835.375
1358.347	3793.04167
1361.548	3803.70833
1364.747	3788.375
1367.944	3758.04167
1371.138	3781.04167
1374.329	3829.04167
1377.518	3881.04167
1380.705	3921.70833
1383.89	3892.04167
1387.072	3789.70833
1390.252	3635.375
1393.429	3527.375
1396.605	3414.375
1399.777	3356.375
1402.948	3313.70833
1406.116	3296.70833
1409.282	3308.375
1412.445	3332.375
1415.606	3379.04167
1418.765	3438.04167
1421.921	3507.04167
1425.075	3560.375
1428.227	3671.04167
1431.376	3830.04167
1434.524	3946.04167
1437.668	3979.70833
1440.811	4093.04167
1443.951	4111.375
1447.089	4089.04167
1450.224	4085.375
1453.357	4073.04167
1456.488	4054.04167
1459.617	3953.70833
1462.743	3913.70833
1465.867	3787.70833
1468.989	3776.70833
1472.108	3717.375
1475.225	3620.04167
1478.34	3600.04167
1481.453	3580.70833
1484.563	3597.375
1487.671	3661.70833
1490.776	3743.04167
1493.88	3795.70833
1496.981	3869.04167
1500.08	3944.04167
1503.176	3996.04167
1506.271	4048.70833
1509.363	4122.70833
1512.452	4120.04167
1515.54	4234.04167
1518.625	4304.04167
1521.708	4441.04167
1524.789	4654.04167
1527.867	4890.375
1530.944	5223.04167
1534.018	5503.04167
1537.089	5700.70833
1540.159	5774.70833
1543.226	5697.04167
1546.291	5558.375
1549.354	5393.70833
1552.415	5225.04167
1555.473	5060.375
1558.529	4953.70833
1561.583	4843.70833
1564.634	4777.04167
1567.684	4767.70833
1570.731	4778.04167
1573.776	4774.70833
1576.819	4830.04167
1579.859	4845.375
1582.898	4873.70833
1585.934	4927.04167
1588.968	4903.375
1591.999	4890.375
1595.029	4877.04167
1598.056	4952.375
1601.081	4958.375
1604.104	4935.04167
1607.125	4896.70833
1610.144	4781.04167
1613.16	4688.375
1616.174	4550.70833
1619.186	4432.04167
1622.196	4345.375
1625.203	4237.04167
1628.209	4172.70833
1631.212	4129.375
1634.213	4071.375
1637.212	4030.375
1640.209	3957.70833
1643.203	3859.04167
1646.196	3760.375
1649.186	3628.04167
1652.174	3539.375
1655.16	3437.375
1658.144	3337.375
1661.125	3200.04167
1664.105	3033.70833
1667.082	2930.04167
1670.057	2772.375
1673.03	2612.04167
1676.001	2446.04167
1678.97	2269.04167
1681.937	2144.375
1684.901	2019.04167
1687.863	1941.70833
1690.824	1862.70833
1693.782	1846.375
1696.738	1781.04167
1699.692	1746.04167
1702.643	1682.70833
1705.593	1654.70833
1708.54	1653.04167
1711.486	1634.04167
1714.429	1619.375
1717.37	1582.04167
1720.309	1558.70833
1723.246	1573.04167
1726.181	1523.70833
1729.113	1554.70833
1732.044	1504.04167
1734.972	1499.04167
1737.899	1503.04167
1740.823	1481.04167
1743.745	1456.375
1746.665	1437.04167
1749.583	1408.375
1752.499	1394.375
1755.413	1370.375
1758.325	1340.70833
1761.235	1345.375
1764.142	1302.70833
1767.048	1298.375
1769.951	1292.04167
1772.852	1286.375
1775.752	1290.70833
1778.649	1271.04167
1781.544	1262.04167
1784.437	1252.375
1787.328	1239.70833
1790.217	1225.04167
1793.104	1225.375
1795.989	1217.375
1798.872	1201.70833
1801.753	1229.375
1804.631	1226.375
1807.508	1225.375
1810.383	1206.70833
1813.255	1195.04167
1816.126	1196.375
1818.994	1190.375
1821.861	1185.375
1824.725	1182.375
1827.587	1164.04167
1830.448	1173.375
1833.306	1139.70833
1836.162	1161.04167
1839.017	1139.375
1841.869	1155.04167
1844.719	1139.70833
1847.567	1120.375
1850.414	1113.375
1853.258	1123.375
1856.1	1142.70833
1858.94	1140.375
1861.778	1128.375
1864.614	1110.04167
1867.448	1115.375
1870.28	1114.04167
1873.111	1128.375
1875.939	1125.375
1878.765	1132.375
1881.589	1106.04167
1884.411	1115.375
1887.231	1119.04167
1890.049	1110.04167
1892.865	1097.70833
1895.68	1095.04167
1898.492	1092.375
1901.302	1068.375
1904.11	1092.375
1906.916	1063.70833
1909.721	1064.04167
1912.523	1087.04167
1915.323	1044.70833
1918.122	1058.04167
1920.918	1060.04167
1923.712	1049.70833
1926.505	1041.70833
1929.295	1042.375
1932.084	1062.04167
1934.87	1057.375
1937.655	1040.04167
1940.438	1031.70833
1943.218	1043.04167
1945.997	1051.375
1948.774	1052.04167
1951.549	1056.375
1954.322	1046.375
1957.093	1043.70833
1959.862	1038.04167
1962.629	1031.70833
1965.394	1011.375
1968.157	1004.04167
1970.918	1028.04167
1973.678	1017.04167
1976.435	1024.04167
1979.19	1009.70833
1981.944	998.375
1984.696	1005.375
1987.445	988.375
1990.193	987.70833
1992.939	1014.70833
1995.683	996.04167
1998.425	979.375
2001.165	1022.04167
2003.903	984.375
2006.639	988.70833
2009.374	984.375
2012.106	989.70833
2014.837	963.375
2017.566	991.04167
2020.292	987.04167
2023.017	982.375
2025.74	981.04167
2028.461	978.375
2031.18	979.375
2033.898	962.375
2036.613	979.70833
2039.327	972.375
2042.038	959.04167
2044.748	955.04167
2047.456	972.04167
2050.162	933.375
2052.866	953.04167
2055.568	951.70833
2058.268	947.04167
2060.967	952.70833
2063.663	935.375
2066.358	946.04167
2069.051	947.375
2071.742	943.70833
2074.431	959.04167
2077.118	953.04167
2079.804	940.70833
2082.487	962.375
2085.169	993.70833
2087.849	993.70833
2090.527	968.70833
2093.203	991.70833
2095.877	991.70833
2098.55	989.375
2101.22	1024.375
2103.889	1041.04167
2106.556	1072.04167
2109.221	1113.70833
2111.884	1185.04167
2114.546	1301.375
2117.205	1401.70833
2119.863	1576.375
2122.519	1692.70833
2125.173	1828.375
2127.825	1942.375
2130.475	1933.04167
2133.124	1872.04167
2135.771	1787.04167
2138.416	1670.375
2141.059	1573.375
2143.7	1475.04167
2146.339	1385.375
2148.977	1287.375
2151.613	1251.70833
2154.247	1197.04167
2156.879	1157.04167
2159.51	1132.04167
2162.138	1098.375
2164.765	1095.70833
2167.39	1062.375
2170.013	1074.375
2172.634	1061.04167
2175.254	1042.70833
2177.872	1054.375
2180.488	1003.70833
2183.102	1010.375
2185.714	995.375
2188.325	950.04167
2190.934	961.04167
2193.541	937.375
2196.146	926.375
2198.75	911.04167
2201.351	921.375
2203.951	888.375
2206.549	907.70833
2209.146	881.70833
2211.74	871.70833
2214.333	881.375
2216.924	857.70833
2219.514	868.375
2222.101	857.04167
2224.687	865.375
2227.271	848.04167
2229.853	821.375
2232.433	818.70833
2235.012	858.04167
2237.589	830.375
2240.164	850.70833
2242.738	826.70833
2245.309	819.04167
2247.879	811.04167
2250.448	816.375
2253.014	796.375
2255.579	790.70833
2258.142	795.70833
2260.703	774.375
2263.262	775.04167
2265.82	769.70833
2268.376	782.04167
2270.93	758.70833
2273.483	750.375
2276.033	758.375
2278.583	757.04167
2281.13	746.375
2283.675	738.375
2286.219	764.70833
2288.761	739.375
2291.302	743.375
2293.841	744.375
2296.377	719.70833
2298.913	728.70833
2301.446	726.04167
2303.978	730.375
2306.508	715.375
2309.037	718.04167
2311.563	716.375
2314.088	723.04167
2316.612	698.04167
2319.133	717.70833
2321.653	714.70833
2324.171	700.04167
2326.688	723.04167
2329.202	711.04167
2331.715	706.70833
2334.227	699.04167
2336.736	692.70833
2339.244	689.70833
2341.751	687.04167
2344.255	696.70833
2346.758	677.70833
2349.259	674.70833
2351.759	692.04167
2354.257	687.70833
2356.753	679.375
2359.247	683.375
2361.74	675.70833
2364.231	681.70833
2366.721	674.04167
2369.209	673.04167
2371.695	680.04167
2374.179	672.70833
2376.662	675.70833
2379.143	683.375
2381.622	669.04167
2384.1	670.04167
2386.576	660.375
2389.051	686.04167
2391.524	686.70833
2393.995	674.375
2396.464	653.04167
2398.932	657.375
2401.398	665.04167
2403.863	653.70833
2406.325	653.70833
2408.787	657.04167
2411.246	654.04167
2413.704	649.70833
2416.16	654.70833
2418.615	655.375
2421.068	655.70833
2423.519	644.04167
2425.969	638.70833
2428.417	661.70833
2430.863	676.04167
2433.308	661.375
2435.751	647.375
2438.193	640.70833
2440.633	650.70833
2443.071	651.04167
2445.508	634.375
2447.943	634.375
2450.376	632.375
2452.808	637.70833
2455.238	627.70833
2457.667	657.375
2460.093	649.04167
2462.519	622.04167
2464.942	628.04167
2467.365	630.70833
2469.785	637.375
2472.204	637.375
2474.621	621.70833
2477.037	639.375
2479.451	616.70833
2481.863	613.70833
2484.274	617.04167
2486.683	629.375
2489.091	630.375
2491.497	628.375
2493.901	614.375
2496.304	611.375
2498.705	617.70833
2501.105	612.04167
2503.503	644.375
2505.899	599.04167
2508.294	623.70833
2510.687	605.04167
2513.079	609.375
2515.469	604.375
2517.858	608.375
2520.245	631.04167
2522.63	610.04167
2525.014	605.375
2527.396	593.70833
2529.776	591.04167
2532.156	599.375
2534.533	590.375
2536.909	602.04167
2539.283	581.375
2541.656	606.375
2544.027	627.04167
2546.397	595.70833
2548.765	602.70833
2551.131	595.375
2553.496	590.04167
2555.86	610.375
2558.221	597.375
2560.582	593.375
2562.94	575.375
2565.298	588.04167
2567.653	619.70833
2570.007	581.375
2572.36	591.70833
2574.711	591.375
2577.06	601.70833
2579.408	584.04167
2581.754	593.375
2584.099	585.04167
2586.442	590.04167
2588.784	592.70833
2591.124	595.70833
2593.463	591.04167
2595.8	583.04167
2598.135	574.375
2600.469	593.70833
2602.802	605.04167
2605.133	597.70833
2607.462	574.04167
2609.79	579.70833
2612.116	591.375
2614.441	571.70833
2616.764	594.375
2619.086	596.70833
2621.406	581.375
2623.725	588.375
2626.042	591.70833
2628.358	594.375
2630.672	590.04167
2632.985	604.04167
2635.296	599.04167
2637.606	592.375
2639.914	588.375
2642.22	587.70833
2644.525	594.375
2646.829	594.04167
2649.131	600.04167
2651.432	609.04167
2653.731	601.375
2656.028	610.375
2658.324	605.375
2660.619	603.04167
2662.912	616.04167
2665.204	595.04167
2667.494	615.04167
2669.782	593.04167
2672.07	611.04167
2674.355	622.375
2676.639	609.375
2678.922	607.04167
2681.203	615.70833
2683.483	590.04167
2685.761	599.375
2688.038	612.375
2690.313	633.375
2692.587	617.375
2694.859	613.375
2697.13	608.04167
2699.399	615.70833
2701.667	634.04167
2703.933	634.70833
2706.198	641.04167
2708.461	648.04167
2710.723	652.04167
2712.984	652.04167
2715.243	648.70833
2717.5	651.04167
2719.757	656.70833
2722.011	666.04167
2724.264	668.04167
2726.516	677.70833
2728.766	663.04167
2731.015	661.70833
2733.262	655.04167
2735.508	648.375
2737.753	657.70833
2739.996	639.70833
2742.237	649.375
2744.477	652.70833
2746.716	659.70833
2748.953	645.375
2751.189	658.375
2753.423	629.375
2755.656	628.70833
2757.887	629.70833
2760.117	631.375
2762.346	620.70833
2764.573	632.04167
2766.798	630.375
2769.022	640.04167
2771.245	648.04167
2773.467	643.04167
2775.686	648.375
2777.905	657.04167
2780.122	656.375
2782.337	660.375
2784.552	664.70833
2786.764	667.70833
2788.976	682.375
2791.186	680.375
2793.394	688.375
2795.601	710.375
2797.807	703.04167
2800.011	713.04167
2802.214	747.04167
2804.415	734.70833
2806.615	741.70833
2808.814	764.04167
2811.011	755.04167
2813.206	779.70833
2815.401	783.375
2817.594	797.04167
2819.785	816.70833
2821.975	803.70833
2824.164	831.375
2826.351	837.70833
2828.537	866.375
2830.722	878.04167
2832.905	882.04167
2835.086	919.04167
2837.267	958.04167
2839.445	983.70833
2841.623	1013.04167
2843.799	1041.04167
2845.974	1095.375
2848.147	1128.70833
2850.319	1152.04167
2852.489	1195.375
2854.659	1203.375
2856.826	1227.375
2858.993	1251.04167
2861.158	1224.70833
2863.321	1223.04167
2865.483	1241.70833
2867.644	1255.375
2869.804	1244.04167
2871.962	1241.375
2874.118	1247.375
2876.274	1229.375
2878.428	1235.04167
2880.58	1238.70833
2882.731	1214.04167
2884.881	1232.04167
2887.03	1223.70833
2889.177	1203.04167
2891.322	1233.70833
2893.467	1225.04167
2895.61	1238.375
2897.751	1261.375
2899.892	1242.70833
2902.03	1272.04167
2904.168	1254.70833
2906.304	1271.375
2908.439	1293.375
2910.572	1259.375
2912.704	1284.375
2914.835	1280.70833
2916.965	1272.375
2919.093	1284.04167
2921.219	1243.04167
2923.345	1268.04167
2925.469	1239.04167
2927.591	1207.70833
2929.712	1171.375
2931.832	1163.70833
2933.951	1140.375
2936.068	1116.70833
2938.184	1080.375
2940.299	1058.04167
2942.412	1036.04167
2944.524	978.04167
2946.634	968.70833
2948.744	919.04167
2950.851	940.375
2952.958	872.70833
2955.063	875.04167
2957.167	859.375
2959.269	811.70833
2961.371	844.375
2963.471	788.375
2965.569	790.70833
2967.666	769.70833
2969.762	743.375
2971.857	727.375
2973.95	698.375
2976.042	698.70833
2978.133	686.375
2980.222	664.70833
2982.31	646.70833
2984.396	624.375
2986.482	622.04167
2988.566	605.04167
2990.648	606.04167
2992.73	590.375
2994.81	576.375
2996.889	588.70833
2998.966	574.04167
3001.042	571.375
3003.117	573.375
3005.191	565.04167
3007.263	565.04167
3009.334	546.70833
3011.403	552.375
3013.472	533.375
3015.539	527.04167
3017.604	543.70833
3019.669	498.375
3021.732	508.375
3023.794	499.375
3025.854	496.04167
3027.914	487.04167
3029.971	503.70833
3032.028	479.375
3034.083	482.04167
3036.137	483.04167
3038.19	458.70833
3040.242	454.70833
3042.292	441.04167
3044.341	439.375
3046.388	447.375
3048.435	421.04167
3050.48	442.70833
3052.524	429.04167
3054.566	412.70833
3056.607	433.375
3058.647	408.375
3060.686	388.04167
3062.723	388.70833
3064.759	375.70833
3066.794	0.375
3068.828	-0.95833
3070.86	-1.625
