-0.839	444.875
3.438	458.875
7.711	138.54167
11.981	52.54167
16.247	46.20833
20.509	48.20833
24.768	44.54167
29.024	49.20833
33.276	42.875
37.524	48.20833
41.769	37.54167
46.01	38.54167
50.247	55.54167
54.481	58.54167
58.712	70.20833
62.939	48.20833
67.162	64.875
71.382	54.875
75.599	49.54167
79.812	64.54167
84.021	79.54167
88.227	60.54167
92.429	67.54167
96.628	49.875
100.823	74.20833
105.015	74.20833
109.204	81.54167
113.388	76.54167
117.57	76.875
121.748	93.20833
125.922	84.875
130.093	104.54167
134.261	106.54167
138.425	105.54167
142.585	147.20833
146.742	147.20833
150.896	179.54167
155.046	220.54167
159.193	357.875
163.336	612.20833
167.476	1146.54167
171.613	2105.54167
175.746	3566.54167
179.875	5310.54167
184.002	6911.20833
188.124	8009.20833
192.244	8311.20833
196.36	8174.20833
200.472	7837.20833
204.581	7525.54167
208.687	7260.875
212.79	7099.20833
216.889	7005.875
220.984	7006.20833
225.077	6990.875
229.165	7025.875
233.251	7054.20833
237.333	7025.54167
241.412	6968.54167
245.487	6908.20833
249.559	6822.875
253.628	6740.20833
257.694	6701.20833
261.756	6653.20833
265.814	6521.20833
269.87	6387.54167
273.922	6214.20833
277.97	6123.54167
282.016	6111.54167
286.058	6129.54167
290.097	6258.20833
294.132	6363.54167
298.164	6308.20833
302.193	6032.875
306.219	5569.20833
310.241	5052.875
314.26	4595.875
318.276	4216.875
322.288	3908.20833
326.297	3681.875
330.303	3519.20833
334.305	3388.20833
338.305	3298.875
342.301	3245.54167
346.294	3203.875
350.283	3169.875
354.269	3132.54167
358.252	3128.875
362.232	3079.20833
366.209	3067.20833
370.182	3013.20833
374.152	2986.875
378.119	2983.875
382.083	2976.875
386.043	2987.20833
390	2948.20833
393.954	2940.875
397.905	2889.20833
401.852	2890.20833
405.797	2839.875
409.738	2809.875
413.676	2823.20833
417.61	2788.875
421.542	2769.20833
425.47	2745.54167
429.396	2729.54167
433.318	2711.20833
437.236	2667.875
441.152	2699.20833
445.065	2642.875
448.974	2628.54167
452.88	2581.875
456.783	2602.20833
460.683	2585.20833
464.58	2579.20833
468.473	2571.20833
472.364	2564.20833
476.251	2585.20833
480.135	2588.875
484.016	2629.20833
487.894	2662.20833
491.769	2680.20833
495.641	2677.875
499.509	2672.20833
503.375	2687.20833
507.237	2703.875
511.096	2673.20833
514.952	2690.875
518.805	2710.54167
522.655	2720.20833
526.502	2664.875
530.346	2654.875
534.187	2664.20833
538.024	2687.20833
541.859	2666.875
545.69	2695.875
549.519	2656.20833
553.344	2653.54167
557.166	2603.54167
560.985	2579.20833
564.802	2541.54167
568.615	2476.20833
572.425	2447.20833
576.232	2452.875
580.036	2432.20833
583.836	2458.20833
587.634	2440.54167
591.429	2444.20833
595.221	2482.20833
599.01	2502.20833
602.796	2538.875
606.578	2556.54167
610.358	2556.54167
614.135	2556.20833
617.909	2542.20833
621.679	2522.20833
625.447	2515.54167
629.212	2508.875
632.973	2495.20833
636.732	2510.875
640.488	2499.875
644.241	2483.54167
647.991	2469.875
651.737	2484.20833
655.481	2455.875
659.222	2464.20833
662.96	2464.20833
666.695	2495.54167
670.427	2479.54167
674.156	2513.54167
677.882	2498.875
681.605	2515.875
685.325	2477.54167
689.043	2489.875
692.757	2475.20833
696.468	2471.54167
700.177	2477.875
703.882	2473.875
707.585	2436.20833
711.284	2456.20833
714.981	2451.875
718.675	2467.54167
722.366	2496.54167
726.054	2438.875
729.739	2455.54167
733.421	2468.875
737.1	2480.54167
740.777	2488.875
744.45	2509.875
748.121	2524.54167
751.789	2591.20833
755.453	2544.875
759.115	2601.875
762.774	2613.875
766.431	2643.20833
770.084	2664.875
773.734	2695.54167
777.382	2753.54167
781.027	2774.875
784.669	2798.54167
788.308	2782.875
791.944	2805.54167
795.577	2840.54167
799.208	2843.54167
802.835	2849.54167
806.46	2857.875
810.082	2910.875
813.701	2911.54167
817.317	2918.20833
820.931	2942.54167
824.542	2936.875
828.149	2890.54167
831.754	2879.54167
835.357	2868.20833
838.956	2867.875
842.553	2856.20833
846.146	2854.54167
849.737	2843.54167
853.326	2866.54167
856.911	2874.20833
860.493	2891.54167
864.073	2900.875
867.65	2969.875
871.225	3024.875
874.796	3014.54167
878.365	3037.20833
881.931	3056.54167
885.494	3093.20833
889.054	3094.875
892.612	3128.54167
896.166	3121.875
899.719	3104.20833
903.268	3046.875
906.814	2990.875
910.358	2966.20833
913.899	2949.20833
917.438	2943.54167
920.973	2911.54167
924.506	2973.54167
928.036	2993.20833
931.564	3065.54167
935.088	3077.54167
938.61	3088.20833
942.129	3124.20833
945.646	3217.875
949.16	3291.54167
952.671	3350.875
956.179	3390.20833
959.685	3328.875
963.188	3329.20833
966.688	3233.875
970.185	3179.875
973.68	3101.20833
977.173	3090.20833
980.662	3037.54167
984.149	3040.875
987.633	3051.20833
991.114	3115.54167
994.593	3183.875
998.069	3316.54167
1001.542	3397.875
1005.013	3326.54167
1008.481	3154.875
1011.947	3088.875
1015.409	3068.875
1018.869	3074.54167
1022.327	3065.875
1025.782	3059.875
1029.234	3076.20833
1032.683	3033.20833
1036.13	2920.54167
1039.574	2825.20833
1043.016	2733.875
1046.455	2684.20833
1049.891	2659.875
1053.325	2662.54167
1056.756	2661.20833
1060.184	2704.20833
1063.61	2689.20833
1067.033	2719.875
1070.454	2708.20833
1073.872	2766.20833
1077.287	2738.20833
1080.7	2743.54167
1084.11	2759.20833
1087.517	2731.875
1090.922	2706.54167
1094.325	2684.875
1097.724	2655.875
1101.122	2652.54167
1104.516	2648.875
1107.908	2655.54167
1111.298	2701.20833
1114.684	2736.875
1118.069	2768.20833
1121.45	2782.54167
1124.83	2778.875
1128.206	2827.875
1131.58	2892.875
1134.951	2978.875
1138.32	3108.20833
1141.687	3240.20833
1145.05	3300.875
1148.412	3322.54167
1151.77	3303.54167
1155.126	3261.20833
1158.48	3226.54167
1161.831	3247.54167
1165.18	3265.54167
1168.525	3309.20833
1171.869	3360.54167
1175.21	3369.20833
1178.548	3440.54167
1181.884	3462.20833
1185.217	3493.20833
1188.548	3553.54167
1191.877	3610.20833
1195.202	3704.20833
1198.526	3764.54167
1201.846	3778.54167
1205.165	3781.54167
1208.48	3758.54167
1211.794	3756.20833
1215.104	3797.875
1218.413	3786.875
1221.719	3787.20833
1225.022	3735.875
1228.323	3686.875
1231.621	3665.20833
1234.917	3626.54167
1238.21	3683.875
1241.501	3666.20833
1244.79	3646.875
1248.076	3643.20833
1251.359	3691.875
1254.64	3778.20833
1257.919	3770.875
1261.195	3869.54167
1264.468	3959.54167
1267.74	3998.875
1271.008	4048.875
1274.275	4031.54167
1277.538	3945.20833
1280.8	3962.54167
1284.059	3984.875
1287.315	4005.875
1290.569	4039.54167
1293.821	4044.54167
1297.07	4049.54167
1300.317	4042.875
1303.562	4077.875
1306.803	4012.54167
1310.043	4008.875
1313.28	3946.875
1316.515	3890.54167
1319.747	3869.54167
1322.977	3812.20833
1326.204	3777.54167
1329.429	3749.875
1332.652	3718.875
1335.872	3704.54167
1339.09	3655.20833
1342.306	3625.54167
1345.519	3589.54167
1348.729	3559.875
1351.938	3499.875
1355.144	3447.54167
1358.347	3423.875
1361.548	3466.54167
1364.747	3464.20833
1367.944	3442.54167
1371.138	3464.54167
1374.329	3505.20833
1377.518	3576.20833
1380.705	3621.20833
1383.89	3597.20833
1387.072	3469.54167
1390.252	3328.20833
1393.429	3219.54167
1396.605	3094.54167
1399.777	3022.54167
1402.948	3016.875
1406.116	2996.54167
1409.282	2991.20833
1412.445	3008.875
1415.606	3062.20833
1418.765	3116.54167
1421.921	3153.54167
1425.075	3257.54167
1428.227	3359.20833
1431.376	3466.20833
1434.524	3593.54167
1437.668	3711.875
1440.811	3747.54167
1443.951	3792.20833
1447.089	3822.875
1450.224	3784.20833
1453.357	3749.54167
1456.488	3726.875
1459.617	3655.20833
1462.743	3591.875
1465.867	3507.54167
1468.989	3477.20833
1472.108	3413.20833
1475.225	3350.875
1478.34	3274.875
1481.453	3259.54167
1484.563	3314.54167
1487.671	3365.54167
1490.776	3419.20833
1493.88	3492.20833
1496.981	3562.20833
1500.08	3644.20833
1503.176	3663.20833
1506.271	3703.875
1509.363	3743.20833
1512.452	3798.54167
1515.54	3854.875
1518.625	3913.20833
1521.708	4052.875
1524.789	4192.20833
1527.867	4391.20833
1530.944	4681.20833
1534.018	4882.20833
1537.089	5037.875
1540.159	5061.54167
1543.226	5036.54167
1546.291	4864.875
1549.354	4751.875
1552.415	4589.54167
1555.473	4511.875
1558.529	4394.54167
1561.583	4323.20833
1564.634	4278.54167
1567.684	4251.54167
1570.731	4275.20833
1573.776	4283.54167
1576.819	4307.875
1579.859	4331.20833
1582.898	4389.20833
1585.934	4408.54167
1588.968	4431.20833
1591.999	4408.54167
1595.029	4435.54167
1598.056	4433.20833
1601.081	4465.875
1604.104	4452.875
1607.125	4431.875
1610.144	4308.54167
1613.16	4218.54167
1616.174	4091.54167
1619.186	4020.20833
1622.196	3915.20833
1625.203	3839.54167
1628.209	3790.20833
1631.212	3738.54167
1634.213	3706.20833
1637.212	3678.875
1640.209	3603.20833
1643.203	3527.875
1646.196	3403.54167
1649.186	3300.875
1652.174	3189.54167
1655.16	3100.54167
1658.144	3025.20833
1661.125	2899.875
1664.105	2781.20833
1667.082	2673.20833
1670.057	2516.54167
1673.03	2351.875
1676.001	2195.20833
1678.97	2055.875
1681.937	1915.54167
1684.901	1798.875
1687.863	1732.20833
1690.824	1661.20833
1693.782	1648.54167
1696.738	1579.54167
1699.692	1533.875
1702.643	1499.54167
1705.593	1473.54167
1708.54	1445.54167
1711.486	1451.54167
1714.429	1410.875
1717.37	1394.54167
1720.309	1389.20833
1723.246	1386.875
1726.181	1344.54167
1729.113	1348.875
1732.044	1334.20833
1734.972	1311.20833
1737.899	1294.20833
1740.823	1301.20833
1743.745	1300.54167
1746.665	1262.875
1749.583	1244.54167
1752.499	1206.54167
1755.413	1204.20833
1758.325	1168.875
1761.235	1173.20833
1764.142	1150.875
1767.048	1139.875
1769.951	1135.20833
1772.852	1131.875
1775.752	1118.875
1778.649	1111.54167
1781.544	1101.875
1784.437	1081.875
1787.328	1096.20833
1790.217	1091.875
1793.104	1065.20833
1795.989	1070.54167
1798.872	1044.54167
1801.753	1068.54167
1804.631	1060.875
1807.508	1068.20833
1810.383	1063.875
1813.255	1046.875
1816.126	1054.20833
1818.994	1037.54167
1821.861	1034.875
1824.725	1038.875
1827.587	1022.20833
1830.448	1019.20833
1833.306	996.875
1836.162	1016.20833
1839.017	999.20833
1841.869	1008.875
1844.719	997.20833
1847.567	974.54167
1850.414	984.875
1853.258	965.54167
1856.1	987.20833
1858.94	1003.875
1861.778	979.20833
1864.614	980.54167
1867.448	980.54167
1870.28	966.54167
1873.111	983.20833
1875.939	984.875
1878.765	997.875
1881.589	971.54167
1884.411	955.875
1887.231	974.875
1890.049	966.54167
1892.865	963.875
1895.68	944.54167
1898.492	956.20833
1901.302	945.875
1904.11	938.20833
1906.916	931.54167
1909.721	920.20833
1912.523	931.875
1915.323	900.54167
1918.122	928.875
1920.918	923.20833
1923.712	912.54167
1926.505	910.54167
1929.295	901.54167
1932.084	917.54167
1934.87	923.875
1937.655	910.54167
1940.438	909.20833
1943.218	910.20833
1945.997	902.20833
1948.774	921.20833
1951.549	914.875
1954.322	904.875
1957.093	910.54167
1959.862	895.54167
1962.629	884.875
1965.394	877.20833
1968.157	867.875
1970.918	882.54167
1973.678	869.54167
1976.435	882.54167
1979.19	871.54167
1981.944	858.54167
1984.696	863.875
1987.445	851.54167
1990.193	863.54167
1992.939	880.20833
1995.683	865.875
1998.425	841.54167
2001.165	879.20833
2003.903	845.875
2006.639	851.875
2009.374	847.54167
2012.106	862.54167
2014.837	829.875
2017.566	847.54167
2020.292	857.54167
2023.017	847.20833
2025.74	832.875
2028.461	839.54167
2031.18	845.20833
2033.898	821.875
2036.613	844.20833
2039.327	845.54167
2042.038	823.54167
2044.748	823.875
2047.456	817.875
2050.162	804.54167
2052.866	810.875
2055.568	811.54167
2058.268	805.54167
2060.967	819.875
2063.663	792.875
2066.358	807.20833
2069.051	791.20833
2071.742	805.875
2074.431	813.20833
2077.118	798.875
2079.804	798.54167
2082.487	801.54167
2085.169	806.875
2087.849	823.54167
2090.527	797.54167
2093.203	819.54167
2095.877	819.20833
2098.55	817.20833
2101.22	832.875
2103.889	843.20833
2106.556	848.20833
2109.221	876.875
2111.884	894.20833
2114.546	962.20833
2117.205	1023.875
2119.863	1129.54167
2122.519	1200.54167
2125.173	1279.20833
2127.825	1363.875
2130.475	1357.54167
2133.124	1304.20833
2135.771	1260.875
2138.416	1191.54167
2141.059	1112.875
2143.7	1060.875
2146.339	991.875
2148.977	932.54167
2151.613	914.54167
2154.247	889.54167
2156.879	878.20833
2159.51	842.875
2162.138	825.20833
2164.765	816.54167
2167.39	807.20833
2170.013	821.875
2172.634	812.54167
2175.254	802.54167
2177.872	829.20833
2180.488	781.875
2183.102	793.54167
2185.714	782.54167
2188.325	751.20833
2190.934	753.875
2193.541	752.875
2196.146	746.54167
2198.75	735.54167
2201.351	739.875
2203.951	715.54167
2206.549	741.875
2209.146	710.54167
2211.74	714.20833
2214.333	720.20833
2216.924	697.54167
2219.514	710.54167
2222.101	689.875
2224.687	715.20833
2227.271	697.875
2229.853	699.20833
2232.433	683.20833
2235.012	692.54167
2237.589	703.20833
2240.164	690.54167
2242.738	690.54167
2245.309	680.54167
2247.879	682.54167
2250.448	690.54167
2253.014	664.54167
2255.579	649.20833
2258.142	649.875
2260.703	641.20833
2263.262	644.875
2265.82	640.54167
2268.376	642.20833
2270.93	616.20833
2273.483	618.875
2276.033	637.20833
2278.583	623.875
2281.13	620.875
2283.675	606.875
2286.219	618.875
2288.761	610.54167
2291.302	628.875
2293.841	615.875
2296.377	594.875
2298.913	601.20833
2301.446	613.875
2303.978	599.875
2306.508	589.875
2309.037	589.875
2311.563	594.875
2314.088	599.54167
2316.612	584.20833
2319.133	590.20833
2321.653	585.20833
2324.171	577.54167
2326.688	599.875
2329.202	576.875
2331.715	582.875
2334.227	585.875
2336.736	582.20833
2339.244	578.54167
2341.751	564.20833
2344.255	578.20833
2346.758	561.20833
2349.259	556.875
2351.759	564.875
2354.257	551.54167
2356.753	555.875
2359.247	553.20833
2361.74	570.20833
2364.231	561.20833
2366.721	567.54167
2369.209	557.20833
2371.695	548.875
2374.179	548.875
2376.662	548.54167
2379.143	559.875
2381.622	551.20833
2384.1	553.875
2386.576	542.54167
2389.051	554.875
2391.524	559.875
2393.995	557.875
2396.464	551.54167
2398.932	529.54167
2401.398	536.54167
2403.863	537.20833
2406.325	540.875
2408.787	542.54167
2411.246	538.20833
2413.704	529.875
2416.16	525.54167
2418.615	530.875
2421.068	540.875
2423.519	534.875
2425.969	527.875
2428.417	539.54167
2430.863	554.875
2433.308	532.54167
2435.751	528.20833
2438.193	530.54167
2440.633	531.20833
2443.071	513.20833
2445.508	511.875
2447.943	520.54167
2450.376	524.20833
2452.808	520.20833
2455.238	515.20833
2457.667	536.875
2460.093	518.54167
2462.519	505.875
2464.942	511.54167
2467.365	514.54167
2469.785	502.875
2472.204	514.875
2474.621	502.54167
2477.037	530.20833
2479.451	503.54167
2481.863	499.875
2484.274	495.20833
2486.683	503.20833
2489.091	518.20833
2491.497	519.20833
2493.901	494.20833
2496.304	501.54167
2498.705	502.875
2501.105	493.54167
2503.503	521.875
2505.899	484.54167
2508.294	509.20833
2510.687	489.20833
2513.079	492.54167
2515.469	479.54167
2517.858	477.20833
2520.245	506.54167
2522.63	477.875
2525.014	481.54167
2527.396	487.875
2529.776	482.54167
2532.156	495.875
2534.533	469.875
2536.909	484.54167
2539.283	466.20833
2541.656	475.20833
2544.027	503.20833
2546.397	490.20833
2548.765	471.20833
2551.131	473.875
2553.496	489.20833
2555.86	488.20833
2558.221	473.20833
2560.582	474.20833
2562.94	455.875
2565.298	476.20833
2567.653	483.54167
2570.007	463.20833
2572.36	486.20833
2574.711	471.54167
2577.06	485.20833
2579.408	480.20833
2581.754	475.20833
2584.099	467.20833
2586.442	463.875
2588.784	473.875
2591.124	471.54167
2593.463	468.20833
2595.8	472.20833
2598.135	465.54167
2600.469	461.20833
2602.802	479.875
2605.133	477.20833
2607.462	463.875
2609.79	457.20833
2612.116	463.875
2614.441	472.54167
2616.764	474.875
2619.086	462.54167
2621.406	460.54167
2623.725	468.20833
2626.042	462.875
2628.358	466.875
2630.672	456.875
2632.985	468.20833
2635.296	464.54167
2637.606	468.875
2639.914	464.20833
2642.22	475.20833
2644.525	467.875
2646.829	469.875
2649.131	480.875
2651.432	492.20833
2653.731	471.54167
2656.028	491.20833
2658.324	471.54167
2660.619	470.20833
2662.912	491.875
2665.204	464.20833
2667.494	480.875
2669.782	464.20833
2672.07	479.875
2674.355	486.875
2676.639	470.875
2678.922	471.20833
2681.203	483.20833
2683.483	464.875
2685.761	473.875
2688.038	487.54167
2690.313	491.20833
2692.587	485.20833
2694.859	481.20833
2697.13	485.20833
2699.399	498.20833
2701.667	514.875
2703.933	498.54167
2706.198	503.875
2708.461	506.54167
2710.723	501.875
2712.984	495.875
2715.243	510.54167
2717.5	513.875
2719.757	528.20833
2722.011	522.875
2724.264	529.875
2726.516	532.54167
2728.766	515.54167
2731.015	526.20833
2733.262	520.20833
2735.508	514.54167
2737.753	518.54167
2739.996	498.875
2742.237	499.20833
2744.477	527.54167
2746.716	511.54167
2748.953	514.875
2751.189	508.54167
2753.423	492.875
2755.656	484.54167
2757.887	490.20833
2760.117	492.20833
2762.346	493.20833
2764.573	477.20833
2766.798	490.20833
2769.022	490.54167
2771.245	487.20833
2773.467	492.54167
2775.686	494.875
2777.905	505.20833
2780.122	508.20833
2782.337	513.20833
2784.552	517.20833
2786.764	520.54167
2788.976	519.20833
2791.186	530.875
2793.394	530.54167
2795.601	544.875
2797.807	558.54167
2800.011	555.20833
2802.214	566.875
2804.415	576.54167
2806.615	574.20833
2808.814	585.20833
2811.011	585.54167
2813.206	601.54167
2815.401	610.54167
2817.594	624.20833
2819.785	638.875
2821.975	625.875
2824.164	634.20833
2826.351	653.875
2828.537	683.54167
2830.722	700.20833
2832.905	701.20833
2835.086	739.20833
2837.267	779.54167
2839.445	804.54167
2841.623	832.20833
2843.799	860.20833
2845.974	905.20833
2848.147	936.20833
2850.319	964.54167
2852.489	1002.875
2854.659	1019.54167
2856.826	1037.20833
2858.993	1074.20833
2861.158	1055.20833
2863.321	1048.20833
2865.483	1069.875
2867.644	1076.875
2869.804	1058.875
2871.962	1050.20833
2874.118	1064.875
2876.274	1043.875
2878.428	1056.875
2880.58	1044.875
2882.731	1043.875
2884.881	1032.54167
2887.03	1045.875
2889.177	1052.20833
2891.322	1068.54167
2893.467	1066.20833
2895.61	1071.54167
2897.751	1081.54167
2899.892	1078.20833
2902.03	1093.20833
2904.168	1094.875
2906.304	1099.20833
2908.439	1116.875
2910.572	1092.54167
2912.704	1137.20833
2914.835	1129.875
2916.965	1100.20833
2919.093	1134.875
2921.219	1091.54167
2923.345	1098.875
2925.469	1080.875
2927.591	1065.875
2929.712	1015.20833
2931.832	1019.54167
2933.951	1011.20833
2936.068	973.54167
2938.184	938.20833
2940.299	934.875
2942.412	898.875
2944.524	845.20833
2946.634	841.875
2948.744	768.875
2950.851	811.54167
2952.958	751.54167
2955.063	736.875
2957.167	729.54167
2959.269	690.54167
2961.371	702.20833
2963.471	669.875
2965.569	659.875
2967.666	636.54167
2969.762	614.875
2971.857	596.875
2973.95	591.875
2976.042	587.20833
2978.133	562.875
2980.222	540.54167
2982.31	528.54167
2984.396	505.20833
2986.482	508.54167
2988.566	506.875
2990.648	483.875
2992.73	482.20833
2994.81	466.20833
2996.889	469.875
2998.966	462.20833
3001.042	470.875
3003.117	463.875
3005.191	460.54167
3007.263	444.20833
3009.334	450.20833
3011.403	435.20833
3013.472	412.875
3015.539	416.20833
3017.604	429.20833
3019.669	395.54167
3021.732	394.20833
3023.794	404.54167
3025.854	386.875
3027.914	380.54167
3029.971	391.20833
3032.028	377.54167
3034.083	383.875
3036.137	375.875
3038.19	356.875
3040.242	346.20833
3042.292	352.875
3044.341	342.54167
3046.388	361.20833
3048.435	326.20833
3050.48	354.20833
3052.524	338.20833
3054.566	323.20833
3056.607	333.54167
3058.647	321.20833
3060.686	306.875
3062.723	299.54167
3064.759	277.20833
3066.794	0.875
3068.828	-1.125
3070.86	-3.79167
