-0.839	437.70833
3.438	465.70833
7.711	136.04167
11.981	53.375
16.247	50.04167
20.509	43.375
24.768	46.375
29.024	45.375
33.276	43.70833
37.524	51.04167
41.769	38.70833
46.01	36.70833
50.247	50.04167
54.481	58.70833
58.712	67.04167
62.939	49.375
67.162	61.70833
71.382	57.70833
75.599	48.04167
79.812	68.70833
84.021	81.04167
88.227	63.70833
92.429	64.04167
96.628	52.70833
100.823	67.04167
105.015	74.70833
109.204	79.70833
113.388	80.04167
117.57	78.70833
121.748	95.70833
125.922	87.70833
130.093	103.375
134.261	109.04167
138.425	104.70833
142.585	146.70833
146.742	150.375
150.896	173.70833
155.046	213.70833
159.193	339.375
163.336	576.375
167.476	1056.375
171.613	1932.04167
175.746	3294.375
179.875	4937.70833
184.002	6462.375
188.124	7510.70833
192.244	7884.70833
196.36	7812.70833
200.472	7640.375
204.581	7394.375
208.687	7166.375
212.79	7138.375
216.889	7148.375
220.984	7208.375
225.077	7270.70833
229.165	7324.04167
233.251	7413.04167
237.333	7412.70833
241.412	7352.70833
245.487	7306.04167
249.559	7149.375
253.628	7127.70833
257.694	7012.375
261.756	6941.70833
265.814	6802.70833
269.87	6646.04167
273.922	6495.70833
277.97	6424.375
282.016	6418.70833
286.058	6427.375
290.097	6556.04167
294.132	6586.375
298.164	6452.04167
302.193	6151.375
306.219	5713.375
310.241	5186.375
314.26	4751.375
318.276	4375.04167
322.288	4067.04167
326.297	3855.70833
330.303	3681.375
334.305	3581.04167
338.305	3533.70833
342.301	3445.04167
346.294	3420.375
350.283	3385.70833
354.269	3372.04167
358.252	3340.04167
362.232	3314.375
366.209	3303.04167
370.182	3265.04167
374.152	3268.04167
378.119	3252.70833
382.083	3262.04167
386.043	3283.04167
390	3218.04167
393.954	3193.375
397.905	3162.04167
401.852	3148.04167
405.797	3115.375
409.738	3066.04167
413.676	3051.04167
417.61	3034.375
421.542	3011.375
425.47	2966.375
429.396	2937.375
433.318	2924.70833
437.236	2906.04167
441.152	2911.70833
445.065	2861.375
448.974	2867.70833
452.88	2827.70833
456.783	2825.70833
460.683	2805.375
464.58	2817.70833
468.473	2840.04167
472.364	2823.04167
476.251	2834.375
480.135	2853.70833
484.016	2877.70833
487.894	2912.375
491.769	2940.70833
495.641	2930.70833
499.509	2918.375
503.375	2933.375
507.237	2947.04167
511.096	2904.70833
514.952	2954.04167
518.805	3035.70833
522.655	3029.375
526.502	2937.04167
530.346	2881.70833
534.187	2866.375
538.024	2874.70833
541.859	2853.375
545.69	2894.04167
549.519	2880.375
553.344	2838.04167
557.166	2786.04167
560.985	2767.375
564.802	2762.04167
568.615	2711.04167
572.425	2676.70833
576.232	2665.04167
580.036	2658.70833
583.836	2656.375
587.634	2665.375
591.429	2669.04167
595.221	2694.70833
599.01	2726.04167
602.796	2774.375
606.578	2790.375
610.358	2777.04167
614.135	2738.70833
617.909	2762.375
621.679	2768.70833
625.447	2737.375
629.212	2718.375
632.973	2756.375
636.732	2739.04167
640.488	2754.70833
644.241	2698.70833
647.991	2706.04167
651.737	2700.04167
655.481	2663.375
659.222	2693.375
662.96	2673.04167
666.695	2714.04167
670.427	2691.70833
674.156	2708.375
677.882	2726.04167
681.605	2723.04167
685.325	2695.70833
689.043	2697.375
692.757	2708.70833
696.468	2706.70833
700.177	2725.70833
703.882	2683.375
707.585	2701.70833
711.284	2707.70833
714.981	2721.375
718.675	2715.70833
722.366	2734.70833
726.054	2708.375
729.739	2705.375
733.421	2721.70833
737.1	2707.04167
740.777	2753.375
744.45	2781.70833
748.121	2802.375
751.789	2844.70833
755.453	2825.375
759.115	2844.04167
762.774	2887.04167
766.431	2904.375
770.084	2913.70833
773.734	2977.04167
777.382	3001.04167
781.027	3050.70833
784.669	3073.04167
788.308	3090.70833
791.944	3106.375
795.577	3125.70833
799.208	3147.70833
802.835	3177.04167
806.46	3196.04167
810.082	3217.375
813.701	3231.04167
817.317	3235.04167
820.931	3232.04167
824.542	3246.70833
828.149	3226.375
831.754	3188.70833
835.357	3187.375
838.956	3196.375
842.553	3179.70833
846.146	3170.70833
849.737	3186.04167
853.326	3190.70833
856.911	3191.70833
860.493	3247.375
864.073	3257.375
867.65	3327.04167
871.225	3362.70833
874.796	3349.70833
878.365	3382.04167
881.931	3389.375
885.494	3410.70833
889.054	3444.04167
892.612	3481.70833
896.166	3459.04167
899.719	3445.375
903.268	3401.375
906.814	3339.04167
910.358	3309.375
913.899	3256.70833
917.438	3279.70833
920.973	3246.04167
924.506	3278.375
928.036	3345.04167
931.564	3378.04167
935.088	3396.04167
938.61	3393.375
942.129	3419.04167
945.646	3509.375
949.16	3571.04167
952.671	3672.375
956.179	3672.70833
959.685	3651.375
963.188	3598.375
966.688	3552.04167
970.185	3482.375
973.68	3446.375
977.173	3415.04167
980.662	3415.70833
984.149	3462.04167
987.633	3452.04167
991.114	3533.70833
994.593	3624.375
998.069	3727.04167
1001.542	3831.04167
1005.013	3725.04167
1008.481	3524.04167
1011.947	3439.375
1015.409	3440.70833
1018.869	3453.04167
1022.327	3445.70833
1025.782	3422.04167
1029.234	3449.04167
1032.683	3384.70833
1036.13	3274.375
1039.574	3122.04167
1043.016	3074.04167
1046.455	3038.70833
1049.891	2964.04167
1053.325	2967.70833
1056.756	2983.375
1060.184	3013.04167
1063.61	3037.70833
1067.033	3045.375
1070.454	3034.70833
1073.872	3094.70833
1077.287	3081.70833
1080.7	3088.04167
1084.11	3081.04167
1087.517	3064.70833
1090.922	3038.04167
1094.325	2999.375
1097.724	2956.70833
1101.122	2964.04167
1104.516	2963.70833
1107.908	2970.04167
1111.298	3007.04167
1114.684	3057.375
1118.069	3075.04167
1121.45	3105.375
1124.83	3093.375
1128.206	3139.375
1131.58	3190.04167
1134.951	3259.375
1138.32	3368.04167
1141.687	3510.04167
1145.05	3601.375
1148.412	3609.70833
1151.77	3586.04167
1155.126	3578.375
1158.48	3577.70833
1161.831	3610.04167
1165.18	3607.70833
1168.525	3692.04167
1171.869	3737.04167
1175.21	3758.04167
1178.548	3790.70833
1181.884	3832.04167
1185.217	3861.70833
1188.548	3927.04167
1191.877	4015.375
1195.202	4059.04167
1198.526	4132.04167
1201.846	4128.70833
1205.165	4155.375
1208.48	4129.04167
1211.794	4077.375
1215.104	4124.70833
1218.413	4133.70833
1221.719	4139.375
1225.022	4098.375
1228.323	4055.70833
1231.621	4060.70833
1234.917	4040.375
1238.21	4090.375
1241.501	4062.70833
1244.79	4058.04167
1248.076	4079.70833
1251.359	4115.375
1254.64	4188.04167
1257.919	4191.70833
1261.195	4288.375
1264.468	4366.70833
1267.74	4457.375
1271.008	4416.375
1274.275	4396.70833
1277.538	4346.70833
1280.8	4359.04167
1284.059	4339.375
1287.315	4414.375
1290.569	4386.70833
1293.821	4421.375
1297.07	4432.375
1300.317	4455.375
1303.562	4439.375
1306.803	4418.70833
1310.043	4365.70833
1313.28	4289.70833
1316.515	4244.70833
1319.747	4183.04167
1322.977	4140.04167
1326.204	4139.375
1329.429	4096.04167
1332.652	4063.70833
1335.872	4042.04167
1339.09	4025.04167
1342.306	4018.70833
1345.519	3991.70833
1348.729	3931.04167
1351.938	3932.375
1355.144	3854.70833
1358.347	3828.70833
1361.548	3811.375
1364.747	3863.375
1367.944	3820.70833
1371.138	3854.375
1374.329	3880.04167
1377.518	3906.70833
1380.705	3985.70833
1383.89	3937.375
1387.072	3808.04167
1390.252	3676.70833
1393.429	3574.375
1396.605	3475.70833
1399.777	3352.70833
1402.948	3357.375
1406.116	3350.04167
1409.282	3352.04167
1412.445	3386.375
1415.606	3405.04167
1418.765	3466.04167
1421.921	3509.375
1425.075	3595.70833
1428.227	3710.70833
1431.376	3833.375
1434.524	3959.375
1437.668	4063.70833
1440.811	4079.70833
1443.951	4148.04167
1447.089	4151.04167
1450.224	4107.375
1453.357	4074.04167
1456.488	4086.70833
1459.617	4002.375
1462.743	3935.375
1465.867	3831.70833
1468.989	3799.04167
1472.108	3717.375
1475.225	3639.04167
1478.34	3611.04167
1481.453	3585.375
1484.563	3607.70833
1487.671	3658.375
1490.776	3739.70833
1493.88	3795.375
1496.981	3894.375
1500.08	3960.70833
1503.176	3997.04167
1506.271	4061.70833
1509.363	4113.375
1512.452	4147.04167
1515.54	4222.375
1518.625	4298.70833
1521.708	4453.04167
1524.789	4652.04167
1527.867	4910.70833
1530.944	5188.375
1534.018	5499.70833
1537.089	5685.70833
1540.159	5780.70833
1543.226	5699.04167
1546.291	5543.04167
1549.354	5399.375
1552.415	5208.04167
1555.473	5051.70833
1558.529	4947.375
1561.583	4869.375
1564.634	4805.04167
1567.684	4775.70833
1570.731	4770.70833
1573.776	4769.375
1576.819	4819.375
1579.859	4840.375
1582.898	4895.04167
1585.934	4902.375
1588.968	4934.375
1591.999	4914.375
1595.029	4907.04167
1598.056	4930.70833
1601.081	4940.375
1604.104	4939.70833
1607.125	4885.375
1610.144	4776.04167
1613.16	4682.04167
1616.174	4575.375
1619.186	4464.04167
1622.196	4363.70833
1625.203	4269.04167
1628.209	4186.70833
1631.212	4155.375
1634.213	4086.04167
1637.212	4094.70833
1640.209	4016.375
1643.203	3927.04167
1646.196	3813.375
1649.186	3679.70833
1652.174	3574.375
1655.16	3493.04167
1658.144	3392.70833
1661.125	3222.375
1664.105	3100.375
1667.082	2961.70833
1670.057	2807.70833
1673.03	2633.70833
1676.001	2475.04167
1678.97	2277.70833
1681.937	2158.70833
1684.901	2039.70833
1687.863	1972.70833
1690.824	1891.04167
1693.782	1853.70833
1696.738	1784.70833
1699.692	1750.04167
1702.643	1713.04167
1705.593	1698.04167
1708.54	1670.375
1711.486	1668.04167
1714.429	1618.375
1717.37	1614.04167
1720.309	1571.70833
1723.246	1601.375
1726.181	1550.70833
1729.113	1543.375
1732.044	1532.70833
1734.972	1535.70833
1737.899	1506.04167
1740.823	1496.375
1743.745	1502.04167
1746.665	1444.375
1749.583	1412.70833
1752.499	1400.375
1755.413	1397.70833
1758.325	1341.375
1761.235	1347.04167
1764.142	1310.70833
1767.048	1305.375
1769.951	1310.375
1772.852	1305.04167
1775.752	1292.375
1778.649	1297.04167
1781.544	1289.375
1784.437	1259.375
1787.328	1260.375
1790.217	1268.375
1793.104	1237.375
1795.989	1238.70833
1798.872	1221.375
1801.753	1241.375
1804.631	1239.375
1807.508	1240.70833
1810.383	1227.70833
1813.255	1216.70833
1816.126	1226.375
1818.994	1215.04167
1821.861	1194.04167
1824.725	1192.70833
1827.587	1198.70833
1830.448	1180.04167
1833.306	1151.04167
1836.162	1194.04167
1839.017	1168.375
1841.869	1156.375
1844.719	1161.70833
1847.567	1146.375
1850.414	1126.375
1853.258	1143.04167
1856.1	1154.375
1858.94	1153.04167
1861.778	1139.70833
1864.614	1129.04167
1867.448	1144.375
1870.28	1121.375
1873.111	1141.375
1875.939	1135.04167
1878.765	1148.04167
1881.589	1129.04167
1884.411	1124.375
1887.231	1138.70833
1890.049	1116.375
1892.865	1118.70833
1895.68	1108.375
1898.492	1104.375
1901.302	1102.375
1904.11	1098.375
1906.916	1087.70833
1909.721	1072.70833
1912.523	1104.04167
1915.323	1065.375
1918.122	1075.04167
1920.918	1086.70833
1923.712	1078.04167
1926.505	1073.04167
1929.295	1060.70833
1932.084	1075.04167
1934.87	1081.70833
1937.655	1056.375
1940.438	1051.375
1943.218	1057.70833
1945.997	1056.375
1948.774	1066.04167
1951.549	1064.70833
1954.322	1061.375
1957.093	1058.70833
1959.862	1056.70833
1962.629	1055.375
1965.394	1036.70833
1968.157	1028.375
1970.918	1042.375
1973.678	1019.04167
1976.435	1039.04167
1979.19	1015.04167
1981.944	1006.04167
1984.696	1017.375
1987.445	1003.04167
1990.193	1021.375
1992.939	1022.375
1995.683	1013.70833
1998.425	988.70833
2001.165	1015.04167
2003.903	990.04167
2006.639	1000.70833
2009.374	1002.04167
2012.106	1006.375
2014.837	990.70833
2017.566	1009.04167
2020.292	993.70833
2023.017	994.375
2025.74	983.375
2028.461	984.70833
2031.18	984.70833
2033.898	970.375
2036.613	980.04167
2039.327	979.375
2042.038	962.70833
2044.748	978.70833
2047.456	968.04167
2050.162	961.375
2052.866	962.04167
2055.568	973.375
2058.268	966.04167
2060.967	976.375
2063.663	946.70833
2066.358	955.04167
2069.051	951.375
2071.742	962.70833
2074.431	963.70833
2077.118	973.375
2079.804	964.70833
2082.487	986.70833
2085.169	991.375
2087.849	1008.70833
2090.527	971.70833
2093.203	1000.375
2095.877	999.70833
2098.55	1023.04167
2101.22	1030.04167
2103.889	1048.70833
2106.556	1074.04167
2109.221	1137.375
2111.884	1184.70833
2114.546	1296.375
2117.205	1420.04167
2119.863	1579.70833
2122.519	1724.375
2125.173	1817.375
2127.825	1936.04167
2130.475	1935.70833
2133.124	1861.375
2135.771	1786.04167
2138.416	1695.70833
2141.059	1556.04167
2143.7	1503.375
2146.339	1383.375
2148.977	1312.04167
2151.613	1275.375
2154.247	1221.375
2156.879	1179.04167
2159.51	1141.70833
2162.138	1102.375
2164.765	1091.04167
2167.39	1072.70833
2170.013	1072.375
2172.634	1062.375
2175.254	1043.375
2177.872	1070.375
2180.488	1022.375
2183.102	1005.04167
2185.714	996.70833
2188.325	968.70833
2190.934	973.375
2193.541	950.04167
2196.146	942.70833
2198.75	917.04167
2201.351	921.375
2203.951	902.70833
2206.549	915.70833
2209.146	890.04167
2211.74	883.375
2214.333	896.375
2216.924	866.70833
2219.514	865.70833
2222.101	859.375
2224.687	871.375
2227.271	841.375
2229.853	837.375
2232.433	823.04167
2235.012	851.70833
2237.589	848.70833
2240.164	855.04167
2242.738	846.04167
2245.309	819.04167
2247.879	817.04167
2250.448	838.70833
2253.014	805.70833
2255.579	797.375
2258.142	803.70833
2260.703	780.04167
2263.262	792.70833
2265.82	782.04167
2268.376	786.70833
2270.93	770.04167
2273.483	771.70833
2276.033	774.04167
2278.583	752.70833
2281.13	750.70833
2283.675	752.375
2286.219	744.70833
2288.761	745.70833
2291.302	753.04167
2293.841	752.70833
2296.377	731.04167
2298.913	737.70833
2301.446	760.04167
2303.978	740.04167
2306.508	720.70833
2309.037	724.04167
2311.563	727.70833
2314.088	726.375
2316.612	720.375
2319.133	723.70833
2321.653	715.04167
2324.171	709.04167
2326.688	718.04167
2329.202	700.375
2331.715	716.04167
2334.227	700.04167
2336.736	695.70833
2339.244	702.04167
2341.751	693.375
2344.255	713.70833
2346.758	692.04167
2349.259	688.70833
2351.759	692.70833
2354.257	679.04167
2356.753	685.375
2359.247	691.04167
2361.74	701.04167
2364.231	680.70833
2366.721	693.375
2369.209	685.04167
2371.695	684.04167
2374.179	668.70833
2376.662	668.04167
2379.143	698.04167
2381.622	670.375
2384.1	676.375
2386.576	667.375
2389.051	686.70833
2391.524	692.04167
2393.995	685.70833
2396.464	666.70833
2398.932	662.70833
2401.398	658.375
2403.863	662.375
2406.325	657.04167
2408.787	666.04167
2411.246	706.04167
2413.704	718.04167
2416.16	661.70833
2418.615	659.04167
2421.068	670.375
2423.519	657.04167
2425.969	653.04167
2428.417	658.04167
2430.863	983.04167
2433.308	721.04167
2435.751	644.375
2438.193	646.04167
2440.633	653.70833
2443.071	660.375
2445.508	639.70833
2447.943	637.375
2450.376	633.375
2452.808	648.70833
2455.238	631.375
2457.667	662.375
2460.093	636.04167
2462.519	639.375
2464.942	630.375
2467.365	638.04167
2469.785	632.04167
2472.204	630.375
2474.621	624.70833
2477.037	643.70833
2479.451	609.70833
2481.863	620.04167
2484.274	618.70833
2486.683	632.375
2489.091	630.375
2491.497	624.375
2493.901	618.70833
2496.304	614.04167
2498.705	620.375
2501.105	624.70833
2503.503	648.375
2505.899	614.04167
2508.294	629.70833
2510.687	598.70833
2513.079	617.70833
2515.469	605.04167
2517.858	612.04167
2520.245	633.04167
2522.63	609.70833
2525.014	605.375
2527.396	603.375
2529.776	602.04167
2532.156	623.04167
2534.533	589.375
2536.909	602.70833
2539.283	583.375
2541.656	591.04167
2544.027	621.375
2546.397	611.375
2548.765	592.375
2551.131	594.04167
2553.496	595.375
2555.86	613.04167
2558.221	598.375
2560.582	594.04167
2562.94	583.04167
2565.298	596.70833
2567.653	602.375
2570.007	580.70833
2572.36	599.04167
2574.711	594.375
2577.06	613.375
2579.408	600.70833
2581.754	597.04167
2584.099	598.04167
2586.442	592.375
2588.784	600.375
2591.124	597.04167
2593.463	591.04167
2595.8	591.70833
2598.135	597.04167
2600.469	585.70833
2602.802	607.70833
2605.133	593.375
2607.462	577.70833
2609.79	582.375
2612.116	600.04167
2614.441	594.04167
2616.764	596.70833
2619.086	585.375
2621.406	583.70833
2623.725	607.04167
2626.042	598.70833
2628.358	581.70833
2630.672	590.04167
2632.985	601.04167
2635.296	598.375
2637.606	592.375
2639.914	583.04167
2642.22	592.70833
2644.525	591.375
2646.829	600.375
2649.131	608.375
2651.432	609.375
2653.731	606.70833
2656.028	613.375
2658.324	600.70833
2660.619	605.375
2662.912	617.04167
2665.204	590.70833
2667.494	615.375
2669.782	610.70833
2672.07	614.70833
2674.355	626.375
2676.639	600.70833
2678.922	596.375
2681.203	615.70833
2683.483	613.70833
2685.761	595.375
2688.038	618.70833
2690.313	625.375
2692.587	619.70833
2694.859	609.375
2697.13	619.375
2699.399	611.375
2701.667	628.375
2703.933	635.375
2706.198	630.70833
2708.461	653.70833
2710.723	644.375
2712.984	649.375
2715.243	658.70833
2717.5	643.375
2719.757	660.375
2722.011	650.70833
2724.264	658.04167
2726.516	679.70833
2728.766	655.70833
2731.015	670.375
2733.262	654.70833
2735.508	661.375
2737.753	665.70833
2739.996	642.375
2742.237	648.04167
2744.477	651.375
2746.716	648.70833
2748.953	650.70833
2751.189	642.70833
2753.423	629.04167
2755.656	621.70833
2757.887	634.375
2760.117	629.04167
2762.346	612.70833
2764.573	623.375
2766.798	634.70833
2769.022	634.375
2771.245	644.04167
2773.467	643.04167
2775.686	643.70833
2777.905	650.70833
2780.122	655.375
2782.337	662.70833
2784.552	655.04167
2786.764	669.04167
2788.976	683.375
2791.186	685.04167
2793.394	687.70833
2795.601	699.04167
2797.807	713.70833
2800.011	719.375
2802.214	743.70833
2804.415	732.70833
2806.615	753.04167
2808.814	754.70833
2811.011	759.70833
2813.206	757.70833
2815.401	785.70833
2817.594	797.70833
2819.785	809.04167
2821.975	802.04167
2824.164	827.70833
2826.351	847.375
2828.537	866.04167
2830.722	881.375
2832.905	887.70833
2835.086	923.70833
2837.267	954.70833
2839.445	975.70833
2841.623	1001.04167
2843.799	1038.04167
2845.974	1082.375
2848.147	1132.375
2850.319	1143.375
2852.489	1176.375
2854.659	1195.375
2856.826	1223.70833
2858.993	1242.375
2861.158	1225.04167
2863.321	1233.04167
2865.483	1254.375
2867.644	1257.375
2869.804	1249.70833
2871.962	1221.375
2874.118	1241.70833
2876.274	1237.375
2878.428	1217.375
2880.58	1224.04167
2882.731	1203.70833
2884.881	1219.04167
2887.03	1207.375
2889.177	1227.04167
2891.322	1241.70833
2893.467	1229.70833
2895.61	1231.04167
2897.751	1236.70833
2899.892	1253.375
2902.03	1246.04167
2904.168	1257.375
2906.304	1265.04167
2908.439	1273.04167
2910.572	1263.70833
2912.704	1282.04167
2914.835	1282.375
2916.965	1259.70833
2919.093	1276.04167
2921.219	1239.04167
2923.345	1264.04167
2925.469	1246.375
2927.591	1218.04167
2929.712	1172.375
2931.832	1170.70833
2933.951	1141.70833
2936.068	1108.70833
2938.184	1088.375
2940.299	1041.375
2942.412	1032.70833
2944.524	980.04167
2946.634	970.375
2948.744	912.375
2950.851	921.70833
2952.958	874.04167
2955.063	869.04167
2957.167	858.375
2959.269	815.375
2961.371	829.04167
2963.471	793.70833
2965.569	782.375
2967.666	761.70833
2969.762	749.375
2971.857	722.70833
2973.95	711.70833
2976.042	692.70833
2978.133	676.04167
2980.222	660.70833
2982.31	644.70833
2984.396	624.70833
2986.482	615.375
2988.566	613.04167
2990.648	596.04167
2992.73	596.04167
2994.81	584.04167
2996.889	587.375
2998.966	575.04167
3001.042	573.70833
3003.117	569.70833
3005.191	550.04167
3007.263	556.04167
3009.334	546.375
3011.403	545.70833
3013.472	527.04167
3015.539	532.04167
3017.604	535.04167
3019.669	501.70833
3021.732	503.375
3023.794	502.04167
3025.854	491.04167
3027.914	477.70833
3029.971	485.04167
3032.028	484.04167
3034.083	491.04167
3036.137	476.375
3038.19	461.70833
3040.242	453.04167
3042.292	432.375
3044.341	430.375
3046.388	451.375
3048.435	426.04167
3050.48	431.375
3052.524	431.375
3054.566	402.375
3056.607	433.70833
3058.647	408.70833
3060.686	387.70833
3062.723	379.375
3064.759	369.375
3066.794	0.70833
3068.828	-1.625
3070.86	-2.625
