-0.839	434.45833
3.438	456.125
7.711	125.45833
11.981	51.79167
16.247	45.79167
20.509	45.125
24.768	43.79167
29.024	47.125
33.276	44.45833
37.524	51.45833
41.769	40.125
46.01	37.79167
50.247	52.45833
54.481	62.125
58.712	63.125
62.939	54.45833
67.162	62.45833
71.382	57.125
75.599	47.79167
79.812	63.45833
84.021	85.79167
88.227	58.79167
92.429	62.79167
96.628	53.45833
100.823	66.79167
105.015	70.125
109.204	79.45833
113.388	75.45833
117.57	75.125
121.748	87.79167
125.922	77.125
130.093	97.45833
134.261	103.79167
138.425	96.125
142.585	139.125
146.742	142.45833
150.896	169.45833
155.046	199.79167
159.193	313.125
163.336	543.45833
167.476	991.79167
171.613	1796.45833
175.746	3054.125
179.875	4530.79167
184.002	5951.45833
188.124	6889.79167
192.244	7206.125
196.36	7068.79167
200.472	6837.125
204.581	6610.45833
208.687	6413.45833
212.79	6292.79167
216.889	6263.79167
220.984	6316.45833
225.077	6335.45833
229.165	6308.45833
233.251	6315.79167
237.333	6336.79167
241.412	6273.125
245.487	6218.45833
249.559	6139.79167
253.628	6096.79167
257.694	6033.45833
261.756	5994.79167
265.814	5909.45833
269.87	5780.125
273.922	5692.125
277.97	5672.79167
282.016	5694.125
286.058	5783.45833
290.097	5904.79167
294.132	5990.79167
298.164	5962.79167
302.193	5657.79167
306.219	5261.125
310.241	4795.79167
314.26	4352.125
318.276	3984.125
322.288	3718.45833
326.297	3502.125
330.303	3350.79167
334.305	3238.125
338.305	3145.79167
342.301	3119.45833
346.294	3078.79167
350.283	3034.125
354.269	3010.45833
358.252	2979.79167
362.232	2957.125
366.209	2943.125
370.182	2893.79167
374.152	2869.125
378.119	2841.45833
382.083	2842.45833
386.043	2886.79167
390	2813.125
393.954	2809.45833
397.905	2770.79167
401.852	2773.45833
405.797	2746.125
409.738	2706.45833
413.676	2723.79167
417.61	2699.45833
421.542	2670.79167
425.47	2681.45833
429.396	2642.45833
433.318	2607.79167
437.236	2588.79167
441.152	2605.125
445.065	2561.125
448.974	2545.79167
452.88	2515.45833
456.783	2526.125
460.683	2494.45833
464.58	2496.125
468.473	2494.45833
472.364	2526.125
476.251	2509.45833
480.135	2553.125
484.016	2604.79167
487.894	2621.79167
491.769	2627.45833
495.641	2637.79167
499.509	2633.79167
503.375	2670.45833
507.237	2656.79167
511.096	2670.79167
514.952	2786.125
518.805	2952.45833
522.655	2998.45833
526.502	2757.45833
530.346	2622.79167
534.187	2606.45833
538.024	2610.45833
541.859	2588.45833
545.69	2642.45833
549.519	2601.45833
553.344	2575.125
557.166	2551.125
560.985	2520.79167
564.802	2483.79167
568.615	2444.125
572.425	2410.79167
576.232	2398.45833
580.036	2362.79167
583.836	2387.125
587.634	2388.79167
591.429	2372.125
595.221	2439.45833
599.01	2477.125
602.796	2490.125
606.578	2516.125
610.358	2519.125
614.135	2481.79167
617.909	2482.79167
621.679	2462.45833
625.447	2441.125
629.212	2457.45833
632.973	2451.125
636.732	2434.125
640.488	2439.45833
644.241	2410.79167
647.991	2392.45833
651.737	2424.125
655.481	2366.45833
659.222	2399.79167
662.96	2371.125
666.695	2415.45833
670.427	2422.79167
674.156	2442.79167
677.882	2448.125
681.605	2425.125
685.325	2432.79167
689.043	2426.79167
692.757	2401.45833
696.468	2417.45833
700.177	2404.45833
703.882	2396.45833
707.585	2393.79167
711.284	2403.125
714.981	2390.79167
718.675	2418.79167
722.366	2414.79167
726.054	2390.45833
729.739	2404.45833
733.421	2411.125
737.1	2396.125
740.777	2426.45833
744.45	2463.79167
748.121	2473.45833
751.789	2522.45833
755.453	2512.79167
759.115	2526.79167
762.774	2537.45833
766.431	2552.45833
770.084	2575.79167
773.734	2628.45833
777.382	2672.125
781.027	2703.45833
784.669	2701.45833
788.308	2709.45833
791.944	2745.45833
795.577	2768.125
799.208	2791.125
802.835	2795.125
806.46	2817.125
810.082	2820.79167
813.701	2822.125
817.317	2852.45833
820.931	2827.45833
824.542	2842.45833
828.149	2822.79167
831.754	2787.125
835.357	2791.45833
838.956	2822.45833
842.553	2772.79167
846.146	2770.45833
849.737	2776.45833
853.326	2763.125
856.911	2792.125
860.493	2830.125
864.073	2820.79167
867.65	2871.125
871.225	2909.125
874.796	2902.125
878.365	2919.125
881.931	2975.79167
885.494	2988.79167
889.054	3012.79167
892.612	3047.79167
896.166	3038.45833
899.719	3006.79167
903.268	2954.45833
906.814	2896.45833
910.358	2874.125
913.899	2853.79167
917.438	2875.125
920.973	2832.79167
924.506	2892.79167
928.036	2931.79167
931.564	2939.125
935.088	2984.79167
938.61	3004.45833
942.129	3038.79167
945.646	3130.45833
949.16	3181.125
952.671	3272.79167
956.179	3286.45833
959.685	3236.125
963.188	3199.79167
966.688	3123.125
970.185	3046.125
973.68	2982.79167
977.173	2971.125
980.662	2933.125
984.149	2936.125
987.633	2895.45833
991.114	2969.79167
994.593	3049.45833
998.069	3159.125
1001.542	3250.45833
1005.013	3182.79167
1008.481	3003.125
1011.947	2957.79167
1015.409	2904.45833
1018.869	2936.45833
1022.327	2939.79167
1025.782	2933.125
1029.234	2923.45833
1032.683	2874.79167
1036.13	2834.79167
1039.574	2676.45833
1043.016	2623.79167
1046.455	2575.45833
1049.891	2533.125
1053.325	2577.45833
1056.756	2526.45833
1060.184	2584.125
1063.61	2621.45833
1067.033	2612.79167
1070.454	2604.45833
1073.872	2647.79167
1077.287	2622.45833
1080.7	2650.79167
1084.11	2649.125
1087.517	2615.125
1090.922	2619.45833
1094.325	2592.125
1097.724	2554.79167
1101.122	2545.125
1104.516	2552.79167
1107.908	2557.79167
1111.298	2601.125
1114.684	2618.79167
1118.069	2652.125
1121.45	2707.79167
1124.83	2701.45833
1128.206	2734.125
1131.58	2794.45833
1134.951	2866.125
1138.32	2975.79167
1141.687	3072.45833
1145.05	3140.45833
1148.412	3133.79167
1151.77	3126.125
1155.126	3139.79167
1158.48	3115.79167
1161.831	3139.79167
1165.18	3160.125
1168.525	3195.79167
1171.869	3267.79167
1175.21	3247.45833
1178.548	3291.45833
1181.884	3304.125
1185.217	3338.45833
1188.548	3440.125
1191.877	3471.45833
1195.202	3574.79167
1198.526	3615.79167
1201.846	3642.125
1205.165	3646.79167
1208.48	3632.79167
1211.794	3629.79167
1215.104	3673.45833
1218.413	3696.79167
1221.719	3668.45833
1225.022	3620.79167
1228.323	3560.79167
1231.621	3568.45833
1234.917	3503.45833
1238.21	3529.79167
1241.501	3519.79167
1244.79	3522.79167
1248.076	3525.45833
1251.359	3554.79167
1254.64	3647.45833
1257.919	3660.79167
1261.195	3699.45833
1264.468	3796.45833
1267.74	3855.125
1271.008	3871.45833
1274.275	3846.79167
1277.538	3835.45833
1280.8	3801.79167
1284.059	3803.79167
1287.315	3858.125
1290.569	3864.45833
1293.821	3870.125
1297.07	3894.45833
1300.317	3908.79167
1303.562	3884.125
1306.803	3877.125
1310.043	3817.125
1313.28	3782.125
1316.515	3765.79167
1319.747	3732.125
1322.977	3667.45833
1326.204	3664.79167
1329.429	3594.45833
1332.652	3567.79167
1335.872	3545.79167
1339.09	3506.79167
1342.306	3470.125
1345.519	3414.79167
1348.729	3369.79167
1351.938	3365.45833
1355.144	3276.45833
1358.347	3269.79167
1361.548	3296.45833
1364.747	3277.45833
1367.944	3257.45833
1371.138	3298.45833
1374.329	3353.45833
1377.518	3395.79167
1380.705	3422.45833
1383.89	3383.125
1387.072	3269.125
1390.252	3151.125
1393.429	3041.45833
1396.605	2969.45833
1399.777	2907.45833
1402.948	2879.125
1406.116	2890.125
1409.282	2903.125
1412.445	2906.125
1415.606	2954.45833
1418.765	3004.125
1421.921	3047.79167
1425.075	3144.125
1428.227	3231.45833
1431.376	3355.79167
1434.524	3457.45833
1437.668	3551.125
1440.811	3595.45833
1443.951	3607.125
1447.089	3636.79167
1450.224	3615.45833
1453.357	3576.79167
1456.488	3549.125
1459.617	3464.45833
1462.743	3447.45833
1465.867	3339.125
1468.989	3297.79167
1472.108	3250.79167
1475.225	3194.125
1478.34	3172.45833
1481.453	3155.79167
1484.563	3166.45833
1487.671	3238.125
1490.776	3259.79167
1493.88	3346.79167
1496.981	3403.79167
1500.08	3444.79167
1503.176	3491.125
1506.271	3546.79167
1509.363	3605.125
1512.452	3643.45833
1515.54	3681.45833
1518.625	3762.45833
1521.708	3898.79167
1524.789	3982.79167
1527.867	4206.45833
1530.944	4414.79167
1534.018	4638.125
1537.089	4773.79167
1540.159	4838.45833
1543.226	4801.125
1546.291	4668.45833
1549.354	4532.125
1552.415	4446.79167
1555.473	4307.79167
1558.529	4184.125
1561.583	4174.125
1564.634	4097.125
1567.684	4093.79167
1570.731	4082.125
1573.776	4090.79167
1576.819	4121.125
1579.859	4091.45833
1582.898	4182.79167
1585.934	4192.79167
1588.968	4225.125
1591.999	4194.79167
1595.029	4196.79167
1598.056	4221.125
1601.081	4236.79167
1604.104	4232.125
1607.125	4186.45833
1610.144	4078.125
1613.16	3993.79167
1616.174	3905.125
1619.186	3788.79167
1622.196	3702.45833
1625.203	3614.45833
1628.209	3545.45833
1631.212	3481.79167
1634.213	3442.125
1637.212	3413.45833
1640.209	3356.45833
1643.203	3245.125
1646.196	3126.79167
1649.186	3044.125
1652.174	2985.45833
1655.16	2886.45833
1658.144	2801.125
1661.125	2703.45833
1664.105	2578.79167
1667.082	2491.45833
1670.057	2340.45833
1673.03	2206.125
1676.001	2052.45833
1678.97	1932.125
1681.937	1815.79167
1684.901	1704.125
1687.863	1656.45833
1690.824	1580.79167
1693.782	1547.45833
1696.738	1497.125
1699.692	1470.45833
1702.643	1432.45833
1705.593	1421.125
1708.54	1407.45833
1711.486	1386.125
1714.429	1367.125
1717.37	1356.79167
1720.309	1326.125
1723.246	1340.125
1726.181	1296.79167
1729.113	1302.45833
1732.044	1277.125
1734.972	1282.45833
1737.899	1274.45833
1740.823	1275.125
1743.745	1267.125
1746.665	1202.79167
1749.583	1192.79167
1752.499	1176.45833
1755.413	1174.79167
1758.325	1143.45833
1761.235	1150.79167
1764.142	1117.79167
1767.048	1122.79167
1769.951	1100.79167
1772.852	1093.79167
1775.752	1095.125
1778.649	1109.125
1781.544	1102.79167
1784.437	1078.79167
1787.328	1077.79167
1790.217	1066.45833
1793.104	1045.45833
1795.989	1049.79167
1798.872	1020.125
1801.753	1047.125
1804.631	1051.45833
1807.508	1056.45833
1810.383	1030.125
1813.255	1043.125
1816.126	1029.125
1818.994	1024.79167
1821.861	1025.125
1824.725	1002.125
1827.587	1015.45833
1830.448	1018.45833
1833.306	988.125
1836.162	1012.125
1839.017	983.79167
1841.869	990.125
1844.719	976.79167
1847.567	972.79167
1850.414	973.45833
1853.258	968.45833
1856.1	971.45833
1858.94	995.79167
1861.778	969.125
1864.614	962.45833
1867.448	982.79167
1870.28	951.79167
1873.111	974.79167
1875.939	960.79167
1878.765	989.79167
1881.589	959.125
1884.411	951.79167
1887.231	964.79167
1890.049	966.45833
1892.865	944.79167
1895.68	954.125
1898.492	949.45833
1901.302	928.79167
1904.11	941.125
1906.916	926.79167
1909.721	914.45833
1912.523	924.45833
1915.323	908.79167
1918.122	909.125
1920.918	919.125
1923.712	909.45833
1926.505	914.45833
1929.295	901.79167
1932.084	920.45833
1934.87	912.45833
1937.655	912.125
1940.438	899.125
1943.218	913.79167
1945.997	893.125
1948.774	912.45833
1951.549	899.79167
1954.322	897.45833
1957.093	908.125
1959.862	882.79167
1962.629	899.125
1965.394	890.45833
1968.157	888.45833
1970.918	888.125
1973.678	880.79167
1976.435	902.79167
1979.19	872.79167
1981.944	869.125
1984.696	856.45833
1987.445	862.45833
1990.193	868.79167
1992.939	875.45833
1995.683	865.125
1998.425	841.45833
2001.165	883.79167
2003.903	848.79167
2006.639	853.79167
2009.374	855.125
2012.106	852.45833
2014.837	834.79167
2017.566	856.125
2020.292	850.45833
2023.017	851.79167
2025.74	845.45833
2028.461	844.45833
2031.18	844.79167
2033.898	829.79167
2036.613	837.79167
2039.327	842.79167
2042.038	814.45833
2044.748	828.45833
2047.456	817.45833
2050.162	808.125
2052.866	818.79167
2055.568	821.45833
2058.268	820.79167
2060.967	827.45833
2063.663	798.79167
2066.358	821.125
2069.051	800.125
2071.742	824.79167
2074.431	826.125
2077.118	823.45833
2079.804	801.125
2082.487	813.125
2085.169	827.45833
2087.849	843.45833
2090.527	829.45833
2093.203	827.45833
2095.877	819.45833
2098.55	842.79167
2101.22	857.79167
2103.889	879.125
2106.556	866.79167
2109.221	905.79167
2111.884	938.125
2114.546	1007.125
2117.205	1072.45833
2119.863	1172.45833
2122.519	1242.45833
2125.173	1295.125
2127.825	1369.125
2130.475	1355.125
2133.124	1306.79167
2135.771	1236.45833
2138.416	1182.45833
2141.059	1101.45833
2143.7	1061.45833
2146.339	990.125
2148.977	945.79167
2151.613	951.45833
2154.247	907.45833
2156.879	880.79167
2159.51	857.45833
2162.138	852.45833
2164.765	864.125
2167.39	831.79167
2170.013	852.45833
2172.634	839.125
2175.254	821.45833
2177.872	845.125
2180.488	798.79167
2183.102	803.79167
2185.714	792.125
2188.325	786.125
2190.934	797.79167
2193.541	787.45833
2196.146	759.45833
2198.75	754.79167
2201.351	762.45833
2203.951	738.79167
2206.549	765.79167
2209.146	748.79167
2211.74	742.125
2214.333	752.45833
2216.924	716.79167
2219.514	735.45833
2222.101	720.45833
2224.687	730.125
2227.271	724.79167
2229.853	721.125
2232.433	714.79167
2235.012	720.79167
2237.589	734.125
2240.164	723.45833
2242.738	720.125
2245.309	704.79167
2247.879	711.79167
2250.448	716.79167
2253.014	701.45833
2255.579	682.125
2258.142	679.45833
2260.703	677.125
2263.262	671.125
2265.82	678.45833
2268.376	680.125
2270.93	661.125
2273.483	656.125
2276.033	669.79167
2278.583	668.125
2281.13	656.79167
2283.675	653.45833
2286.219	658.125
2288.761	654.125
2291.302	660.45833
2293.841	651.45833
2296.377	632.45833
2298.913	652.125
2301.446	659.79167
2303.978	648.125
2306.508	633.45833
2309.037	644.45833
2311.563	646.45833
2314.088	648.79167
2316.612	628.79167
2319.133	642.45833
2321.653	627.79167
2324.171	622.45833
2326.688	635.45833
2329.202	630.79167
2331.715	616.45833
2334.227	632.79167
2336.736	622.45833
2339.244	618.45833
2341.751	600.125
2344.255	629.79167
2346.758	618.79167
2349.259	614.45833
2351.759	608.79167
2354.257	618.125
2356.753	615.79167
2359.247	610.125
2361.74	619.125
2364.231	612.79167
2366.721	619.125
2369.209	604.45833
2371.695	609.79167
2374.179	597.79167
2376.662	606.45833
2379.143	625.45833
2381.622	604.45833
2384.1	611.79167
2386.576	597.79167
2389.051	617.125
2391.524	623.125
2393.995	616.125
2396.464	602.45833
2398.932	597.45833
2401.398	603.125
2403.863	597.45833
2406.325	603.45833
2408.787	598.125
2411.246	607.45833
2413.704	599.79167
2416.16	592.125
2418.615	591.45833
2421.068	599.125
2423.519	602.125
2425.969	588.79167
2428.417	598.45833
2430.863	616.125
2433.308	612.45833
2435.751	599.125
2438.193	589.45833
2440.633	601.125
2443.071	601.125
2445.508	580.125
2447.943	573.79167
2450.376	577.45833
2452.808	585.79167
2455.238	590.45833
2457.667	612.125
2460.093	586.79167
2462.519	578.45833
2464.942	579.45833
2467.365	600.79167
2469.785	599.125
2472.204	585.125
2474.621	580.45833
2477.037	595.79167
2479.451	571.79167
2481.863	568.45833
2484.274	571.45833
2486.683	583.125
2489.091	577.45833
2491.497	591.45833
2493.901	571.79167
2496.304	575.45833
2498.705	573.45833
2501.105	570.79167
2503.503	599.79167
2505.899	571.79167
2508.294	599.79167
2510.687	568.125
2513.079	572.125
2515.469	565.125
2517.858	572.45833
2520.245	585.125
2522.63	567.125
2525.014	567.125
2527.396	563.79167
2529.776	572.79167
2532.156	576.45833
2534.533	557.125
2536.909	573.125
2539.283	558.125
2541.656	562.79167
2544.027	584.45833
2546.397	573.45833
2548.765	561.45833
2551.131	563.125
2553.496	577.125
2555.86	576.45833
2558.221	566.125
2560.582	560.125
2562.94	560.125
2565.298	567.45833
2567.653	579.45833
2570.007	556.79167
2572.36	565.45833
2574.711	561.45833
2577.06	580.45833
2579.408	571.45833
2581.754	576.79167
2584.099	578.79167
2586.442	565.125
2588.784	583.79167
2591.124	571.79167
2593.463	569.125
2595.8	569.45833
2598.135	560.79167
2600.469	551.79167
2602.802	582.79167
2605.133	579.125
2607.462	565.45833
2609.79	559.45833
2612.116	578.125
2614.441	570.45833
2616.764	576.125
2619.086	570.125
2621.406	573.125
2623.725	580.79167
2626.042	582.125
2628.358	573.79167
2630.672	577.45833
2632.985	587.45833
2635.296	577.45833
2637.606	583.125
2639.914	564.125
2642.22	581.125
2644.525	581.45833
2646.829	590.125
2649.131	593.45833
2651.432	593.79167
2653.731	584.79167
2656.028	601.79167
2658.324	588.79167
2660.619	589.79167
2662.912	602.45833
2665.204	588.125
2667.494	612.45833
2669.782	581.125
2672.07	610.79167
2674.355	608.79167
2676.639	600.45833
2678.922	592.79167
2681.203	603.45833
2683.483	588.125
2685.761	592.79167
2688.038	613.45833
2690.313	613.125
2692.587	603.45833
2694.859	600.125
2697.13	618.79167
2699.399	616.125
2701.667	632.125
2703.933	630.79167
2706.198	624.45833
2708.461	637.79167
2710.723	638.79167
2712.984	638.45833
2715.243	650.125
2717.5	648.45833
2719.757	652.125
2722.011	660.125
2724.264	663.79167
2726.516	666.79167
2728.766	661.45833
2731.015	656.45833
2733.262	661.79167
2735.508	658.79167
2737.753	653.45833
2739.996	636.79167
2742.237	651.125
2744.477	657.125
2746.716	646.45833
2748.953	648.125
2751.189	652.79167
2753.423	626.79167
2755.656	624.45833
2757.887	633.45833
2760.117	630.125
2762.346	636.125
2764.573	625.79167
2766.798	630.125
2769.022	641.79167
2771.245	639.45833
2773.467	634.45833
2775.686	641.45833
2777.905	658.125
2780.122	657.125
2782.337	664.45833
2784.552	660.125
2786.764	678.45833
2788.976	682.125
2791.186	691.45833
2793.394	690.79167
2795.601	706.45833
2797.807	706.125
2800.011	724.125
2802.214	737.45833
2804.415	731.125
2806.615	740.79167
2808.814	752.45833
2811.011	761.45833
2813.206	768.45833
2815.401	787.79167
2817.594	795.79167
2819.785	805.45833
2821.975	787.79167
2824.164	804.45833
2826.351	834.125
2828.537	839.79167
2830.722	871.79167
2832.905	870.125
2835.086	905.45833
2837.267	923.79167
2839.445	957.45833
2841.623	979.79167
2843.799	1023.79167
2845.974	1055.125
2848.147	1103.79167
2850.319	1118.45833
2852.489	1155.79167
2854.659	1162.125
2856.826	1201.125
2858.993	1211.125
2861.158	1198.79167
2863.321	1202.45833
2865.483	1209.79167
2867.644	1217.79167
2869.804	1210.79167
2871.962	1213.45833
2874.118	1199.45833
2876.274	1211.45833
2878.428	1200.125
2880.58	1202.79167
2882.731	1186.79167
2884.881	1188.45833
2887.03	1179.125
2889.177	1191.125
2891.322	1204.79167
2893.467	1195.125
2895.61	1213.125
2897.751	1239.79167
2899.892	1193.125
2902.03	1210.45833
2904.168	1229.79167
2906.304	1245.45833
2908.439	1261.79167
2910.572	1236.45833
2912.704	1243.45833
2914.835	1247.45833
2916.965	1257.45833
2919.093	1264.79167
2921.219	1227.79167
2923.345	1236.79167
2925.469	1200.79167
2927.591	1196.125
2929.712	1149.45833
2931.832	1146.125
2933.951	1132.125
2936.068	1112.45833
2938.184	1080.79167
2940.299	1041.45833
2942.412	1026.125
2944.524	994.79167
2946.634	969.125
2948.744	912.45833
2950.851	938.125
2952.958	895.79167
2955.063	880.45833
2957.167	887.45833
2959.269	831.79167
2961.371	843.79167
2963.471	816.125
2965.569	829.45833
2967.666	793.45833
2969.762	781.79167
2971.857	755.125
2973.95	738.45833
2976.042	733.79167
2978.133	714.79167
2980.222	696.79167
2982.31	673.79167
2984.396	658.45833
2986.482	653.125
2988.566	655.45833
2990.648	636.79167
2992.73	633.125
2994.81	613.79167
2996.889	632.79167
2998.966	614.45833
3001.042	630.125
3003.117	616.125
3005.191	614.79167
3007.263	603.79167
3009.334	605.125
3011.403	607.125
3013.472	571.79167
3015.539	572.79167
3017.604	586.125
3019.669	543.79167
3021.732	557.45833
3023.794	551.79167
3025.854	549.125
3027.914	538.125
3029.971	536.45833
3032.028	541.45833
3034.083	541.125
3036.137	534.125
3038.19	507.79167
3040.242	499.45833
3042.292	492.45833
3044.341	485.45833
3046.388	487.45833
3048.435	467.125
3050.48	484.79167
3052.524	479.125
3054.566	450.79167
3056.607	467.45833
3058.647	463.125
3060.686	449.45833
3062.723	426.125
3064.759	410.79167
3066.794	-0.875
3068.828	-0.54167
3070.86	-0.20833
