-0.839	396.25
3.438	444.91667
7.711	118.58333
11.981	52.58333
16.247	49.25
20.509	45.58333
24.768	47.91667
29.024	46.91667
33.276	44.25
37.524	50.91667
41.769	41.58333
46.01	35.25
50.247	52.58333
54.481	63.58333
58.712	65.91667
62.939	50.91667
67.162	61.91667
71.382	58.25
75.599	48.58333
79.812	65.91667
84.021	79.25
88.227	60.58333
92.429	66.58333
96.628	49.91667
100.823	69.58333
105.015	78.25
109.204	79.91667
113.388	76.58333
117.57	77.91667
121.748	92.25
125.922	83.58333
130.093	103.58333
134.261	105.58333
138.425	103.58333
142.585	150.25
146.742	150.91667
150.896	167.58333
155.046	202.58333
159.193	326.91667
163.336	558.91667
167.476	1010.25
171.613	1877.91667
175.746	3201.25
179.875	4764.58333
184.002	6291.91667
188.124	7339.58333
192.244	7689.58333
196.36	7658.25
200.472	7477.91667
204.581	7273.58333
208.687	7163.58333
212.79	7092.58333
216.889	7137.58333
220.984	7207.58333
225.077	7311.91667
229.165	7372.25
233.251	7393.58333
237.333	7484.58333
241.412	7436.25
245.487	7349.25
249.559	7277.25
253.628	7216.25
257.694	7174.25
261.756	7077.25
265.814	6970.91667
269.87	6769.91667
273.922	6663.25
277.97	6647.91667
282.016	6615.58333
286.058	6713.25
290.097	6850.25
294.132	6925.25
298.164	6771.25
302.193	6452.91667
306.219	5940.25
310.241	5412.25
314.26	4899.91667
318.276	4488.58333
322.288	4172.91667
326.297	3911.91667
330.303	3729.58333
334.305	3639.25
338.305	3524.91667
342.301	3470.58333
346.294	3437.91667
350.283	3400.25
354.269	3342.25
358.252	3349.58333
362.232	3298.58333
366.209	3292.91667
370.182	3253.25
374.152	3213.91667
378.119	3236.91667
382.083	3224.58333
386.043	3244.25
390	3172.91667
393.954	3147.91667
397.905	3132.25
401.852	3125.91667
405.797	3070.91667
409.738	3029.25
413.676	3012.25
417.61	2996.91667
421.542	2962.91667
425.47	2935.25
429.396	2916.58333
433.318	2896.58333
437.236	2860.58333
441.152	2888.91667
445.065	2813.91667
448.974	2824.25
452.88	2778.91667
456.783	2799.58333
460.683	2787.25
464.58	2769.58333
468.473	2791.25
472.364	2814.25
476.251	2796.58333
480.135	2803.58333
484.016	2837.91667
487.894	2865.25
491.769	2874.91667
495.641	2874.91667
499.509	2861.58333
503.375	2860.25
507.237	2887.58333
511.096	2848.25
514.952	2842.58333
518.805	2887.25
522.655	2871.91667
526.502	2835.58333
530.346	2807.25
534.187	2821.25
538.024	2823.25
541.859	2851.25
545.69	2855.25
549.519	2849.91667
553.344	2794.25
557.166	2772.58333
560.985	2751.91667
564.802	2732.25
568.615	2676.25
572.425	2649.91667
576.232	2640.91667
580.036	2637.58333
583.836	2647.25
587.634	2630.25
591.429	2621.91667
595.221	2682.58333
599.01	2714.91667
602.796	2743.25
606.578	2783.58333
610.358	2776.25
614.135	2727.25
617.909	2744.25
621.679	2739.25
625.447	2719.91667
629.212	2719.91667
632.973	2711.25
636.732	2716.91667
640.488	2720.25
644.241	2672.91667
647.991	2665.25
651.737	2693.58333
655.481	2675.91667
659.222	2649.25
662.96	2629.91667
666.695	2661.91667
670.427	2693.58333
674.156	2685.58333
677.882	2698.58333
681.605	2715.91667
685.325	2641.25
689.043	2686.91667
692.757	2659.58333
696.468	2678.91667
700.177	2690.25
703.882	2680.58333
707.585	2685.25
711.284	2650.58333
714.981	2681.25
718.675	2698.58333
722.366	2713.58333
726.054	2687.91667
729.739	2693.25
733.421	2697.58333
737.1	2716.58333
740.777	2715.25
744.45	2747.58333
748.121	2747.58333
751.789	2805.58333
755.453	2810.58333
759.115	2822.58333
762.774	2877.58333
766.431	2863.58333
770.084	2930.58333
773.734	2923.25
777.382	2990.25
781.027	3024.25
784.669	3062.91667
788.308	3054.25
791.944	3091.58333
795.577	3122.58333
799.208	3167.91667
802.835	3177.25
806.46	3179.91667
810.082	3208.91667
813.701	3208.25
817.317	3246.91667
820.931	3240.91667
824.542	3250.91667
828.149	3208.25
831.754	3173.25
835.357	3195.91667
838.956	3177.25
842.553	3170.58333
846.146	3139.91667
849.737	3150.91667
853.326	3185.91667
856.911	3198.58333
860.493	3229.25
864.073	3242.25
867.65	3317.58333
871.225	3361.25
874.796	3360.91667
878.365	3370.25
881.931	3397.25
885.494	3422.91667
889.054	3437.58333
892.612	3487.91667
896.166	3468.25
899.719	3430.91667
903.268	3372.58333
906.814	3336.25
910.358	3313.25
913.899	3287.91667
917.438	3275.91667
920.973	3260.58333
924.506	3314.91667
928.036	3334.25
931.564	3377.25
935.088	3407.91667
938.61	3422.58333
942.129	3467.58333
945.646	3560.25
949.16	3625.91667
952.671	3670.25
956.179	3707.58333
959.685	3644.58333
963.188	3615.91667
966.688	3559.91667
970.185	3461.91667
973.68	3421.58333
977.173	3432.25
980.662	3387.58333
984.149	3406.25
987.633	3408.58333
991.114	3487.25
994.593	3556.91667
998.069	3665.91667
1001.542	3761.25
1005.013	3700.25
1008.481	3484.58333
1011.947	3447.25
1015.409	3405.91667
1018.869	3433.58333
1022.327	3410.91667
1025.782	3398.91667
1029.234	3415.91667
1032.683	3362.25
1036.13	3272.58333
1039.574	3161.91667
1043.016	3060.25
1046.455	3007.25
1049.891	2972.58333
1053.325	2980.91667
1056.756	2944.58333
1060.184	2999.58333
1063.61	3017.91667
1067.033	3020.58333
1070.454	3040.91667
1073.872	3053.91667
1077.287	3055.58333
1080.7	3071.25
1084.11	3092.91667
1087.517	3058.91667
1090.922	3033.58333
1094.325	2986.58333
1097.724	2958.58333
1101.122	2974.91667
1104.516	2946.25
1107.908	2960.91667
1111.298	3005.91667
1114.684	3055.58333
1118.069	3077.91667
1121.45	3111.25
1124.83	3096.58333
1128.206	3136.58333
1131.58	3201.58333
1134.951	3279.91667
1138.32	3399.25
1141.687	3498.91667
1145.05	3580.25
1148.412	3598.25
1151.77	3593.58333
1155.126	3617.25
1158.48	3592.91667
1161.831	3602.25
1165.18	3661.25
1168.525	3705.91667
1171.869	3720.91667
1175.21	3763.25
1178.548	3812.58333
1181.884	3837.58333
1185.217	3871.58333
1188.548	3982.25
1191.877	4012.25
1195.202	4100.58333
1198.526	4175.91667
1201.846	4203.91667
1205.165	4189.91667
1208.48	4164.91667
1211.794	4148.58333
1215.104	4124.25
1218.413	4191.25
1221.719	4162.25
1225.022	4136.91667
1228.323	4113.91667
1231.621	4093.58333
1234.917	4042.58333
1238.21	4140.58333
1241.501	4076.58333
1244.79	4100.91667
1248.076	4094.58333
1251.359	4126.25
1254.64	4202.25
1257.919	4199.91667
1261.195	4294.58333
1264.468	4348.91667
1267.74	4411.58333
1271.008	4437.91667
1274.275	4414.58333
1277.538	4366.91667
1280.8	4391.25
1284.059	4391.25
1287.315	4438.91667
1290.569	4455.58333
1293.821	4462.91667
1297.07	4490.91667
1300.317	4510.91667
1303.562	4492.25
1306.803	4461.58333
1310.043	4404.58333
1313.28	4325.58333
1316.515	4306.25
1319.747	4244.25
1322.977	4204.91667
1326.204	4151.25
1329.429	4093.91667
1332.652	4076.91667
1335.872	4059.58333
1339.09	4002.91667
1342.306	3993.91667
1345.519	3989.58333
1348.729	3959.91667
1351.938	3919.25
1355.144	3866.25
1358.347	3821.91667
1361.548	3878.25
1364.747	3877.91667
1367.944	3834.58333
1371.138	3891.58333
1374.329	3927.58333
1377.518	3995.91667
1380.705	4010.25
1383.89	3985.58333
1387.072	3866.91667
1390.252	3745.58333
1393.429	3607.58333
1396.605	3490.25
1399.777	3403.25
1402.948	3375.58333
1406.116	3337.58333
1409.282	3383.58333
1412.445	3365.91667
1415.606	3459.91667
1418.765	3494.25
1421.921	3549.91667
1425.075	3630.25
1428.227	3731.58333
1431.376	3869.25
1434.524	4011.58333
1437.668	4100.58333
1440.811	4126.58333
1443.951	4147.91667
1447.089	4146.91667
1450.224	4151.91667
1453.357	4122.25
1456.488	4082.58333
1459.617	4025.25
1462.743	3958.91667
1465.867	3857.91667
1468.989	3826.25
1472.108	3775.25
1475.225	3695.25
1478.34	3639.58333
1481.453	3656.58333
1484.563	3673.58333
1487.671	3718.91667
1490.776	3807.25
1493.88	3852.91667
1496.981	3927.25
1500.08	4027.91667
1503.176	4072.58333
1506.271	4120.91667
1509.363	4205.91667
1512.452	4245.91667
1515.54	4334.91667
1518.625	4391.58333
1521.708	4572.91667
1524.789	4802.91667
1527.867	5039.25
1530.944	5377.25
1534.018	5635.91667
1537.089	5895.91667
1540.159	5905.25
1543.226	5809.91667
1546.291	5635.91667
1549.354	5473.91667
1552.415	5267.58333
1555.473	5147.25
1558.529	5002.58333
1561.583	4927.58333
1564.634	4889.25
1567.684	4881.25
1570.731	4853.58333
1573.776	4867.58333
1576.819	4854.25
1579.859	4883.25
1582.898	5006.25
1585.934	4981.91667
1588.968	5015.25
1591.999	5016.25
1595.029	5001.91667
1598.056	5026.58333
1601.081	5053.91667
1604.104	5022.58333
1607.125	4992.91667
1610.144	4871.91667
1613.16	4717.91667
1616.174	4576.25
1619.186	4471.25
1622.196	4359.91667
1625.203	4236.58333
1628.209	4148.58333
1631.212	4112.91667
1634.213	4090.58333
1637.212	4003.91667
1640.209	3941.91667
1643.203	3832.58333
1646.196	3731.58333
1649.186	3616.25
1652.174	3543.91667
1655.16	3437.58333
1658.144	3343.58333
1661.125	3207.91667
1664.105	3062.91667
1667.082	2928.91667
1670.057	2784.91667
1673.03	2603.25
1676.001	2445.58333
1678.97	2295.58333
1681.937	2168.58333
1684.901	2048.58333
1687.863	1965.58333
1690.824	1890.58333
1693.782	1845.91667
1696.738	1773.58333
1699.692	1742.25
1702.643	1710.58333
1705.593	1692.58333
1708.54	1671.25
1711.486	1657.91667
1714.429	1620.91667
1717.37	1602.91667
1720.309	1571.91667
1723.246	1568.25
1726.181	1552.58333
1729.113	1544.25
1732.044	1531.58333
1734.972	1521.25
1737.899	1503.91667
1740.823	1501.58333
1743.745	1484.91667
1746.665	1454.91667
1749.583	1420.58333
1752.499	1398.58333
1755.413	1372.91667
1758.325	1362.91667
1761.235	1347.58333
1764.142	1316.91667
1767.048	1325.91667
1769.951	1297.91667
1772.852	1293.91667
1775.752	1290.91667
1778.649	1280.25
1781.544	1287.25
1784.437	1262.58333
1787.328	1265.25
1790.217	1254.91667
1793.104	1233.91667
1795.989	1227.25
1798.872	1212.58333
1801.753	1230.91667
1804.631	1237.25
1807.508	1229.58333
1810.383	1216.25
1813.255	1214.91667
1816.126	1212.91667
1818.994	1212.58333
1821.861	1195.25
1824.725	1179.58333
1827.587	1178.91667
1830.448	1175.91667
1833.306	1143.58333
1836.162	1157.58333
1839.017	1145.91667
1841.869	1157.58333
1844.719	1143.58333
1847.567	1135.58333
1850.414	1124.25
1853.258	1121.58333
1856.1	1149.25
1858.94	1143.25
1861.778	1133.58333
1864.614	1112.25
1867.448	1125.25
1870.28	1120.58333
1873.111	1148.25
1875.939	1132.25
1878.765	1135.25
1881.589	1113.25
1884.411	1133.25
1887.231	1121.58333
1890.049	1115.91667
1892.865	1110.91667
1895.68	1087.25
1898.492	1107.58333
1901.302	1094.58333
1904.11	1086.58333
1906.916	1087.58333
1909.721	1067.58333
1912.523	1089.25
1915.323	1059.91667
1918.122	1059.91667
1920.918	1066.91667
1923.712	1061.91667
1926.505	1068.58333
1929.295	1056.25
1932.084	1075.58333
1934.87	1058.91667
1937.655	1047.91667
1940.438	1042.91667
1943.218	1049.58333
1945.997	1042.58333
1948.774	1073.58333
1951.549	1058.25
1954.322	1044.25
1957.093	1051.91667
1959.862	1035.58333
1962.629	1031.25
1965.394	1033.25
1968.157	1008.25
1970.918	1025.58333
1973.678	1024.58333
1976.435	1020.58333
1979.19	1015.25
1981.944	1006.58333
1984.696	1000.25
1987.445	991.91667
1990.193	995.91667
1992.939	1006.25
1995.683	995.58333
1998.425	978.58333
2001.165	1006.25
2003.903	981.58333
2006.639	982.58333
2009.374	985.91667
2012.106	1007.58333
2014.837	959.91667
2017.566	993.58333
2020.292	988.91667
2023.017	986.58333
2025.74	971.91667
2028.461	961.91667
2031.18	983.25
2033.898	960.58333
2036.613	965.25
2039.327	973.25
2042.038	960.25
2044.748	968.25
2047.456	955.25
2050.162	936.25
2052.866	944.58333
2055.568	958.25
2058.268	946.91667
2060.967	970.25
2063.663	940.25
2066.358	934.58333
2069.051	935.91667
2071.742	932.58333
2074.431	952.91667
2077.118	953.91667
2079.804	926.91667
2082.487	960.25
2085.169	951.58333
2087.849	973.91667
2090.527	948.91667
2093.203	975.58333
2095.877	980.58333
2098.55	991.58333
2101.22	1022.25
2103.889	1028.91667
2106.556	1031.25
2109.221	1097.91667
2111.884	1155.58333
2114.546	1250.58333
2117.205	1344.25
2119.863	1490.58333
2122.519	1610.58333
2125.173	1717.58333
2127.825	1834.25
2130.475	1828.91667
2133.124	1761.58333
2135.771	1686.91667
2138.416	1588.58333
2141.059	1485.58333
2143.7	1394.25
2146.339	1316.91667
2148.977	1224.58333
2151.613	1192.58333
2154.247	1140.58333
2156.879	1097.91667
2159.51	1074.91667
2162.138	1041.91667
2164.765	1035.91667
2167.39	1013.25
2170.013	1004.91667
2172.634	1001.91667
2175.254	985.58333
2177.872	1003.58333
2180.488	962.91667
2183.102	949.91667
2185.714	945.25
2188.325	929.58333
2190.934	970.25
2193.541	1180.58333
2196.146	914.91667
2198.75	885.91667
2201.351	887.91667
2203.951	860.58333
2206.549	878.91667
2209.146	850.25
2211.74	841.91667
2214.333	855.91667
2216.924	833.91667
2219.514	841.91667
2222.101	818.58333
2224.687	846.58333
2227.271	820.58333
2229.853	809.91667
2232.433	806.58333
2235.012	823.25
2237.589	819.58333
2240.164	814.58333
2242.738	805.91667
2245.309	783.25
2247.879	791.25
2250.448	800.25
2253.014	767.25
2255.579	759.25
2258.142	759.91667
2260.703	761.91667
2263.262	750.58333
2265.82	750.25
2268.376	760.58333
2270.93	734.58333
2273.483	729.58333
2276.033	755.25
2278.583	734.91667
2281.13	721.25
2283.675	710.58333
2286.219	725.25
2288.761	718.91667
2291.302	725.25
2293.841	719.25
2296.377	701.25
2298.913	704.25
2301.446	715.58333
2303.978	705.91667
2306.508	693.58333
2309.037	701.25
2311.563	700.58333
2314.088	704.58333
2316.612	674.91667
2319.133	694.58333
2321.653	690.58333
2324.171	675.58333
2326.688	682.25
2329.202	679.91667
2331.715	670.58333
2334.227	668.25
2336.736	668.58333
2339.244	674.25
2341.751	656.25
2344.255	674.91667
2346.758	650.25
2349.259	655.58333
2351.759	653.91667
2354.257	653.91667
2356.753	645.91667
2359.247	647.25
2361.74	658.91667
2364.231	648.58333
2366.721	647.25
2369.209	634.25
2371.695	637.58333
2374.179	632.58333
2376.662	634.58333
2379.143	646.91667
2381.622	636.91667
2384.1	639.58333
2386.576	632.25
2389.051	643.91667
2391.524	647.58333
2393.995	644.25
2396.464	621.91667
2398.932	612.91667
2401.398	621.25
2403.863	619.91667
2406.325	617.91667
2408.787	616.91667
2411.246	624.91667
2413.704	606.25
2416.16	605.25
2418.615	612.91667
2421.068	613.91667
2423.519	619.25
2425.969	604.58333
2428.417	621.58333
2430.863	621.58333
2433.308	620.58333
2435.751	605.25
2438.193	604.58333
2440.633	608.58333
2443.071	602.25
2445.508	591.25
2447.943	589.25
2450.376	595.25
2452.808	590.91667
2455.238	575.58333
2457.667	617.58333
2460.093	592.58333
2462.519	583.58333
2464.942	571.91667
2467.365	594.91667
2469.785	583.25
2472.204	584.91667
2474.621	566.91667
2477.037	600.91667
2479.451	566.91667
2481.863	561.58333
2484.274	568.25
2486.683	566.58333
2489.091	570.25
2491.497	578.58333
2493.901	568.91667
2496.304	568.25
2498.705	558.58333
2501.105	548.25
2503.503	583.25
2505.899	552.58333
2508.294	573.58333
2510.687	562.91667
2513.079	547.91667
2515.469	548.58333
2517.858	549.25
2520.245	564.25
2522.63	538.91667
2525.014	542.91667
2527.396	537.25
2529.776	543.58333
2532.156	537.91667
2534.533	530.91667
2536.909	529.91667
2539.283	521.25
2541.656	525.58333
2544.027	559.25
2546.397	533.25
2548.765	527.58333
2551.131	530.58333
2553.496	535.91667
2555.86	534.25
2558.221	535.25
2560.582	525.58333
2562.94	515.25
2565.298	525.58333
2567.653	548.25
2570.007	517.58333
2572.36	526.58333
2574.711	515.58333
2577.06	540.91667
2579.408	525.58333
2581.754	532.91667
2584.099	526.25
2586.442	514.58333
2588.784	531.25
2591.124	527.25
2593.463	514.25
2595.8	513.58333
2598.135	506.25
2600.469	517.58333
2602.802	534.91667
2605.133	533.58333
2607.462	522.25
2609.79	505.58333
2612.116	507.58333
2614.441	509.58333
2616.764	516.25
2619.086	517.58333
2621.406	509.58333
2623.725	532.25
2626.042	518.25
2628.358	509.91667
2630.672	501.91667
2632.985	524.58333
2635.296	505.25
2637.606	511.25
2639.914	502.58333
2642.22	510.58333
2644.525	514.58333
2646.829	507.25
2649.131	526.91667
2651.432	528.91667
2653.731	506.58333
2656.028	524.58333
2658.324	512.58333
2660.619	517.91667
2662.912	532.91667
2665.204	505.25
2667.494	532.25
2669.782	517.58333
2672.07	523.91667
2674.355	530.25
2676.639	517.58333
2678.922	510.91667
2681.203	523.91667
2683.483	515.58333
2685.761	501.58333
2688.038	530.91667
2690.313	543.91667
2692.587	524.91667
2694.859	526.91667
2697.13	520.58333
2699.399	529.25
2701.667	549.91667
2703.933	539.58333
2706.198	555.25
2708.461	552.91667
2710.723	551.25
2712.984	556.58333
2715.243	568.58333
2717.5	561.91667
2719.757	571.25
2722.011	551.91667
2724.264	575.91667
2726.516	591.25
2728.766	572.25
2731.015	570.25
2733.262	569.25
2735.508	560.91667
2737.753	558.25
2739.996	547.25
2742.237	533.58333
2744.477	557.58333
2746.716	558.58333
2748.953	539.58333
2751.189	551.91667
2753.423	537.25
2755.656	529.91667
2757.887	518.58333
2760.117	532.91667
2762.346	525.58333
2764.573	531.25
2766.798	525.91667
2769.022	534.25
2771.245	542.91667
2773.467	532.91667
2775.686	543.25
2777.905	546.91667
2780.122	554.91667
2782.337	555.25
2784.552	563.25
2786.764	576.25
2788.976	572.58333
2791.186	586.25
2793.394	595.91667
2795.601	607.91667
2797.807	617.58333
2800.011	621.58333
2802.214	639.91667
2804.415	641.91667
2806.615	646.58333
2808.814	663.58333
2811.011	669.25
2813.206	680.58333
2815.401	688.91667
2817.594	711.91667
2819.785	724.58333
2821.975	714.25
2824.164	732.25
2826.351	760.91667
2828.537	774.58333
2830.722	786.91667
2832.905	792.91667
2835.086	839.58333
2837.267	871.58333
2839.445	895.25
2841.623	917.25
2843.799	962.91667
2845.974	1009.58333
2848.147	1043.58333
2850.319	1083.25
2852.489	1113.58333
2854.659	1112.91667
2856.826	1143.58333
2858.993	1173.91667
2861.158	1143.25
2863.321	1155.58333
2865.483	1171.91667
2867.644	1169.58333
2869.804	1151.58333
2871.962	1155.91667
2874.118	1165.91667
2876.274	1142.91667
2878.428	1135.58333
2880.58	1137.25
2882.731	1134.25
2884.881	1137.25
2887.03	1131.58333
2889.177	1126.91667
2891.322	1148.25
2893.467	1124.25
2895.61	1131.25
2897.751	1168.25
2899.892	1152.91667
2902.03	1152.91667
2904.168	1171.91667
2906.304	1167.25
2908.439	1180.25
2910.572	1155.91667
2912.704	1176.58333
2914.835	1179.91667
2916.965	1175.91667
2919.093	1185.58333
2921.219	1128.58333
2923.345	1157.91667
2925.469	1134.25
2927.591	1109.91667
2929.712	1065.25
2931.832	1050.91667
2933.951	1030.91667
2936.068	1010.25
2938.184	983.58333
2940.299	939.58333
2942.412	911.58333
2944.524	868.25
2946.634	843.58333
2948.744	790.25
2950.851	796.91667
2952.958	745.25
2955.063	735.25
2957.167	732.25
2959.269	683.25
2961.371	694.91667
2963.471	654.25
2965.569	653.25
2967.666	614.91667
2969.762	602.91667
2971.857	584.58333
2973.95	561.25
2976.042	550.58333
2978.133	538.58333
2980.222	518.58333
2982.31	494.58333
2984.396	474.58333
2986.482	474.25
2988.566	470.91667
2990.648	457.25
2992.73	451.91667
2994.81	422.91667
2996.889	436.25
2998.966	425.58333
3001.042	420.58333
3003.117	426.58333
3005.191	420.91667
3007.263	408.58333
3009.334	398.25
3011.403	399.25
3013.472	376.58333
3015.539	378.58333
3017.604	379.91667
3019.669	344.91667
3021.732	350.91667
3023.794	354.58333
3025.854	345.91667
3027.914	324.91667
3029.971	341.58333
3032.028	330.58333
3034.083	333.91667
3036.137	329.25
3038.19	315.91667
3040.242	311.58333
3042.292	298.58333
3044.341	295.58333
3046.388	312.25
3048.435	280.58333
3050.48	306.58333
3052.524	293.25
3054.566	274.91667
3056.607	290.91667
3058.647	271.58333
3060.686	263.25
3062.723	253.91667
3064.759	249.25
3066.794	0.25
3068.828	0.25
3070.86	-1.41667
