-0.839	432.91667
3.438	469.25
7.711	138.25
11.981	54.91667
16.247	46.91667
20.509	46.58333
24.768	43.58333
29.024	51.25
33.276	45.25
37.524	50.58333
41.769	41.91667
46.01	37.91667
50.247	50.25
54.481	64.58333
58.712	64.58333
62.939	50.25
67.162	58.91667
71.382	57.58333
75.599	50.58333
79.812	62.91667
84.021	84.91667
88.227	62.25
92.429	62.25
96.628	53.25
100.823	72.58333
105.015	80.91667
109.204	83.91667
113.388	77.91667
117.57	79.91667
121.748	94.91667
125.922	84.91667
130.093	107.91667
134.261	110.25
138.425	110.58333
142.585	153.91667
146.742	150.25
150.896	177.91667
155.046	229.58333
159.193	355.91667
163.336	616.58333
167.476	1139.25
171.613	2105.25
175.746	3572.58333
179.875	5307.91667
184.002	6951.58333
188.124	8018.25
192.244	8373.58333
196.36	8222.91667
200.472	7929.91667
204.581	7622.25
208.687	7363.25
212.79	7135.58333
216.889	7099.25
220.984	7100.58333
225.077	7116.25
229.165	7073.91667
233.251	7121.91667
237.333	7103.25
241.412	7062.91667
245.487	7002.58333
249.559	6874.58333
253.628	6845.25
257.694	6741.58333
261.756	6727.58333
265.814	6579.91667
269.87	6440.58333
273.922	6307.91667
277.97	6230.91667
282.016	6178.25
286.058	6221.58333
290.097	6329.25
294.132	6402.25
298.164	6383.58333
302.193	6115.91667
306.219	5642.91667
310.241	5133.58333
314.26	4683.25
318.276	4270.25
322.288	3984.25
326.297	3732.58333
330.303	3580.25
334.305	3470.58333
338.305	3386.91667
342.301	3308.58333
346.294	3286.91667
350.283	3250.91667
354.269	3217.91667
358.252	3195.91667
362.232	3156.91667
366.209	3132.58333
370.182	3100.58333
374.152	3083.58333
378.119	3079.58333
382.083	3071.25
386.043	3085.25
390	3033.91667
393.954	3028.91667
397.905	2994.91667
401.852	2964.91667
405.797	2948.91667
409.738	2901.58333
413.676	2891.91667
417.61	2877.91667
421.542	2850.91667
425.47	2842.25
429.396	2792.58333
433.318	2806.91667
437.236	2763.58333
441.152	2769.91667
445.065	2724.58333
448.974	2715.58333
452.88	2684.58333
456.783	2667.91667
460.683	2635.58333
464.58	2641.58333
468.473	2652.58333
472.364	2645.91667
476.251	2656.25
480.135	2689.25
484.016	2709.91667
487.894	2735.25
491.769	2747.58333
495.641	2772.25
499.509	2747.91667
503.375	2781.25
507.237	2763.25
511.096	2732.25
514.952	2787.58333
518.805	2795.58333
522.655	2822.25
526.502	2747.91667
530.346	2726.58333
534.187	2746.91667
538.024	2759.58333
541.859	2747.58333
545.69	2781.91667
549.519	2738.25
553.344	2716.25
557.166	2681.25
560.985	2634.91667
564.802	2620.58333
568.615	2588.25
572.425	2510.91667
576.232	2526.25
580.036	2512.91667
583.836	2518.91667
587.634	2518.58333
591.429	2519.58333
595.221	2558.58333
599.01	2599.58333
602.796	2617.58333
606.578	2628.91667
610.358	2650.25
614.135	2624.58333
617.909	2626.91667
621.679	2616.25
625.447	2566.91667
629.212	2575.25
632.973	2583.91667
636.732	2604.91667
640.488	2582.91667
644.241	2551.91667
647.991	2546.91667
651.737	2573.25
655.481	2546.58333
659.222	2552.91667
662.96	2536.58333
666.695	2566.58333
670.427	2583.91667
674.156	2589.91667
677.882	2596.58333
681.605	2587.58333
685.325	2548.25
689.043	2563.58333
692.757	2545.25
696.468	2552.25
700.177	2522.91667
703.882	2540.91667
707.585	2527.58333
711.284	2515.58333
714.981	2536.25
718.675	2536.58333
722.366	2571.25
726.054	2533.91667
729.739	2535.58333
733.421	2551.58333
737.1	2548.25
740.777	2578.58333
744.45	2586.91667
748.121	2614.91667
751.789	2658.91667
755.453	2647.91667
759.115	2653.25
762.774	2680.58333
766.431	2700.58333
770.084	2738.58333
773.734	2750.58333
777.382	2816.91667
781.027	2843.91667
784.669	2853.91667
788.308	2861.91667
791.944	2903.25
795.577	2916.25
799.208	2934.91667
802.835	2953.58333
806.46	2946.25
810.082	2982.25
813.701	2967.25
817.317	3010.25
820.931	2994.58333
824.542	3011.58333
828.149	2985.58333
831.754	2953.91667
835.357	2928.91667
838.956	2932.25
842.553	2920.25
846.146	2893.25
849.737	2895.58333
853.326	2924.91667
856.911	2917.58333
860.493	2946.91667
864.073	2999.25
867.65	3028.58333
871.225	3063.25
874.796	3043.91667
878.365	3093.91667
881.931	3090.58333
885.494	3136.91667
889.054	3155.25
892.612	3201.91667
896.166	3189.58333
899.719	3161.58333
903.268	3102.91667
906.814	3046.58333
910.358	3016.58333
913.899	2982.91667
917.438	2994.58333
920.973	2980.25
924.506	3053.25
928.036	3077.58333
931.564	3115.58333
935.088	3144.58333
938.61	3154.91667
942.129	3189.25
945.646	3259.25
949.16	3350.91667
952.671	3430.58333
956.179	3443.91667
959.685	3420.25
963.188	3379.25
966.688	3317.58333
970.185	3208.58333
973.68	3164.58333
977.173	3125.25
980.662	3097.25
984.149	3129.58333
987.633	3122.25
991.114	3184.58333
994.593	3282.58333
998.069	3360.58333
1001.542	3487.25
1005.013	3389.91667
1008.481	3192.25
1011.947	3132.25
1015.409	3106.91667
1018.869	3124.91667
1022.327	3134.25
1025.782	3116.58333
1029.234	3131.58333
1032.683	3094.25
1036.13	2995.25
1039.574	2894.25
1043.016	2807.25
1046.455	2727.25
1049.891	2722.91667
1053.325	2704.91667
1056.756	2723.58333
1060.184	2742.58333
1063.61	2738.25
1067.033	2787.25
1070.454	2766.25
1073.872	2791.25
1077.287	2805.25
1080.7	2805.58333
1084.11	2829.91667
1087.517	2805.25
1090.922	2766.58333
1094.325	2752.91667
1097.724	2688.25
1101.122	2701.58333
1104.516	2696.25
1107.908	2698.58333
1111.298	2755.25
1114.684	2779.25
1118.069	2816.91667
1121.45	2838.91667
1124.83	2837.91667
1128.206	2864.91667
1131.58	2946.91667
1134.951	3017.91667
1138.32	3151.58333
1141.687	3268.91667
1145.05	3347.58333
1148.412	3354.91667
1151.77	3340.91667
1155.126	3316.25
1158.48	3285.58333
1161.831	3289.25
1165.18	3299.58333
1168.525	3339.91667
1171.869	3361.25
1175.21	3421.58333
1178.548	3469.25
1181.884	3476.91667
1185.217	3526.25
1188.548	3598.58333
1191.877	3677.25
1195.202	3735.58333
1198.526	3776.91667
1201.846	3810.58333
1205.165	3803.91667
1208.48	3813.58333
1211.794	3816.91667
1215.104	3834.25
1218.413	3848.91667
1221.719	3814.25
1225.022	3782.58333
1228.323	3740.91667
1231.621	3739.58333
1234.917	3701.25
1238.21	3736.25
1241.501	3670.58333
1244.79	3685.25
1248.076	3695.25
1251.359	3728.91667
1254.64	3799.91667
1257.919	3821.91667
1261.195	3899.25
1264.468	3990.25
1267.74	4079.25
1271.008	4093.25
1274.275	4062.58333
1277.538	4018.91667
1280.8	3998.25
1284.059	4004.58333
1287.315	4029.58333
1290.569	4072.25
1293.821	4086.58333
1297.07	4096.91667
1300.317	4112.58333
1303.562	4100.25
1306.803	4071.58333
1310.043	4009.91667
1313.28	3980.25
1316.515	3948.25
1319.747	3910.58333
1322.977	3905.58333
1326.204	3816.25
1329.429	3807.91667
1332.652	3779.91667
1335.872	3748.58333
1339.09	3699.25
1342.306	3703.25
1345.519	3620.25
1348.729	3591.58333
1351.938	3544.91667
1355.144	3506.58333
1358.347	3476.25
1361.548	3482.25
1364.747	3517.91667
1367.944	3484.25
1371.138	3546.58333
1374.329	3532.25
1377.518	3594.25
1380.705	3664.25
1383.89	3658.91667
1387.072	3534.25
1390.252	3403.58333
1393.429	3278.91667
1396.605	3140.58333
1399.777	3082.25
1402.948	3054.58333
1406.116	3066.91667
1409.282	3063.91667
1412.445	3059.58333
1415.606	3073.58333
1418.765	3156.58333
1421.921	3212.25
1425.075	3296.91667
1428.227	3396.91667
1431.376	3509.58333
1434.524	3640.91667
1437.668	3765.25
1440.811	3783.91667
1443.951	3808.25
1447.089	3848.91667
1450.224	3842.58333
1453.357	3789.25
1456.488	3764.58333
1459.617	3713.91667
1462.743	3637.25
1465.867	3560.25
1468.989	3506.91667
1472.108	3457.25
1475.225	3393.25
1478.34	3331.91667
1481.453	3328.58333
1484.563	3374.58333
1487.671	3395.25
1490.776	3471.25
1493.88	3528.58333
1496.981	3605.58333
1500.08	3666.58333
1503.176	3700.58333
1506.271	3746.91667
1509.363	3785.58333
1512.452	3811.58333
1515.54	3864.25
1518.625	3929.91667
1521.708	4073.91667
1524.789	4225.25
1527.867	4427.25
1530.944	4700.58333
1534.018	4919.91667
1537.089	5088.58333
1540.159	5096.25
1543.226	5036.25
1546.291	4931.58333
1549.354	4770.25
1552.415	4631.91667
1555.473	4520.58333
1558.529	4388.58333
1561.583	4349.91667
1564.634	4288.58333
1567.684	4265.25
1570.731	4255.91667
1573.776	4299.25
1576.819	4343.25
1579.859	4364.25
1582.898	4399.58333
1585.934	4454.91667
1588.968	4472.58333
1591.999	4438.91667
1595.029	4424.58333
1598.056	4459.91667
1601.081	4477.91667
1604.104	4463.58333
1607.125	4398.25
1610.144	4336.25
1613.16	4256.58333
1616.174	4140.91667
1619.186	4053.91667
1622.196	3948.58333
1625.203	3892.25
1628.209	3812.58333
1631.212	3778.25
1634.213	3765.58333
1637.212	3745.58333
1640.209	3680.91667
1643.203	3570.25
1646.196	3471.91667
1649.186	3366.58333
1652.174	3247.58333
1655.16	3185.25
1658.144	3114.58333
1661.125	2951.25
1664.105	2849.25
1667.082	2727.91667
1670.057	2567.58333
1673.03	2397.25
1676.001	2249.58333
1678.97	2092.25
1681.937	1963.91667
1684.901	1831.58333
1687.863	1777.58333
1690.824	1698.91667
1693.782	1645.58333
1696.738	1600.25
1699.692	1573.25
1702.643	1536.91667
1705.593	1513.91667
1708.54	1502.25
1711.486	1489.58333
1714.429	1445.91667
1717.37	1439.91667
1720.309	1413.25
1723.246	1412.25
1726.181	1377.91667
1729.113	1378.91667
1732.044	1369.58333
1734.972	1344.25
1737.899	1352.58333
1740.823	1342.25
1743.745	1342.25
1746.665	1283.25
1749.583	1263.91667
1752.499	1261.58333
1755.413	1238.25
1758.325	1201.58333
1761.235	1216.25
1764.142	1187.91667
1767.048	1180.91667
1769.951	1170.25
1772.852	1150.91667
1775.752	1151.25
1778.649	1145.58333
1781.544	1161.91667
1784.437	1126.25
1787.328	1135.58333
1790.217	1124.91667
1793.104	1083.91667
1795.989	1090.58333
1798.872	1088.58333
1801.753	1118.91667
1804.631	1108.58333
1807.508	1098.91667
1810.383	1095.58333
1813.255	1085.58333
1816.126	1081.58333
1818.994	1075.58333
1821.861	1067.58333
1824.725	1073.25
1827.587	1047.91667
1830.448	1049.58333
1833.306	1043.25
1836.162	1040.25
1839.017	1039.25
1841.869	1046.58333
1844.719	1018.25
1847.567	1011.25
1850.414	1016.91667
1853.258	1011.58333
1856.1	1035.25
1858.94	1042.58333
1861.778	1011.91667
1864.614	1014.25
1867.448	1012.58333
1870.28	1010.91667
1873.111	1020.58333
1875.939	1006.25
1878.765	1030.58333
1881.589	993.91667
1884.411	1004.91667
1887.231	1003.58333
1890.049	999.91667
1892.865	999.91667
1895.68	967.25
1898.492	991.91667
1901.302	960.58333
1904.11	978.58333
1906.916	964.91667
1909.721	963.91667
1912.523	976.58333
1915.323	957.58333
1918.122	950.58333
1920.918	953.91667
1923.712	952.58333
1926.505	951.25
1929.295	928.25
1932.084	937.58333
1934.87	940.25
1937.655	927.91667
1940.438	918.58333
1943.218	934.58333
1945.997	943.25
1948.774	955.25
1951.549	935.91667
1954.322	931.58333
1957.093	932.25
1959.862	920.91667
1962.629	918.91667
1965.394	908.25
1968.157	899.25
1970.918	915.25
1973.678	911.91667
1976.435	907.25
1979.19	893.25
1981.944	885.58333
1984.696	890.58333
1987.445	888.58333
1990.193	890.91667
1992.939	901.58333
1995.683	881.58333
1998.425	865.91667
2001.165	898.25
2003.903	870.91667
2006.639	873.91667
2009.374	872.91667
2012.106	880.58333
2014.837	844.91667
2017.566	875.58333
2020.292	877.25
2023.017	880.58333
2025.74	873.91667
2028.461	857.91667
2031.18	863.91667
2033.898	853.91667
2036.613	864.25
2039.327	856.91667
2042.038	841.91667
2044.748	843.91667
2047.456	842.25
2050.162	827.25
2052.866	832.91667
2055.568	836.91667
2058.268	836.25
2060.967	835.58333
2063.663	809.25
2066.358	828.91667
2069.051	821.25
2071.742	818.58333
2074.431	837.25
2077.118	822.25
2079.804	813.58333
2082.487	814.25
2085.169	834.91667
2087.849	835.25
2090.527	834.25
2093.203	840.25
2095.877	842.25
2098.55	839.58333
2101.22	850.25
2103.889	864.91667
2106.556	854.25
2109.221	884.58333
2111.884	911.25
2114.546	974.58333
2117.205	1043.25
2119.863	1147.91667
2122.519	1200.91667
2125.173	1298.58333
2127.825	1376.25
2130.475	1372.25
2133.124	1351.58333
2135.771	1269.25
2138.416	1220.91667
2141.059	1132.58333
2143.7	1077.25
2146.339	1009.91667
2148.977	958.91667
2151.613	936.91667
2154.247	920.91667
2156.879	889.58333
2159.51	868.91667
2162.138	833.58333
2164.765	840.58333
2167.39	825.58333
2170.013	819.91667
2172.634	830.91667
2175.254	821.58333
2177.872	852.58333
2180.488	800.25
2183.102	803.58333
2185.714	794.25
2188.325	763.25
2190.934	780.25
2193.541	773.58333
2196.146	756.58333
2198.75	744.25
2201.351	755.91667
2203.951	730.58333
2206.549	748.25
2209.146	736.58333
2211.74	734.91667
2214.333	730.91667
2216.924	718.58333
2219.514	720.91667
2222.101	712.25
2224.687	727.91667
2227.271	706.25
2229.853	701.25
2232.433	681.91667
2235.012	717.25
2237.589	715.25
2240.164	726.58333
2242.738	696.25
2245.309	695.91667
2247.879	694.91667
2250.448	705.58333
2253.014	673.25
2255.579	666.25
2258.142	665.25
2260.703	661.91667
2263.262	651.25
2265.82	652.91667
2268.376	657.58333
2270.93	642.91667
2273.483	629.25
2276.033	649.25
2278.583	626.58333
2281.13	639.25
2283.675	610.58333
2286.219	628.91667
2288.761	628.58333
2291.302	634.91667
2293.841	640.25
2296.377	606.25
2298.913	622.91667
2301.446	622.91667
2303.978	613.25
2306.508	608.25
2309.037	623.25
2311.563	618.91667
2314.088	617.58333
2316.612	599.25
2319.133	614.58333
2321.653	602.91667
2324.171	593.91667
2326.688	612.91667
2329.202	590.25
2331.715	599.25
2334.227	589.58333
2336.736	592.25
2339.244	580.25
2341.751	580.25
2344.255	592.58333
2346.758	578.91667
2349.259	570.58333
2351.759	580.25
2354.257	563.25
2356.753	566.58333
2359.247	565.58333
2361.74	582.25
2364.231	571.25
2366.721	571.91667
2369.209	559.58333
2371.695	562.58333
2374.179	565.25
2376.662	560.25
2379.143	578.91667
2381.622	562.91667
2384.1	567.91667
2386.576	552.25
2389.051	564.58333
2391.524	570.25
2393.995	565.25
2396.464	549.58333
2398.932	548.58333
2401.398	562.91667
2403.863	558.58333
2406.325	543.58333
2408.787	553.91667
2411.246	539.58333
2413.704	531.58333
2416.16	537.58333
2418.615	539.91667
2421.068	552.25
2423.519	542.58333
2425.969	521.58333
2428.417	554.91667
2430.863	567.91667
2433.308	558.25
2435.751	542.58333
2438.193	536.58333
2440.633	545.25
2443.071	533.91667
2445.508	525.58333
2447.943	527.58333
2450.376	521.25
2452.808	529.91667
2455.238	517.25
2457.667	554.25
2460.093	527.91667
2462.519	511.58333
2464.942	526.25
2467.365	531.91667
2469.785	523.91667
2472.204	519.58333
2474.621	509.58333
2477.037	530.25
2479.451	502.91667
2481.863	510.58333
2484.274	495.91667
2486.683	507.91667
2489.091	521.58333
2491.497	510.25
2493.901	505.58333
2496.304	505.25
2498.705	514.58333
2501.105	500.58333
2503.503	529.25
2505.899	505.25
2508.294	523.25
2510.687	488.25
2513.079	504.58333
2515.469	493.58333
2517.858	493.91667
2520.245	512.58333
2522.63	491.91667
2525.014	498.91667
2527.396	495.91667
2529.776	485.58333
2532.156	496.58333
2534.533	488.25
2536.909	486.58333
2539.283	478.25
2541.656	483.91667
2544.027	501.58333
2546.397	500.91667
2548.765	473.58333
2551.131	479.58333
2553.496	492.25
2555.86	490.58333
2558.221	476.25
2560.582	478.25
2562.94	469.58333
2565.298	474.91667
2567.653	492.25
2570.007	478.58333
2572.36	480.58333
2574.711	473.91667
2577.06	496.25
2579.408	488.58333
2581.754	483.91667
2584.099	478.25
2586.442	472.58333
2588.784	471.25
2591.124	482.91667
2593.463	481.58333
2595.8	481.25
2598.135	465.25
2600.469	474.91667
2602.802	486.91667
2605.133	480.25
2607.462	471.91667
2609.79	471.91667
2612.116	475.91667
2614.441	464.25
2616.764	468.25
2619.086	470.58333
2621.406	466.58333
2623.725	484.91667
2626.042	481.91667
2628.358	470.58333
2630.672	468.25
2632.985	473.58333
2635.296	472.25
2637.606	480.58333
2639.914	470.58333
2642.22	477.25
2644.525	475.25
2646.829	474.25
2649.131	477.58333
2651.432	483.58333
2653.731	476.25
2656.028	488.91667
2658.324	480.25
2660.619	466.25
2662.912	487.91667
2665.204	474.91667
2667.494	491.58333
2669.782	469.25
2672.07	489.25
2674.355	496.25
2676.639	480.91667
2678.922	475.25
2681.203	497.91667
2683.483	480.25
2685.761	482.25
2688.038	490.58333
2690.313	498.91667
2692.587	483.25
2694.859	491.91667
2697.13	481.91667
2699.399	491.91667
2701.667	504.25
2703.933	505.25
2706.198	504.58333
2708.461	512.25
2710.723	505.91667
2712.984	511.91667
2715.243	518.91667
2717.5	509.58333
2719.757	510.91667
2722.011	520.25
2724.264	522.58333
2726.516	546.25
2728.766	518.91667
2731.015	523.25
2733.262	535.25
2735.508	520.25
2737.753	510.25
2739.996	508.25
2742.237	507.25
2744.477	518.58333
2746.716	511.91667
2748.953	509.91667
2751.189	508.25
2753.423	502.58333
2755.656	497.58333
2757.887	493.25
2760.117	497.91667
2762.346	487.25
2764.573	481.25
2766.798	490.91667
2769.022	498.25
2771.245	499.58333
2773.467	489.58333
2775.686	505.58333
2777.905	505.25
2780.122	507.58333
2782.337	524.25
2784.552	511.25
2786.764	526.25
2788.976	530.91667
2791.186	534.25
2793.394	528.91667
2795.601	539.58333
2797.807	556.25
2800.011	553.91667
2802.214	568.58333
2804.415	563.58333
2806.615	567.91667
2808.814	591.91667
2811.011	585.25
2813.206	594.58333
2815.401	608.91667
2817.594	622.25
2819.785	629.58333
2821.975	631.25
2824.164	636.91667
2826.351	658.91667
2828.537	685.91667
2830.722	693.58333
2832.905	705.58333
2835.086	731.25
2837.267	773.25
2839.445	802.58333
2841.623	814.58333
2843.799	869.91667
2845.974	894.91667
2848.147	943.58333
2850.319	962.91667
2852.489	1009.58333
2854.659	1012.58333
2856.826	1036.25
2858.993	1055.25
2861.158	1038.91667
2863.321	1054.25
2865.483	1068.25
2867.644	1068.91667
2869.804	1064.91667
2871.962	1043.58333
2874.118	1056.58333
2876.274	1032.91667
2878.428	1064.91667
2880.58	1055.58333
2882.731	1044.25
2884.881	1050.58333
2887.03	1034.58333
2889.177	1051.25
2891.322	1065.58333
2893.467	1047.25
2895.61	1063.25
2897.751	1095.25
2899.892	1071.25
2902.03	1091.58333
2904.168	1085.58333
2906.304	1099.91667
2908.439	1121.25
2910.572	1093.25
2912.704	1124.25
2914.835	1122.91667
2916.965	1110.25
2919.093	1117.58333
2921.219	1083.58333
2923.345	1108.25
2925.469	1088.91667
2927.591	1077.58333
2929.712	1028.25
2931.832	1024.91667
2933.951	1000.91667
2936.068	975.91667
2938.184	944.25
2940.299	911.58333
2942.412	896.58333
2944.524	846.25
2946.634	834.25
2948.744	781.91667
2950.851	800.91667
2952.958	750.58333
2955.063	739.58333
2957.167	728.25
2959.269	688.58333
2961.371	705.91667
2963.471	662.25
2965.569	664.58333
2967.666	625.91667
2969.762	619.58333
2971.857	598.58333
2973.95	586.25
2976.042	583.25
2978.133	572.91667
2980.222	546.58333
2982.31	523.91667
2984.396	507.58333
2986.482	512.58333
2988.566	501.58333
2990.648	484.91667
2992.73	479.91667
2994.81	467.91667
2996.889	470.58333
2998.966	454.58333
3001.042	473.91667
3003.117	463.58333
3005.191	453.58333
3007.263	446.58333
3009.334	438.91667
3011.403	436.58333
3013.472	422.25
3015.539	425.58333
3017.604	428.91667
3019.669	395.91667
3021.732	397.58333
3023.794	397.91667
3025.854	379.58333
3027.914	375.58333
3029.971	386.58333
3032.028	380.58333
3034.083	387.58333
3036.137	376.25
3038.19	357.58333
3040.242	350.58333
3042.292	348.58333
3044.341	340.25
3046.388	352.58333
3048.435	330.25
3050.48	344.25
3052.524	342.58333
3054.566	318.91667
3056.607	338.58333
3058.647	319.25
3060.686	307.58333
3062.723	296.91667
3064.759	291.91667
3066.794	0.25
3068.828	-0.08333
3070.86	-0.41667
