-0.839	437.04167
3.438	457.04167
7.711	134.70833
11.981	58.70833
16.247	44.375
20.509	45.375
24.768	46.04167
29.024	46.04167
33.276	43.70833
37.524	49.375
41.769	43.04167
46.01	33.375
50.247	52.70833
54.481	63.04167
58.712	66.04167
62.939	50.04167
67.162	64.04167
71.382	59.04167
75.599	47.04167
79.812	61.70833
84.021	83.70833
88.227	62.04167
92.429	64.04167
96.628	50.375
100.823	73.375
105.015	79.70833
109.204	77.375
113.388	81.04167
117.57	77.04167
121.748	94.04167
125.922	83.375
130.093	106.375
134.261	112.04167
138.425	104.70833
142.585	150.70833
146.742	150.70833
150.896	183.375
155.046	224.04167
159.193	368.375
163.336	618.70833
167.476	1148.04167
171.613	2122.375
175.746	3555.375
179.875	5270.375
184.002	6893.04167
188.124	7975.375
192.244	8320.04167
196.36	8178.375
200.472	7821.04167
204.581	7537.375
208.687	7258.70833
212.79	7068.04167
216.889	6991.70833
220.984	6995.70833
225.077	7010.375
229.165	7049.375
233.251	7024.375
237.333	7005.04167
241.412	6877.70833
245.487	6864.04167
249.559	6736.70833
253.628	6714.375
257.694	6623.375
261.756	6627.375
265.814	6459.04167
269.87	6299.375
273.922	6161.04167
277.97	6078.70833
282.016	6047.70833
286.058	6072.70833
290.097	6238.70833
294.132	6320.70833
298.164	6274.375
302.193	6002.70833
306.219	5535.70833
310.241	5061.04167
314.26	4624.375
318.276	4205.70833
322.288	3898.375
326.297	3663.70833
330.303	3465.375
334.305	3358.375
338.305	3272.70833
342.301	3191.70833
346.294	3164.375
350.283	3110.70833
354.269	3109.04167
358.252	3090.04167
362.232	3031.375
366.209	3017.04167
370.182	2975.70833
374.152	2960.375
378.119	2944.375
382.083	2932.04167
386.043	2967.70833
390	2891.70833
393.954	2906.04167
397.905	2846.70833
401.852	2863.04167
405.797	2820.375
409.738	2772.375
413.676	2746.70833
417.61	2744.375
421.542	2713.70833
425.47	2698.04167
429.396	2663.04167
433.318	2654.04167
437.236	2635.70833
441.152	2656.04167
445.065	2593.375
448.974	2588.375
452.88	2530.375
456.783	2536.70833
460.683	2527.04167
464.58	2524.375
468.473	2507.04167
472.364	2536.70833
476.251	2544.70833
480.135	2539.375
484.016	2592.375
487.894	2614.70833
491.769	2609.375
495.641	2621.70833
499.509	2657.375
503.375	2623.375
507.237	2609.375
511.096	2643.04167
514.952	2649.70833
518.805	2656.04167
522.655	2698.04167
526.502	2609.375
530.346	2600.375
534.187	2618.70833
538.024	2609.375
541.859	2612.04167
545.69	2654.04167
549.519	2655.70833
553.344	2615.375
557.166	2543.375
560.985	2544.04167
564.802	2502.04167
568.615	2436.70833
572.425	2426.375
576.232	2389.70833
580.036	2382.04167
583.836	2400.70833
587.634	2407.375
591.429	2405.70833
595.221	2451.375
599.01	2469.375
602.796	2511.70833
606.578	2520.70833
610.358	2511.375
614.135	2506.04167
617.909	2490.375
621.679	2483.04167
625.447	2457.70833
629.212	2457.04167
632.973	2466.70833
636.732	2449.70833
640.488	2447.70833
644.241	2434.04167
647.991	2427.70833
651.737	2434.04167
655.481	2419.375
659.222	2411.375
662.96	2404.375
666.695	2429.70833
670.427	2451.04167
674.156	2455.375
677.882	2465.70833
681.605	2445.04167
685.325	2405.04167
689.043	2420.04167
692.757	2420.04167
696.468	2414.70833
700.177	2440.70833
703.882	2411.04167
707.585	2400.04167
711.284	2422.375
714.981	2414.70833
718.675	2440.04167
722.366	2443.04167
726.054	2416.70833
729.739	2453.70833
733.421	2427.375
737.1	2427.04167
740.777	2458.04167
744.45	2471.70833
748.121	2487.04167
751.789	2533.70833
755.453	2524.04167
759.115	2551.04167
762.774	2583.70833
766.431	2594.70833
770.084	2633.04167
773.734	2637.70833
777.382	2725.375
781.027	2735.04167
784.669	2747.04167
788.308	2745.04167
791.944	2765.375
795.577	2772.04167
799.208	2832.70833
802.835	2815.375
806.46	2860.375
810.082	2855.04167
813.701	2879.04167
817.317	2895.04167
820.931	2914.70833
824.542	2869.375
828.149	2880.375
831.754	2840.375
835.357	2857.70833
838.956	2866.04167
842.553	2825.70833
846.146	2795.04167
849.737	2795.70833
853.326	2816.375
856.911	2838.04167
860.493	2861.375
864.073	2884.375
867.65	2925.375
871.225	2977.04167
874.796	2969.375
878.365	2995.375
881.931	3024.70833
885.494	3065.04167
889.054	3087.70833
892.612	3121.375
896.166	3125.375
899.719	3067.70833
903.268	3009.375
906.814	2989.70833
910.358	2942.70833
913.899	2909.04167
917.438	2929.70833
920.973	2904.70833
924.506	2945.375
928.036	2996.04167
931.564	3019.375
935.088	3047.375
938.61	3083.70833
942.129	3093.70833
945.646	3179.375
949.16	3266.375
952.671	3352.70833
956.179	3364.70833
959.685	3295.04167
963.188	3260.04167
966.688	3219.04167
970.185	3127.70833
973.68	3070.375
977.173	3028.70833
980.662	3006.04167
984.149	3040.70833
987.633	3019.04167
991.114	3062.70833
994.593	3166.70833
998.069	3268.04167
1001.542	3388.375
1005.013	3301.375
1008.481	3109.70833
1011.947	3068.375
1015.409	3034.375
1018.869	3063.70833
1022.327	3052.04167
1025.782	3020.375
1029.234	3029.04167
1032.683	2995.375
1036.13	2893.04167
1039.574	2798.04167
1043.016	2715.70833
1046.455	2662.375
1049.891	2614.70833
1053.325	2614.04167
1056.756	2618.70833
1060.184	2650.375
1063.61	2678.375
1067.033	2666.04167
1070.454	2668.04167
1073.872	2728.375
1077.287	2721.04167
1080.7	2731.04167
1084.11	2721.04167
1087.517	2729.375
1090.922	2699.375
1094.325	2644.375
1097.724	2631.04167
1101.122	2628.04167
1104.516	2621.04167
1107.908	2630.04167
1111.298	2686.04167
1114.684	2720.375
1118.069	2712.375
1121.45	2784.04167
1124.83	2781.04167
1128.206	2804.04167
1131.58	2875.04167
1134.951	2949.70833
1138.32	3076.70833
1141.687	3217.70833
1145.05	3292.375
1148.412	3302.04167
1151.77	3282.375
1155.126	3226.70833
1158.48	3225.04167
1161.831	3240.04167
1165.18	3243.70833
1168.525	3279.375
1171.869	3344.04167
1175.21	3372.70833
1178.548	3422.375
1181.884	3440.375
1185.217	3456.04167
1188.548	3535.04167
1191.877	3612.70833
1195.202	3717.70833
1198.526	3723.04167
1201.846	3786.70833
1205.165	3779.04167
1208.48	3747.375
1211.794	3737.04167
1215.104	3736.70833
1218.413	3764.375
1221.719	3756.70833
1225.022	3693.70833
1228.323	3642.70833
1231.621	3658.70833
1234.917	3616.04167
1238.21	3671.375
1241.501	3640.70833
1244.79	3657.375
1248.076	3637.04167
1251.359	3656.375
1254.64	3763.375
1257.919	3767.375
1261.195	3852.375
1264.468	3955.70833
1267.74	4023.375
1271.008	4037.375
1274.275	4001.70833
1277.538	3953.04167
1280.8	3957.04167
1284.059	3964.375
1287.315	3991.04167
1290.569	3979.375
1293.821	4038.375
1297.07	4053.70833
1300.317	4054.70833
1303.562	4019.70833
1306.803	4008.375
1310.043	3960.04167
1313.28	3917.375
1316.515	3891.70833
1319.747	3867.04167
1322.977	3823.04167
1326.204	3757.70833
1329.429	3727.04167
1332.652	3698.04167
1335.872	3712.70833
1339.09	3608.375
1342.306	3584.04167
1345.519	3558.70833
1348.729	3490.375
1351.938	3442.04167
1355.144	3419.375
1358.347	3380.375
1361.548	3398.04167
1364.747	3419.375
1367.944	3375.70833
1371.138	3433.04167
1374.329	3496.375
1377.518	3532.375
1380.705	3585.70833
1383.89	3548.04167
1387.072	3439.04167
1390.252	3304.70833
1393.429	3184.04167
1396.605	3067.70833
1399.777	2999.04167
1402.948	2945.70833
1406.116	2954.70833
1409.282	2957.70833
1412.445	2987.04167
1415.606	3033.375
1418.765	3074.70833
1421.921	3138.04167
1425.075	3191.70833
1428.227	3305.375
1431.376	3452.70833
1434.524	3588.375
1437.668	3672.375
1440.811	3724.04167
1443.951	3772.04167
1447.089	3760.70833
1450.224	3748.375
1453.357	3717.375
1456.488	3687.04167
1459.617	3616.375
1462.743	3588.04167
1465.867	3473.04167
1468.989	3431.04167
1472.108	3400.04167
1475.225	3299.70833
1478.34	3278.70833
1481.453	3290.04167
1484.563	3276.375
1487.671	3340.70833
1490.776	3427.70833
1493.88	3485.375
1496.981	3548.375
1500.08	3618.375
1503.176	3653.04167
1506.271	3699.70833
1509.363	3755.70833
1512.452	3776.375
1515.54	3837.375
1518.625	3901.375
1521.708	4045.70833
1524.789	4183.70833
1527.867	4397.375
1530.944	4650.70833
1534.018	4898.70833
1537.089	5056.375
1540.159	5106.04167
1543.226	5017.70833
1546.291	4884.70833
1549.354	4723.375
1552.415	4621.70833
1555.473	4449.70833
1558.529	4355.04167
1561.583	4327.375
1564.634	4281.70833
1567.684	4276.70833
1570.731	4277.70833
1573.776	4296.70833
1576.819	4311.375
1579.859	4341.375
1582.898	4385.04167
1585.934	4411.70833
1588.968	4444.04167
1591.999	4435.70833
1595.029	4429.04167
1598.056	4442.70833
1601.081	4471.375
1604.104	4449.04167
1607.125	4405.70833
1610.144	4323.375
1613.16	4201.04167
1616.174	4110.04167
1619.186	4032.70833
1622.196	3896.04167
1625.203	3843.70833
1628.209	3750.04167
1631.212	3712.70833
1634.213	3687.375
1637.212	3617.375
1640.209	3564.04167
1643.203	3455.70833
1646.196	3334.04167
1649.186	3231.375
1652.174	3164.70833
1655.16	3066.375
1658.144	3013.04167
1661.125	2863.70833
1664.105	2739.70833
1667.082	2647.375
1670.057	2502.04167
1673.03	2330.70833
1676.001	2173.375
1678.97	2027.04167
1681.937	1899.04167
1684.901	1771.04167
1687.863	1723.70833
1690.824	1634.375
1693.782	1610.375
1696.738	1543.375
1699.692	1514.04167
1702.643	1465.04167
1705.593	1442.04167
1708.54	1438.04167
1711.486	1446.04167
1714.429	1395.375
1717.37	1387.375
1720.309	1352.375
1723.246	1364.375
1726.181	1324.375
1729.113	1335.70833
1732.044	1307.375
1734.972	1291.375
1737.899	1300.375
1740.823	1287.375
1743.745	1287.04167
1746.665	1227.375
1749.583	1218.04167
1752.499	1197.04167
1755.413	1167.70833
1758.325	1158.375
1761.235	1156.70833
1764.142	1122.70833
1767.048	1111.375
1769.951	1119.04167
1772.852	1100.04167
1775.752	1095.70833
1778.649	1090.375
1781.544	1087.70833
1784.437	1065.375
1787.328	1083.04167
1790.217	1069.375
1793.104	1048.04167
1795.989	1032.04167
1798.872	1022.04167
1801.753	1055.70833
1804.631	1047.70833
1807.508	1062.04167
1810.383	1044.375
1813.255	1038.70833
1816.126	1032.70833
1818.994	1027.04167
1821.861	1026.70833
1824.725	1015.04167
1827.587	1012.04167
1830.448	1002.04167
1833.306	980.70833
1836.162	988.70833
1839.017	979.04167
1841.869	977.375
1844.719	976.04167
1847.567	953.70833
1850.414	962.375
1853.258	964.04167
1856.1	967.70833
1858.94	971.04167
1861.778	967.375
1864.614	960.70833
1867.448	964.04167
1870.28	937.375
1873.111	965.70833
1875.939	953.375
1878.765	973.04167
1881.589	950.375
1884.411	949.70833
1887.231	953.375
1890.049	940.04167
1892.865	948.375
1895.68	924.70833
1898.492	933.04167
1901.302	929.70833
1904.11	929.70833
1906.916	910.375
1909.721	916.70833
1912.523	914.04167
1915.323	900.04167
1918.122	903.375
1920.918	913.375
1923.712	905.04167
1926.505	897.375
1929.295	882.375
1932.084	918.04167
1934.87	894.04167
1937.655	882.70833
1940.438	881.70833
1943.218	896.70833
1945.997	891.70833
1948.774	905.375
1951.549	890.70833
1954.322	880.70833
1957.093	892.70833
1959.862	884.70833
1962.629	891.375
1965.394	870.04167
1968.157	853.375
1970.918	879.04167
1973.678	856.04167
1976.435	870.04167
1979.19	862.375
1981.944	862.375
1984.696	848.375
1987.445	846.70833
1990.193	850.375
1992.939	861.70833
1995.683	849.70833
1998.425	826.375
2001.165	853.70833
2003.903	838.375
2006.639	845.375
2009.374	837.70833
2012.106	841.70833
2014.837	806.375
2017.566	827.70833
2020.292	828.70833
2023.017	834.375
2025.74	819.70833
2028.461	822.04167
2031.18	823.70833
2033.898	805.70833
2036.613	819.04167
2039.327	821.70833
2042.038	803.375
2044.748	813.04167
2047.456	797.375
2050.162	786.04167
2052.866	805.70833
2055.568	802.04167
2058.268	798.70833
2060.967	807.70833
2063.663	785.375
2066.358	795.70833
2069.051	793.04167
2071.742	795.375
2074.431	792.375
2077.118	787.70833
2079.804	781.04167
2082.487	793.375
2085.169	796.04167
2087.849	826.04167
2090.527	789.375
2093.203	797.04167
2095.877	804.04167
2098.55	805.70833
2101.22	813.70833
2103.889	838.04167
2106.556	831.375
2109.221	860.70833
2111.884	887.04167
2114.546	975.70833
2117.205	1024.04167
2119.863	1120.70833
2122.519	1194.04167
2125.173	1288.375
2127.825	1347.04167
2130.475	1366.04167
2133.124	1306.04167
2135.771	1250.375
2138.416	1186.70833
2141.059	1095.04167
2143.7	1060.375
2146.339	977.375
2148.977	924.375
2151.613	911.70833
2154.247	871.04167
2156.879	877.04167
2159.51	831.375
2162.138	820.70833
2164.765	819.375
2167.39	804.04167
2170.013	809.70833
2172.634	801.04167
2175.254	797.375
2177.872	820.70833
2180.488	777.04167
2183.102	785.375
2185.714	769.70833
2188.325	754.70833
2190.934	748.375
2193.541	755.375
2196.146	740.04167
2198.75	723.70833
2201.351	725.70833
2203.951	702.375
2206.549	727.70833
2209.146	703.375
2211.74	699.04167
2214.333	711.04167
2216.924	687.70833
2219.514	707.70833
2222.101	687.375
2224.687	701.04167
2227.271	686.04167
2229.853	678.375
2232.433	676.70833
2235.012	680.04167
2237.589	689.04167
2240.164	686.375
2242.738	688.04167
2245.309	666.70833
2247.879	665.375
2250.448	676.70833
2253.014	650.04167
2255.579	640.70833
2258.142	643.70833
2260.703	632.375
2263.262	636.04167
2265.82	633.04167
2268.376	629.70833
2270.93	623.04167
2273.483	612.70833
2276.033	625.70833
2278.583	613.04167
2281.13	611.375
2283.675	601.375
2286.219	609.375
2288.761	606.04167
2291.302	618.70833
2293.841	612.375
2296.377	592.70833
2298.913	598.04167
2301.446	606.70833
2303.978	594.04167
2306.508	586.375
2309.037	597.04167
2311.563	599.04167
2314.088	603.04167
2316.612	579.70833
2319.133	582.04167
2321.653	586.70833
2324.171	570.375
2326.688	599.70833
2329.202	572.375
2331.715	583.04167
2334.227	563.375
2336.736	571.375
2339.244	558.70833
2341.751	554.70833
2344.255	561.04167
2346.758	559.375
2349.259	555.04167
2351.759	553.04167
2354.257	560.04167
2356.753	551.04167
2359.247	555.04167
2361.74	550.04167
2364.231	546.70833
2366.721	552.375
2369.209	547.375
2371.695	540.70833
2374.179	539.70833
2376.662	540.04167
2379.143	560.04167
2381.622	542.70833
2384.1	545.70833
2386.576	536.04167
2389.051	549.04167
2391.524	568.375
2393.995	554.70833
2396.464	534.70833
2398.932	536.04167
2401.398	542.70833
2403.863	539.375
2406.325	532.70833
2408.787	532.04167
2411.246	528.375
2413.704	524.04167
2416.16	517.70833
2418.615	531.375
2421.068	536.70833
2423.519	525.04167
2425.969	519.04167
2428.417	531.70833
2430.863	541.04167
2433.308	529.04167
2435.751	539.04167
2438.193	515.04167
2440.633	529.04167
2443.071	518.04167
2445.508	510.04167
2447.943	511.70833
2450.376	503.04167
2452.808	508.70833
2455.238	506.04167
2457.667	530.70833
2460.093	504.70833
2462.519	499.04167
2464.942	502.70833
2467.365	518.70833
2469.785	509.375
2472.204	506.70833
2474.621	504.04167
2477.037	517.375
2479.451	491.375
2481.863	490.04167
2484.274	489.70833
2486.683	519.375
2489.091	496.04167
2491.497	496.04167
2493.901	495.04167
2496.304	489.70833
2498.705	495.04167
2501.105	474.375
2503.503	522.70833
2505.899	483.04167
2508.294	511.375
2510.687	489.70833
2513.079	491.70833
2515.469	473.04167
2517.858	485.04167
2520.245	491.70833
2522.63	489.375
2525.014	483.70833
2527.396	483.04167
2529.776	479.375
2532.156	484.70833
2534.533	470.04167
2536.909	475.375
2539.283	469.375
2541.656	476.04167
2544.027	497.375
2546.397	492.375
2548.765	471.04167
2551.131	477.04167
2553.496	476.375
2555.86	483.70833
2558.221	475.04167
2560.582	472.04167
2562.94	458.04167
2565.298	471.375
2567.653	491.375
2570.007	458.04167
2572.36	475.375
2574.711	471.70833
2577.06	482.70833
2579.408	463.04167
2581.754	459.04167
2584.099	471.04167
2586.442	457.04167
2588.784	467.70833
2591.124	474.375
2593.463	463.70833
2595.8	474.04167
2598.135	458.70833
2600.469	466.70833
2602.802	470.70833
2605.133	482.70833
2607.462	448.375
2609.79	458.04167
2612.116	455.70833
2614.441	464.70833
2616.764	476.04167
2619.086	457.70833
2621.406	457.70833
2623.725	480.70833
2626.042	462.04167
2628.358	466.70833
2630.672	456.04167
2632.985	471.70833
2635.296	473.70833
2637.606	472.04167
2639.914	459.70833
2642.22	468.04167
2644.525	465.70833
2646.829	476.70833
2649.131	479.375
2651.432	484.04167
2653.731	469.04167
2656.028	487.375
2658.324	475.70833
2660.619	461.70833
2662.912	486.375
2665.204	468.70833
2667.494	488.70833
2669.782	466.04167
2672.07	477.375
2674.355	479.04167
2676.639	470.04167
2678.922	477.70833
2681.203	481.04167
2683.483	462.70833
2685.761	471.04167
2688.038	478.70833
2690.313	496.70833
2692.587	477.70833
2694.859	480.70833
2697.13	484.70833
2699.399	481.04167
2701.667	497.375
2703.933	496.375
2706.198	499.375
2708.461	507.70833
2710.723	509.375
2712.984	507.04167
2715.243	522.70833
2717.5	512.375
2719.757	521.70833
2722.011	511.04167
2724.264	518.70833
2726.516	542.375
2728.766	519.04167
2731.015	519.04167
2733.262	519.04167
2735.508	525.04167
2737.753	504.375
2739.996	506.375
2742.237	495.04167
2744.477	518.04167
2746.716	508.375
2748.953	513.70833
2751.189	505.70833
2753.423	507.70833
2755.656	489.70833
2757.887	491.04167
2760.117	492.375
2762.346	486.375
2764.573	488.04167
2766.798	478.375
2769.022	489.70833
2771.245	490.375
2773.467	491.70833
2775.686	504.375
2777.905	512.04167
2780.122	515.70833
2782.337	519.70833
2784.552	505.375
2786.764	516.70833
2788.976	522.70833
2791.186	535.375
2793.394	544.04167
2795.601	541.70833
2797.807	548.375
2800.011	553.375
2802.214	571.04167
2804.415	568.04167
2806.615	568.70833
2808.814	588.04167
2811.011	589.375
2813.206	605.04167
2815.401	612.375
2817.594	625.375
2819.785	635.04167
2821.975	626.70833
2824.164	640.70833
2826.351	660.375
2828.537	680.04167
2830.722	687.70833
2832.905	706.375
2835.086	738.70833
2837.267	779.70833
2839.445	815.04167
2841.623	817.70833
2843.799	863.04167
2845.974	895.70833
2848.147	938.70833
2850.319	961.375
2852.489	1014.04167
2854.659	1009.04167
2856.826	1034.70833
2858.993	1064.70833
2861.158	1049.375
2863.321	1061.04167
2865.483	1077.04167
2867.644	1079.04167
2869.804	1065.04167
2871.962	1064.70833
2874.118	1060.04167
2876.274	1056.04167
2878.428	1049.70833
2880.58	1030.04167
2882.731	1038.04167
2884.881	1042.04167
2887.03	1045.70833
2889.177	1054.375
2891.322	1056.04167
2893.467	1058.04167
2895.61	1056.04167
2897.751	1103.70833
2899.892	1083.70833
2902.03	1094.70833
2904.168	1097.375
2906.304	1104.04167
2908.439	1108.375
2910.572	1106.70833
2912.704	1110.04167
2914.835	1124.375
2916.965	1119.04167
2919.093	1123.375
2921.219	1079.70833
2923.345	1113.70833
2925.469	1076.70833
2927.591	1075.70833
2929.712	1039.375
2931.832	1017.04167
2933.951	1002.375
2936.068	990.70833
2938.184	947.70833
2940.299	923.04167
2942.412	905.04167
2944.524	853.70833
2946.634	839.70833
2948.744	785.70833
2950.851	798.375
2952.958	752.04167
2955.063	740.375
2957.167	718.70833
2959.269	685.04167
2961.371	701.375
2963.471	660.04167
2965.569	675.70833
2967.666	639.375
2969.762	620.375
2971.857	593.70833
2973.95	590.375
2976.042	578.04167
2978.133	572.70833
2980.222	547.70833
2982.31	523.04167
2984.396	507.70833
2986.482	506.375
2988.566	500.70833
2990.648	482.375
2992.73	482.375
2994.81	472.375
2996.889	470.70833
2998.966	457.04167
3001.042	475.70833
3003.117	456.375
3005.191	461.04167
3007.263	445.70833
3009.334	432.04167
3011.403	442.375
3013.472	412.375
3015.539	419.375
3017.604	429.70833
3019.669	399.04167
3021.732	395.375
3023.794	405.375
3025.854	383.375
3027.914	381.70833
3029.971	399.70833
3032.028	377.04167
3034.083	389.04167
3036.137	380.70833
3038.19	364.70833
3040.242	355.70833
3042.292	342.04167
3044.341	344.04167
3046.388	361.70833
3048.435	329.70833
3050.48	355.375
3052.524	338.70833
3054.566	317.04167
3056.607	327.04167
3058.647	327.70833
3060.686	306.70833
3062.723	293.375
3064.759	281.70833
3066.794	-1.95833
3068.828	-0.29167
3070.86	0.04167
