-0.839	415.16667
3.438	446.5
7.711	118.5
11.981	54.83333
16.247	44.5
20.509	42.16667
24.768	44.83333
29.024	45.16667
33.276	45.16667
37.524	48.5
41.769	41.5
46.01	36.5
50.247	52.83333
54.481	61.83333
58.712	63.16667
62.939	48.5
67.162	58.5
71.382	60.16667
75.599	49.83333
79.812	60.83333
84.021	79.16667
88.227	60.83333
92.429	64.5
96.628	51.16667
100.823	67.5
105.015	74.16667
109.204	75.5
113.388	80.16667
117.57	67.83333
121.748	86.5
125.922	77.83333
130.093	100.83333
134.261	105.16667
138.425	97.83333
142.585	137.5
146.742	140.5
150.896	159.16667
155.046	200.83333
159.193	315.5
163.336	537.83333
167.476	984.83333
171.613	1817.5
175.746	3067.16667
179.875	4597.16667
184.002	5941.5
188.124	6927.16667
192.244	7246.5
196.36	7142.83333
200.472	6877.16667
204.581	6660.16667
208.687	6412.5
212.79	6289.5
216.889	6260.5
220.984	6315.5
225.077	6297.83333
229.165	6301.16667
233.251	6295.16667
237.333	6300.5
241.412	6206.16667
245.487	6196.83333
249.559	6092.16667
253.628	6044.83333
257.694	5998.5
261.756	5977.5
265.814	5874.5
269.87	5749.5
273.922	5652.16667
277.97	5692.16667
282.016	5679.5
286.058	5761.83333
290.097	5911.16667
294.132	6007.16667
298.164	5894.5
302.193	5644.83333
306.219	5271.16667
310.241	4740.83333
314.26	4358.16667
318.276	3972.5
322.288	3692.16667
326.297	3475.5
330.303	3327.16667
334.305	3217.16667
338.305	3121.83333
342.301	3089.5
346.294	3029.5
350.283	3021.16667
354.269	2978.16667
358.252	2965.5
362.232	2910.83333
366.209	2891.5
370.182	2858.83333
374.152	2836.5
378.119	2834.5
382.083	2806.16667
386.043	2814.16667
390	2774.16667
393.954	2791.83333
397.905	2748.16667
401.852	2739.83333
405.797	2717.16667
409.738	2696.5
413.676	2664.5
417.61	2688.83333
421.542	2645.83333
425.47	2630.83333
429.396	2599.5
433.318	2581.83333
437.236	2533.5
441.152	2579.5
445.065	2527.5
448.974	2516.5
452.88	2472.5
456.783	2470.16667
460.683	2470.16667
464.58	2451.5
468.473	2454.83333
472.364	2449.83333
476.251	2485.16667
480.135	2509.5
484.016	2554.5
487.894	2567.5
491.769	2583.83333
495.641	2608.83333
499.509	2602.5
503.375	2593.5
507.237	2589.83333
511.096	2625.83333
514.952	2759.16667
518.805	2904.5
522.655	2974.16667
526.502	2735.5
530.346	2582.16667
534.187	2590.5
538.024	2552.83333
541.859	2575.16667
545.69	2587.16667
549.519	2573.5
553.344	2534.83333
557.166	2493.16667
560.985	2491.5
564.802	2438.16667
568.615	2414.83333
572.425	2351.16667
576.232	2341.5
580.036	2350.83333
583.836	2346.16667
587.634	2351.5
591.429	2349.16667
595.221	2395.16667
599.01	2425.16667
602.796	2451.16667
606.578	2476.83333
610.358	2479.5
614.135	2445.83333
617.909	2439.16667
621.679	2427.5
625.447	2385.16667
629.212	2416.16667
632.973	2413.16667
636.732	2404.16667
640.488	2406.5
644.241	2389.16667
647.991	2355.83333
651.737	2383.5
655.481	2339.83333
659.222	2337.16667
662.96	2345.5
666.695	2372.5
670.427	2389.16667
674.156	2410.83333
677.882	2405.83333
681.605	2399.5
685.325	2376.5
689.043	2382.83333
692.757	2363.16667
696.468	2378.83333
700.177	2361.5
703.882	2382.83333
707.585	2351.83333
711.284	2371.16667
714.981	2360.16667
718.675	2363.5
722.366	2380.5
726.054	2377.16667
729.739	2376.83333
733.421	2362.5
737.1	2371.5
740.777	2406.83333
744.45	2411.83333
748.121	2438.5
751.789	2482.83333
755.453	2457.5
759.115	2484.83333
762.774	2498.5
766.431	2519.16667
770.084	2544.16667
773.734	2573.5
777.382	2612.5
781.027	2666.83333
784.669	2682.5
788.308	2682.5
791.944	2689.5
795.577	2751.83333
799.208	2766.5
802.835	2752.83333
806.46	2756.5
810.082	2798.16667
813.701	2760.83333
817.317	2826.16667
820.931	2807.83333
824.542	2826.16667
828.149	2770.5
831.754	2763.16667
835.357	2759.83333
838.956	2756.5
842.553	2780.16667
846.146	2756.83333
849.737	2742.83333
853.326	2747.16667
856.911	2742.83333
860.493	2801.5
864.073	2813.83333
867.65	2879.16667
871.225	2913.83333
874.796	2908.16667
878.365	2943.83333
881.931	2939.83333
885.494	2958.83333
889.054	2997.83333
892.612	3018.5
896.166	3005.5
899.719	2953.5
903.268	2936.83333
906.814	2890.5
910.358	2902.5
913.899	2826.16667
917.438	2838.5
920.973	2816.5
924.506	2856.5
928.036	2880.16667
931.564	2936.16667
935.088	2957.83333
938.61	2984.16667
942.129	3024.5
945.646	3115.83333
949.16	3196.16667
952.671	3229.16667
956.179	3252.5
959.685	3183.83333
963.188	3156.83333
966.688	3085.5
970.185	3019.83333
973.68	2957.16667
977.173	2934.16667
980.662	2891.16667
984.149	2904.16667
987.633	2884.16667
991.114	2940.16667
994.593	3028.83333
998.069	3113.83333
1001.542	3222.83333
1005.013	3155.16667
1008.481	2961.16667
1011.947	2914.83333
1015.409	2924.83333
1018.869	2900.16667
1022.327	2889.83333
1025.782	2899.5
1029.234	2910.5
1032.683	2840.16667
1036.13	2795.16667
1039.574	2665.16667
1043.016	2589.16667
1046.455	2549.5
1049.891	2518.16667
1053.325	2533.83333
1056.756	2548.83333
1060.184	2554.83333
1063.61	2576.5
1067.033	2579.16667
1070.454	2579.16667
1073.872	2609.16667
1077.287	2621.16667
1080.7	2629.16667
1084.11	2620.5
1087.517	2612.83333
1090.922	2593.83333
1094.325	2569.5
1097.724	2520.16667
1101.122	2557.16667
1104.516	2549.83333
1107.908	2553.16667
1111.298	2585.5
1114.684	2610.83333
1118.069	2654.5
1121.45	2671.83333
1124.83	2690.83333
1128.206	2693.5
1131.58	2770.5
1134.951	2850.16667
1138.32	2967.83333
1141.687	3091.5
1145.05	3125.83333
1148.412	3139.16667
1151.77	3142.16667
1155.126	3110.83333
1158.48	3090.5
1161.831	3113.83333
1165.18	3158.5
1168.525	3198.83333
1171.869	3243.83333
1175.21	3244.5
1178.548	3300.5
1181.884	3316.83333
1185.217	3333.16667
1188.548	3415.5
1191.877	3464.5
1195.202	3567.83333
1198.526	3614.83333
1201.846	3638.16667
1205.165	3650.16667
1208.48	3648.5
1211.794	3641.16667
1215.104	3643.16667
1218.413	3651.16667
1221.719	3649.16667
1225.022	3590.83333
1228.323	3558.83333
1231.621	3518.83333
1234.917	3528.5
1238.21	3556.16667
1241.501	3505.16667
1244.79	3496.5
1248.076	3515.16667
1251.359	3568.16667
1254.64	3635.83333
1257.919	3625.16667
1261.195	3691.83333
1264.468	3778.83333
1267.74	3845.16667
1271.008	3850.16667
1274.275	3816.83333
1277.538	3785.5
1280.8	3781.83333
1284.059	3806.16667
1287.315	3835.83333
1290.569	3858.83333
1293.821	3883.16667
1297.07	3890.5
1300.317	3877.83333
1303.562	3890.5
1306.803	3830.5
1310.043	3816.83333
1313.28	3781.83333
1316.515	3732.5
1319.747	3687.16667
1322.977	3657.5
1326.204	3624.83333
1329.429	3584.83333
1332.652	3532.83333
1335.872	3532.83333
1339.09	3476.83333
1342.306	3463.16667
1345.519	3375.83333
1348.729	3337.5
1351.938	3315.83333
1355.144	3278.16667
1358.347	3243.5
1361.548	3273.16667
1364.747	3267.83333
1367.944	3258.16667
1371.138	3281.5
1374.329	3317.5
1377.518	3374.83333
1380.705	3391.16667
1383.89	3368.16667
1387.072	3267.16667
1390.252	3144.5
1393.429	3047.16667
1396.605	2940.5
1399.777	2895.83333
1402.948	2878.5
1406.116	2871.16667
1409.282	2884.5
1412.445	2900.83333
1415.606	2929.83333
1418.765	2984.5
1421.921	3040.5
1425.075	3104.83333
1428.227	3201.16667
1431.376	3357.83333
1434.524	3439.5
1437.668	3515.5
1440.811	3561.5
1443.951	3592.83333
1447.089	3600.16667
1450.224	3589.83333
1453.357	3559.16667
1456.488	3527.5
1459.617	3467.5
1462.743	3423.5
1465.867	3336.5
1468.989	3315.16667
1472.108	3256.83333
1475.225	3159.83333
1478.34	3154.5
1481.453	3168.5
1484.563	3164.83333
1487.671	3221.83333
1490.776	3264.5
1493.88	3306.83333
1496.981	3408.5
1500.08	3449.5
1503.176	3481.83333
1506.271	3528.16667
1509.363	3585.16667
1512.452	3621.5
1515.54	3701.5
1518.625	3754.5
1521.708	3869.5
1524.789	3997.83333
1527.867	4163.16667
1530.944	4404.83333
1534.018	4610.5
1537.089	4794.5
1540.159	4862.16667
1543.226	4819.16667
1546.291	4668.16667
1549.354	4562.16667
1552.415	4443.83333
1555.473	4317.5
1558.529	4204.83333
1561.583	4158.83333
1564.634	4100.83333
1567.684	4091.83333
1570.731	4088.5
1573.776	4094.5
1576.819	4100.16667
1579.859	4121.83333
1582.898	4173.16667
1585.934	4178.5
1588.968	4220.16667
1591.999	4171.5
1595.029	4218.16667
1598.056	4235.83333
1601.081	4226.5
1604.104	4212.83333
1607.125	4181.16667
1610.144	4068.16667
1613.16	3992.5
1616.174	3882.83333
1619.186	3805.83333
1622.196	3654.83333
1625.203	3569.83333
1628.209	3502.16667
1631.212	3479.16667
1634.213	3407.16667
1637.212	3351.83333
1640.209	3291.5
1643.203	3196.5
1646.196	3092.16667
1649.186	3012.16667
1652.174	2923.16667
1655.16	2844.83333
1658.144	2782.83333
1661.125	2703.16667
1664.105	2562.5
1667.082	2446.16667
1670.057	2320.16667
1673.03	2194.83333
1676.001	2036.5
1678.97	1917.5
1681.937	1797.5
1684.901	1695.83333
1687.863	1641.83333
1690.824	1568.5
1693.782	1559.5
1696.738	1481.5
1699.692	1447.83333
1702.643	1419.5
1705.593	1404.5
1708.54	1388.5
1711.486	1387.83333
1714.429	1356.16667
1717.37	1328.5
1720.309	1326.16667
1723.246	1335.16667
1726.181	1286.5
1729.113	1303.5
1732.044	1268.16667
1734.972	1269.16667
1737.899	1273.5
1740.823	1245.83333
1743.745	1258.5
1746.665	1200.83333
1749.583	1196.83333
1752.499	1174.5
1755.413	1159.83333
1758.325	1128.5
1761.235	1142.16667
1764.142	1119.83333
1767.048	1104.5
1769.951	1089.83333
1772.852	1078.83333
1775.752	1077.83333
1778.649	1084.83333
1781.544	1079.5
1784.437	1048.16667
1787.328	1067.16667
1790.217	1058.16667
1793.104	1025.16667
1795.989	1036.16667
1798.872	1021.5
1801.753	1043.5
1804.631	1037.5
1807.508	1053.83333
1810.383	1027.16667
1813.255	1019.83333
1816.126	1025.5
1818.994	1012.83333
1821.861	1003.83333
1824.725	999.16667
1827.587	1005.83333
1830.448	994.16667
1833.306	977.5
1836.162	984.83333
1839.017	967.83333
1841.869	971.16667
1844.719	957.5
1847.567	947.5
1850.414	946.16667
1853.258	941.5
1856.1	961.83333
1858.94	972.83333
1861.778	955.16667
1864.614	946.83333
1867.448	951.5
1870.28	944.5
1873.111	964.16667
1875.939	950.83333
1878.765	971.5
1881.589	946.5
1884.411	935.5
1887.231	950.5
1890.049	943.83333
1892.865	933.16667
1895.68	937.5
1898.492	942.5
1901.302	914.83333
1904.11	929.83333
1906.916	906.16667
1909.721	906.83333
1912.523	917.83333
1915.323	907.83333
1918.122	903.83333
1920.918	912.16667
1923.712	893.16667
1926.505	907.16667
1929.295	897.83333
1932.084	911.83333
1934.87	906.5
1937.655	892.5
1940.438	881.83333
1943.218	892.16667
1945.997	899.16667
1948.774	898.5
1951.549	904.83333
1954.322	877.16667
1957.093	897.16667
1959.862	874.83333
1962.629	894.16667
1965.394	877.83333
1968.157	866.83333
1970.918	872.5
1973.678	864.5
1976.435	870.83333
1979.19	865.16667
1981.944	850.5
1984.696	851.83333
1987.445	837.16667
1990.193	850.83333
1992.939	875.16667
1995.683	856.16667
1998.425	826.16667
2001.165	868.5
2003.903	844.16667
2006.639	847.5
2009.374	835.83333
2012.106	859.83333
2014.837	825.83333
2017.566	832.5
2020.292	854.83333
2023.017	848.83333
2025.74	831.5
2028.461	835.16667
2031.18	833.83333
2033.898	827.5
2036.613	842.5
2039.327	828.83333
2042.038	806.5
2044.748	818.83333
2047.456	820.83333
2050.162	802.5
2052.866	811.83333
2055.568	822.83333
2058.268	816.16667
2060.967	813.83333
2063.663	796.5
2066.358	808.16667
2069.051	789.16667
2071.742	802.16667
2074.431	822.5
2077.118	800.83333
2079.804	803.16667
2082.487	806.16667
2085.169	819.5
2087.849	832.5
2090.527	810.5
2093.203	825.16667
2095.877	842.16667
2098.55	832.83333
2101.22	851.5
2103.889	848.5
2106.556	865.16667
2109.221	896.5
2111.884	938.16667
2114.546	995.16667
2117.205	1070.83333
2119.863	1159.16667
2122.519	1223.83333
2125.173	1302.16667
2127.825	1358.16667
2130.475	1346.16667
2133.124	1290.83333
2135.771	1238.83333
2138.416	1177.5
2141.059	1083.83333
2143.7	1067.16667
2146.339	1006.5
2148.977	945.16667
2151.613	934.16667
2154.247	910.16667
2156.879	877.16667
2159.51	862.5
2162.138	843.16667
2164.765	836.16667
2167.39	828.83333
2170.013	838.16667
2172.634	822.16667
2175.254	826.5
2177.872	836.5
2180.488	792.16667
2183.102	798.16667
2185.714	782.16667
2188.325	769.16667
2190.934	782.5
2193.541	780.83333
2196.146	771.16667
2198.75	770.16667
2201.351	762.16667
2203.951	751.5
2206.549	760.16667
2209.146	737.5
2211.74	741.5
2214.333	742.5
2216.924	727.83333
2219.514	735.83333
2222.101	715.83333
2224.687	733.83333
2227.271	703.5
2229.853	712.16667
2232.433	705.83333
2235.012	732.83333
2237.589	725.16667
2240.164	720.5
2242.738	720.16667
2245.309	706.16667
2247.879	711.83333
2250.448	708.16667
2253.014	689.16667
2255.579	675.16667
2258.142	662.16667
2260.703	659.16667
2263.262	666.83333
2265.82	673.5
2268.376	665.16667
2270.93	662.83333
2273.483	657.16667
2276.033	664.5
2278.583	655.16667
2281.13	658.5
2283.675	644.83333
2286.219	660.83333
2288.761	635.83333
2291.302	651.16667
2293.841	656.16667
2296.377	639.5
2298.913	642.5
2301.446	655.83333
2303.978	643.16667
2306.508	638.16667
2309.037	641.83333
2311.563	652.16667
2314.088	643.16667
2316.612	621.83333
2319.133	636.16667
2321.653	629.83333
2324.171	611.83333
2326.688	625.5
2329.202	613.16667
2331.715	629.16667
2334.227	629.5
2336.736	622.5
2339.244	615.16667
2341.751	615.16667
2344.255	622.16667
2346.758	601.83333
2349.259	607.83333
2351.759	619.16667
2354.257	607.83333
2356.753	609.83333
2359.247	602.83333
2361.74	614.5
2364.231	611.16667
2366.721	613.5
2369.209	604.5
2371.695	615.16667
2374.179	601.83333
2376.662	603.5
2379.143	605.83333
2381.622	597.5
2384.1	602.16667
2386.576	604.16667
2389.051	608.5
2391.524	613.83333
2393.995	609.83333
2396.464	594.5
2398.932	601.83333
2401.398	600.16667
2403.863	601.16667
2406.325	600.16667
2408.787	593.83333
2411.246	585.5
2413.704	589.5
2416.16	587.83333
2418.615	599.16667
2421.068	600.16667
2423.519	585.83333
2425.969	601.5
2428.417	596.16667
2430.863	610.5
2433.308	603.16667
2435.751	598.83333
2438.193	585.16667
2440.633	608.16667
2443.071	595.83333
2445.508	575.83333
2447.943	583.83333
2450.376	579.83333
2452.808	581.5
2455.238	574.5
2457.667	607.83333
2460.093	579.16667
2462.519	572.16667
2464.942	579.83333
2467.365	591.83333
2469.785	588.16667
2472.204	579.5
2474.621	574.16667
2477.037	600.16667
2479.451	574.5
2481.863	572.5
2484.274	565.16667
2486.683	586.5
2489.091	586.83333
2491.497	573.83333
2493.901	580.5
2496.304	578.16667
2498.705	582.16667
2501.105	571.16667
2503.503	607.83333
2505.899	565.5
2508.294	590.5
2510.687	569.5
2513.079	568.83333
2515.469	565.16667
2517.858	569.83333
2520.245	589.5
2522.63	569.16667
2525.014	563.5
2527.396	563.5
2529.776	563.5
2532.156	582.5
2534.533	556.83333
2536.909	557.83333
2539.283	555.83333
2541.656	560.83333
2544.027	590.83333
2546.397	568.16667
2548.765	577.16667
2551.131	556.16667
2553.496	563.83333
2555.86	576.5
2558.221	562.5
2560.582	569.83333
2562.94	556.16667
2565.298	567.83333
2567.653	585.83333
2570.007	550.5
2572.36	573.5
2574.711	563.5
2577.06	581.83333
2579.408	564.16667
2581.754	562.5
2584.099	570.83333
2586.442	568.5
2588.784	577.16667
2591.124	567.5
2593.463	572.16667
2595.8	561.16667
2598.135	565.16667
2600.469	570.5
2602.802	593.83333
2605.133	576.5
2607.462	562.83333
2609.79	566.83333
2612.116	580.5
2614.441	567.83333
2616.764	570.5
2619.086	559.5
2621.406	571.16667
2623.725	583.83333
2626.042	580.16667
2628.358	565.83333
2630.672	574.16667
2632.985	585.5
2635.296	584.16667
2637.606	571.16667
2639.914	570.83333
2642.22	587.5
2644.525	570.83333
2646.829	581.5
2649.131	599.5
2651.432	603.83333
2653.731	593.83333
2656.028	605.83333
2658.324	598.16667
2660.619	586.5
2662.912	595.5
2665.204	579.5
2667.494	600.5
2669.782	591.16667
2672.07	603.83333
2674.355	594.16667
2676.639	595.83333
2678.922	592.16667
2681.203	609.5
2683.483	588.16667
2685.761	587.83333
2688.038	610.16667
2690.313	620.16667
2692.587	611.16667
2694.859	600.16667
2697.13	610.16667
2699.399	613.5
2701.667	629.83333
2703.933	628.83333
2706.198	634.16667
2708.461	633.16667
2710.723	640.83333
2712.984	639.16667
2715.243	651.5
2717.5	648.16667
2719.757	656.5
2722.011	660.5
2724.264	664.83333
2726.516	670.5
2728.766	657.5
2731.015	666.16667
2733.262	662.83333
2735.508	652.16667
2737.753	647.5
2739.996	651.5
2742.237	646.5
2744.477	666.83333
2746.716	653.5
2748.953	638.83333
2751.189	649.5
2753.423	640.83333
2755.656	634.83333
2757.887	630.16667
2760.117	647.83333
2762.346	623.16667
2764.573	619.5
2766.798	637.83333
2769.022	635.5
2771.245	641.83333
2773.467	647.83333
2775.686	649.16667
2777.905	655.16667
2780.122	656.16667
2782.337	668.5
2784.552	669.16667
2786.764	686.5
2788.976	687.5
2791.186	688.16667
2793.394	689.83333
2795.601	708.83333
2797.807	710.83333
2800.011	713.16667
2802.214	733.5
2804.415	733.5
2806.615	754.83333
2808.814	758.5
2811.011	764.16667
2813.206	764.83333
2815.401	776.16667
2817.594	802.5
2819.785	810.83333
2821.975	808.5
2824.164	811.5
2826.351	831.83333
2828.537	861.5
2830.722	871.16667
2832.905	876.83333
2835.086	895.16667
2837.267	934.16667
2839.445	979.16667
2841.623	985.5
2843.799	1016.5
2845.974	1066.83333
2848.147	1094.16667
2850.319	1115.16667
2852.489	1166.83333
2854.659	1167.5
2856.826	1185.83333
2858.993	1216.83333
2861.158	1191.16667
2863.321	1191.5
2865.483	1221.83333
2867.644	1213.5
2869.804	1224.16667
2871.962	1190.5
2874.118	1206.16667
2876.274	1198.16667
2878.428	1198.16667
2880.58	1187.83333
2882.731	1188.5
2884.881	1209.16667
2887.03	1188.83333
2889.177	1185.83333
2891.322	1215.5
2893.467	1192.16667
2895.61	1199.16667
2897.751	1229.83333
2899.892	1213.83333
2902.03	1236.5
2904.168	1233.5
2906.304	1230.5
2908.439	1265.16667
2910.572	1233.83333
2912.704	1253.5
2914.835	1245.83333
2916.965	1247.83333
2919.093	1245.83333
2921.219	1213.16667
2923.345	1240.5
2925.469	1212.83333
2927.591	1200.5
2929.712	1160.83333
2931.832	1156.16667
2933.951	1135.83333
2936.068	1106.5
2938.184	1072.83333
2940.299	1048.83333
2942.412	1026.5
2944.524	995.5
2946.634	977.83333
2948.744	930.83333
2950.851	950.16667
2952.958	897.83333
2955.063	894.16667
2957.167	874.5
2959.269	848.16667
2961.371	865.83333
2963.471	813.5
2965.569	820.5
2967.666	795.16667
2969.762	783.16667
2971.857	759.5
2973.95	739.5
2976.042	731.16667
2978.133	721.5
2980.222	707.83333
2982.31	685.83333
2984.396	663.16667
2986.482	666.83333
2988.566	658.83333
2990.648	646.16667
2992.73	634.83333
2994.81	635.83333
2996.889	635.83333
2998.966	619.16667
3001.042	630.5
3003.117	618.16667
3005.191	618.16667
3007.263	605.5
3009.334	598.83333
3011.403	600.5
3013.472	580.5
3015.539	580.5
3017.604	585.83333
3019.669	562.16667
3021.732	559.16667
3023.794	562.83333
3025.854	536.5
3027.914	554.16667
3029.971	538.83333
3032.028	546.16667
3034.083	538.16667
3036.137	537.16667
3038.19	520.16667
3040.242	495.16667
3042.292	497.16667
3044.341	488.16667
3046.388	506.5
3048.435	465.16667
3050.48	486.83333
3052.524	488.5
3054.566	458.5
3056.607	477.83333
3058.647	459.83333
3060.686	438.5
3062.723	422.5
3064.759	415.5
3066.794	0.83333
3068.828	-0.83333
3070.86	-4.83333
