-0.839	658.95833
3.438	774.95833
7.711	226.625
11.981	67.625
16.247	51.625
20.509	51.625
24.768	49.29167
29.024	59.625
33.276	47.29167
37.524	52.625
41.769	46.29167
46.01	35.29167
50.247	46.625
54.481	60.29167
58.712	65.95833
62.939	51.29167
67.162	67.29167
71.382	62.29167
75.599	46.95833
79.812	61.29167
84.021	80.625
88.227	64.29167
92.429	62.95833
96.628	53.625
100.823	71.29167
105.015	79.29167
109.204	69.29167
113.388	79.95833
117.57	82.29167
121.748	90.625
125.922	84.29167
130.093	102.95833
134.261	97.95833
138.425	99.625
142.585	143.625
146.742	135.625
150.896	167.29167
155.046	206.625
159.193	324.95833
163.336	550.625
167.476	1010.95833
171.613	1865.95833
175.746	3082.95833
179.875	4557.29167
184.002	6011.29167
188.124	7053.625
192.244	7365.29167
196.36	7276.95833
200.472	7122.95833
204.581	6899.625
208.687	6754.625
212.79	6607.29167
216.889	6617.95833
220.984	6653.95833
225.077	6596.625
229.165	6627.95833
233.251	6619.95833
237.333	6576.625
241.412	6512.95833
245.487	6408.29167
249.559	6347.625
253.628	6343.95833
257.694	6247.29167
261.756	6176.625
265.814	6059.29167
269.87	5871.625
273.922	5667.625
277.97	5562.95833
282.016	5494.29167
286.058	5523.625
290.097	5617.625
294.132	5675.625
298.164	5623.625
302.193	5318.29167
306.219	4962.95833
310.241	4571.625
314.26	4237.625
318.276	3948.95833
322.288	3761.29167
326.297	3608.95833
330.303	3480.625
334.305	3419.29167
338.305	3352.625
342.301	3305.29167
346.294	3288.625
350.283	3266.29167
354.269	3254.95833
358.252	3198.29167
362.232	3208.625
366.209	3176.95833
370.182	3165.625
374.152	3146.95833
378.119	3156.625
382.083	3139.95833
386.043	3148.625
390	3138.29167
393.954	3110.29167
397.905	3106.29167
401.852	3093.625
405.797	3053.625
409.738	3054.95833
413.676	3041.625
417.61	3047.29167
421.542	3016.95833
425.47	2987.29167
429.396	2969.625
433.318	2963.625
437.236	2937.625
441.152	2974.29167
445.065	2914.29167
448.974	2922.29167
452.88	2885.29167
456.783	2881.95833
460.683	2894.625
464.58	2876.625
468.473	2873.95833
472.364	2875.625
476.251	2891.625
480.135	2915.625
484.016	2954.625
487.894	2963.625
491.769	2998.29167
495.641	3018.625
499.509	3035.625
503.375	3010.625
507.237	3020.29167
511.096	2986.625
514.952	2991.29167
518.805	3022.29167
522.655	3017.95833
526.502	2972.29167
530.346	2954.625
534.187	2950.625
538.024	2973.95833
541.859	2991.95833
545.69	3005.625
549.519	2987.29167
553.344	2993.95833
557.166	2914.29167
560.985	2901.95833
564.802	2851.95833
568.615	2811.29167
572.425	2732.95833
576.232	2738.95833
580.036	2744.625
583.836	2761.625
587.634	2775.95833
591.429	2791.625
595.221	2845.95833
599.01	2873.625
602.796	2863.625
606.578	2905.95833
610.358	2884.625
614.135	2861.29167
617.909	2845.95833
621.679	2849.95833
625.447	2830.625
629.212	2830.625
632.973	2815.29167
636.732	2805.29167
640.488	2839.625
644.241	2797.95833
647.991	2775.95833
651.737	2804.625
655.481	2786.625
659.222	2771.625
662.96	2764.29167
666.695	2796.29167
670.427	2798.95833
674.156	2805.625
677.882	2784.95833
681.605	2807.29167
685.325	2739.625
689.043	2753.95833
692.757	2731.29167
696.468	2729.29167
700.177	2742.29167
703.882	2704.625
707.585	2701.29167
711.284	2699.625
714.981	2720.29167
718.675	2701.95833
722.366	2717.95833
726.054	2689.625
729.739	2690.29167
733.421	2705.625
737.1	2704.95833
740.777	2722.29167
744.45	2718.625
748.121	2762.95833
751.789	2794.625
755.453	2783.29167
759.115	2802.95833
762.774	2810.625
766.431	2816.29167
770.084	2842.625
773.734	2883.29167
777.382	2929.29167
781.027	2958.29167
784.669	2967.29167
788.308	3012.95833
791.944	3006.95833
795.577	3028.625
799.208	3037.625
802.835	3044.95833
806.46	3057.625
810.082	3085.625
813.701	3091.95833
817.317	3105.29167
820.931	3092.625
824.542	3086.625
828.149	3079.29167
831.754	3064.95833
835.357	3027.625
838.956	3066.95833
842.553	3060.625
846.146	3028.95833
849.737	2990.625
853.326	3034.95833
856.911	3024.29167
860.493	3077.625
864.073	3064.29167
867.65	3101.625
871.225	3156.625
874.796	3161.95833
878.365	3141.625
881.931	3175.95833
885.494	3224.95833
889.054	3249.625
892.612	3261.95833
896.166	3255.95833
899.719	3252.29167
903.268	3214.95833
906.814	3132.95833
910.358	3089.625
913.899	3044.29167
917.438	3040.29167
920.973	3043.29167
924.506	3059.29167
928.036	3103.95833
931.564	3150.95833
935.088	3194.625
938.61	3193.95833
942.129	3221.95833
945.646	3298.29167
949.16	3377.625
952.671	3401.95833
956.179	3403.625
959.685	3376.95833
963.188	3330.29167
966.688	3298.625
970.185	3199.95833
973.68	3151.625
977.173	3112.29167
980.662	3064.29167
984.149	3079.29167
987.633	3067.29167
991.114	3132.29167
994.593	3183.95833
998.069	3258.625
1001.542	3314.29167
1005.013	3291.29167
1008.481	3102.625
1011.947	3050.29167
1015.409	3054.95833
1018.869	3053.625
1022.327	3060.95833
1025.782	3018.625
1029.234	3028.625
1032.683	2981.95833
1036.13	2908.95833
1039.574	2781.625
1043.016	2709.625
1046.455	2648.625
1049.891	2639.29167
1053.325	2624.625
1056.756	2647.29167
1060.184	2662.95833
1063.61	2669.29167
1067.033	2686.29167
1070.454	2692.625
1073.872	2708.29167
1077.287	2718.29167
1080.7	2710.625
1084.11	2707.95833
1087.517	2662.625
1090.922	2642.625
1094.325	2620.29167
1097.724	2596.625
1101.122	2600.29167
1104.516	2609.29167
1107.908	2600.95833
1111.298	2641.625
1114.684	2680.95833
1118.069	2744.29167
1121.45	2739.29167
1124.83	2732.95833
1128.206	2749.625
1131.58	2787.625
1134.951	2862.625
1138.32	2941.625
1141.687	3054.29167
1145.05	3115.29167
1148.412	3141.29167
1151.77	3082.29167
1155.126	3086.625
1158.48	3061.95833
1161.831	3081.625
1165.18	3095.95833
1168.525	3138.625
1171.869	3177.625
1175.21	3177.95833
1178.548	3208.29167
1181.884	3253.625
1185.217	3302.29167
1188.548	3374.625
1191.877	3406.29167
1195.202	3516.95833
1198.526	3572.625
1201.846	3615.625
1205.165	3589.95833
1208.48	3597.29167
1211.794	3586.625
1215.104	3587.29167
1218.413	3585.29167
1221.719	3584.95833
1225.022	3546.95833
1228.323	3497.29167
1231.621	3460.95833
1234.917	3429.95833
1238.21	3484.625
1241.501	3423.95833
1244.79	3414.95833
1248.076	3457.625
1251.359	3458.625
1254.64	3564.95833
1257.919	3579.625
1261.195	3643.95833
1264.468	3715.29167
1267.74	3736.29167
1271.008	3769.29167
1274.275	3714.625
1277.538	3686.625
1280.8	3713.95833
1284.059	3683.95833
1287.315	3698.29167
1290.569	3735.95833
1293.821	3766.95833
1297.07	3763.95833
1300.317	3782.29167
1303.562	3788.95833
1306.803	3754.29167
1310.043	3728.29167
1313.28	3681.625
1316.515	3657.29167
1319.747	3656.95833
1322.977	3635.29167
1326.204	3613.95833
1329.429	3573.625
1332.652	3579.625
1335.872	3528.29167
1339.09	3498.29167
1342.306	3463.29167
1345.519	3382.29167
1348.729	3340.95833
1351.938	3358.95833
1355.144	3304.29167
1358.347	3261.29167
1361.548	3248.29167
1364.747	3253.29167
1367.944	3197.625
1371.138	3198.95833
1374.329	3263.29167
1377.518	3308.625
1380.705	3287.625
1383.89	3286.29167
1387.072	3185.29167
1390.252	3090.625
1393.429	2954.625
1396.605	2868.625
1399.777	2793.95833
1402.948	2775.625
1406.116	2775.29167
1409.282	2746.625
1412.445	2762.625
1415.606	2785.29167
1418.765	2833.625
1421.921	2878.95833
1425.075	2917.29167
1428.227	3022.29167
1431.376	3114.95833
1434.524	3230.29167
1437.668	3300.95833
1440.811	3350.625
1443.951	3359.625
1447.089	3371.29167
1450.224	3389.625
1453.357	3348.95833
1456.488	3330.625
1459.617	3254.95833
1462.743	3231.29167
1465.867	3133.625
1468.989	3088.625
1472.108	3007.29167
1475.225	2975.95833
1478.34	2939.29167
1481.453	2927.95833
1484.563	2916.625
1487.671	2971.29167
1490.776	3011.29167
1493.88	3067.29167
1496.981	3122.29167
1500.08	3161.95833
1503.176	3192.625
1506.271	3232.95833
1509.363	3306.625
1512.452	3324.29167
1515.54	3372.29167
1518.625	3418.29167
1521.708	3488.29167
1524.789	3592.625
1527.867	3746.29167
1530.944	3929.625
1534.018	4102.29167
1537.089	4261.625
1540.159	4325.29167
1543.226	4342.29167
1546.291	4235.625
1549.354	4157.29167
1552.415	4077.29167
1555.473	3980.625
1558.529	3869.95833
1561.583	3862.29167
1564.634	3797.625
1567.684	3797.625
1570.731	3824.95833
1573.776	3863.95833
1576.819	3892.625
1579.859	3932.625
1582.898	3954.625
1585.934	4009.95833
1588.968	4007.95833
1591.999	4011.95833
1595.029	4028.95833
1598.056	4045.29167
1601.081	4073.29167
1604.104	4033.95833
1607.125	4018.95833
1610.144	3906.95833
1613.16	3858.95833
1616.174	3757.29167
1619.186	3680.625
1622.196	3582.625
1625.203	3477.625
1628.209	3440.95833
1631.212	3425.29167
1634.213	3411.625
1637.212	3397.95833
1640.209	3320.95833
1643.203	3252.625
1646.196	3159.625
1649.186	3039.625
1652.174	2937.625
1655.16	2813.29167
1658.144	2724.625
1661.125	2623.95833
1664.105	2504.95833
1667.082	2380.625
1670.057	2261.95833
1673.03	2127.625
1676.001	2004.29167
1678.97	1871.625
1681.937	1765.29167
1684.901	1653.95833
1687.863	1606.625
1690.824	1536.29167
1693.782	1503.95833
1696.738	1428.95833
1699.692	1395.29167
1702.643	1357.625
1705.593	1337.625
1708.54	1335.95833
1711.486	1333.625
1714.429	1294.29167
1717.37	1305.29167
1720.309	1263.29167
1723.246	1258.29167
1726.181	1239.29167
1729.113	1227.625
1732.044	1216.625
1734.972	1198.95833
1737.899	1211.625
1740.823	1202.625
1743.745	1166.625
1746.665	1135.625
1749.583	1130.29167
1752.499	1121.29167
1755.413	1103.29167
1758.325	1073.95833
1761.235	1086.625
1764.142	1056.29167
1767.048	1036.625
1769.951	1047.29167
1772.852	1046.95833
1775.752	1032.625
1778.649	1028.95833
1781.544	1029.95833
1784.437	1006.625
1787.328	1015.29167
1790.217	992.29167
1793.104	975.625
1795.989	984.29167
1798.872	973.625
1801.753	988.625
1804.631	984.29167
1807.508	973.29167
1810.383	960.95833
1813.255	968.625
1816.126	961.625
1818.994	957.95833
1821.861	943.29167
1824.725	939.29167
1827.587	942.625
1830.448	934.29167
1833.306	922.95833
1836.162	921.625
1839.017	918.95833
1841.869	910.95833
1844.719	890.95833
1847.567	896.625
1850.414	883.29167
1853.258	894.625
1856.1	909.625
1858.94	910.625
1861.778	901.29167
1864.614	889.95833
1867.448	890.95833
1870.28	870.625
1873.111	895.625
1875.939	881.29167
1878.765	895.625
1881.589	871.625
1884.411	867.95833
1887.231	872.625
1890.049	867.625
1892.865	868.625
1895.68	853.625
1898.492	859.625
1901.302	840.95833
1904.11	853.95833
1906.916	844.625
1909.721	826.95833
1912.523	838.95833
1915.323	831.625
1918.122	816.625
1920.918	835.625
1923.712	805.29167
1926.505	813.95833
1929.295	804.29167
1932.084	827.625
1934.87	825.625
1937.655	818.29167
1940.438	806.95833
1943.218	810.95833
1945.997	819.29167
1948.774	820.95833
1951.549	788.95833
1954.322	799.95833
1957.093	808.625
1959.862	791.625
1962.629	789.625
1965.394	789.29167
1968.157	766.29167
1970.918	798.29167
1973.678	773.29167
1976.435	777.29167
1979.19	772.95833
1981.944	761.625
1984.696	761.29167
1987.445	765.625
1990.193	765.625
1992.939	778.625
1995.683	757.625
1998.425	741.95833
2001.165	775.29167
2003.903	750.29167
2006.639	746.625
2009.374	763.625
2012.106	748.29167
2014.837	735.95833
2017.566	755.625
2020.292	744.625
2023.017	737.625
2025.74	744.625
2028.461	741.95833
2031.18	736.95833
2033.898	720.29167
2036.613	715.625
2039.327	721.29167
2042.038	704.95833
2044.748	720.625
2047.456	727.625
2050.162	714.625
2052.866	701.29167
2055.568	722.29167
2058.268	700.95833
2060.967	712.29167
2063.663	708.95833
2066.358	701.95833
2069.051	694.95833
2071.742	697.95833
2074.431	706.625
2077.118	704.29167
2079.804	698.625
2082.487	685.29167
2085.169	704.625
2087.849	724.625
2090.527	684.95833
2093.203	703.95833
2095.877	704.29167
2098.55	710.625
2101.22	721.29167
2103.889	722.625
2106.556	727.95833
2109.221	754.625
2111.884	763.29167
2114.546	810.625
2117.205	873.29167
2119.863	944.625
2122.519	1001.625
2125.173	1068.625
2127.825	1109.625
2130.475	1124.95833
2133.124	1076.29167
2135.771	1042.29167
2138.416	991.29167
2141.059	916.625
2143.7	869.29167
2146.339	813.29167
2148.977	769.95833
2151.613	762.625
2154.247	740.29167
2156.879	720.95833
2159.51	704.625
2162.138	682.95833
2164.765	695.95833
2167.39	656.95833
2170.013	683.29167
2172.634	667.95833
2175.254	643.625
2177.872	692.625
2180.488	632.625
2183.102	648.29167
2185.714	636.625
2188.325	616.95833
2190.934	625.625
2193.541	624.625
2196.146	618.95833
2198.75	613.29167
2201.351	605.625
2203.951	589.29167
2206.549	610.29167
2209.146	597.625
2211.74	592.95833
2214.333	595.95833
2216.924	582.95833
2219.514	582.29167
2222.101	585.29167
2224.687	591.95833
2227.271	575.29167
2229.853	563.625
2232.433	565.625
2235.012	582.29167
2237.589	575.29167
2240.164	581.625
2242.738	564.29167
2245.309	562.95833
2247.879	564.95833
2250.448	562.95833
2253.014	546.95833
2255.579	531.29167
2258.142	551.29167
2260.703	541.29167
2263.262	540.625
2265.82	527.95833
2268.376	537.95833
2270.93	518.29167
2273.483	518.29167
2276.033	537.95833
2278.583	517.625
2281.13	519.95833
2283.675	508.625
2286.219	515.29167
2288.761	514.625
2291.302	513.625
2293.841	514.625
2296.377	497.29167
2298.913	502.95833
2301.446	515.29167
2303.978	507.625
2306.508	494.625
2309.037	502.29167
2311.563	498.625
2314.088	491.95833
2316.612	481.625
2319.133	487.29167
2321.653	484.29167
2324.171	477.625
2326.688	494.95833
2329.202	470.625
2331.715	481.625
2334.227	477.625
2336.736	483.625
2339.244	480.29167
2341.751	466.625
2344.255	487.625
2346.758	478.95833
2349.259	456.95833
2351.759	468.95833
2354.257	466.29167
2356.753	458.29167
2359.247	463.29167
2361.74	471.29167
2364.231	464.625
2366.721	466.625
2369.209	459.95833
2371.695	466.29167
2374.179	454.625
2376.662	451.625
2379.143	469.625
2381.622	455.95833
2384.1	459.625
2386.576	449.625
2389.051	467.625
2391.524	466.95833
2393.995	456.29167
2396.464	443.29167
2398.932	443.95833
2401.398	435.95833
2403.863	445.625
2406.325	433.29167
2408.787	442.625
2411.246	440.625
2413.704	433.625
2416.16	434.29167
2418.615	436.95833
2421.068	445.95833
2423.519	441.625
2425.969	435.95833
2428.417	444.625
2430.863	465.95833
2433.308	450.29167
2435.751	440.625
2438.193	429.95833
2440.633	432.95833
2443.071	429.625
2445.508	426.29167
2447.943	424.29167
2450.376	427.625
2452.808	420.95833
2455.238	421.95833
2457.667	458.95833
2460.093	431.625
2462.519	418.625
2464.942	417.29167
2467.365	421.29167
2469.785	436.625
2472.204	423.29167
2474.621	404.95833
2477.037	433.95833
2479.451	404.29167
2481.863	399.95833
2484.274	417.95833
2486.683	408.625
2489.091	423.29167
2491.497	401.29167
2493.901	412.95833
2496.304	409.95833
2498.705	421.29167
2501.105	406.625
2503.503	431.95833
2505.899	398.625
2508.294	423.625
2510.687	409.29167
2513.079	409.95833
2515.469	388.29167
2517.858	403.29167
2520.245	405.95833
2522.63	405.625
2525.014	399.95833
2527.396	393.29167
2529.776	388.95833
2532.156	405.625
2534.533	394.29167
2536.909	383.625
2539.283	374.95833
2541.656	386.625
2544.027	403.625
2546.397	395.95833
2548.765	386.29167
2551.131	392.625
2553.496	393.95833
2555.86	394.95833
2558.221	401.95833
2560.582	384.29167
2562.94	373.95833
2565.298	384.95833
2567.653	397.95833
2570.007	375.29167
2572.36	387.625
2574.711	371.95833
2577.06	396.95833
2579.408	391.625
2581.754	383.625
2584.099	394.29167
2586.442	373.625
2588.784	386.625
2591.124	386.95833
2593.463	382.95833
2595.8	385.95833
2598.135	361.95833
2600.469	377.625
2602.802	388.625
2605.133	397.29167
2607.462	370.95833
2609.79	370.625
2612.116	386.625
2614.441	382.95833
2616.764	376.625
2619.086	377.95833
2621.406	375.625
2623.725	391.625
2626.042	387.95833
2628.358	372.29167
2630.672	379.625
2632.985	393.29167
2635.296	382.625
2637.606	381.95833
2639.914	368.95833
2642.22	381.29167
2644.525	380.625
2646.829	382.95833
2649.131	393.95833
2651.432	388.29167
2653.731	384.625
2656.028	388.95833
2658.324	396.29167
2660.619	387.95833
2662.912	392.95833
2665.204	374.29167
2667.494	385.625
2669.782	382.95833
2672.07	387.95833
2674.355	392.95833
2676.639	388.29167
2678.922	379.29167
2681.203	387.29167
2683.483	382.29167
2685.761	374.625
2688.038	392.29167
2690.313	404.29167
2692.587	391.95833
2694.859	386.29167
2697.13	393.95833
2699.399	394.29167
2701.667	405.29167
2703.933	404.29167
2706.198	399.29167
2708.461	409.625
2710.723	414.29167
2712.984	408.95833
2715.243	408.29167
2717.5	402.29167
2719.757	420.95833
2722.011	413.95833
2724.264	425.95833
2726.516	428.625
2728.766	418.29167
2731.015	423.625
2733.262	419.625
2735.508	419.29167
2737.753	414.625
2739.996	403.625
2742.237	403.29167
2744.477	413.95833
2746.716	415.95833
2748.953	402.95833
2751.189	405.29167
2753.423	399.29167
2755.656	392.95833
2757.887	383.29167
2760.117	397.29167
2762.346	379.95833
2764.573	389.95833
2766.798	383.95833
2769.022	386.29167
2771.245	393.95833
2773.467	402.29167
2775.686	394.95833
2777.905	401.29167
2780.122	403.95833
2782.337	407.95833
2784.552	410.95833
2786.764	408.625
2788.976	410.29167
2791.186	405.29167
2793.394	411.29167
2795.601	425.95833
2797.807	429.625
2800.011	425.625
2802.214	442.625
2804.415	440.625
2806.615	446.625
2808.814	450.29167
2811.011	457.625
2813.206	459.625
2815.401	473.95833
2817.594	470.29167
2819.785	485.29167
2821.975	468.625
2824.164	469.95833
2826.351	495.29167
2828.537	516.95833
2830.722	513.95833
2832.905	524.625
2835.086	545.29167
2837.267	580.29167
2839.445	576.95833
2841.623	595.625
2843.799	625.29167
2845.974	646.29167
2848.147	681.625
2850.319	697.95833
2852.489	726.29167
2854.659	736.29167
2856.826	745.29167
2858.993	773.29167
2861.158	763.95833
2863.321	759.29167
2865.483	774.95833
2867.644	773.95833
2869.804	761.95833
2871.962	760.625
2874.118	762.95833
2876.274	765.95833
2878.428	764.29167
2880.58	763.625
2882.731	754.95833
2884.881	761.625
2887.03	771.29167
2889.177	760.95833
2891.322	779.95833
2893.467	777.29167
2895.61	773.29167
2897.751	787.625
2899.892	782.95833
2902.03	798.95833
2904.168	805.625
2906.304	805.95833
2908.439	822.625
2910.572	818.29167
2912.704	811.625
2914.835	818.29167
2916.965	819.29167
2919.093	832.625
2921.219	802.29167
2923.345	817.625
2925.469	795.95833
2927.591	787.625
2929.712	764.29167
2931.832	766.29167
2933.951	742.95833
2936.068	737.29167
2938.184	719.625
2940.299	692.95833
2942.412	686.625
2944.524	656.29167
2946.634	644.625
2948.744	596.95833
2950.851	617.625
2952.958	588.95833
2955.063	578.625
2957.167	584.29167
2959.269	538.95833
2961.371	571.95833
2963.471	540.625
2965.569	544.95833
2967.666	518.29167
2969.762	517.95833
2971.857	495.625
2973.95	474.625
2976.042	486.29167
2978.133	471.95833
2980.222	462.95833
2982.31	443.625
2984.396	427.625
2986.482	418.95833
2988.566	417.29167
2990.648	418.95833
2992.73	407.95833
2994.81	398.95833
2996.889	399.29167
2998.966	401.29167
3001.042	409.625
3003.117	394.625
3005.191	399.95833
3007.263	387.29167
3009.334	383.29167
3011.403	389.95833
3013.472	373.95833
3015.539	374.95833
3017.604	377.29167
3019.669	347.95833
3021.732	357.625
3023.794	349.95833
3025.854	349.95833
3027.914	349.95833
3029.971	350.625
3032.028	339.625
3034.083	335.29167
3036.137	334.625
3038.19	329.29167
3040.242	321.625
3042.292	301.95833
3044.341	311.95833
3046.388	329.29167
3048.435	301.95833
3050.48	317.625
3052.524	304.29167
3054.566	293.95833
3056.607	305.95833
3058.647	290.625
3060.686	280.95833
3062.723	269.29167
3064.759	260.625
3066.794	-0.375
3068.828	2.29167
3070.86	4.95833
