-0.839	461.20833
3.438	535.54167
7.711	159.54167
11.981	58.875
16.247	41.20833
20.509	45.875
24.768	41.20833
29.024	54.875
33.276	40.875
37.524	47.54167
41.769	45.20833
46.01	30.20833
50.247	43.20833
54.481	59.54167
58.712	55.20833
62.939	45.20833
67.162	61.54167
71.382	51.875
75.599	40.875
79.812	61.875
84.021	79.54167
88.227	59.54167
92.429	56.20833
96.628	46.54167
100.823	64.54167
105.015	73.20833
109.204	62.20833
113.388	70.20833
117.57	73.875
121.748	76.875
125.922	74.875
130.093	90.20833
134.261	87.54167
138.425	92.875
142.585	125.875
146.742	114.20833
150.896	145.20833
155.046	177.875
159.193	286.875
163.336	482.54167
167.476	894.20833
171.613	1606.20833
175.746	2664.875
179.875	3889.20833
184.002	5017.20833
188.124	5780.875
192.244	5972.875
196.36	5830.54167
200.472	5636.875
204.581	5417.20833
208.687	5210.875
212.79	5097.875
216.889	4987.54167
220.984	4975.54167
225.077	4926.20833
229.165	4889.54167
233.251	4852.20833
237.333	4774.54167
241.412	4681.20833
245.487	4629.875
249.559	4581.54167
253.628	4532.875
257.694	4499.875
261.756	4446.20833
265.814	4350.54167
269.87	4239.875
273.922	4126.20833
277.97	4067.875
282.016	4058.875
286.058	4104.875
290.097	4165.20833
294.132	4255.20833
298.164	4223.54167
302.193	4040.20833
306.219	3767.20833
310.241	3452.20833
314.26	3187.54167
318.276	2975.20833
322.288	2819.54167
326.297	2684.54167
330.303	2605.20833
334.305	2526.20833
338.305	2510.20833
342.301	2481.875
346.294	2445.20833
350.283	2436.875
354.269	2407.54167
358.252	2363.54167
362.232	2384.20833
366.209	2371.20833
370.182	2330.20833
374.152	2321.54167
378.119	2332.20833
382.083	2311.875
386.043	2330.20833
390	2294.20833
393.954	2297.20833
397.905	2295.875
401.852	2281.20833
405.797	2249.20833
409.738	2248.20833
413.676	2280.875
417.61	2260.54167
421.542	2244.20833
425.47	2216.20833
429.396	2204.875
433.318	2205.54167
437.236	2192.20833
441.152	2221.20833
445.065	2155.54167
448.974	2143.20833
452.88	2145.875
456.783	2118.54167
460.683	2112.875
464.58	2111.20833
468.473	2123.54167
472.364	2134.875
476.251	2116.20833
480.135	2138.20833
484.016	2194.20833
487.894	2200.20833
491.769	2209.54167
495.641	2203.875
499.509	2216.54167
503.375	2230.54167
507.237	2231.20833
511.096	2255.54167
514.952	2342.54167
518.805	2492.54167
522.655	2530.54167
526.502	2360.54167
530.346	2250.54167
534.187	2222.20833
538.024	2224.54167
541.859	2214.875
545.69	2245.875
549.519	2236.20833
553.344	2205.54167
557.166	2174.54167
560.985	2131.54167
564.802	2107.20833
568.615	2071.54167
572.425	2039.54167
576.232	2022.20833
580.036	2035.54167
583.836	2036.875
587.634	2045.875
591.429	2051.20833
595.221	2091.875
599.01	2121.20833
602.796	2120.875
606.578	2157.20833
610.358	2152.875
614.135	2127.875
617.909	2114.20833
621.679	2089.54167
625.447	2076.20833
629.212	2093.20833
632.973	2077.875
636.732	2070.20833
640.488	2084.875
644.241	2038.20833
647.991	2061.54167
651.737	2075.20833
655.481	2052.20833
659.222	2064.54167
662.96	2056.54167
666.695	2080.875
670.427	2107.875
674.156	2114.20833
677.882	2089.875
681.605	2063.875
685.325	2035.20833
689.043	2038.875
692.757	2044.54167
696.468	2020.875
700.177	2026.20833
703.882	2004.54167
707.585	2004.54167
711.284	2013.54167
714.981	1996.54167
718.675	2004.20833
722.366	2025.875
726.054	2010.20833
729.739	2013.54167
733.421	2009.875
737.1	2003.54167
740.777	2012.20833
744.45	2051.20833
748.121	2040.54167
751.789	2084.875
755.453	2065.20833
759.115	2094.20833
762.774	2088.54167
766.431	2097.20833
770.084	2126.875
773.734	2149.20833
777.382	2192.875
781.027	2179.875
784.669	2204.54167
788.308	2200.54167
791.944	2249.54167
795.577	2234.54167
799.208	2268.54167
802.835	2264.875
806.46	2279.875
810.082	2297.54167
813.701	2306.20833
817.317	2349.875
820.931	2323.875
824.542	2305.54167
828.149	2301.20833
831.754	2261.54167
835.357	2258.54167
838.956	2252.875
842.553	2245.875
846.146	2248.20833
849.737	2204.54167
853.326	2246.20833
856.911	2213.54167
860.493	2249.20833
864.073	2254.875
867.65	2274.875
871.225	2309.54167
874.796	2308.54167
878.365	2317.20833
881.931	2331.20833
885.494	2358.54167
889.054	2394.54167
892.612	2429.54167
896.166	2452.875
899.719	2408.20833
903.268	2368.20833
906.814	2322.875
910.358	2278.875
913.899	2275.54167
917.438	2254.20833
920.973	2240.20833
924.506	2295.20833
928.036	2304.875
931.564	2349.54167
935.088	2366.20833
938.61	2377.54167
942.129	2412.875
945.646	2469.54167
949.16	2503.875
952.671	2545.875
956.179	2541.20833
959.685	2506.54167
963.188	2529.54167
966.688	2512.875
970.185	2414.875
973.68	2376.20833
977.173	2328.20833
980.662	2285.54167
984.149	2274.20833
987.633	2267.20833
991.114	2303.20833
994.593	2321.875
998.069	2395.54167
1001.542	2468.54167
1005.013	2407.875
1008.481	2296.20833
1011.947	2259.875
1015.409	2256.20833
1018.869	2262.875
1022.327	2250.875
1025.782	2226.54167
1029.234	2251.54167
1032.683	2237.20833
1036.13	2149.20833
1039.574	2075.875
1043.016	2014.54167
1046.455	1980.54167
1049.891	1947.54167
1053.325	1961.20833
1056.756	1950.20833
1060.184	1984.54167
1063.61	1990.20833
1067.033	1995.20833
1070.454	1997.875
1073.872	2013.54167
1077.287	2025.54167
1080.7	2026.54167
1084.11	2051.875
1087.517	2012.20833
1090.922	1971.875
1094.325	1964.20833
1097.724	1922.875
1101.122	1975.20833
1104.516	1942.875
1107.908	1941.54167
1111.298	1968.875
1114.684	1997.20833
1118.069	2005.54167
1121.45	2052.54167
1124.83	2030.20833
1128.206	2062.20833
1131.58	2094.20833
1134.951	2160.54167
1138.32	2206.20833
1141.687	2292.54167
1145.05	2322.20833
1148.412	2331.875
1151.77	2309.875
1155.126	2292.875
1158.48	2269.20833
1161.831	2260.875
1165.18	2293.54167
1168.525	2317.875
1171.869	2352.875
1175.21	2350.875
1178.548	2383.20833
1181.884	2416.875
1185.217	2438.20833
1188.548	2483.54167
1191.877	2562.54167
1195.202	2650.20833
1198.526	2704.54167
1201.846	2737.54167
1205.165	2744.20833
1208.48	2745.20833
1211.794	2727.875
1215.104	2736.20833
1218.413	2741.20833
1221.719	2746.54167
1225.022	2712.20833
1228.323	2638.20833
1231.621	2628.20833
1234.917	2580.20833
1238.21	2611.54167
1241.501	2577.54167
1244.79	2576.54167
1248.076	2562.54167
1251.359	2573.875
1254.64	2638.875
1257.919	2653.20833
1261.195	2669.54167
1264.468	2761.20833
1267.74	2787.54167
1271.008	2756.20833
1274.275	2761.20833
1277.538	2755.20833
1280.8	2751.54167
1284.059	2754.875
1287.315	2799.20833
1290.569	2822.54167
1293.821	2846.20833
1297.07	2869.875
1300.317	2898.875
1303.562	2890.54167
1306.803	2845.875
1310.043	2848.20833
1313.28	2842.20833
1316.515	2821.54167
1319.747	2816.875
1322.977	2773.875
1326.204	2788.20833
1329.429	2739.54167
1332.652	2747.875
1335.872	2706.20833
1339.09	2685.875
1342.306	2636.20833
1345.519	2592.54167
1348.729	2570.20833
1351.938	2560.20833
1355.144	2556.20833
1358.347	2509.875
1361.548	2469.875
1364.747	2476.875
1367.944	2446.54167
1371.138	2449.54167
1374.329	2446.54167
1377.518	2479.20833
1380.705	2497.875
1383.89	2477.54167
1387.072	2395.875
1390.252	2324.20833
1393.429	2233.20833
1396.605	2184.20833
1399.777	2119.54167
1402.948	2130.875
1406.116	2104.54167
1409.282	2131.54167
1412.445	2131.20833
1415.606	2150.875
1418.765	2174.20833
1421.921	2228.20833
1425.075	2250.20833
1428.227	2315.20833
1431.376	2422.54167
1434.524	2477.875
1437.668	2548.20833
1440.811	2591.54167
1443.951	2624.54167
1447.089	2633.20833
1450.224	2615.875
1453.357	2566.20833
1456.488	2569.54167
1459.617	2495.20833
1462.743	2463.54167
1465.867	2402.20833
1468.989	2345.20833
1472.108	2330.875
1475.225	2275.20833
1478.34	2239.875
1481.453	2248.875
1484.563	2230.20833
1487.671	2253.875
1490.776	2298.54167
1493.88	2328.20833
1496.981	2352.875
1500.08	2396.54167
1503.176	2404.54167
1506.271	2442.20833
1509.363	2491.20833
1512.452	2485.875
1515.54	2529.875
1518.625	2547.54167
1521.708	2616.20833
1524.789	2678.54167
1527.867	2786.875
1530.944	2895.875
1534.018	2999.54167
1537.089	3142.54167
1540.159	3164.54167
1543.226	3152.875
1546.291	3104.54167
1549.354	3057.54167
1552.415	2976.54167
1555.473	2896.54167
1558.529	2875.54167
1561.583	2840.875
1564.634	2823.20833
1567.684	2836.54167
1570.731	2845.20833
1573.776	2911.20833
1576.819	2936.54167
1579.859	2950.20833
1582.898	2994.54167
1585.934	3041.54167
1588.968	3100.54167
1591.999	3029.54167
1595.029	3070.20833
1598.056	3102.875
1601.081	3133.54167
1604.104	3107.54167
1607.125	3102.54167
1610.144	3019.54167
1613.16	2974.20833
1616.174	2877.20833
1619.186	2807.20833
1622.196	2743.54167
1625.203	2657.875
1628.209	2650.875
1631.212	2608.54167
1634.213	2610.875
1637.212	2603.54167
1640.209	2572.20833
1643.203	2536.20833
1646.196	2441.20833
1649.186	2344.54167
1652.174	2316.54167
1655.16	2240.20833
1658.144	2178.54167
1661.125	2080.54167
1664.105	1981.875
1667.082	1886.20833
1670.057	1781.54167
1673.03	1684.54167
1676.001	1549.875
1678.97	1480.20833
1681.937	1378.20833
1684.901	1309.54167
1687.863	1259.875
1690.824	1201.875
1693.782	1189.875
1696.738	1131.20833
1699.692	1106.20833
1702.643	1087.54167
1705.593	1074.54167
1708.54	1074.54167
1711.486	1061.54167
1714.429	1035.54167
1717.37	1026.20833
1720.309	1006.54167
1723.246	1009.875
1726.181	992.20833
1729.113	998.54167
1732.044	987.875
1734.972	969.54167
1737.899	981.875
1740.823	976.54167
1743.745	940.54167
1746.665	931.875
1749.583	917.875
1752.499	905.875
1755.413	922.20833
1758.325	881.54167
1761.235	860.54167
1764.142	860.54167
1767.048	856.20833
1769.951	852.54167
1772.852	851.54167
1775.752	848.20833
1778.649	839.875
1781.544	847.875
1784.437	808.54167
1787.328	841.875
1790.217	833.20833
1793.104	786.875
1795.989	806.54167
1798.872	806.20833
1801.753	813.54167
1804.631	810.54167
1807.508	809.54167
1810.383	812.875
1813.255	798.20833
1816.126	800.20833
1818.994	795.20833
1821.861	801.20833
1824.725	788.54167
1827.587	789.20833
1830.448	781.54167
1833.306	765.20833
1836.162	773.20833
1839.017	764.54167
1841.869	768.875
1844.719	758.875
1847.567	765.20833
1850.414	747.875
1853.258	754.20833
1856.1	771.20833
1858.94	764.20833
1861.778	755.54167
1864.614	749.54167
1867.448	758.875
1870.28	750.20833
1873.111	767.54167
1875.939	753.20833
1878.765	772.54167
1881.589	743.20833
1884.411	750.20833
1887.231	755.875
1890.049	744.54167
1892.865	743.54167
1895.68	734.20833
1898.492	741.54167
1901.302	745.875
1904.11	735.54167
1906.916	721.20833
1909.721	711.20833
1912.523	736.20833
1915.323	718.54167
1918.122	710.20833
1920.918	731.875
1923.712	721.20833
1926.505	710.875
1929.295	700.875
1932.084	711.54167
1934.87	716.54167
1937.655	714.20833
1940.438	704.875
1943.218	706.54167
1945.997	713.20833
1948.774	727.20833
1951.549	718.875
1954.322	716.54167
1957.093	709.875
1959.862	702.875
1962.629	700.20833
1965.394	692.54167
1968.157	688.20833
1970.918	691.54167
1973.678	680.54167
1976.435	709.20833
1979.19	681.875
1981.944	679.54167
1984.696	689.54167
1987.445	674.20833
1990.193	683.875
1992.939	698.875
1995.683	679.20833
1998.425	670.875
2001.165	699.20833
2003.903	679.875
2006.639	676.875
2009.374	693.54167
2012.106	681.20833
2014.837	659.875
2017.566	687.54167
2020.292	681.20833
2023.017	696.54167
2025.74	683.20833
2028.461	668.875
2031.18	673.20833
2033.898	656.875
2036.613	675.20833
2039.327	668.875
2042.038	659.875
2044.748	669.875
2047.456	667.20833
2050.162	649.54167
2052.866	666.20833
2055.568	673.54167
2058.268	656.875
2060.967	659.20833
2063.663	652.54167
2066.358	654.20833
2069.051	647.875
2071.742	660.54167
2074.431	666.54167
2077.118	655.20833
2079.804	661.875
2082.487	655.54167
2085.169	663.54167
2087.849	687.875
2090.527	652.54167
2093.203	656.875
2095.877	675.875
2098.55	669.54167
2101.22	682.20833
2103.889	693.54167
2106.556	680.875
2109.221	701.20833
2111.884	700.20833
2114.546	743.875
2117.205	775.875
2119.863	829.54167
2122.519	850.20833
2125.173	898.54167
2127.825	945.54167
2130.475	921.875
2133.124	908.875
2135.771	864.54167
2138.416	840.54167
2141.059	803.875
2143.7	780.875
2146.339	747.20833
2148.977	705.54167
2151.613	714.20833
2154.247	693.875
2156.879	682.54167
2159.51	673.875
2162.138	657.54167
2164.765	660.20833
2167.39	639.875
2170.013	668.54167
2172.634	670.54167
2175.254	648.875
2177.872	686.20833
2180.488	649.875
2183.102	652.20833
2185.714	649.20833
2188.325	621.54167
2190.934	636.20833
2193.541	640.20833
2196.146	644.54167
2198.75	625.875
2201.351	625.20833
2203.951	621.20833
2206.549	642.20833
2209.146	621.54167
2211.74	620.20833
2214.333	635.54167
2216.924	617.54167
2219.514	624.875
2222.101	616.20833
2224.687	633.875
2227.271	619.20833
2229.853	608.875
2232.433	613.20833
2235.012	629.54167
2237.589	630.20833
2240.164	633.875
2242.738	619.875
2245.309	616.20833
2247.879	627.20833
2250.448	626.875
2253.014	606.54167
2255.579	603.20833
2258.142	606.875
2260.703	601.875
2263.262	604.54167
2265.82	608.54167
2268.376	604.54167
2270.93	584.875
2273.483	598.20833
2276.033	602.875
2278.583	600.875
2281.13	605.875
2283.675	589.875
2286.219	596.54167
2288.761	602.875
2291.302	598.54167
2293.841	604.875
2296.377	595.875
2298.913	591.54167
2301.446	605.54167
2303.978	605.875
2306.508	593.20833
2309.037	599.20833
2311.563	610.20833
2314.088	601.875
2316.612	584.54167
2319.133	598.20833
2321.653	599.20833
2324.171	588.54167
2326.688	607.54167
2329.202	604.54167
2331.715	603.875
2334.227	593.875
2336.736	603.54167
2339.244	595.20833
2341.751	589.20833
2344.255	598.875
2346.758	596.875
2349.259	597.54167
2351.759	596.20833
2354.257	596.20833
2356.753	601.875
2359.247	604.20833
2361.74	608.875
2364.231	612.54167
2366.721	613.54167
2369.209	605.54167
2371.695	604.20833
2374.179	605.20833
2376.662	595.875
2379.143	620.875
2381.622	596.54167
2384.1	610.54167
2386.576	606.20833
2389.051	619.875
2391.524	626.54167
2393.995	621.54167
2396.464	612.20833
2398.932	617.875
2401.398	612.20833
2403.863	622.20833
2406.325	627.875
2408.787	620.875
2411.246	629.875
2413.704	627.875
2416.16	626.20833
2418.615	614.875
2421.068	636.20833
2423.519	632.875
2425.969	613.54167
2428.417	635.875
2430.863	650.20833
2433.308	639.20833
2435.751	639.54167
2438.193	626.20833
2440.633	630.20833
2443.071	640.875
2445.508	640.875
2447.943	630.875
2450.376	625.875
2452.808	636.54167
2455.238	622.875
2457.667	663.875
2460.093	640.875
2462.519	630.20833
2464.942	636.875
2467.365	643.20833
2469.785	664.875
2472.204	651.20833
2474.621	635.54167
2477.037	665.875
2479.451	633.875
2481.863	641.875
2484.274	641.20833
2486.683	645.20833
2489.091	662.875
2491.497	655.54167
2493.901	662.54167
2496.304	662.54167
2498.705	669.20833
2501.105	649.20833
2503.503	681.54167
2505.899	641.875
2508.294	686.54167
2510.687	670.20833
2513.079	673.20833
2515.469	651.54167
2517.858	673.20833
2520.245	674.54167
2522.63	666.875
2525.014	667.54167
2527.396	671.875
2529.776	674.875
2532.156	683.54167
2534.533	670.54167
2536.909	663.20833
2539.283	664.875
2541.656	680.54167
2544.027	691.875
2546.397	689.54167
2548.765	683.20833
2551.131	675.875
2553.496	681.54167
2555.86	699.875
2558.221	679.20833
2560.582	691.20833
2562.94	676.54167
2565.298	696.875
2567.653	712.875
2570.007	689.20833
2572.36	706.20833
2574.711	696.54167
2577.06	714.20833
2579.408	720.54167
2581.754	707.20833
2584.099	716.20833
2586.442	715.875
2588.784	732.20833
2591.124	706.54167
2593.463	726.20833
2595.8	732.54167
2598.135	713.875
2600.469	727.54167
2602.802	729.875
2605.133	741.54167
2607.462	712.875
2609.79	718.20833
2612.116	737.875
2614.441	735.875
2616.764	732.20833
2619.086	746.54167
2621.406	727.875
2623.725	756.875
2626.042	739.20833
2628.358	741.20833
2630.672	745.54167
2632.985	757.20833
2635.296	765.20833
2637.606	765.20833
2639.914	749.875
2642.22	759.54167
2644.525	760.20833
2646.829	778.54167
2649.131	782.20833
2651.432	789.54167
2653.731	776.20833
2656.028	793.54167
2658.324	804.54167
2660.619	786.54167
2662.912	801.54167
2665.204	792.20833
2667.494	796.54167
2669.782	790.54167
2672.07	781.54167
2674.355	806.875
2676.639	791.875
2678.922	796.875
2681.203	805.20833
2683.483	796.20833
2685.761	806.875
2688.038	809.20833
2690.313	832.20833
2692.587	807.20833
2694.859	813.20833
2697.13	820.875
2699.399	838.54167
2701.667	837.54167
2703.933	833.54167
2706.198	846.875
2708.461	857.54167
2710.723	859.54167
2712.984	862.54167
2715.243	859.20833
2717.5	849.54167
2719.757	874.875
2722.011	866.20833
2724.264	885.875
2726.516	903.20833
2728.766	879.875
2731.015	907.875
2733.262	898.54167
2735.508	894.20833
2737.753	892.54167
2739.996	891.20833
2742.237	877.875
2744.477	891.875
2746.716	891.54167
2748.953	882.54167
2751.189	893.20833
2753.423	877.875
2755.656	869.875
2757.887	880.54167
2760.117	889.54167
2762.346	878.54167
2764.573	875.54167
2766.798	877.875
2769.022	885.20833
2771.245	889.875
2773.467	888.875
2775.686	892.875
2777.905	900.54167
2780.122	911.875
2782.337	909.54167
2784.552	923.20833
2786.764	920.20833
2788.976	918.20833
2791.186	932.54167
2793.394	936.875
2795.601	942.20833
2797.807	965.875
2800.011	973.875
2802.214	968.20833
2804.415	976.875
2806.615	970.54167
2808.814	978.20833
2811.011	978.875
2813.206	995.875
2815.401	993.875
2817.594	994.875
2819.785	1010.54167
2821.975	996.875
2824.164	1005.54167
2826.351	1026.54167
2828.537	1041.20833
2830.722	1047.20833
2832.905	1052.20833
2835.086	1084.875
2837.267	1098.54167
2839.445	1110.20833
2841.623	1119.20833
2843.799	1146.875
2845.974	1179.20833
2848.147	1200.875
2850.319	1232.875
2852.489	1261.54167
2854.659	1279.20833
2856.826	1278.875
2858.993	1300.875
2861.158	1283.875
2863.321	1307.54167
2865.483	1308.20833
2867.644	1315.875
2869.804	1297.54167
2871.962	1298.54167
2874.118	1292.20833
2876.274	1281.20833
2878.428	1295.20833
2880.58	1290.875
2882.731	1275.20833
2884.881	1304.20833
2887.03	1300.875
2889.177	1301.875
2891.322	1310.875
2893.467	1300.54167
2895.61	1297.875
2897.751	1325.20833
2899.892	1331.20833
2902.03	1322.54167
2904.168	1352.54167
2906.304	1339.20833
2908.439	1362.54167
2910.572	1351.54167
2912.704	1365.20833
2914.835	1364.875
2916.965	1372.20833
2919.093	1381.54167
2921.219	1359.875
2923.345	1388.54167
2925.469	1346.20833
2927.591	1369.54167
2929.712	1327.875
2931.832	1326.875
2933.951	1291.875
2936.068	1292.54167
2938.184	1272.54167
2940.299	1247.20833
2942.412	1246.54167
2944.524	1212.20833
2946.634	1225.20833
2948.744	1161.20833
2950.851	1204.54167
2952.958	1178.20833
2955.063	1192.20833
2957.167	1187.54167
2959.269	1155.875
2961.371	1190.875
2963.471	1138.20833
2965.569	1156.20833
2967.666	1126.54167
2969.762	1126.875
2971.857	1131.54167
2973.95	1095.54167
2976.042	1095.875
2978.133	1079.54167
2980.222	1062.54167
2982.31	1035.20833
2984.396	1027.20833
2986.482	1040.20833
2988.566	1019.20833
2990.648	1028.20833
2992.73	1018.54167
2994.81	1013.20833
2996.889	1011.20833
2998.966	1023.20833
3001.042	1031.20833
3003.117	1016.875
3005.191	1028.54167
3007.263	1017.54167
3009.334	996.20833
3011.403	997.20833
3013.472	984.875
3015.539	970.20833
3017.604	979.875
3019.669	940.20833
3021.732	945.54167
3023.794	947.54167
3025.854	942.54167
3027.914	937.875
3029.971	959.875
3032.028	944.54167
3034.083	947.875
3036.137	922.875
3038.19	905.54167
3040.242	892.20833
3042.292	873.20833
3044.341	864.20833
3046.388	873.875
3048.435	841.20833
3050.48	861.875
3052.524	841.20833
3054.566	835.20833
3056.607	843.54167
3058.647	812.54167
3060.686	784.54167
3062.723	776.54167
3064.759	744.20833
3066.794	-0.125
3068.828	2.875
3070.86	0.875
