-0.839	671.375
3.438	799.70833
7.711	231.375
11.981	66.70833
16.247	50.04167
20.509	49.70833
24.768	50.375
29.024	56.04167
33.276	47.375
37.524	52.04167
41.769	45.375
46.01	34.375
50.247	44.70833
54.481	56.04167
58.712	64.375
62.939	50.70833
67.162	64.04167
71.382	59.375
75.599	46.375
79.812	64.375
84.021	83.375
88.227	61.70833
92.429	58.04167
96.628	53.375
100.823	73.04167
105.015	77.375
109.204	68.375
113.388	79.04167
117.57	77.375
121.748	82.04167
125.922	83.04167
130.093	99.375
134.261	100.04167
138.425	98.70833
142.585	141.70833
146.742	135.375
150.896	165.70833
155.046	205.70833
159.193	323.70833
163.336	549.375
167.476	996.04167
171.613	1848.70833
175.746	3065.375
179.875	4549.04167
184.002	5995.04167
188.124	6948.375
192.244	7326.04167
196.36	7237.375
200.472	7057.70833
204.581	6844.375
208.687	6664.375
212.79	6577.375
216.889	6537.70833
220.984	6566.04167
225.077	6538.70833
229.165	6506.375
233.251	6517.04167
237.333	6517.70833
241.412	6394.04167
245.487	6322.70833
249.559	6285.70833
253.628	6228.375
257.694	6175.04167
261.756	6116.70833
265.814	5966.04167
269.87	5789.04167
273.922	5580.375
277.97	5448.04167
282.016	5446.04167
286.058	5410.70833
290.097	5547.375
294.132	5605.70833
298.164	5525.70833
302.193	5253.04167
306.219	4898.375
310.241	4514.70833
314.26	4162.04167
318.276	3859.375
322.288	3649.04167
326.297	3504.375
330.303	3406.70833
334.305	3309.375
338.305	3266.04167
342.301	3223.70833
346.294	3196.70833
350.283	3183.375
354.269	3164.375
358.252	3141.70833
362.232	3121.375
366.209	3118.70833
370.182	3061.70833
374.152	3058.04167
378.119	3072.375
382.083	3061.375
386.043	3059.04167
390	3044.70833
393.954	3062.04167
397.905	3037.375
401.852	3010.70833
405.797	2979.70833
409.738	2955.375
413.676	2975.375
417.61	2938.04167
421.542	2917.04167
425.47	2904.04167
429.396	2897.70833
433.318	2856.375
437.236	2869.70833
441.152	2899.375
445.065	2814.70833
448.974	2818.375
452.88	2788.375
456.783	2808.04167
460.683	2770.04167
464.58	2769.70833
468.473	2772.04167
472.364	2793.04167
476.251	2809.375
480.135	2828.375
484.016	2870.04167
487.894	2866.375
491.769	2902.04167
495.641	2919.04167
499.509	2908.70833
503.375	2937.04167
507.237	2911.375
511.096	2896.04167
514.952	2910.375
518.805	2931.04167
522.655	2971.04167
526.502	2887.70833
530.346	2841.04167
534.187	2855.375
538.024	2874.70833
541.859	2880.375
545.69	2918.70833
549.519	2895.375
553.344	2894.04167
557.166	2817.375
560.985	2793.04167
564.802	2769.375
568.615	2732.04167
572.425	2666.70833
576.232	2656.375
580.036	2673.375
583.836	2656.375
587.634	2674.04167
591.429	2682.70833
595.221	2751.375
599.01	2776.375
602.796	2798.04167
606.578	2827.70833
610.358	2801.04167
614.135	2747.70833
617.909	2741.04167
621.679	2720.04167
625.447	2722.70833
629.212	2727.70833
632.973	2756.70833
636.732	2732.04167
640.488	2709.70833
644.241	2705.70833
647.991	2682.70833
651.737	2712.70833
655.481	2666.70833
659.222	2664.70833
662.96	2660.04167
666.695	2691.70833
670.427	2709.04167
674.156	2716.375
677.882	2697.70833
681.605	2689.70833
685.325	2674.375
689.043	2672.375
692.757	2633.375
696.468	2645.04167
700.177	2668.04167
703.882	2627.04167
707.585	2610.375
711.284	2599.70833
714.981	2625.375
718.675	2622.70833
722.366	2630.375
726.054	2610.70833
729.739	2614.70833
733.421	2602.70833
737.1	2593.375
740.777	2643.70833
744.45	2628.04167
748.121	2659.70833
751.789	2704.70833
755.453	2694.70833
759.115	2705.70833
762.774	2722.375
766.431	2761.375
770.084	2806.375
773.734	2827.375
777.382	2856.70833
781.027	2891.375
784.669	2898.04167
788.308	2912.375
791.944	2923.04167
795.577	2924.70833
799.208	2945.04167
802.835	2942.04167
806.46	2974.04167
810.082	2968.70833
813.701	2987.70833
817.317	3014.375
820.931	3014.70833
824.542	3022.04167
828.149	3011.04167
831.754	2950.04167
835.357	2965.04167
838.956	2963.04167
842.553	2964.04167
846.146	2967.70833
849.737	2952.70833
853.326	2950.04167
856.911	2943.70833
860.493	3008.04167
864.073	2999.375
867.65	3006.375
871.225	3074.04167
874.796	3052.375
878.365	3093.375
881.931	3112.375
885.494	3142.04167
889.054	3168.70833
892.612	3219.70833
896.166	3206.70833
899.719	3179.70833
903.268	3111.04167
906.814	3075.375
910.358	3007.04167
913.899	2989.375
917.438	2968.70833
920.973	2961.375
924.506	2973.375
928.036	3035.375
931.564	3063.04167
935.088	3109.04167
938.61	3125.70833
942.129	3158.375
945.646	3199.375
949.16	3284.70833
952.671	3322.375
956.179	3324.04167
959.685	3274.375
963.188	3256.375
966.688	3223.70833
970.185	3134.375
973.68	3085.70833
977.173	3032.70833
980.662	2982.04167
984.149	2994.04167
987.633	2974.70833
991.114	3062.375
994.593	3103.04167
998.069	3189.70833
1001.542	3256.04167
1005.013	3211.375
1008.481	3019.70833
1011.947	2987.70833
1015.409	2968.70833
1018.869	2970.70833
1022.327	2999.375
1025.782	2958.375
1029.234	2969.04167
1032.683	2911.70833
1036.13	2813.70833
1039.574	2720.04167
1043.016	2640.375
1046.455	2601.04167
1049.891	2547.70833
1053.325	2566.04167
1056.756	2575.375
1060.184	2603.04167
1063.61	2599.375
1067.033	2621.04167
1070.454	2643.375
1073.872	2654.04167
1077.287	2637.04167
1080.7	2651.70833
1084.11	2639.04167
1087.517	2594.375
1090.922	2576.70833
1094.325	2567.375
1097.724	2539.04167
1101.122	2539.70833
1104.516	2552.04167
1107.908	2530.04167
1111.298	2588.04167
1114.684	2608.70833
1118.069	2664.04167
1121.45	2689.70833
1124.83	2671.375
1128.206	2715.04167
1131.58	2727.70833
1134.951	2803.70833
1138.32	2872.70833
1141.687	3000.375
1145.05	3075.70833
1148.412	3074.04167
1151.77	3054.375
1155.126	3039.375
1158.48	3036.04167
1161.831	3037.375
1165.18	3057.70833
1168.525	3113.70833
1171.869	3135.70833
1175.21	3137.375
1178.548	3166.375
1181.884	3206.375
1185.217	3233.375
1188.548	3283.70833
1191.877	3373.375
1195.202	3465.04167
1198.526	3515.70833
1201.846	3536.70833
1205.165	3521.04167
1208.48	3516.375
1211.794	3520.70833
1215.104	3538.70833
1218.413	3527.70833
1221.719	3515.70833
1225.022	3494.375
1228.323	3422.04167
1231.621	3419.04167
1234.917	3373.70833
1238.21	3395.04167
1241.501	3389.04167
1244.79	3378.70833
1248.076	3372.70833
1251.359	3443.375
1254.64	3496.70833
1257.919	3507.375
1261.195	3558.70833
1264.468	3632.70833
1267.74	3680.04167
1271.008	3685.04167
1274.275	3629.375
1277.538	3638.375
1280.8	3647.70833
1284.059	3607.70833
1287.315	3646.375
1290.569	3675.70833
1293.821	3690.04167
1297.07	3709.70833
1300.317	3713.375
1303.562	3707.375
1306.803	3676.04167
1310.043	3661.375
1313.28	3622.70833
1316.515	3605.04167
1319.747	3605.04167
1322.977	3552.70833
1326.204	3564.04167
1329.429	3497.70833
1332.652	3480.70833
1335.872	3463.04167
1339.09	3420.70833
1342.306	3380.70833
1345.519	3324.375
1348.729	3285.04167
1351.938	3261.70833
1355.144	3230.375
1358.347	3201.70833
1361.548	3204.70833
1364.747	3153.70833
1367.944	3126.04167
1371.138	3165.04167
1374.329	3188.04167
1377.518	3225.04167
1380.705	3254.70833
1383.89	3226.04167
1387.072	3127.04167
1390.252	3003.70833
1393.429	2910.70833
1396.605	2812.70833
1399.777	2751.04167
1402.948	2746.375
1406.116	2702.04167
1409.282	2717.70833
1412.445	2737.04167
1415.606	2748.70833
1418.765	2794.70833
1421.921	2835.04167
1425.075	2868.70833
1428.227	2956.375
1431.376	3076.70833
1434.524	3181.04167
1437.668	3238.04167
1440.811	3300.375
1443.951	3354.04167
1447.089	3337.375
1450.224	3312.375
1453.357	3298.70833
1456.488	3280.04167
1459.617	3206.375
1462.743	3135.375
1465.867	3063.04167
1468.989	3035.70833
1472.108	2956.70833
1475.225	2903.375
1478.34	2866.375
1481.453	2877.375
1484.563	2865.04167
1487.671	2916.04167
1490.776	2954.70833
1493.88	3035.04167
1496.981	3043.70833
1500.08	3145.375
1503.176	3186.375
1506.271	3218.375
1509.363	3268.375
1512.452	3285.70833
1515.54	3309.04167
1518.625	3359.70833
1521.708	3438.70833
1524.789	3539.70833
1527.867	3687.375
1530.944	3846.375
1534.018	4015.70833
1537.089	4219.375
1540.159	4280.70833
1543.226	4275.70833
1546.291	4194.375
1549.354	4082.04167
1552.415	4009.375
1555.473	3928.70833
1558.529	3854.375
1561.583	3786.04167
1564.634	3787.04167
1567.684	3757.70833
1570.731	3763.375
1573.776	3829.04167
1576.819	3878.04167
1579.859	3896.375
1582.898	3939.375
1585.934	3953.04167
1588.968	3978.70833
1591.999	3957.04167
1595.029	3961.375
1598.056	3998.375
1601.081	4022.70833
1604.104	4003.375
1607.125	3963.04167
1610.144	3885.70833
1613.16	3777.375
1616.174	3730.04167
1619.186	3610.375
1622.196	3541.04167
1625.203	3431.70833
1628.209	3398.04167
1631.212	3360.375
1634.213	3337.375
1637.212	3322.375
1640.209	3271.375
1643.203	3194.70833
1646.196	3074.04167
1649.186	2950.70833
1652.174	2874.70833
1655.16	2762.04167
1658.144	2656.04167
1661.125	2541.375
1664.105	2435.04167
1667.082	2333.04167
1670.057	2238.375
1673.03	2074.375
1676.001	1959.70833
1678.97	1820.70833
1681.937	1716.70833
1684.901	1623.375
1687.863	1575.70833
1690.824	1480.70833
1693.782	1474.04167
1696.738	1407.375
1699.692	1384.375
1702.643	1335.70833
1705.593	1311.375
1708.54	1315.04167
1711.486	1301.70833
1714.429	1237.375
1717.37	1256.04167
1720.309	1223.04167
1723.246	1235.04167
1726.181	1198.375
1729.113	1209.70833
1732.044	1189.375
1734.972	1167.375
1737.899	1172.04167
1740.823	1170.375
1743.745	1126.375
1746.665	1123.70833
1749.583	1110.375
1752.499	1077.70833
1755.413	1091.04167
1758.325	1039.375
1761.235	1046.70833
1764.142	1021.70833
1767.048	1010.375
1769.951	1001.04167
1772.852	1010.04167
1775.752	1014.04167
1778.649	1004.70833
1781.544	990.04167
1784.437	971.70833
1787.328	984.70833
1790.217	961.70833
1793.104	942.04167
1795.989	953.375
1798.872	943.70833
1801.753	951.375
1804.631	946.70833
1807.508	942.04167
1810.383	938.70833
1813.255	927.04167
1816.126	929.04167
1818.994	919.04167
1821.861	907.375
1824.725	924.04167
1827.587	912.04167
1830.448	904.70833
1833.306	885.375
1836.162	888.70833
1839.017	889.375
1841.869	883.04167
1844.719	878.04167
1847.567	860.375
1850.414	849.04167
1853.258	861.375
1856.1	879.375
1858.94	862.375
1861.778	864.70833
1864.614	900.375
1867.448	947.04167
1870.28	873.375
1873.111	880.375
1875.939	849.04167
1878.765	863.04167
1881.589	844.04167
1884.411	850.375
1887.231	856.04167
1890.049	845.375
1892.865	839.70833
1895.68	837.04167
1898.492	835.70833
1901.302	819.04167
1904.11	819.04167
1906.916	812.375
1909.721	795.04167
1912.523	801.375
1915.323	805.70833
1918.122	804.04167
1920.918	808.375
1923.712	794.375
1926.505	802.375
1929.295	788.375
1932.084	797.04167
1934.87	795.04167
1937.655	795.375
1940.438	785.375
1943.218	775.375
1945.997	792.375
1948.774	792.04167
1951.549	784.375
1954.322	781.375
1957.093	773.70833
1959.862	768.375
1962.629	763.375
1965.394	759.375
1968.157	746.375
1970.918	770.70833
1973.678	748.375
1976.435	767.04167
1979.19	744.70833
1981.944	741.375
1984.696	751.375
1987.445	724.04167
1990.193	737.70833
1992.939	739.04167
1995.683	727.375
1998.425	714.375
2001.165	754.375
2003.903	721.375
2006.639	723.04167
2009.374	732.04167
2012.106	727.70833
2014.837	716.375
2017.566	714.375
2020.292	721.70833
2023.017	710.70833
2025.74	713.70833
2028.461	712.375
2031.18	714.04167
2033.898	695.04167
2036.613	705.70833
2039.327	711.04167
2042.038	705.375
2044.748	703.375
2047.456	700.70833
2050.162	674.04167
2052.866	678.04167
2055.568	699.04167
2058.268	685.375
2060.967	688.375
2063.663	673.375
2066.358	682.70833
2069.051	669.375
2071.742	675.375
2074.431	679.70833
2077.118	662.70833
2079.804	665.04167
2082.487	687.375
2085.169	694.70833
2087.849	699.04167
2090.527	673.375
2093.203	681.375
2095.877	693.375
2098.55	691.04167
2101.22	699.04167
2103.889	706.375
2106.556	701.70833
2109.221	719.04167
2111.884	745.375
2114.546	804.375
2117.205	864.04167
2119.863	936.04167
2122.519	982.375
2125.173	1049.04167
2127.825	1117.04167
2130.475	1097.04167
2133.124	1063.70833
2135.771	1008.375
2138.416	965.04167
2141.059	896.375
2143.7	862.375
2146.339	807.04167
2148.977	761.375
2151.613	748.375
2154.247	718.375
2156.879	702.70833
2159.51	685.375
2162.138	672.04167
2164.765	677.70833
2167.39	648.375
2170.013	657.70833
2172.634	656.04167
2175.254	640.04167
2177.872	668.375
2180.488	624.70833
2183.102	632.375
2185.714	621.04167
2188.325	606.04167
2190.934	610.375
2193.541	617.375
2196.146	600.70833
2198.75	595.70833
2201.351	596.04167
2203.951	585.70833
2206.549	600.375
2209.146	583.04167
2211.74	571.375
2214.333	578.70833
2216.924	558.04167
2219.514	570.375
2222.101	569.375
2224.687	578.375
2227.271	560.70833
2229.853	552.04167
2232.433	543.70833
2235.012	563.04167
2237.589	561.04167
2240.164	576.04167
2242.738	555.375
2245.309	538.70833
2247.879	542.375
2250.448	551.375
2253.014	530.04167
2255.579	519.04167
2258.142	522.70833
2260.703	523.04167
2263.262	512.04167
2265.82	503.375
2268.376	520.04167
2270.93	510.70833
2273.483	503.375
2276.033	502.375
2278.583	512.04167
2281.13	508.375
2283.675	500.70833
2286.219	488.04167
2288.761	503.375
2291.302	505.70833
2293.841	507.70833
2296.377	488.70833
2298.913	493.375
2301.446	497.70833
2303.978	500.70833
2306.508	478.70833
2309.037	482.04167
2311.563	480.70833
2314.088	486.70833
2316.612	464.04167
2319.133	477.375
2321.653	482.04167
2324.171	464.375
2326.688	478.70833
2329.202	481.04167
2331.715	472.04167
2334.227	467.375
2336.736	468.375
2339.244	461.04167
2341.751	453.70833
2344.255	464.04167
2346.758	454.375
2349.259	448.04167
2351.759	461.04167
2354.257	450.375
2356.753	449.375
2359.247	455.375
2361.74	459.04167
2364.231	463.375
2366.721	457.04167
2369.209	445.04167
2371.695	456.04167
2374.179	440.04167
2376.662	432.375
2379.143	452.04167
2381.622	438.04167
2384.1	445.70833
2386.576	441.375
2389.051	454.04167
2391.524	453.70833
2393.995	447.04167
2396.464	439.70833
2398.932	436.04167
2401.398	441.375
2403.863	435.375
2406.325	430.04167
2408.787	431.375
2411.246	426.04167
2413.704	434.375
2416.16	431.04167
2418.615	429.70833
2421.068	437.04167
2423.519	434.04167
2425.969	418.04167
2428.417	426.375
2430.863	450.375
2433.308	435.04167
2435.751	428.375
2438.193	425.70833
2440.633	426.04167
2443.071	428.04167
2445.508	410.04167
2447.943	421.70833
2450.376	399.04167
2452.808	417.70833
2455.238	410.70833
2457.667	452.375
2460.093	405.04167
2462.519	415.70833
2464.942	410.375
2467.365	409.04167
2469.785	423.04167
2472.204	414.375
2474.621	410.04167
2477.037	422.375
2479.451	391.04167
2481.863	390.04167
2484.274	404.70833
2486.683	404.375
2489.091	416.04167
2491.497	402.70833
2493.901	404.375
2496.304	400.04167
2498.705	409.04167
2501.105	401.04167
2503.503	423.70833
2505.899	380.70833
2508.294	411.04167
2510.687	394.04167
2513.079	391.70833
2515.469	391.70833
2517.858	396.375
2520.245	408.70833
2522.63	386.375
2525.014	384.375
2527.396	394.375
2529.776	382.375
2532.156	402.375
2534.533	380.04167
2536.909	379.70833
2539.283	373.70833
2541.656	380.04167
2544.027	397.375
2546.397	391.04167
2548.765	384.70833
2551.131	380.04167
2553.496	385.375
2555.86	399.375
2558.221	377.375
2560.582	376.70833
2562.94	379.04167
2565.298	384.70833
2567.653	391.70833
2570.007	370.70833
2572.36	387.375
2574.711	376.375
2577.06	394.70833
2579.408	381.70833
2581.754	377.375
2584.099	373.70833
2586.442	369.375
2588.784	377.375
2591.124	382.70833
2593.463	376.375
2595.8	389.70833
2598.135	365.375
2600.469	367.70833
2602.802	387.70833
2605.133	386.04167
2607.462	369.375
2609.79	366.04167
2612.116	383.04167
2614.441	377.70833
2616.764	375.70833
2619.086	372.70833
2621.406	364.04167
2623.725	385.04167
2626.042	385.70833
2628.358	367.375
2630.672	361.70833
2632.985	384.70833
2635.296	384.04167
2637.606	367.04167
2639.914	368.04167
2642.22	363.04167
2644.525	373.04167
2646.829	376.04167
2649.131	384.375
2651.432	390.375
2653.731	378.04167
2656.028	388.70833
2658.324	383.70833
2660.619	380.70833
2662.912	394.375
2665.204	378.04167
2667.494	383.375
2669.782	377.375
2672.07	386.04167
2674.355	391.70833
2676.639	380.70833
2678.922	371.04167
2681.203	388.375
2683.483	373.70833
2685.761	383.375
2688.038	379.70833
2690.313	394.04167
2692.587	391.04167
2694.859	377.70833
2697.13	389.70833
2699.399	391.70833
2701.667	394.375
2703.933	387.375
2706.198	397.04167
2708.461	393.04167
2710.723	403.375
2712.984	408.375
2715.243	408.04167
2717.5	395.04167
2719.757	408.375
2722.011	407.04167
2724.264	418.375
2726.516	420.04167
2728.766	408.04167
2731.015	413.375
2733.262	407.70833
2735.508	409.375
2737.753	415.04167
2739.996	410.04167
2742.237	399.04167
2744.477	407.70833
2746.716	407.375
2748.953	406.04167
2751.189	403.04167
2753.423	391.04167
2755.656	388.04167
2757.887	383.04167
2760.117	383.375
2762.346	383.04167
2764.573	373.375
2766.798	392.04167
2769.022	386.04167
2771.245	385.04167
2773.467	391.70833
2775.686	397.375
2777.905	395.04167
2780.122	402.375
2782.337	410.375
2784.552	402.04167
2786.764	406.04167
2788.976	412.70833
2791.186	415.375
2793.394	415.375
2795.601	415.375
2797.807	434.375
2800.011	439.375
2802.214	434.04167
2804.415	433.375
2806.615	435.70833
2808.814	450.70833
2811.011	458.375
2813.206	452.70833
2815.401	473.70833
2817.594	467.04167
2819.785	484.375
2821.975	473.375
2824.164	482.04167
2826.351	497.70833
2828.537	516.70833
2830.722	522.70833
2832.905	523.04167
2835.086	543.04167
2837.267	571.375
2839.445	579.375
2841.623	607.375
2843.799	615.04167
2845.974	653.04167
2848.147	672.04167
2850.319	701.375
2852.489	725.04167
2854.659	723.04167
2856.826	752.70833
2858.993	771.04167
2861.158	746.375
2863.321	759.375
2865.483	778.04167
2867.644	764.375
2869.804	769.04167
2871.962	761.04167
2874.118	773.04167
2876.274	763.04167
2878.428	767.375
2880.58	763.375
2882.731	750.375
2884.881	753.70833
2887.03	750.375
2889.177	769.70833
2891.322	783.375
2893.467	777.375
2895.61	781.70833
2897.751	797.04167
2899.892	769.04167
2902.03	793.70833
2904.168	802.70833
2906.304	787.70833
2908.439	816.70833
2910.572	798.70833
2912.704	825.70833
2914.835	815.04167
2916.965	809.04167
2919.093	827.04167
2921.219	798.04167
2923.345	814.70833
2925.469	790.70833
2927.591	796.70833
2929.712	762.375
2931.832	768.375
2933.951	748.375
2936.068	735.04167
2938.184	711.375
2940.299	696.375
2942.412	678.70833
2944.524	653.70833
2946.634	643.375
2948.744	598.04167
2950.851	623.04167
2952.958	593.04167
2955.063	586.70833
2957.167	571.375
2959.269	547.04167
2961.371	567.04167
2963.471	539.04167
2965.569	540.375
2967.666	518.375
2969.762	514.70833
2971.857	508.375
2973.95	495.04167
2976.042	474.375
2978.133	476.375
2980.222	456.375
2982.31	446.375
2984.396	422.70833
2986.482	431.70833
2988.566	420.375
2990.648	416.375
2992.73	413.375
2994.81	407.375
2996.889	397.375
2998.966	401.70833
3001.042	389.70833
3003.117	387.70833
3005.191	390.375
3007.263	383.375
3009.334	377.04167
3011.403	379.04167
3013.472	367.04167
3015.539	369.70833
3017.604	378.70833
3019.669	342.04167
3021.732	348.375
3023.794	358.375
3025.854	348.04167
3027.914	348.70833
3029.971	348.375
3032.028	336.375
3034.083	337.04167
3036.137	338.04167
3038.19	326.04167
3040.242	319.70833
3042.292	301.04167
3044.341	315.375
3046.388	325.375
3048.435	304.375
3050.48	322.04167
3052.524	308.70833
3054.566	292.70833
3056.607	300.70833
3058.647	287.04167
3060.686	286.375
3062.723	275.375
3064.759	260.04167
3066.794	0.375
3068.828	2.70833
3070.86	3.375
