-0.839	684.45833
3.438	779.125
7.711	223.79167
11.981	64.125
16.247	48.125
20.509	53.125
24.768	41.79167
29.024	54.125
33.276	47.45833
37.524	51.45833
41.769	48.79167
46.01	35.45833
50.247	47.125
54.481	60.79167
58.712	63.125
62.939	53.79167
67.162	66.45833
71.382	53.79167
75.599	48.125
79.812	60.125
84.021	78.45833
88.227	62.45833
92.429	59.79167
96.628	51.125
100.823	72.45833
105.015	75.45833
109.204	69.45833
113.388	74.79167
117.57	81.125
121.748	87.79167
125.922	83.125
130.093	100.79167
134.261	99.45833
138.425	98.125
142.585	143.125
146.742	135.79167
150.896	164.45833
155.046	208.45833
159.193	316.79167
163.336	551.125
167.476	1006.125
171.613	1837.79167
175.746	3078.79167
179.875	4568.125
184.002	5943.125
188.124	7011.45833
192.244	7327.79167
196.36	7290.79167
200.472	7094.125
204.581	6914.79167
208.687	6692.125
212.79	6615.79167
216.889	6597.125
220.984	6593.125
225.077	6618.79167
229.165	6587.79167
233.251	6572.79167
237.333	6564.79167
241.412	6452.45833
245.487	6387.79167
249.559	6343.79167
253.628	6273.79167
257.694	6219.45833
261.756	6168.45833
265.814	5998.125
269.87	5857.45833
273.922	5651.79167
277.97	5527.45833
282.016	5466.125
286.058	5477.79167
290.097	5588.45833
294.132	5658.125
298.164	5586.45833
302.193	5309.125
306.219	4957.45833
310.241	4563.45833
314.26	4218.79167
318.276	3916.45833
322.288	3711.125
326.297	3578.79167
330.303	3489.79167
334.305	3372.79167
338.305	3334.125
342.301	3277.45833
346.294	3250.45833
350.283	3237.79167
354.269	3221.125
358.252	3184.79167
362.232	3157.125
366.209	3169.125
370.182	3129.79167
374.152	3110.125
378.119	3140.45833
382.083	3129.45833
386.043	3133.125
390	3105.79167
393.954	3093.79167
397.905	3063.45833
401.852	3076.79167
405.797	3023.79167
409.738	3024.125
413.676	3034.79167
417.61	3001.79167
421.542	2986.79167
425.47	2979.125
429.396	2931.45833
433.318	2928.125
437.236	2921.79167
441.152	2947.125
445.065	2900.79167
448.974	2876.79167
452.88	2853.125
456.783	2834.79167
460.683	2845.45833
464.58	2833.125
468.473	2836.79167
472.364	2857.45833
476.251	2866.79167
480.135	2903.45833
484.016	2921.45833
487.894	2934.125
491.769	2967.79167
495.641	2971.125
499.509	2979.45833
503.375	2986.79167
507.237	2978.79167
511.096	2967.45833
514.952	2964.45833
518.805	3027.125
522.655	2990.79167
526.502	2949.45833
530.346	2925.45833
534.187	2925.79167
538.024	2940.125
541.859	2947.45833
545.69	2987.79167
549.519	2976.45833
553.344	2919.45833
557.166	2920.79167
560.985	2864.45833
564.802	2806.79167
568.615	2761.79167
572.425	2723.125
576.232	2705.79167
580.036	2719.79167
583.836	2699.45833
587.634	2758.125
591.429	2731.45833
595.221	2814.45833
599.01	2832.125
602.796	2859.79167
606.578	2868.125
610.358	2866.79167
614.135	2831.45833
617.909	2827.125
621.679	2811.45833
625.447	2779.125
629.212	2803.125
632.973	2784.45833
636.732	2779.79167
640.488	2786.79167
644.241	2754.79167
647.991	2765.125
651.737	2783.125
655.481	2719.79167
659.222	2747.79167
662.96	2735.45833
666.695	2740.79167
670.427	2760.79167
674.156	2751.125
677.882	2765.125
681.605	2748.45833
685.325	2722.79167
689.043	2722.125
692.757	2720.125
696.468	2669.79167
700.177	2692.79167
703.882	2688.45833
707.585	2661.125
711.284	2672.45833
714.981	2677.45833
718.675	2664.79167
722.366	2693.125
726.054	2670.125
729.739	2668.45833
733.421	2679.45833
737.1	2655.125
740.777	2713.125
744.45	2702.45833
748.121	2701.45833
751.789	2767.79167
755.453	2748.79167
759.115	2774.45833
762.774	2769.125
766.431	2798.125
770.084	2833.45833
773.734	2847.125
777.382	2898.79167
781.027	2934.125
784.669	2946.79167
788.308	2976.45833
791.944	2979.45833
795.577	2970.79167
799.208	3002.79167
802.835	3025.45833
806.46	3031.125
810.082	3050.125
813.701	3071.45833
817.317	3094.125
820.931	3077.125
824.542	3053.125
828.149	3030.79167
831.754	3006.125
835.357	3013.125
838.956	3032.125
842.553	3025.125
846.146	2984.79167
849.737	2958.125
853.326	2988.125
856.911	2976.79167
860.493	3031.125
864.073	3039.45833
867.65	3091.79167
871.225	3133.79167
874.796	3137.125
878.365	3135.45833
881.931	3168.125
885.494	3206.79167
889.054	3232.125
892.612	3233.45833
896.166	3255.79167
899.719	3243.79167
903.268	3179.79167
906.814	3108.79167
910.358	3068.125
913.899	3023.125
917.438	2995.79167
920.973	3014.125
924.506	3026.79167
928.036	3067.79167
931.564	3124.125
935.088	3141.125
938.61	3162.79167
942.129	3219.79167
945.646	3265.79167
949.16	3315.79167
952.671	3381.79167
956.179	3378.125
959.685	3331.125
963.188	3294.45833
966.688	3272.79167
970.185	3158.45833
973.68	3132.45833
977.173	3072.125
980.662	3024.125
984.149	3054.79167
987.633	3031.79167
991.114	3098.125
994.593	3155.79167
998.069	3220.79167
1001.542	3320.125
1005.013	3265.45833
1008.481	3100.45833
1011.947	3031.125
1015.409	3014.125
1018.869	3031.125
1022.327	3012.45833
1025.782	2987.125
1029.234	3002.45833
1032.683	2959.79167
1036.13	2862.79167
1039.574	2754.79167
1043.016	2682.79167
1046.455	2626.45833
1049.891	2598.45833
1053.325	2613.125
1056.756	2614.45833
1060.184	2649.125
1063.61	2643.45833
1067.033	2647.45833
1070.454	2682.45833
1073.872	2678.45833
1077.287	2663.125
1080.7	2682.79167
1084.11	2682.125
1087.517	2631.45833
1090.922	2597.79167
1094.325	2584.79167
1097.724	2569.79167
1101.122	2579.79167
1104.516	2582.79167
1107.908	2570.125
1111.298	2613.45833
1114.684	2646.79167
1118.069	2704.79167
1121.45	2720.45833
1124.83	2701.79167
1128.206	2739.125
1131.58	2772.45833
1134.951	2865.125
1138.32	2941.125
1141.687	3024.45833
1145.05	3108.45833
1148.412	3117.79167
1151.77	3070.79167
1155.126	3065.125
1158.48	3056.79167
1161.831	3096.45833
1165.18	3090.79167
1168.525	3114.125
1171.869	3157.45833
1175.21	3178.79167
1178.548	3196.79167
1181.884	3253.125
1185.217	3281.125
1188.548	3347.79167
1191.877	3399.45833
1195.202	3487.45833
1198.526	3551.125
1201.846	3599.79167
1205.165	3575.125
1208.48	3573.125
1211.794	3554.125
1215.104	3579.45833
1218.413	3565.45833
1221.719	3561.125
1225.022	3516.45833
1228.323	3456.79167
1231.621	3443.125
1234.917	3428.79167
1238.21	3435.79167
1241.501	3415.125
1244.79	3417.79167
1248.076	3449.45833
1251.359	3462.45833
1254.64	3545.45833
1257.919	3538.45833
1261.195	3614.79167
1264.468	3657.79167
1267.74	3733.125
1271.008	3714.79167
1274.275	3742.79167
1277.538	3689.45833
1280.8	3684.79167
1284.059	3661.79167
1287.315	3706.45833
1290.569	3705.45833
1293.821	3750.79167
1297.07	3741.45833
1300.317	3766.45833
1303.562	3749.45833
1306.803	3745.45833
1310.043	3722.125
1313.28	3657.45833
1316.515	3640.79167
1319.747	3616.125
1322.977	3597.79167
1326.204	3553.45833
1329.429	3516.79167
1332.652	3525.45833
1335.872	3506.45833
1339.09	3433.125
1342.306	3390.79167
1345.519	3369.79167
1348.729	3338.125
1351.938	3326.79167
1355.144	3294.45833
1358.347	3228.125
1361.548	3238.79167
1364.747	3210.125
1367.944	3201.79167
1371.138	3202.79167
1374.329	3226.45833
1377.518	3285.125
1380.705	3281.125
1383.89	3245.79167
1387.072	3159.79167
1390.252	3051.45833
1393.429	2931.125
1396.605	2850.45833
1399.777	2776.45833
1402.948	2759.125
1406.116	2751.79167
1409.282	2744.125
1412.445	2756.79167
1415.606	2792.79167
1418.765	2822.125
1421.921	2875.125
1425.075	2877.79167
1428.227	2999.45833
1431.376	3085.79167
1434.524	3231.79167
1437.668	3273.79167
1440.811	3335.45833
1443.951	3358.45833
1447.089	3362.45833
1450.224	3363.125
1453.357	3337.125
1456.488	3315.79167
1459.617	3259.79167
1462.743	3192.45833
1465.867	3092.45833
1468.989	3041.45833
1472.108	3006.79167
1475.225	2932.125
1478.34	2897.45833
1481.453	2892.79167
1484.563	2920.45833
1487.671	2946.125
1490.776	3010.125
1493.88	3055.125
1496.981	3142.79167
1500.08	3149.79167
1503.176	3204.125
1506.271	3252.125
1509.363	3266.125
1512.452	3308.125
1515.54	3355.125
1518.625	3403.45833
1521.708	3484.45833
1524.789	3578.125
1527.867	3730.79167
1530.944	3915.125
1534.018	4095.79167
1537.089	4252.79167
1540.159	4321.79167
1543.226	4314.79167
1546.291	4242.79167
1549.354	4142.45833
1552.415	4056.79167
1555.473	3960.125
1558.529	3872.45833
1561.583	3848.45833
1564.634	3802.125
1567.684	3793.125
1570.731	3816.79167
1573.776	3853.79167
1576.819	3864.125
1579.859	3930.45833
1582.898	3946.79167
1585.934	3979.45833
1588.968	4019.45833
1591.999	4001.79167
1595.029	4028.79167
1598.056	4015.45833
1601.081	4082.45833
1604.104	4057.45833
1607.125	4025.125
1610.144	3922.125
1613.16	3826.79167
1616.174	3748.45833
1619.186	3660.79167
1622.196	3560.45833
1625.203	3490.125
1628.209	3398.125
1631.212	3381.79167
1634.213	3389.125
1637.212	3367.45833
1640.209	3339.125
1643.203	3226.125
1646.196	3147.125
1649.186	2998.79167
1652.174	2896.45833
1655.16	2782.79167
1658.144	2700.79167
1661.125	2593.125
1664.105	2479.45833
1667.082	2368.79167
1670.057	2263.45833
1673.03	2105.125
1676.001	1993.125
1678.97	1851.79167
1681.937	1735.45833
1684.901	1635.45833
1687.863	1613.79167
1690.824	1523.79167
1693.782	1497.125
1696.738	1430.125
1699.692	1400.125
1702.643	1351.79167
1705.593	1334.45833
1708.54	1331.45833
1711.486	1318.45833
1714.429	1269.79167
1717.37	1279.125
1720.309	1225.79167
1723.246	1256.125
1726.181	1216.45833
1729.113	1222.125
1732.044	1204.45833
1734.972	1188.125
1737.899	1204.79167
1740.823	1183.79167
1743.745	1154.45833
1746.665	1146.45833
1749.583	1113.125
1752.499	1110.125
1755.413	1114.125
1758.325	1080.125
1761.235	1066.79167
1764.142	1057.79167
1767.048	1028.45833
1769.951	1031.125
1772.852	1030.45833
1775.752	1016.79167
1778.649	1006.45833
1781.544	1011.79167
1784.437	986.79167
1787.328	1006.125
1790.217	977.125
1793.104	961.125
1795.989	959.125
1798.872	960.125
1801.753	964.125
1804.631	968.45833
1807.508	977.125
1810.383	953.79167
1813.255	952.125
1816.126	946.79167
1818.994	947.79167
1821.861	931.45833
1824.725	931.125
1827.587	938.125
1830.448	932.79167
1833.306	902.79167
1836.162	916.79167
1839.017	898.45833
1841.869	898.45833
1844.719	886.79167
1847.567	875.79167
1850.414	873.79167
1853.258	879.79167
1856.1	890.125
1858.94	894.125
1861.778	873.79167
1864.614	876.45833
1867.448	876.45833
1870.28	856.45833
1873.111	894.125
1875.939	871.45833
1878.765	884.79167
1881.589	871.125
1884.411	866.45833
1887.231	876.45833
1890.049	860.79167
1892.865	860.125
1895.68	846.45833
1898.492	853.125
1901.302	849.125
1904.11	833.125
1906.916	838.45833
1909.721	827.79167
1912.523	827.125
1915.323	810.79167
1918.122	809.79167
1920.918	827.125
1923.712	817.45833
1926.505	810.125
1929.295	802.45833
1932.084	806.45833
1934.87	811.125
1937.655	803.125
1940.438	799.79167
1943.218	799.45833
1945.997	803.79167
1948.774	811.45833
1951.549	807.45833
1954.322	794.79167
1957.093	795.125
1959.862	783.45833
1962.629	785.45833
1965.394	783.125
1968.157	772.45833
1970.918	776.79167
1973.678	759.125
1976.435	771.125
1979.19	756.45833
1981.944	756.79167
1984.696	761.45833
1987.445	743.125
1990.193	754.79167
1992.939	764.79167
1995.683	756.125
1998.425	742.45833
2001.165	766.79167
2003.903	731.45833
2006.639	749.125
2009.374	747.45833
2012.106	752.45833
2014.837	722.45833
2017.566	737.79167
2020.292	729.45833
2023.017	742.125
2025.74	725.125
2028.461	722.125
2031.18	726.79167
2033.898	714.45833
2036.613	717.125
2039.327	729.45833
2042.038	712.125
2044.748	714.79167
2047.456	719.45833
2050.162	699.79167
2052.866	699.79167
2055.568	709.125
2058.268	699.125
2060.967	715.125
2063.663	684.45833
2066.358	691.79167
2069.051	689.79167
2071.742	692.125
2074.431	696.125
2077.118	681.125
2079.804	679.79167
2082.487	683.125
2085.169	706.45833
2087.849	710.45833
2090.527	686.125
2093.203	689.79167
2095.877	693.125
2098.55	697.79167
2101.22	704.125
2103.889	712.125
2106.556	718.79167
2109.221	735.125
2111.884	769.79167
2114.546	821.125
2117.205	860.125
2119.863	953.125
2122.519	999.125
2125.173	1053.79167
2127.825	1103.79167
2130.475	1119.45833
2133.124	1074.45833
2135.771	1020.79167
2138.416	979.45833
2141.059	904.125
2143.7	865.79167
2146.339	819.125
2148.977	761.79167
2151.613	756.45833
2154.247	740.125
2156.879	726.125
2159.51	700.45833
2162.138	689.45833
2164.765	671.79167
2167.39	660.79167
2170.013	664.79167
2172.634	662.79167
2175.254	644.125
2177.872	670.45833
2180.488	638.45833
2183.102	640.79167
2185.714	630.79167
2188.325	601.45833
2190.934	626.79167
2193.541	627.79167
2196.146	606.79167
2198.75	597.45833
2201.351	598.45833
2203.951	597.125
2206.549	616.125
2209.146	589.79167
2211.74	584.45833
2214.333	586.125
2216.924	566.125
2219.514	585.45833
2222.101	567.45833
2224.687	587.125
2227.271	573.79167
2229.853	565.45833
2232.433	553.125
2235.012	574.79167
2237.589	561.79167
2240.164	577.79167
2242.738	553.79167
2245.309	555.79167
2247.879	562.45833
2250.448	563.45833
2253.014	536.125
2255.579	522.45833
2258.142	546.79167
2260.703	527.125
2263.262	538.79167
2265.82	527.79167
2268.376	523.125
2270.93	506.79167
2273.483	516.125
2276.033	519.125
2278.583	516.125
2281.13	503.125
2283.675	500.45833
2286.219	494.125
2288.761	515.45833
2291.302	509.45833
2293.841	513.79167
2296.377	487.79167
2298.913	494.45833
2301.446	506.79167
2303.978	493.45833
2306.508	487.79167
2309.037	495.79167
2311.563	496.125
2314.088	491.45833
2316.612	473.45833
2319.133	488.79167
2321.653	492.79167
2324.171	478.125
2326.688	491.79167
2329.202	483.79167
2331.715	485.79167
2334.227	476.45833
2336.736	475.125
2339.244	469.79167
2341.751	466.79167
2344.255	476.79167
2346.758	476.79167
2349.259	463.79167
2351.759	471.45833
2354.257	459.79167
2356.753	453.45833
2359.247	457.79167
2361.74	464.125
2364.231	466.45833
2366.721	457.125
2369.209	449.79167
2371.695	463.125
2374.179	450.79167
2376.662	441.79167
2379.143	459.125
2381.622	440.125
2384.1	458.45833
2386.576	445.125
2389.051	464.79167
2391.524	463.45833
2393.995	451.45833
2396.464	437.125
2398.932	450.125
2401.398	441.125
2403.863	433.45833
2406.325	437.45833
2408.787	449.79167
2411.246	431.45833
2413.704	436.125
2416.16	429.125
2418.615	431.45833
2421.068	443.125
2423.519	440.125
2425.969	426.125
2428.417	439.125
2430.863	452.45833
2433.308	435.79167
2435.751	441.45833
2438.193	433.125
2440.633	431.125
2443.071	432.45833
2445.508	419.45833
2447.943	415.125
2450.376	422.125
2452.808	421.45833
2455.238	413.79167
2457.667	455.79167
2460.093	420.125
2462.519	409.79167
2464.942	413.45833
2467.365	426.125
2469.785	426.125
2472.204	421.79167
2474.621	406.45833
2477.037	430.45833
2479.451	393.45833
2481.863	403.125
2484.274	403.79167
2486.683	409.45833
2489.091	411.45833
2491.497	404.45833
2493.901	406.79167
2496.304	404.125
2498.705	413.45833
2501.105	408.125
2503.503	421.45833
2505.899	389.45833
2508.294	421.125
2510.687	397.79167
2513.079	406.45833
2515.469	396.79167
2517.858	392.125
2520.245	412.125
2522.63	397.125
2525.014	388.125
2527.396	382.45833
2529.776	388.45833
2532.156	398.79167
2534.533	394.125
2536.909	380.79167
2539.283	367.45833
2541.656	383.125
2544.027	415.45833
2546.397	391.125
2548.765	382.125
2551.131	388.45833
2553.496	394.125
2555.86	398.79167
2558.221	391.79167
2560.582	375.79167
2562.94	376.79167
2565.298	383.45833
2567.653	397.79167
2570.007	371.79167
2572.36	392.125
2574.711	376.79167
2577.06	390.79167
2579.408	386.45833
2581.754	383.45833
2584.099	388.45833
2586.442	381.125
2588.784	386.45833
2591.124	388.45833
2593.463	384.125
2595.8	394.45833
2598.135	363.125
2600.469	370.45833
2602.802	382.45833
2605.133	390.45833
2607.462	367.125
2609.79	375.45833
2612.116	379.125
2614.441	376.125
2616.764	378.45833
2619.086	377.45833
2621.406	362.45833
2623.725	390.125
2626.042	382.125
2628.358	373.45833
2630.672	366.45833
2632.985	391.125
2635.296	375.45833
2637.606	369.45833
2639.914	364.125
2642.22	375.79167
2644.525	371.79167
2646.829	378.45833
2649.131	393.125
2651.432	394.45833
2653.731	380.125
2656.028	392.125
2658.324	396.125
2660.619	369.125
2662.912	393.79167
2665.204	382.79167
2667.494	384.79167
2669.782	376.45833
2672.07	381.125
2674.355	394.125
2676.639	385.125
2678.922	380.45833
2681.203	383.125
2683.483	376.79167
2685.761	372.125
2688.038	391.45833
2690.313	395.45833
2692.587	391.45833
2694.859	380.45833
2697.13	384.45833
2699.399	396.125
2701.667	401.125
2703.933	397.79167
2706.198	401.45833
2708.461	402.79167
2710.723	411.125
2712.984	401.125
2715.243	404.45833
2717.5	398.45833
2719.757	416.79167
2722.011	409.79167
2724.264	408.125
2726.516	434.125
2728.766	408.125
2731.015	417.125
2733.262	416.79167
2735.508	418.79167
2737.753	412.125
2739.996	404.45833
2742.237	404.79167
2744.477	413.45833
2746.716	410.79167
2748.953	396.45833
2751.189	411.45833
2753.423	402.79167
2755.656	379.79167
2757.887	384.79167
2760.117	390.79167
2762.346	382.79167
2764.573	380.45833
2766.798	387.79167
2769.022	394.79167
2771.245	394.125
2773.467	391.45833
2775.686	400.45833
2777.905	397.125
2780.122	403.45833
2782.337	403.45833
2784.552	412.125
2786.764	397.79167
2788.976	401.45833
2791.186	408.125
2793.394	414.45833
2795.601	413.79167
2797.807	429.45833
2800.011	441.79167
2802.214	442.45833
2804.415	446.125
2806.615	435.79167
2808.814	445.79167
2811.011	454.125
2813.206	449.45833
2815.401	471.125
2817.594	484.45833
2819.785	475.79167
2821.975	474.125
2824.164	485.125
2826.351	497.45833
2828.537	517.45833
2830.722	526.79167
2832.905	521.79167
2835.086	551.125
2837.267	574.45833
2839.445	581.45833
2841.623	586.45833
2843.799	612.79167
2845.974	662.45833
2848.147	688.79167
2850.319	695.45833
2852.489	722.45833
2854.659	725.45833
2856.826	730.45833
2858.993	768.125
2861.158	757.45833
2863.321	758.79167
2865.483	769.79167
2867.644	772.125
2869.804	771.45833
2871.962	767.125
2874.118	772.45833
2876.274	768.125
2878.428	771.45833
2880.58	770.45833
2882.731	762.79167
2884.881	751.125
2887.03	769.79167
2889.177	768.125
2891.322	778.45833
2893.467	781.79167
2895.61	769.79167
2897.751	793.45833
2899.892	780.79167
2902.03	784.79167
2904.168	795.79167
2906.304	792.45833
2908.439	820.79167
2910.572	798.125
2912.704	819.125
2914.835	813.125
2916.965	801.125
2919.093	818.79167
2921.219	794.79167
2923.345	829.79167
2925.469	794.45833
2927.591	788.79167
2929.712	767.79167
2931.832	754.125
2933.951	748.79167
2936.068	747.79167
2938.184	727.125
2940.299	698.79167
2942.412	673.45833
2944.524	652.79167
2946.634	649.125
2948.744	600.125
2950.851	625.45833
2952.958	584.45833
2955.063	587.125
2957.167	583.45833
2959.269	547.125
2961.371	573.125
2963.471	525.45833
2965.569	540.45833
2967.666	517.125
2969.762	514.79167
2971.857	499.125
2973.95	477.125
2976.042	483.125
2978.133	475.125
2980.222	457.79167
2982.31	437.125
2984.396	423.125
2986.482	431.79167
2988.566	418.125
2990.648	412.79167
2992.73	412.79167
2994.81	396.125
2996.889	397.45833
2998.966	395.79167
3001.042	400.125
3003.117	399.125
3005.191	386.125
3007.263	387.79167
3009.334	383.125
3011.403	379.125
3013.472	371.79167
3015.539	376.45833
3017.604	385.125
3019.669	341.79167
3021.732	349.45833
3023.794	359.45833
3025.854	348.79167
3027.914	346.45833
3029.971	351.79167
3032.028	335.125
3034.083	345.79167
3036.137	334.79167
3038.19	327.125
3040.242	316.79167
3042.292	309.45833
3044.341	313.125
3046.388	328.125
3048.435	306.79167
3050.48	316.79167
3052.524	305.125
3054.566	290.79167
3056.607	306.45833
3058.647	288.45833
3060.686	275.45833
3062.723	281.79167
3064.759	263.45833
3066.794	-0.54167
3068.828	2.45833
3070.86	3.45833
