-0.839	592.375
3.438	699.04167
7.711	205.70833
11.981	64.04167
16.247	49.04167
20.509	50.70833
24.768	48.04167
29.024	53.70833
33.276	48.70833
37.524	49.04167
41.769	50.04167
46.01	37.04167
50.247	47.04167
54.481	58.04167
58.712	64.375
62.939	50.04167
67.162	66.04167
71.382	61.04167
75.599	46.04167
79.812	64.04167
84.021	81.70833
88.227	61.375
92.429	64.04167
96.628	56.04167
100.823	73.70833
105.015	77.70833
109.204	73.375
113.388	78.70833
117.57	79.70833
121.748	90.04167
125.922	89.70833
130.093	102.04167
134.261	108.375
138.425	107.70833
142.585	150.04167
146.742	138.04167
150.896	172.04167
155.046	224.375
159.193	349.70833
163.336	589.375
167.476	1075.04167
171.613	1975.375
175.746	3321.375
179.875	4954.375
184.002	6426.04167
188.124	7463.04167
192.244	7801.04167
196.36	7719.375
200.472	7490.04167
204.581	7273.375
208.687	7082.70833
212.79	7036.70833
216.889	6993.375
220.984	6985.375
225.077	7009.04167
229.165	7010.375
233.251	7026.70833
237.333	6994.04167
241.412	6880.375
245.487	6799.04167
249.559	6730.375
253.628	6667.04167
257.694	6653.70833
261.756	6514.375
265.814	6423.375
269.87	6198.04167
273.922	5995.04167
277.97	5907.375
282.016	5831.375
286.058	5881.375
290.097	6025.70833
294.132	6093.04167
298.164	6021.375
302.193	5743.375
306.219	5309.04167
310.241	4868.70833
314.26	4522.375
318.276	4220.04167
322.288	3984.70833
326.297	3775.375
330.303	3668.04167
334.305	3579.04167
338.305	3515.375
342.301	3459.70833
346.294	3436.70833
350.283	3415.04167
354.269	3390.04167
358.252	3354.70833
362.232	3334.375
366.209	3341.04167
370.182	3296.375
374.152	3289.375
378.119	3290.70833
382.083	3284.04167
386.043	3304.70833
390	3253.04167
393.954	3265.375
397.905	3234.70833
401.852	3220.70833
405.797	3200.375
409.738	3173.04167
413.676	3157.04167
417.61	3151.375
421.542	3146.70833
425.47	3092.375
429.396	3085.04167
433.318	3042.375
437.236	3060.04167
441.152	3078.375
445.065	3012.04167
448.974	3016.375
452.88	2978.70833
456.783	2974.375
460.683	2947.04167
464.58	2964.70833
468.473	2972.70833
472.364	2965.04167
476.251	2978.70833
480.135	3004.375
484.016	3042.04167
487.894	3062.04167
491.769	3089.04167
495.641	3081.375
499.509	3102.04167
503.375	3066.375
507.237	3106.70833
511.096	3075.04167
514.952	3052.375
518.805	3053.375
522.655	3074.04167
526.502	3031.04167
530.346	3039.70833
534.187	3056.375
538.024	3080.70833
541.859	3095.04167
545.69	3143.375
549.519	3103.04167
553.344	3061.70833
557.166	3045.04167
560.985	2971.04167
564.802	2925.70833
568.615	2882.04167
572.425	2838.70833
576.232	2829.04167
580.036	2846.70833
583.836	2851.375
587.634	2859.70833
591.429	2856.375
595.221	2937.375
599.01	2968.04167
602.796	2990.04167
606.578	3014.375
610.358	3009.375
614.135	2955.375
617.909	2956.04167
621.679	2897.70833
625.447	2902.04167
629.212	2915.375
632.973	2908.70833
636.732	2878.375
640.488	2911.375
644.241	2870.375
647.991	2871.70833
651.737	2872.70833
655.481	2838.04167
659.222	2845.70833
662.96	2839.375
666.695	2854.70833
670.427	2903.70833
674.156	2907.70833
677.882	2887.04167
681.605	2885.70833
685.325	2867.70833
689.043	2845.70833
692.757	2828.04167
696.468	2828.70833
700.177	2811.70833
703.882	2796.375
707.585	2783.375
711.284	2779.04167
714.981	2785.375
718.675	2784.70833
722.366	2814.04167
726.054	2775.04167
729.739	2787.375
733.421	2797.375
737.1	2775.70833
740.777	2814.04167
744.45	2819.375
748.121	2859.70833
751.789	2898.375
755.453	2890.04167
759.115	2896.375
762.774	2936.375
766.431	2949.70833
770.084	2962.70833
773.734	3016.70833
777.382	3046.375
781.027	3081.375
784.669	3102.375
788.308	3105.375
791.944	3122.375
795.577	3126.04167
799.208	3152.04167
802.835	3171.04167
806.46	3191.04167
810.082	3169.375
813.701	3198.375
817.317	3216.04167
820.931	3219.04167
824.542	3230.04167
828.149	3206.04167
831.754	3167.04167
835.357	3173.375
838.956	3171.04167
842.553	3190.375
846.146	3164.04167
849.737	3149.375
853.326	3153.375
856.911	3158.375
860.493	3201.375
864.073	3233.375
867.65	3247.04167
871.225	3289.04167
874.796	3289.70833
878.365	3337.04167
881.931	3347.04167
885.494	3387.04167
889.054	3419.04167
892.612	3462.375
896.166	3452.04167
899.719	3480.70833
903.268	3386.04167
906.814	3325.04167
910.358	3254.04167
913.899	3222.375
917.438	3216.70833
920.973	3208.70833
924.506	3254.375
928.036	3269.04167
931.564	3319.375
935.088	3369.70833
938.61	3390.375
942.129	3410.04167
945.646	3477.70833
949.16	3559.04167
952.671	3589.70833
956.179	3631.70833
959.685	3553.375
963.188	3514.70833
966.688	3488.70833
970.185	3373.70833
973.68	3319.04167
977.173	3263.04167
980.662	3222.04167
984.149	3205.375
987.633	3208.04167
991.114	3265.04167
994.593	3349.04167
998.069	3408.04167
1001.542	3505.375
1005.013	3457.375
1008.481	3254.375
1011.947	3186.70833
1015.409	3199.70833
1018.869	3201.375
1022.327	3216.375
1025.782	3192.70833
1029.234	3190.04167
1032.683	3142.70833
1036.13	3001.375
1039.574	2926.70833
1043.016	2814.375
1046.455	2770.70833
1049.891	2759.04167
1053.325	2764.04167
1056.756	2733.375
1060.184	2781.70833
1063.61	2796.375
1067.033	2810.375
1070.454	2813.70833
1073.872	2857.70833
1077.287	2833.70833
1080.7	2837.04167
1084.11	2820.70833
1087.517	2796.04167
1090.922	2788.70833
1094.325	2764.375
1097.724	2747.70833
1101.122	2735.375
1104.516	2726.375
1107.908	2714.375
1111.298	2780.375
1114.684	2806.70833
1118.069	2847.04167
1121.45	2912.70833
1124.83	2908.04167
1128.206	2946.375
1131.58	2962.375
1134.951	3048.70833
1138.32	3162.04167
1141.687	3255.04167
1145.05	3330.375
1148.412	3341.04167
1151.77	3307.04167
1155.126	3311.70833
1158.48	3277.04167
1161.831	3329.375
1165.18	3349.375
1168.525	3364.04167
1171.869	3416.70833
1175.21	3417.04167
1178.548	3487.04167
1181.884	3511.375
1185.217	3547.70833
1188.548	3638.375
1191.877	3712.70833
1195.202	3793.70833
1198.526	3877.375
1201.846	3898.04167
1205.165	3885.70833
1208.48	3877.375
1211.794	3869.375
1215.104	3854.04167
1218.413	3830.70833
1221.719	3831.04167
1225.022	3791.70833
1228.323	3757.70833
1231.621	3721.375
1234.917	3671.375
1238.21	3690.375
1241.501	3669.04167
1244.79	3649.375
1248.076	3681.04167
1251.359	3671.70833
1254.64	3769.04167
1257.919	3805.04167
1261.195	3856.375
1264.468	3922.375
1267.74	3945.375
1271.008	3968.375
1274.275	3970.375
1277.538	3940.375
1280.8	3925.375
1284.059	3932.70833
1287.315	3945.70833
1290.569	4003.375
1293.821	4025.375
1297.07	4027.70833
1300.317	4066.375
1303.562	4063.04167
1306.803	4033.70833
1310.043	4005.70833
1313.28	3976.375
1316.515	3945.70833
1319.747	3912.70833
1322.977	3892.04167
1326.204	3841.04167
1329.429	3784.70833
1332.652	3761.375
1335.872	3747.70833
1339.09	3700.70833
1342.306	3668.70833
1345.519	3589.375
1348.729	3551.375
1351.938	3516.70833
1355.144	3496.375
1358.347	3425.04167
1361.548	3454.375
1364.747	3443.375
1367.944	3389.04167
1371.138	3440.375
1374.329	3437.04167
1377.518	3465.70833
1380.705	3490.70833
1383.89	3469.375
1387.072	3366.70833
1390.252	3210.375
1393.429	3134.375
1396.605	3023.04167
1399.777	2943.70833
1402.948	2928.375
1406.116	2921.04167
1409.282	2919.04167
1412.445	2921.04167
1415.606	2982.375
1418.765	3006.70833
1421.921	3053.375
1425.075	3126.375
1428.227	3199.04167
1431.376	3322.04167
1434.524	3432.375
1437.668	3518.375
1440.811	3560.70833
1443.951	3613.70833
1447.089	3631.70833
1450.224	3585.375
1453.357	3599.375
1456.488	3553.70833
1459.617	3476.70833
1462.743	3421.70833
1465.867	3358.04167
1468.989	3309.04167
1472.108	3254.70833
1475.225	3200.04167
1478.34	3194.04167
1481.453	3168.70833
1484.563	3191.375
1487.671	3242.70833
1490.776	3288.70833
1493.88	3331.375
1496.981	3408.04167
1500.08	3438.04167
1503.176	3507.70833
1506.271	3523.70833
1509.363	3605.70833
1512.452	3587.70833
1515.54	3656.375
1518.625	3697.70833
1521.708	3772.04167
1524.789	3917.70833
1527.867	4047.70833
1530.944	4232.70833
1534.018	4409.70833
1537.089	4584.375
1540.159	4681.70833
1543.226	4621.375
1546.291	4568.70833
1549.354	4435.375
1552.415	4361.375
1555.473	4260.375
1558.529	4215.70833
1561.583	4155.375
1564.634	4147.375
1567.684	4149.04167
1570.731	4152.375
1573.776	4206.375
1576.819	4253.70833
1579.859	4321.70833
1582.898	4355.70833
1585.934	4370.04167
1588.968	4403.70833
1591.999	4425.70833
1595.029	4420.70833
1598.056	4429.375
1601.081	4468.375
1604.104	4438.04167
1607.125	4414.04167
1610.144	4308.04167
1613.16	4212.375
1616.174	4106.375
1619.186	4003.375
1622.196	3892.375
1625.203	3784.70833
1628.209	3707.375
1631.212	3625.375
1634.213	3605.04167
1637.212	3587.375
1640.209	3511.375
1643.203	3418.04167
1646.196	3298.04167
1649.186	3165.70833
1652.174	3092.375
1655.16	2992.375
1658.144	2853.04167
1661.125	2760.04167
1664.105	2648.375
1667.082	2510.70833
1670.057	2387.04167
1673.03	2251.375
1676.001	2103.70833
1678.97	1994.04167
1681.937	1857.375
1684.901	1746.375
1687.863	1717.70833
1690.824	1617.04167
1693.782	1577.70833
1696.738	1514.70833
1699.692	1474.04167
1702.643	1447.04167
1705.593	1430.375
1708.54	1427.70833
1711.486	1421.70833
1714.429	1365.375
1717.37	1346.375
1720.309	1324.375
1723.246	1325.375
1726.181	1308.375
1729.113	1302.375
1732.044	1285.375
1734.972	1277.375
1737.899	1268.04167
1740.823	1260.375
1743.745	1223.04167
1746.665	1214.70833
1749.583	1192.70833
1752.499	1169.04167
1755.413	1165.04167
1758.325	1139.04167
1761.235	1130.70833
1764.142	1110.04167
1767.048	1117.04167
1769.951	1083.70833
1772.852	1088.70833
1775.752	1075.70833
1778.649	1074.04167
1781.544	1065.04167
1784.437	1041.375
1787.328	1063.375
1790.217	1063.04167
1793.104	1029.04167
1795.989	1010.375
1798.872	1021.70833
1801.753	1025.375
1804.631	1017.04167
1807.508	1024.375
1810.383	1022.70833
1813.255	1012.375
1816.126	1021.70833
1818.994	1004.70833
1821.861	985.375
1824.725	993.04167
1827.587	990.04167
1830.448	969.04167
1833.306	957.04167
1836.162	965.04167
1839.017	954.04167
1841.869	956.04167
1844.719	943.04167
1847.567	945.375
1850.414	929.04167
1853.258	937.04167
1856.1	955.375
1858.94	946.04167
1861.778	946.70833
1864.614	927.04167
1867.448	931.04167
1870.28	917.04167
1873.111	944.375
1875.939	929.04167
1878.765	933.70833
1881.589	922.375
1884.411	920.04167
1887.231	922.70833
1890.049	919.04167
1892.865	898.70833
1895.68	901.04167
1898.492	906.70833
1901.302	895.70833
1904.11	893.375
1906.916	884.04167
1909.721	884.375
1912.523	885.04167
1915.323	856.70833
1918.122	879.375
1920.918	875.70833
1923.712	865.375
1926.505	863.375
1929.295	857.375
1932.084	880.04167
1934.87	853.375
1937.655	846.375
1940.438	859.375
1943.218	850.375
1945.997	864.375
1948.774	859.70833
1951.549	853.04167
1954.322	843.375
1957.093	838.04167
1959.862	841.70833
1962.629	836.70833
1965.394	830.70833
1968.157	824.70833
1970.918	830.04167
1973.678	805.375
1976.435	820.04167
1979.19	815.04167
1981.944	800.375
1984.696	806.375
1987.445	794.70833
1990.193	804.04167
1992.939	812.375
1995.683	790.70833
1998.425	783.375
2001.165	820.375
2003.903	783.70833
2006.639	785.375
2009.374	799.375
2012.106	785.70833
2014.837	774.70833
2017.566	787.04167
2020.292	797.375
2023.017	780.375
2025.74	776.04167
2028.461	770.375
2031.18	774.375
2033.898	755.70833
2036.613	773.375
2039.327	752.375
2042.038	748.375
2044.748	753.04167
2047.456	764.375
2050.162	747.04167
2052.866	752.04167
2055.568	766.375
2058.268	744.04167
2060.967	747.04167
2063.663	727.375
2066.358	740.04167
2069.051	738.375
2071.742	737.375
2074.431	741.375
2077.118	742.04167
2079.804	725.70833
2082.487	730.70833
2085.169	745.375
2087.849	754.70833
2090.527	732.70833
2093.203	746.70833
2095.877	752.04167
2098.55	752.70833
2101.22	756.375
2103.889	767.04167
2106.556	779.04167
2109.221	805.375
2111.884	815.04167
2114.546	884.375
2117.205	938.04167
2119.863	1017.375
2122.519	1084.04167
2125.173	1170.70833
2127.825	1223.70833
2130.475	1219.375
2133.124	1186.70833
2135.771	1137.70833
2138.416	1084.375
2141.059	997.70833
2143.7	948.70833
2146.339	899.04167
2148.977	851.04167
2151.613	839.70833
2154.247	803.375
2156.879	780.70833
2159.51	757.70833
2162.138	744.70833
2164.765	737.375
2167.39	718.70833
2170.013	725.70833
2172.634	724.375
2175.254	698.04167
2177.872	734.04167
2180.488	688.04167
2183.102	686.04167
2185.714	685.70833
2188.325	657.70833
2190.934	671.04167
2193.541	681.70833
2196.146	653.375
2198.75	654.04167
2201.351	648.70833
2203.951	647.70833
2206.549	652.375
2209.146	644.70833
2211.74	633.04167
2214.333	633.04167
2216.924	623.04167
2219.514	625.04167
2222.101	626.375
2224.687	627.70833
2227.271	617.70833
2229.853	609.70833
2232.433	595.375
2235.012	618.375
2237.589	619.70833
2240.164	619.70833
2242.738	590.375
2245.309	591.70833
2247.879	587.04167
2250.448	595.04167
2253.014	576.70833
2255.579	563.375
2258.142	583.04167
2260.703	557.70833
2263.262	564.70833
2265.82	551.04167
2268.376	559.04167
2270.93	545.04167
2273.483	536.04167
2276.033	559.04167
2278.583	546.70833
2281.13	539.375
2283.675	537.375
2286.219	536.375
2288.761	545.375
2291.302	538.04167
2293.841	535.375
2296.377	517.04167
2298.913	522.04167
2301.446	542.70833
2303.978	525.04167
2306.508	516.375
2309.037	522.375
2311.563	537.04167
2314.088	530.375
2316.612	512.04167
2319.133	523.70833
2321.653	512.04167
2324.171	509.70833
2326.688	516.375
2329.202	505.04167
2331.715	507.70833
2334.227	507.70833
2336.736	506.70833
2339.244	506.70833
2341.751	489.04167
2344.255	502.375
2346.758	503.375
2349.259	483.04167
2351.759	486.70833
2354.257	471.375
2356.753	476.70833
2359.247	487.375
2361.74	491.375
2364.231	485.70833
2366.721	478.70833
2369.209	482.70833
2371.695	483.70833
2374.179	480.04167
2376.662	467.375
2379.143	491.04167
2381.622	476.04167
2384.1	477.70833
2386.576	473.375
2389.051	488.04167
2391.524	475.375
2393.995	473.04167
2396.464	459.70833
2398.932	466.375
2401.398	462.375
2403.863	464.375
2406.325	449.375
2408.787	458.04167
2411.246	451.04167
2413.704	452.375
2416.16	449.70833
2418.615	449.04167
2421.068	464.375
2423.519	461.375
2425.969	441.375
2428.417	455.375
2430.863	482.375
2433.308	452.375
2435.751	449.375
2438.193	441.70833
2440.633	440.375
2443.071	449.70833
2445.508	430.375
2447.943	440.375
2450.376	435.70833
2452.808	441.375
2455.238	428.70833
2457.667	468.04167
2460.093	435.70833
2462.519	423.70833
2464.942	435.375
2467.365	433.375
2469.785	436.375
2472.204	435.04167
2474.621	410.04167
2477.037	439.04167
2479.451	406.375
2481.863	405.70833
2484.274	415.70833
2486.683	421.04167
2489.091	423.375
2491.497	411.04167
2493.901	426.70833
2496.304	411.375
2498.705	429.04167
2501.105	414.04167
2503.503	445.04167
2505.899	408.375
2508.294	426.04167
2510.687	409.04167
2513.079	402.70833
2515.469	412.70833
2517.858	407.04167
2520.245	415.70833
2522.63	408.375
2525.014	400.375
2527.396	393.04167
2529.776	388.375
2532.156	412.04167
2534.533	392.04167
2536.909	391.70833
2539.283	380.70833
2541.656	382.70833
2544.027	418.04167
2546.397	389.04167
2548.765	388.70833
2551.131	384.70833
2553.496	395.04167
2555.86	396.04167
2558.221	394.70833
2560.582	384.04167
2562.94	381.375
2565.298	388.04167
2567.653	399.375
2570.007	377.04167
2572.36	398.04167
2574.711	376.70833
2577.06	399.375
2579.408	396.70833
2581.754	371.70833
2584.099	389.04167
2586.442	374.04167
2588.784	382.375
2591.124	375.70833
2593.463	379.375
2595.8	392.04167
2598.135	368.70833
2600.469	374.375
2602.802	388.70833
2605.133	385.375
2607.462	367.375
2609.79	366.375
2612.116	380.375
2614.441	384.04167
2616.764	381.04167
2619.086	373.70833
2621.406	362.04167
2623.725	385.375
2626.042	381.375
2628.358	368.375
2630.672	363.70833
2632.985	380.04167
2635.296	373.375
2637.606	376.375
2639.914	365.375
2642.22	368.375
2644.525	375.70833
2646.829	379.70833
2649.131	394.04167
2651.432	381.70833
2653.731	380.70833
2656.028	386.375
2658.324	387.375
2660.619	370.375
2662.912	390.04167
2665.204	364.70833
2667.494	376.375
2669.782	359.375
2672.07	381.70833
2674.355	381.70833
2676.639	369.375
2678.922	373.375
2681.203	374.70833
2683.483	362.375
2685.761	375.70833
2688.038	377.04167
2690.313	390.70833
2692.587	377.70833
2694.859	366.70833
2697.13	373.375
2699.399	396.04167
2701.667	393.70833
2703.933	389.70833
2706.198	389.70833
2708.461	396.70833
2710.723	395.375
2712.984	390.04167
2715.243	391.04167
2717.5	386.375
2719.757	407.70833
2722.011	392.375
2724.264	410.375
2726.516	419.70833
2728.766	404.70833
2731.015	404.70833
2733.262	404.70833
2735.508	397.70833
2737.753	408.70833
2739.996	389.04167
2742.237	386.375
2744.477	401.70833
2746.716	400.04167
2748.953	379.70833
2751.189	396.375
2753.423	383.04167
2755.656	375.04167
2757.887	370.375
2760.117	373.375
2762.346	362.70833
2764.573	363.04167
2766.798	373.04167
2769.022	370.04167
2771.245	381.70833
2773.467	384.375
2775.686	374.04167
2777.905	390.04167
2780.122	390.04167
2782.337	390.70833
2784.552	393.04167
2786.764	385.04167
2788.976	396.70833
2791.186	398.04167
2793.394	411.04167
2795.601	411.04167
2797.807	420.375
2800.011	425.375
2802.214	437.04167
2804.415	430.70833
2806.615	426.04167
2808.814	430.375
2811.011	449.375
2813.206	442.375
2815.401	471.375
2817.594	475.70833
2819.785	485.70833
2821.975	482.04167
2824.164	487.04167
2826.351	502.375
2828.537	508.375
2830.722	518.375
2832.905	527.70833
2835.086	548.375
2837.267	586.70833
2839.445	590.04167
2841.623	618.70833
2843.799	652.375
2845.974	670.70833
2848.147	707.70833
2850.319	730.375
2852.489	756.375
2854.659	781.04167
2856.826	787.375
2858.993	818.375
2861.158	802.70833
2863.321	788.70833
2865.483	815.375
2867.644	806.375
2869.804	817.04167
2871.962	809.70833
2874.118	822.04167
2876.274	813.04167
2878.428	812.04167
2880.58	803.04167
2882.731	795.70833
2884.881	802.70833
2887.03	809.375
2889.177	804.04167
2891.322	827.04167
2893.467	816.70833
2895.61	817.375
2897.751	832.70833
2899.892	830.70833
2902.03	849.70833
2904.168	837.375
2906.304	844.375
2908.439	868.375
2910.572	856.04167
2912.704	856.375
2914.835	865.70833
2916.965	856.375
2919.093	866.70833
2921.219	845.70833
2923.345	866.375
2925.469	833.375
2927.591	845.04167
2929.712	804.375
2931.832	797.375
2933.951	778.04167
2936.068	766.70833
2938.184	737.04167
2940.299	713.70833
2942.412	700.375
2944.524	671.04167
2946.634	663.04167
2948.744	608.04167
2950.851	619.70833
2952.958	583.04167
2955.063	591.04167
2957.167	571.70833
2959.269	541.04167
2961.371	568.70833
2963.471	526.04167
2965.569	531.04167
2967.666	495.04167
2969.762	491.375
2971.857	479.70833
2973.95	467.04167
2976.042	452.04167
2978.133	451.375
2980.222	428.04167
2982.31	412.04167
2984.396	394.70833
2986.482	400.375
2988.566	388.375
2990.648	384.375
2992.73	372.375
2994.81	355.70833
2996.889	370.375
2998.966	360.04167
3001.042	365.70833
3003.117	357.375
3005.191	350.375
3007.263	348.04167
3009.334	338.04167
3011.403	336.04167
3013.472	328.04167
3015.539	334.04167
3017.604	343.04167
3019.669	299.70833
3021.732	309.375
3023.794	311.375
3025.854	294.04167
3027.914	294.375
3029.971	308.375
3032.028	305.70833
3034.083	291.04167
3036.137	295.04167
3038.19	280.70833
3040.242	274.04167
3042.292	260.70833
3044.341	273.04167
3046.388	282.70833
3048.435	254.04167
3050.48	275.375
3052.524	259.04167
3054.566	246.375
3056.607	264.375
3058.647	255.04167
3060.686	242.375
3062.723	240.375
3064.759	223.375
3066.794	-0.29167
3068.828	3.375
3070.86	0.375
