-0.839	573.04167
3.438	701.375
7.711	210.04167
11.981	63.70833
16.247	49.375
20.509	51.04167
24.768	48.04167
29.024	59.04167
33.276	46.375
37.524	51.375
41.769	48.375
46.01	36.375
50.247	49.04167
54.481	63.04167
58.712	66.375
62.939	47.70833
67.162	66.70833
71.382	59.375
75.599	48.375
79.812	64.04167
84.021	86.04167
88.227	64.70833
92.429	60.70833
96.628	53.70833
100.823	71.04167
105.015	82.70833
109.204	73.04167
113.388	75.70833
117.57	75.70833
121.748	91.70833
125.922	87.70833
130.093	105.70833
134.261	107.04167
138.425	102.70833
142.585	147.04167
146.742	140.375
150.896	177.70833
155.046	218.04167
159.193	338.375
163.336	587.04167
167.476	1078.70833
171.613	1994.04167
175.746	3327.04167
179.875	4883.375
184.002	6433.70833
188.124	7413.375
192.244	7798.375
196.36	7710.375
200.472	7486.04167
204.581	7272.04167
208.687	7128.04167
212.79	7020.70833
216.889	7015.375
220.984	7030.70833
225.077	7039.375
229.165	7043.70833
233.251	7055.70833
237.333	6978.375
241.412	6882.375
245.487	6831.04167
249.559	6745.375
253.628	6725.375
257.694	6639.375
261.756	6571.04167
265.814	6460.375
269.87	6279.04167
273.922	6054.70833
277.97	5943.04167
282.016	5904.04167
286.058	5934.04167
290.097	6018.70833
294.132	6083.375
298.164	6041.375
302.193	5756.375
306.219	5318.04167
310.241	4934.70833
314.26	4540.04167
318.276	4262.70833
322.288	3996.375
326.297	3832.04167
330.303	3712.375
334.305	3615.70833
338.305	3541.04167
342.301	3513.70833
346.294	3460.70833
350.283	3439.70833
354.269	3413.04167
358.252	3416.375
362.232	3364.375
366.209	3344.04167
370.182	3320.375
374.152	3317.04167
378.119	3302.70833
382.083	3288.70833
386.043	3339.70833
390	3291.04167
393.954	3295.375
397.905	3284.375
401.852	3246.375
405.797	3231.375
409.738	3198.04167
413.676	3214.375
417.61	3180.375
421.542	3183.04167
425.47	3152.04167
429.396	3118.70833
433.318	3104.04167
437.236	3099.375
441.152	3104.375
445.065	3057.375
448.974	3054.04167
452.88	3024.04167
456.783	3028.375
460.683	2997.04167
464.58	3004.375
468.473	3000.04167
472.364	3014.04167
476.251	3019.70833
480.135	3070.70833
484.016	3091.70833
487.894	3090.375
491.769	3122.70833
495.641	3122.375
499.509	3145.04167
503.375	3154.70833
507.237	3149.70833
511.096	3098.04167
514.952	3120.375
518.805	3106.375
522.655	3106.70833
526.502	3080.70833
530.346	3103.70833
534.187	3109.375
538.024	3105.70833
541.859	3145.04167
545.69	3166.04167
549.519	3123.04167
553.344	3108.375
557.166	3091.04167
560.985	3042.04167
564.802	2990.375
568.615	2927.375
572.425	2884.04167
576.232	2870.375
580.036	2893.04167
583.836	2877.70833
587.634	2898.375
591.429	2877.375
595.221	2975.04167
599.01	3007.375
602.796	3012.70833
606.578	3039.375
610.358	3041.375
614.135	3004.70833
617.909	3002.04167
621.679	2944.375
625.447	2956.04167
629.212	2935.04167
632.973	2941.04167
636.732	2948.04167
640.488	2932.04167
644.241	2923.375
647.991	2909.04167
651.737	2909.70833
655.481	2907.375
659.222	2858.70833
662.96	2876.375
666.695	2917.04167
670.427	2928.70833
674.156	2963.04167
677.882	2915.70833
681.605	2902.375
685.325	2895.04167
689.043	2886.04167
692.757	2846.375
696.468	2857.04167
700.177	2866.375
703.882	2839.70833
707.585	2822.375
711.284	2824.04167
714.981	2834.04167
718.675	2841.70833
722.366	2860.375
726.054	2810.70833
729.739	2842.70833
733.421	2811.04167
737.1	2855.04167
740.777	2878.04167
744.45	2868.375
748.121	2907.70833
751.789	2927.70833
755.453	2936.70833
759.115	2955.70833
762.774	2957.70833
766.431	3002.375
770.084	3014.70833
773.734	3032.375
777.382	3089.04167
781.027	3119.70833
784.669	3123.04167
788.308	3126.04167
791.944	3145.375
795.577	3152.70833
799.208	3170.04167
802.835	3204.04167
806.46	3194.375
810.082	3227.70833
813.701	3240.04167
817.317	3249.375
820.931	3250.04167
824.542	3245.04167
828.149	3225.70833
831.754	3218.70833
835.357	3188.04167
838.956	3225.70833
842.553	3216.04167
846.146	3209.04167
849.737	3170.70833
853.326	3185.375
856.911	3172.04167
860.493	3234.04167
864.073	3250.70833
867.65	3285.375
871.225	3330.04167
874.796	3330.375
878.365	3340.375
881.931	3377.70833
885.494	3421.375
889.054	3429.70833
892.612	3489.375
896.166	3467.04167
899.719	3469.375
903.268	3388.70833
906.814	3343.70833
910.358	3287.375
913.899	3239.04167
917.438	3226.375
920.973	3234.70833
924.506	3254.375
928.036	3319.04167
931.564	3349.04167
935.088	3394.04167
938.61	3399.04167
942.129	3449.375
945.646	3504.375
949.16	3582.04167
952.671	3620.70833
956.179	3618.04167
959.685	3576.70833
963.188	3556.70833
966.688	3516.04167
970.185	3408.375
973.68	3365.375
977.173	3297.70833
980.662	3256.70833
984.149	3279.04167
987.633	3237.70833
991.114	3283.04167
994.593	3377.375
998.069	3452.04167
1001.542	3534.04167
1005.013	3481.04167
1008.481	3301.375
1011.947	3260.70833
1015.409	3231.04167
1018.869	3210.04167
1022.327	3220.375
1025.782	3201.375
1029.234	3210.375
1032.683	3153.375
1036.13	3060.375
1039.574	2954.70833
1043.016	2860.375
1046.455	2798.375
1049.891	2782.70833
1053.325	2780.70833
1056.756	2777.375
1060.184	2802.70833
1063.61	2806.70833
1067.033	2841.375
1070.454	2826.375
1073.872	2870.375
1077.287	2861.375
1080.7	2854.375
1084.11	2840.375
1087.517	2832.375
1090.922	2784.70833
1094.325	2804.04167
1097.724	2765.04167
1101.122	2764.375
1104.516	2756.04167
1107.908	2762.375
1111.298	2816.375
1114.684	2826.375
1118.069	2906.04167
1121.45	2903.04167
1124.83	2908.70833
1128.206	2955.70833
1131.58	2995.375
1134.951	3069.70833
1138.32	3161.70833
1141.687	3269.04167
1145.05	3338.375
1148.412	3360.375
1151.77	3339.04167
1155.126	3317.70833
1158.48	3314.375
1161.831	3360.70833
1165.18	3357.375
1168.525	3380.375
1171.869	3450.375
1175.21	3438.70833
1178.548	3481.04167
1181.884	3517.375
1185.217	3568.70833
1188.548	3664.70833
1191.877	3713.375
1195.202	3823.375
1198.526	3914.04167
1201.846	3908.70833
1205.165	3920.375
1208.48	3903.70833
1211.794	3875.70833
1215.104	3885.70833
1218.413	3853.04167
1221.719	3889.375
1225.022	3828.04167
1228.323	3760.04167
1231.621	3742.70833
1234.917	3690.375
1238.21	3703.70833
1241.501	3676.375
1244.79	3685.375
1248.076	3666.70833
1251.359	3727.70833
1254.64	3811.375
1257.919	3809.70833
1261.195	3875.04167
1264.468	3958.70833
1267.74	3969.70833
1271.008	4008.04167
1274.275	3972.70833
1277.538	3947.04167
1280.8	3967.70833
1284.059	3935.04167
1287.315	3985.04167
1290.569	4012.70833
1293.821	4028.04167
1297.07	4078.70833
1300.317	4092.70833
1303.562	4085.375
1306.803	4035.70833
1310.043	4036.04167
1313.28	3971.375
1316.515	3966.04167
1319.747	3954.04167
1322.977	3888.375
1326.204	3887.04167
1329.429	3823.04167
1332.652	3829.04167
1335.872	3768.04167
1339.09	3705.04167
1342.306	3689.70833
1345.519	3608.375
1348.729	3555.375
1351.938	3553.70833
1355.144	3512.70833
1358.347	3459.04167
1361.548	3476.375
1364.747	3455.04167
1367.944	3404.375
1371.138	3446.375
1374.329	3460.04167
1377.518	3507.375
1380.705	3523.375
1383.89	3498.375
1387.072	3389.375
1390.252	3253.04167
1393.429	3133.375
1396.605	3061.04167
1399.777	2963.70833
1402.948	2964.375
1406.116	2949.375
1409.282	2942.04167
1412.445	2957.04167
1415.606	2981.70833
1418.765	3032.70833
1421.921	3080.375
1425.075	3146.375
1428.227	3223.375
1431.376	3348.04167
1434.524	3460.04167
1437.668	3541.375
1440.811	3594.70833
1443.951	3650.04167
1447.089	3649.70833
1450.224	3635.375
1453.357	3616.04167
1456.488	3581.375
1459.617	3507.04167
1462.743	3436.04167
1465.867	3389.375
1468.989	3341.375
1472.108	3277.04167
1475.225	3228.375
1478.34	3176.70833
1481.453	3177.70833
1484.563	3184.70833
1487.671	3251.375
1490.776	3279.375
1493.88	3345.70833
1496.981	3418.04167
1500.08	3470.04167
1503.176	3496.70833
1506.271	3533.375
1509.363	3609.375
1512.452	3601.375
1515.54	3672.70833
1518.625	3711.04167
1521.708	3811.70833
1524.789	3924.04167
1527.867	4049.375
1530.944	4238.70833
1534.018	4424.70833
1537.089	4602.70833
1540.159	4664.04167
1543.226	4650.70833
1546.291	4553.70833
1549.354	4487.04167
1552.415	4411.70833
1555.473	4238.375
1558.529	4215.375
1561.583	4179.70833
1564.634	4146.375
1567.684	4166.04167
1570.731	4173.70833
1573.776	4205.70833
1576.819	4242.375
1579.859	4314.04167
1582.898	4367.375
1585.934	4408.04167
1588.968	4399.70833
1591.999	4408.04167
1595.029	4412.70833
1598.056	4464.375
1601.081	4481.70833
1604.104	4457.04167
1607.125	4431.04167
1610.144	4328.375
1613.16	4237.375
1616.174	4117.375
1619.186	4003.70833
1622.196	3895.70833
1625.203	3792.04167
1628.209	3692.70833
1631.212	3689.70833
1634.213	3642.375
1637.212	3601.375
1640.209	3527.375
1643.203	3461.70833
1646.196	3337.70833
1649.186	3199.70833
1652.174	3102.375
1655.16	2979.375
1658.144	2913.375
1661.125	2778.70833
1664.105	2673.70833
1667.082	2536.375
1670.057	2420.04167
1673.03	2278.70833
1676.001	2124.70833
1678.97	2003.375
1681.937	1869.375
1684.901	1755.70833
1687.863	1713.70833
1690.824	1626.375
1693.782	1589.04167
1696.738	1537.04167
1699.692	1490.70833
1702.643	1452.04167
1705.593	1444.375
1708.54	1417.04167
1711.486	1412.375
1714.429	1380.70833
1717.37	1381.70833
1720.309	1348.04167
1723.246	1345.70833
1726.181	1307.04167
1729.113	1319.04167
1732.044	1308.375
1734.972	1288.375
1737.899	1288.04167
1740.823	1278.375
1743.745	1238.70833
1746.665	1222.04167
1749.583	1195.04167
1752.499	1191.375
1755.413	1183.70833
1758.325	1132.04167
1761.235	1146.70833
1764.142	1111.375
1767.048	1108.375
1769.951	1114.70833
1772.852	1097.375
1775.752	1105.04167
1778.649	1091.70833
1781.544	1095.70833
1784.437	1060.04167
1787.328	1070.375
1790.217	1058.04167
1793.104	1028.375
1795.989	1036.375
1798.872	1046.04167
1801.753	1048.70833
1804.631	1028.375
1807.508	1036.70833
1810.383	1036.70833
1813.255	1023.375
1816.126	1025.04167
1818.994	1021.70833
1821.861	999.70833
1824.725	992.375
1827.587	1003.70833
1830.448	983.375
1833.306	969.70833
1836.162	979.70833
1839.017	959.70833
1841.869	956.70833
1844.719	960.375
1847.567	947.375
1850.414	936.70833
1853.258	950.70833
1856.1	955.04167
1858.94	955.70833
1861.778	946.375
1864.614	942.375
1867.448	941.70833
1870.28	926.375
1873.111	955.375
1875.939	941.375
1878.765	943.70833
1881.589	921.70833
1884.411	935.04167
1887.231	922.70833
1890.049	927.70833
1892.865	928.04167
1895.68	910.70833
1898.492	917.375
1901.302	899.70833
1904.11	914.70833
1906.916	891.70833
1909.721	878.70833
1912.523	892.375
1915.323	876.70833
1918.122	880.70833
1920.918	892.70833
1923.712	872.375
1926.505	874.70833
1929.295	857.70833
1932.084	883.70833
1934.87	866.375
1937.655	860.70833
1940.438	849.04167
1943.218	874.375
1945.997	867.375
1948.774	864.375
1951.549	872.70833
1954.322	854.04167
1957.093	863.04167
1959.862	855.04167
1962.629	839.70833
1965.394	834.70833
1968.157	823.70833
1970.918	836.04167
1973.678	827.375
1976.435	840.70833
1979.19	827.375
1981.944	806.70833
1984.696	814.04167
1987.445	800.04167
1990.193	823.04167
1992.939	827.375
1995.683	813.70833
1998.425	795.04167
2001.165	822.375
2003.903	800.04167
2006.639	783.375
2009.374	811.70833
2012.106	803.04167
2014.837	786.70833
2017.566	797.70833
2020.292	796.04167
2023.017	790.04167
2025.74	787.375
2028.461	780.70833
2031.18	774.70833
2033.898	766.375
2036.613	775.70833
2039.327	779.375
2042.038	762.375
2044.748	760.375
2047.456	771.375
2050.162	755.70833
2052.866	746.04167
2055.568	769.70833
2058.268	743.70833
2060.967	757.70833
2063.663	757.375
2066.358	749.04167
2069.051	745.04167
2071.742	757.375
2074.431	756.375
2077.118	741.70833
2079.804	726.375
2082.487	747.04167
2085.169	756.375
2087.849	756.375
2090.527	736.70833
2093.203	750.375
2095.877	759.375
2098.55	758.04167
2101.22	762.375
2103.889	779.70833
2106.556	792.04167
2109.221	808.70833
2111.884	820.04167
2114.546	874.70833
2117.205	947.375
2119.863	1035.04167
2122.519	1086.70833
2125.173	1165.375
2127.825	1235.375
2130.475	1231.375
2133.124	1199.04167
2135.771	1131.375
2138.416	1089.70833
2141.059	1020.04167
2143.7	970.04167
2146.339	904.04167
2148.977	832.70833
2151.613	831.04167
2154.247	801.70833
2156.879	775.04167
2159.51	757.70833
2162.138	753.04167
2164.765	745.375
2167.39	724.70833
2170.013	738.375
2172.634	718.375
2175.254	720.70833
2177.872	729.70833
2180.488	690.70833
2183.102	702.04167
2185.714	682.375
2188.325	659.04167
2190.934	676.70833
2193.541	682.375
2196.146	669.04167
2198.75	656.375
2201.351	651.70833
2203.951	649.04167
2206.549	667.04167
2209.146	642.375
2211.74	645.04167
2214.333	651.70833
2216.924	610.375
2219.514	637.04167
2222.101	629.04167
2224.687	627.04167
2227.271	620.70833
2229.853	610.70833
2232.433	604.375
2235.012	631.04167
2237.589	607.70833
2240.164	620.375
2242.738	606.375
2245.309	587.70833
2247.879	605.70833
2250.448	603.375
2253.014	575.375
2255.579	561.04167
2258.142	571.70833
2260.703	564.375
2263.262	566.375
2265.82	557.375
2268.376	569.70833
2270.93	548.375
2273.483	539.375
2276.033	559.375
2278.583	552.70833
2281.13	547.70833
2283.675	544.375
2286.219	530.70833
2288.761	541.70833
2291.302	543.375
2293.841	548.04167
2296.377	523.04167
2298.913	529.04167
2301.446	543.375
2303.978	531.375
2306.508	524.04167
2309.037	525.04167
2311.563	537.04167
2314.088	531.70833
2316.612	515.70833
2319.133	523.04167
2321.653	528.04167
2324.171	509.375
2326.688	518.04167
2329.202	512.70833
2331.715	504.375
2334.227	501.375
2336.736	507.70833
2339.244	499.04167
2341.751	488.04167
2344.255	508.70833
2346.758	493.375
2349.259	493.70833
2351.759	495.70833
2354.257	493.04167
2356.753	479.70833
2359.247	496.70833
2361.74	494.70833
2364.231	495.04167
2366.721	491.375
2369.209	481.04167
2371.695	477.375
2374.179	472.375
2376.662	471.04167
2379.143	486.375
2381.622	474.70833
2384.1	478.375
2386.576	466.375
2389.051	485.04167
2391.524	478.70833
2393.995	476.70833
2396.464	462.375
2398.932	465.375
2401.398	458.04167
2403.863	468.375
2406.325	458.70833
2408.787	458.70833
2411.246	455.70833
2413.704	451.70833
2416.16	454.70833
2418.615	450.04167
2421.068	456.70833
2423.519	469.375
2425.969	453.04167
2428.417	462.375
2430.863	473.375
2433.308	449.70833
2435.751	452.04167
2438.193	440.375
2440.633	454.375
2443.071	446.375
2445.508	438.70833
2447.943	448.04167
2450.376	432.70833
2452.808	442.70833
2455.238	430.375
2457.667	472.04167
2460.093	434.04167
2462.519	427.04167
2464.942	430.70833
2467.365	432.70833
2469.785	442.375
2472.204	431.70833
2474.621	415.70833
2477.037	447.375
2479.451	407.70833
2481.863	410.70833
2484.274	422.04167
2486.683	421.375
2489.091	438.04167
2491.497	418.04167
2493.901	430.04167
2496.304	412.70833
2498.705	425.04167
2501.105	410.375
2503.503	438.375
2505.899	400.04167
2508.294	427.04167
2510.687	414.04167
2513.079	413.04167
2515.469	405.375
2517.858	419.70833
2520.245	412.375
2522.63	406.375
2525.014	404.375
2527.396	401.375
2529.776	396.70833
2532.156	418.04167
2534.533	404.04167
2536.909	388.70833
2539.283	391.04167
2541.656	388.375
2544.027	415.04167
2546.397	398.70833
2548.765	393.70833
2551.131	392.70833
2553.496	391.70833
2555.86	405.375
2558.221	397.70833
2560.582	385.375
2562.94	382.70833
2565.298	383.375
2567.653	405.70833
2570.007	374.70833
2572.36	398.04167
2574.711	375.70833
2577.06	401.04167
2579.408	388.375
2581.754	382.375
2584.099	395.04167
2586.442	381.04167
2588.784	380.04167
2591.124	382.70833
2593.463	382.04167
2595.8	389.70833
2598.135	377.04167
2600.469	386.04167
2602.802	394.375
2605.133	390.04167
2607.462	372.70833
2609.79	361.375
2612.116	373.70833
2614.441	381.04167
2616.764	374.04167
2619.086	370.70833
2621.406	362.70833
2623.725	385.04167
2626.042	380.70833
2628.358	370.70833
2630.672	369.375
2632.985	387.70833
2635.296	381.70833
2637.606	368.70833
2639.914	371.375
2642.22	385.04167
2644.525	370.04167
2646.829	379.375
2649.131	384.70833
2651.432	381.375
2653.731	370.70833
2656.028	387.375
2658.324	386.04167
2660.619	373.70833
2662.912	382.70833
2665.204	373.375
2667.494	391.04167
2669.782	365.70833
2672.07	375.70833
2674.355	379.375
2676.639	388.70833
2678.922	365.70833
2681.203	374.70833
2683.483	370.375
2685.761	371.375
2688.038	381.04167
2690.313	383.70833
2692.587	385.04167
2694.859	375.70833
2697.13	372.04167
2699.399	381.70833
2701.667	401.04167
2703.933	389.04167
2706.198	388.375
2708.461	394.70833
2710.723	405.375
2712.984	395.04167
2715.243	404.04167
2717.5	395.04167
2719.757	408.04167
2722.011	391.375
2724.264	401.375
2726.516	406.04167
2728.766	402.04167
2731.015	402.70833
2733.262	404.70833
2735.508	406.70833
2737.753	404.375
2739.996	394.70833
2742.237	390.70833
2744.477	403.70833
2746.716	404.375
2748.953	386.70833
2751.189	402.04167
2753.423	389.04167
2755.656	376.375
2757.887	374.04167
2760.117	373.375
2762.346	370.70833
2764.573	371.375
2766.798	380.375
2769.022	372.375
2771.245	370.70833
2773.467	382.375
2775.686	392.375
2777.905	377.04167
2780.122	382.70833
2782.337	399.375
2784.552	395.04167
2786.764	390.70833
2788.976	402.04167
2791.186	399.70833
2793.394	403.04167
2795.601	408.70833
2797.807	430.375
2800.011	435.70833
2802.214	437.375
2804.415	432.70833
2806.615	427.70833
2808.814	441.70833
2811.011	442.375
2813.206	446.375
2815.401	462.70833
2817.594	470.04167
2819.785	480.04167
2821.975	473.04167
2824.164	481.04167
2826.351	487.70833
2828.537	510.375
2830.722	522.04167
2832.905	532.04167
2835.086	557.04167
2837.267	584.04167
2839.445	596.04167
2841.623	616.70833
2843.799	646.70833
2845.974	676.04167
2848.147	714.04167
2850.319	737.70833
2852.489	761.04167
2854.659	777.375
2856.826	783.375
2858.993	817.375
2861.158	790.70833
2863.321	796.70833
2865.483	821.04167
2867.644	826.04167
2869.804	811.375
2871.962	811.70833
2874.118	815.375
2876.274	811.375
2878.428	800.04167
2880.58	810.70833
2882.731	794.70833
2884.881	802.04167
2887.03	820.375
2889.177	806.375
2891.322	824.04167
2893.467	822.04167
2895.61	818.04167
2897.751	834.04167
2899.892	828.70833
2902.03	837.04167
2904.168	839.375
2906.304	844.375
2908.439	871.04167
2910.572	849.70833
2912.704	870.70833
2914.835	862.375
2916.965	855.04167
2919.093	874.04167
2921.219	851.375
2923.345	858.375
2925.469	833.70833
2927.591	831.70833
2929.712	802.70833
2931.832	799.375
2933.951	788.70833
2936.068	761.375
2938.184	752.70833
2940.299	728.70833
2942.412	695.375
2944.524	668.375
2946.634	657.70833
2948.744	603.375
2950.851	627.04167
2952.958	588.04167
2955.063	586.70833
2957.167	569.70833
2959.269	535.04167
2961.371	563.70833
2963.471	525.375
2965.569	531.04167
2967.666	503.70833
2969.762	494.04167
2971.857	481.375
2973.95	464.70833
2976.042	461.375
2978.133	445.04167
2980.222	434.70833
2982.31	408.70833
2984.396	403.70833
2986.482	398.04167
2988.566	392.70833
2990.648	384.04167
2992.73	379.70833
2994.81	360.70833
2996.889	364.375
2998.966	366.04167
3001.042	368.375
3003.117	352.04167
3005.191	353.375
3007.263	358.04167
3009.334	339.375
3011.403	346.375
3013.472	329.04167
3015.539	330.375
3017.604	335.04167
3019.669	311.375
3021.732	309.375
3023.794	313.375
3025.854	299.04167
3027.914	296.70833
3029.971	303.70833
3032.028	291.04167
3034.083	298.04167
3036.137	297.04167
3038.19	286.375
3040.242	269.375
3042.292	262.04167
3044.341	267.04167
3046.388	281.70833
3048.435	257.375
3050.48	279.04167
3052.524	265.70833
3054.566	252.04167
3056.607	256.375
3058.647	254.375
3060.686	240.70833
3062.723	237.04167
3064.759	227.04167
3066.794	1.70833
3068.828	3.70833
3070.86	1.70833
