-0.839	587.16667
3.438	702.16667
7.711	209.5
11.981	69.16667
16.247	44.83333
20.509	57.16667
24.768	48.5
29.024	56.5
33.276	50.83333
37.524	55.5
41.769	52.16667
46.01	33.16667
50.247	50.83333
54.481	61.83333
58.712	64.83333
62.939	51.83333
67.162	66.5
71.382	58.16667
75.599	47.16667
79.812	69.5
84.021	88.83333
88.227	64.83333
92.429	62.16667
96.628	56.16667
100.823	73.83333
105.015	78.83333
109.204	72.16667
113.388	79.16667
117.57	84.5
121.748	93.83333
125.922	87.16667
130.093	108.16667
134.261	109.83333
138.425	106.83333
142.585	146.83333
146.742	141.5
150.896	174.5
155.046	217.16667
159.193	343.16667
163.336	591.16667
167.476	1099.83333
171.613	1992.16667
175.746	3321.83333
179.875	4944.83333
184.002	6413.83333
188.124	7488.83333
192.244	7897.83333
196.36	7790.16667
200.472	7594.5
204.581	7353.83333
208.687	7207.83333
212.79	7106.83333
216.889	7118.5
220.984	7136.5
225.077	7153.83333
229.165	7172.16667
233.251	7175.83333
237.333	7117.83333
241.412	7011.83333
245.487	6967.16667
249.559	6911.16667
253.628	6838.16667
257.694	6844.16667
261.756	6720.5
265.814	6572.5
269.87	6389.83333
273.922	6171.5
277.97	6071.83333
282.016	6045.83333
286.058	6053.16667
290.097	6199.16667
294.132	6263.5
298.164	6200.5
302.193	5943.83333
306.219	5508.5
310.241	5079.5
314.26	4704.83333
318.276	4403.83333
322.288	4167.16667
326.297	3966.5
330.303	3847.16667
334.305	3756.83333
338.305	3704.5
342.301	3649.5
346.294	3623.16667
350.283	3609.83333
354.269	3546.83333
358.252	3566.16667
362.232	3554.5
366.209	3499.16667
370.182	3470.83333
374.152	3457.5
378.119	3487.5
382.083	3465.5
386.043	3483.83333
390	3444.83333
393.954	3458.83333
397.905	3455.16667
401.852	3428.16667
405.797	3390.83333
409.738	3364.5
413.676	3368.83333
417.61	3347.5
421.542	3361.5
425.47	3300.5
429.396	3287.5
433.318	3266.5
437.236	3259.16667
441.152	3292.83333
445.065	3229.5
448.974	3239.16667
452.88	3186.5
456.783	3190.16667
460.683	3171.5
464.58	3169.16667
468.473	3203.5
472.364	3208.5
476.251	3194.5
480.135	3227.83333
484.016	3275.16667
487.894	3286.16667
491.769	3299.5
495.641	3302.5
499.509	3351.83333
503.375	3316.83333
507.237	3314.83333
511.096	3316.16667
514.952	3293.5
518.805	3292.83333
522.655	3282.5
526.502	3272.5
530.346	3273.5
534.187	3265.5
538.024	3283.5
541.859	3321.5
545.69	3331.5
549.519	3335.83333
553.344	3294.83333
557.166	3248.16667
560.985	3198.5
564.802	3158.16667
568.615	3100.16667
572.425	3057.16667
576.232	3046.5
580.036	3058.83333
583.836	3031.83333
587.634	3089.16667
591.429	3065.83333
595.221	3147.16667
599.01	3163.16667
602.796	3198.5
606.578	3236.16667
610.358	3211.16667
614.135	3167.83333
617.909	3172.83333
621.679	3145.83333
625.447	3105.16667
629.212	3136.5
632.973	3110.16667
636.732	3111.5
640.488	3101.83333
644.241	3098.16667
647.991	3083.5
651.737	3083.5
655.481	3071.5
659.222	3094.5
662.96	3055.16667
666.695	3096.5
670.427	3118.16667
674.156	3124.5
677.882	3087.83333
681.605	3073.16667
685.325	3060.5
689.043	3066.5
692.757	3017.83333
696.468	3014.5
700.177	3039.83333
703.882	2993.5
707.585	2996.83333
711.284	3004.83333
714.981	2977.83333
718.675	2970.16667
722.366	2995.16667
726.054	2978.83333
729.739	2982.16667
733.421	2996.5
737.1	2964.83333
740.777	2987.5
744.45	3008.16667
748.121	3033.5
751.789	3094.16667
755.453	3087.5
759.115	3109.5
762.774	3128.83333
766.431	3161.83333
770.084	3156.83333
773.734	3213.16667
777.382	3254.5
781.027	3264.5
784.669	3296.16667
788.308	3323.5
791.944	3310.83333
795.577	3359.5
799.208	3351.5
802.835	3366.83333
806.46	3411.83333
810.082	3392.83333
813.701	3403.16667
817.317	3442.16667
820.931	3445.5
824.542	3432.5
828.149	3376.5
831.754	3376.83333
835.357	3364.5
838.956	3358.83333
842.553	3348.16667
846.146	3315.5
849.737	3318.5
853.326	3316.83333
856.911	3308.83333
860.493	3372.16667
864.073	3397.5
867.65	3406.16667
871.225	3466.16667
874.796	3473.83333
878.365	3469.16667
881.931	3506.16667
885.494	3563.83333
889.054	3588.16667
892.612	3603.16667
896.166	3569.83333
899.719	3601.5
903.268	3527.16667
906.814	3463.5
910.358	3439.5
913.899	3385.83333
917.438	3383.83333
920.973	3346.16667
924.506	3375.16667
928.036	3436.5
931.564	3489.16667
935.088	3531.83333
938.61	3540.16667
942.129	3592.83333
945.646	3656.5
949.16	3732.83333
952.671	3799.83333
956.179	3760.83333
959.685	3701.5
963.188	3719.83333
966.688	3649.5
970.185	3564.83333
973.68	3484.5
977.173	3430.16667
980.662	3406.83333
984.149	3385.16667
987.633	3362.16667
991.114	3432.16667
994.593	3478.16667
998.069	3571.5
1001.542	3668.16667
1005.013	3599.5
1008.481	3417.16667
1011.947	3346.16667
1015.409	3346.16667
1018.869	3349.16667
1022.327	3361.83333
1025.782	3321.83333
1029.234	3322.16667
1032.683	3291.5
1036.13	3184.16667
1039.574	3075.16667
1043.016	2988.5
1046.455	2924.83333
1049.891	2904.5
1053.325	2912.83333
1056.756	2904.5
1060.184	2931.5
1063.61	2916.83333
1067.033	2933.16667
1070.454	2946.16667
1073.872	2989.5
1077.287	2979.83333
1080.7	2971.83333
1084.11	2979.83333
1087.517	2954.16667
1090.922	2886.16667
1094.325	2899.83333
1097.724	2849.5
1101.122	2849.5
1104.516	2854.83333
1107.908	2847.5
1111.298	2899.5
1114.684	2938.83333
1118.069	2972.83333
1121.45	3016.5
1124.83	3028.5
1128.206	3032.5
1131.58	3066.83333
1134.951	3162.16667
1138.32	3241.83333
1141.687	3372.83333
1145.05	3433.83333
1148.412	3429.16667
1151.77	3404.16667
1155.126	3411.83333
1158.48	3414.5
1161.831	3403.16667
1165.18	3440.83333
1168.525	3462.83333
1171.869	3513.5
1175.21	3517.16667
1178.548	3548.83333
1181.884	3615.5
1185.217	3654.83333
1188.548	3746.16667
1191.877	3794.5
1195.202	3911.16667
1198.526	3984.16667
1201.846	4004.16667
1205.165	3996.83333
1208.48	4021.5
1211.794	3982.16667
1215.104	3989.5
1218.413	3956.5
1221.719	3967.83333
1225.022	3946.16667
1228.323	3876.16667
1231.621	3819.83333
1234.917	3772.83333
1238.21	3786.5
1241.501	3779.5
1244.79	3772.83333
1248.076	3797.16667
1251.359	3828.16667
1254.64	3887.5
1257.919	3934.83333
1261.195	3974.83333
1264.468	4042.83333
1267.74	4094.5
1271.008	4094.16667
1274.275	4057.83333
1277.538	4059.5
1280.8	4041.16667
1284.059	4046.83333
1287.315	4069.5
1290.569	4109.83333
1293.821	4128.83333
1297.07	4158.16667
1300.317	4182.83333
1303.562	4168.16667
1306.803	4138.5
1310.043	4120.83333
1313.28	4081.16667
1316.515	4048.16667
1319.747	4047.5
1322.977	3996.5
1326.204	3977.16667
1329.429	3925.16667
1332.652	3911.83333
1335.872	3897.5
1339.09	3857.5
1342.306	3796.5
1345.519	3720.16667
1348.729	3696.16667
1351.938	3689.83333
1355.144	3641.5
1358.347	3587.83333
1361.548	3542.5
1364.747	3577.16667
1367.944	3543.83333
1371.138	3563.83333
1374.329	3553.5
1377.518	3596.83333
1380.705	3613.83333
1383.89	3589.83333
1387.072	3477.5
1390.252	3357.83333
1393.429	3236.5
1396.605	3142.5
1399.777	3078.83333
1402.948	3054.5
1406.116	3021.5
1409.282	3023.83333
1412.445	3055.83333
1415.606	3084.5
1418.765	3124.5
1421.921	3140.83333
1425.075	3221.83333
1428.227	3298.83333
1431.376	3429.16667
1434.524	3562.83333
1437.668	3632.83333
1440.811	3688.83333
1443.951	3735.83333
1447.089	3732.16667
1450.224	3699.5
1453.357	3674.5
1456.488	3660.16667
1459.617	3600.5
1462.743	3564.5
1465.867	3438.5
1468.989	3415.83333
1472.108	3360.16667
1475.225	3296.16667
1478.34	3269.5
1481.453	3254.16667
1484.563	3264.16667
1487.671	3313.16667
1490.776	3353.5
1493.88	3415.83333
1496.981	3455.83333
1500.08	3529.16667
1503.176	3560.83333
1506.271	3619.5
1509.363	3642.16667
1512.452	3687.5
1515.54	3725.5
1518.625	3772.83333
1521.708	3892.83333
1524.789	3968.83333
1527.867	4131.83333
1530.944	4331.16667
1534.018	4487.16667
1537.089	4672.5
1540.159	4728.83333
1543.226	4733.5
1546.291	4631.5
1549.354	4534.5
1552.415	4409.16667
1555.473	4348.5
1558.529	4285.83333
1561.583	4227.83333
1564.634	4210.83333
1567.684	4208.83333
1570.731	4214.5
1573.776	4272.16667
1576.819	4324.83333
1579.859	4382.16667
1582.898	4412.16667
1585.934	4470.83333
1588.968	4488.16667
1591.999	4462.16667
1595.029	4490.5
1598.056	4501.83333
1601.081	4530.16667
1604.104	4532.16667
1607.125	4461.5
1610.144	4371.5
1613.16	4314.16667
1616.174	4195.5
1619.186	4097.16667
1622.196	3947.16667
1625.203	3867.16667
1628.209	3816.83333
1631.212	3755.16667
1634.213	3771.5
1637.212	3757.5
1640.209	3686.83333
1643.203	3592.83333
1646.196	3476.83333
1649.186	3325.5
1652.174	3218.83333
1655.16	3097.83333
1658.144	3012.16667
1661.125	2871.16667
1664.105	2747.16667
1667.082	2615.83333
1670.057	2486.83333
1673.03	2354.5
1676.001	2201.16667
1678.97	2062.5
1681.937	1941.16667
1684.901	1830.83333
1687.863	1780.5
1690.824	1679.16667
1693.782	1649.83333
1696.738	1596.5
1699.692	1555.5
1702.643	1517.83333
1705.593	1495.83333
1708.54	1481.5
1711.486	1450.16667
1714.429	1412.83333
1717.37	1423.83333
1720.309	1385.16667
1723.246	1389.83333
1726.181	1380.83333
1729.113	1363.5
1732.044	1345.83333
1734.972	1325.16667
1737.899	1335.16667
1740.823	1335.5
1743.745	1289.5
1746.665	1281.16667
1749.583	1257.16667
1752.499	1257.5
1755.413	1237.16667
1758.325	1200.83333
1761.235	1200.83333
1764.142	1166.16667
1767.048	1166.83333
1769.951	1164.83333
1772.852	1157.83333
1775.752	1140.83333
1778.649	1141.83333
1781.544	1142.83333
1784.437	1117.83333
1787.328	1128.16667
1790.217	1115.16667
1793.104	1083.5
1795.989	1082.83333
1798.872	1077.83333
1801.753	1084.5
1804.631	1091.5
1807.508	1085.16667
1810.383	1085.16667
1813.255	1072.5
1816.126	1078.83333
1818.994	1066.83333
1821.861	1052.16667
1824.725	1042.16667
1827.587	1050.16667
1830.448	1033.16667
1833.306	1019.16667
1836.162	1031.5
1839.017	1027.5
1841.869	1016.16667
1844.719	1022.16667
1847.567	993.5
1850.414	1002.83333
1853.258	980.83333
1856.1	1011.83333
1858.94	1011.83333
1861.778	994.16667
1864.614	992.83333
1867.448	985.83333
1870.28	973.83333
1873.111	1002.16667
1875.939	990.83333
1878.765	990.5
1881.589	971.83333
1884.411	980.16667
1887.231	978.5
1890.049	975.83333
1892.865	966.83333
1895.68	950.16667
1898.492	960.5
1901.302	963.83333
1904.11	947.16667
1906.916	949.5
1909.721	932.16667
1912.523	937.16667
1915.323	924.5
1918.122	920.16667
1920.918	930.83333
1923.712	917.5
1926.505	911.5
1929.295	913.16667
1932.084	926.5
1934.87	920.5
1937.655	911.5
1940.438	896.83333
1943.218	908.5
1945.997	909.16667
1948.774	921.16667
1951.549	921.5
1954.322	897.83333
1957.093	896.5
1959.862	897.5
1962.629	896.83333
1965.394	867.16667
1968.157	873.5
1970.918	887.83333
1973.678	865.5
1976.435	882.83333
1979.19	865.5
1981.944	852.5
1984.696	854.5
1987.445	856.83333
1990.193	851.83333
1992.939	871.83333
1995.683	855.5
1998.425	831.16667
2001.165	857.5
2003.903	838.16667
2006.639	841.5
2009.374	846.5
2012.106	852.16667
2014.837	825.16667
2017.566	838.16667
2020.292	825.83333
2023.017	835.16667
2025.74	816.83333
2028.461	813.5
2031.18	818.83333
2033.898	811.5
2036.613	805.5
2039.327	814.16667
2042.038	805.5
2044.748	796.83333
2047.456	809.5
2050.162	788.83333
2052.866	795.5
2055.568	803.16667
2058.268	790.16667
2060.967	790.5
2063.663	774.16667
2066.358	781.16667
2069.051	790.16667
2071.742	788.5
2074.431	783.16667
2077.118	781.83333
2079.804	785.5
2082.487	790.16667
2085.169	779.83333
2087.849	804.83333
2090.527	773.16667
2093.203	784.5
2095.877	807.5
2098.55	796.83333
2101.22	795.5
2103.889	812.16667
2106.556	817.83333
2109.221	842.83333
2111.884	856.83333
2114.546	921.5
2117.205	971.5
2119.863	1044.16667
2122.519	1128.83333
2125.173	1203.5
2127.825	1262.83333
2130.475	1266.5
2133.124	1228.5
2135.771	1157.16667
2138.416	1124.5
2141.059	1035.83333
2143.7	991.83333
2146.339	939.5
2148.977	890.5
2151.613	865.16667
2154.247	855.16667
2156.879	822.16667
2159.51	794.5
2162.138	779.16667
2164.765	776.16667
2167.39	754.83333
2170.013	772.16667
2172.634	748.5
2175.254	738.5
2177.872	772.5
2180.488	715.83333
2183.102	729.5
2185.714	714.5
2188.325	686.5
2190.934	694.5
2193.541	706.5
2196.146	698.83333
2198.75	689.83333
2201.351	677.16667
2203.951	668.16667
2206.549	686.16667
2209.146	670.16667
2211.74	654.83333
2214.333	671.83333
2216.924	649.5
2219.514	655.16667
2222.101	645.5
2224.687	670.5
2227.271	649.16667
2229.853	624.5
2232.433	629.16667
2235.012	651.16667
2237.589	635.16667
2240.164	648.16667
2242.738	632.16667
2245.309	626.5
2247.879	627.83333
2250.448	627.16667
2253.014	602.16667
2255.579	601.83333
2258.142	608.5
2260.703	593.16667
2263.262	595.5
2265.82	596.16667
2268.376	596.16667
2270.93	571.5
2273.483	563.5
2276.033	590.16667
2278.583	579.16667
2281.13	568.5
2283.675	561.16667
2286.219	561.83333
2288.761	585.16667
2291.302	573.5
2293.841	576.16667
2296.377	544.16667
2298.913	547.5
2301.446	567.5
2303.978	564.16667
2306.508	542.83333
2309.037	548.83333
2311.563	549.5
2314.088	560.16667
2316.612	514.5
2319.133	540.83333
2321.653	548.16667
2324.171	526.83333
2326.688	549.16667
2329.202	530.83333
2331.715	536.83333
2334.227	522.83333
2336.736	529.83333
2339.244	513.16667
2341.751	512.5
2344.255	522.83333
2346.758	516.16667
2349.259	501.5
2351.759	516.16667
2354.257	508.16667
2356.753	498.16667
2359.247	502.16667
2361.74	516.5
2364.231	507.16667
2366.721	513.16667
2369.209	500.5
2371.695	506.16667
2374.179	502.83333
2376.662	490.16667
2379.143	500.5
2381.622	494.83333
2384.1	499.16667
2386.576	490.16667
2389.051	505.16667
2391.524	503.16667
2393.995	504.5
2396.464	484.83333
2398.932	489.5
2401.398	483.5
2403.863	479.5
2406.325	472.5
2408.787	484.83333
2411.246	482.5
2413.704	473.5
2416.16	471.83333
2418.615	479.16667
2421.068	480.5
2423.519	478.16667
2425.969	465.5
2428.417	476.16667
2430.863	485.5
2433.308	482.83333
2435.751	473.5
2438.193	467.83333
2440.633	461.83333
2443.071	469.16667
2445.508	454.83333
2447.943	455.83333
2450.376	451.5
2452.808	461.83333
2455.238	453.16667
2457.667	493.16667
2460.093	449.16667
2462.519	440.5
2464.942	449.16667
2467.365	457.16667
2469.785	449.83333
2472.204	451.5
2474.621	435.16667
2477.037	458.5
2479.451	422.83333
2481.863	427.83333
2484.274	433.5
2486.683	430.83333
2489.091	443.5
2491.497	447.5
2493.901	441.5
2496.304	446.16667
2498.705	451.83333
2501.105	431.16667
2503.503	457.5
2505.899	414.16667
2508.294	444.5
2510.687	431.83333
2513.079	435.5
2515.469	425.16667
2517.858	424.83333
2520.245	424.5
2522.63	411.5
2525.014	413.83333
2527.396	413.16667
2529.776	407.16667
2532.156	432.5
2534.533	412.5
2536.909	404.5
2539.283	400.83333
2541.656	404.5
2544.027	429.5
2546.397	407.5
2548.765	410.5
2551.131	407.5
2553.496	412.5
2555.86	409.16667
2558.221	412.83333
2560.582	397.5
2562.94	402.5
2565.298	408.16667
2567.653	415.83333
2570.007	392.16667
2572.36	410.16667
2574.711	393.5
2577.06	415.5
2579.408	401.83333
2581.754	402.16667
2584.099	399.83333
2586.442	387.5
2588.784	394.5
2591.124	398.83333
2593.463	398.83333
2595.8	405.16667
2598.135	386.16667
2600.469	379.16667
2602.802	395.16667
2605.133	408.5
2607.462	380.16667
2609.79	380.83333
2612.116	396.83333
2614.441	393.83333
2616.764	389.16667
2619.086	389.83333
2621.406	375.83333
2623.725	397.83333
2626.042	393.16667
2628.358	376.83333
2630.672	373.83333
2632.985	394.16667
2635.296	390.16667
2637.606	384.5
2639.914	380.16667
2642.22	383.83333
2644.525	378.16667
2646.829	388.83333
2649.131	394.83333
2651.432	398.83333
2653.731	389.83333
2656.028	398.5
2658.324	399.83333
2660.619	378.5
2662.912	401.83333
2665.204	373.83333
2667.494	390.83333
2669.782	382.5
2672.07	394.83333
2674.355	392.5
2676.639	380.83333
2678.922	376.16667
2681.203	383.16667
2683.483	371.83333
2685.761	381.5
2688.038	387.83333
2690.313	403.16667
2692.587	384.83333
2694.859	386.5
2697.13	389.83333
2699.399	401.5
2701.667	404.16667
2703.933	399.83333
2706.198	407.83333
2708.461	411.5
2710.723	408.83333
2712.984	406.5
2715.243	410.5
2717.5	401.16667
2719.757	413.5
2722.011	415.5
2724.264	422.5
2726.516	425.5
2728.766	408.83333
2731.015	427.83333
2733.262	419.83333
2735.508	413.83333
2737.753	416.16667
2739.996	397.5
2742.237	398.5
2744.477	406.16667
2746.716	418.16667
2748.953	403.5
2751.189	407.5
2753.423	393.83333
2755.656	383.5
2757.887	379.83333
2760.117	379.5
2762.346	382.16667
2764.573	368.83333
2766.798	380.83333
2769.022	380.16667
2771.245	392.83333
2773.467	390.16667
2775.686	392.83333
2777.905	392.5
2780.122	395.83333
2782.337	401.83333
2784.552	391.16667
2786.764	399.5
2788.976	412.5
2791.186	407.83333
2793.394	410.16667
2795.601	423.83333
2797.807	428.16667
2800.011	433.16667
2802.214	441.16667
2804.415	444.16667
2806.615	440.83333
2808.814	446.16667
2811.011	446.16667
2813.206	453.5
2815.401	472.83333
2817.594	481.5
2819.785	491.5
2821.975	480.16667
2824.164	485.16667
2826.351	506.83333
2828.537	512.83333
2830.722	527.5
2832.905	529.16667
2835.086	562.5
2837.267	587.83333
2839.445	598.5
2841.623	624.16667
2843.799	647.16667
2845.974	679.5
2848.147	714.5
2850.319	736.16667
2852.489	773.5
2854.659	782.5
2856.826	791.5
2858.993	825.16667
2861.158	804.16667
2863.321	805.83333
2865.483	817.16667
2867.644	816.16667
2869.804	808.16667
2871.962	815.16667
2874.118	818.16667
2876.274	822.83333
2878.428	818.83333
2880.58	823.16667
2882.731	809.5
2884.881	804.83333
2887.03	826.5
2889.177	815.5
2891.322	837.16667
2893.467	822.16667
2895.61	830.5
2897.751	836.5
2899.892	840.83333
2902.03	848.16667
2904.168	855.16667
2906.304	853.16667
2908.439	863.5
2910.572	849.16667
2912.704	878.5
2914.835	869.16667
2916.965	863.5
2919.093	879.16667
2921.219	854.5
2923.345	863.16667
2925.469	843.83333
2927.591	837.16667
2929.712	812.16667
2931.832	803.5
2933.951	782.83333
2936.068	778.5
2938.184	758.5
2940.299	729.5
2942.412	706.5
2944.524	672.16667
2946.634	665.83333
2948.744	608.83333
2950.851	632.16667
2952.958	596.5
2955.063	586.83333
2957.167	583.83333
2959.269	547.83333
2961.371	570.16667
2963.471	537.5
2965.569	534.83333
2967.666	505.83333
2969.762	506.16667
2971.857	492.83333
2973.95	468.5
2976.042	464.5
2978.133	456.16667
2980.222	437.83333
2982.31	417.83333
2984.396	400.16667
2986.482	404.16667
2988.566	391.16667
2990.648	387.83333
2992.73	377.16667
2994.81	374.5
2996.889	371.16667
2998.966	366.83333
3001.042	371.16667
3003.117	362.83333
3005.191	353.83333
3007.263	364.83333
3009.334	347.83333
3011.403	353.83333
3013.472	337.16667
3015.539	337.5
3017.604	344.83333
3019.669	310.16667
3021.732	312.5
3023.794	307.83333
3025.854	305.83333
3027.914	310.83333
3029.971	313.83333
3032.028	294.16667
3034.083	304.83333
3036.137	292.5
3038.19	282.16667
3040.242	281.83333
3042.292	269.83333
3044.341	264.83333
3046.388	285.83333
3048.435	261.5
3050.48	279.16667
3052.524	270.16667
3054.566	253.83333
3056.607	263.16667
3058.647	255.16667
3060.686	239.83333
3062.723	238.83333
3064.759	224.5
3066.794	-0.5
3068.828	0.16667
3070.86	3.83333
