-0.839	672.875
3.438	802.20833
7.711	237.20833
11.981	66.875
16.247	49.875
20.509	47.875
24.768	44.875
29.024	54.54167
33.276	45.20833
37.524	48.875
41.769	48.54167
46.01	31.875
50.247	44.875
54.481	63.875
58.712	64.20833
62.939	49.20833
67.162	58.875
71.382	56.875
75.599	43.875
79.812	61.20833
84.021	85.875
88.227	63.20833
92.429	60.20833
96.628	53.20833
100.823	77.875
105.015	78.54167
109.204	68.875
113.388	80.54167
117.57	77.20833
121.748	87.875
125.922	81.20833
130.093	100.875
134.261	97.54167
138.425	100.20833
142.585	143.20833
146.742	136.54167
150.896	162.54167
155.046	206.875
159.193	319.20833
163.336	548.875
167.476	994.875
171.613	1832.20833
175.746	3066.54167
179.875	4608.875
184.002	5994.20833
188.124	6964.875
192.244	7320.20833
196.36	7253.54167
200.472	7027.54167
204.581	6822.54167
208.687	6656.54167
212.79	6534.875
216.889	6506.54167
220.984	6493.875
225.077	6503.54167
229.165	6491.875
233.251	6499.20833
237.333	6436.20833
241.412	6355.54167
245.487	6260.20833
249.559	6211.54167
253.628	6184.54167
257.694	6144.20833
261.756	6053.54167
265.814	5923.875
269.87	5688.20833
273.922	5532.54167
277.97	5416.875
282.016	5371.875
286.058	5384.54167
290.097	5509.54167
294.132	5571.20833
298.164	5507.20833
302.193	5254.20833
306.219	4860.54167
310.241	4456.20833
314.26	4100.20833
318.276	3839.20833
322.288	3662.54167
326.297	3489.54167
330.303	3374.54167
334.305	3297.875
338.305	3235.54167
342.301	3187.20833
346.294	3160.875
350.283	3157.875
354.269	3140.875
358.252	3090.54167
362.232	3069.54167
366.209	3068.54167
370.182	3018.875
374.152	3024.875
378.119	3010.875
382.083	3031.875
386.043	3020.54167
390	2992.875
393.954	3001.20833
397.905	3002.20833
401.852	2992.875
405.797	2933.20833
409.738	2932.20833
413.676	2915.875
417.61	2899.54167
421.542	2870.20833
425.47	2849.20833
429.396	2837.875
433.318	2823.54167
437.236	2807.54167
441.152	2845.54167
445.065	2793.875
448.974	2786.54167
452.88	2751.875
456.783	2756.20833
460.683	2713.54167
464.58	2750.54167
468.473	2715.875
472.364	2745.875
476.251	2770.54167
480.135	2779.54167
484.016	2817.54167
487.894	2835.54167
491.769	2848.20833
495.641	2838.54167
499.509	2859.54167
503.375	2864.20833
507.237	2872.20833
511.096	2836.875
514.952	2864.20833
518.805	2883.54167
522.655	2916.54167
526.502	2841.20833
530.346	2806.54167
534.187	2807.20833
538.024	2822.875
541.859	2851.20833
545.69	2855.20833
549.519	2850.875
553.344	2843.54167
557.166	2788.875
560.985	2759.20833
564.802	2718.20833
568.615	2670.875
572.425	2628.20833
576.232	2610.20833
580.036	2600.20833
583.836	2619.54167
587.634	2641.54167
591.429	2638.54167
595.221	2707.875
599.01	2706.20833
602.796	2741.54167
606.578	2743.54167
610.358	2763.54167
614.135	2714.875
617.909	2702.875
621.679	2697.54167
625.447	2676.20833
629.212	2680.20833
632.973	2679.54167
636.732	2665.20833
640.488	2673.875
644.241	2631.54167
647.991	2636.54167
651.737	2643.54167
655.481	2601.20833
659.222	2614.54167
662.96	2614.54167
666.695	2635.54167
670.427	2656.20833
674.156	2663.875
677.882	2655.20833
681.605	2641.20833
685.325	2634.20833
689.043	2650.20833
692.757	2584.20833
696.468	2600.20833
700.177	2593.54167
703.882	2590.20833
707.585	2584.54167
711.284	2551.54167
714.981	2567.54167
718.675	2565.875
722.366	2585.20833
726.054	2555.54167
729.739	2569.20833
733.421	2571.875
737.1	2564.875
740.777	2593.875
744.45	2608.54167
748.121	2624.20833
751.789	2691.20833
755.453	2652.20833
759.115	2681.54167
762.774	2694.875
766.431	2693.54167
770.084	2737.875
773.734	2767.54167
777.382	2813.875
781.027	2844.54167
784.669	2843.875
788.308	2856.875
791.944	2897.54167
795.577	2894.20833
799.208	2932.20833
802.835	2939.54167
806.46	2933.54167
810.082	2939.54167
813.701	2939.875
817.317	2963.875
820.931	2966.875
824.542	2956.875
828.149	2931.54167
831.754	2924.875
835.357	2945.54167
838.956	2964.20833
842.553	2928.875
846.146	2917.54167
849.737	2885.20833
853.326	2902.20833
856.911	2907.875
860.493	2952.54167
864.073	2939.54167
867.65	3008.20833
871.225	3048.875
874.796	3046.54167
878.365	3055.20833
881.931	3074.20833
885.494	3095.54167
889.054	3145.875
892.612	3181.875
896.166	3174.875
899.719	3157.875
903.268	3084.875
906.814	3041.20833
910.358	2985.20833
913.899	2957.875
917.438	2926.875
920.973	2915.875
924.506	2947.54167
928.036	2978.875
931.564	3028.54167
935.088	3056.20833
938.61	3074.875
942.129	3112.20833
945.646	3207.875
949.16	3258.54167
952.671	3305.20833
956.179	3293.54167
959.685	3236.20833
963.188	3206.875
966.688	3165.875
970.185	3084.875
973.68	3014.20833
977.173	2989.54167
980.662	2963.875
984.149	2943.20833
987.633	2967.875
991.114	3005.20833
994.593	3061.54167
998.069	3148.20833
1001.542	3237.54167
1005.013	3181.875
1008.481	2995.875
1011.947	2944.20833
1015.409	2948.20833
1018.869	2933.875
1022.327	2943.54167
1025.782	2905.875
1029.234	2932.20833
1032.683	2867.20833
1036.13	2757.875
1039.574	2662.875
1043.016	2604.20833
1046.455	2541.875
1049.891	2522.54167
1053.325	2531.875
1056.756	2534.875
1060.184	2567.54167
1063.61	2555.54167
1067.033	2582.20833
1070.454	2589.20833
1073.872	2621.54167
1077.287	2608.20833
1080.7	2591.54167
1084.11	2597.54167
1087.517	2571.54167
1090.922	2564.875
1094.325	2512.875
1097.724	2509.54167
1101.122	2497.54167
1104.516	2514.54167
1107.908	2520.20833
1111.298	2560.54167
1114.684	2586.20833
1118.069	2625.54167
1121.45	2659.875
1124.83	2655.54167
1128.206	2673.54167
1131.58	2727.54167
1134.951	2774.875
1138.32	2881.54167
1141.687	2961.54167
1145.05	3043.20833
1148.412	3034.54167
1151.77	3049.875
1155.126	3012.875
1158.48	3003.875
1161.831	3004.875
1165.18	3022.20833
1168.525	3068.20833
1171.869	3093.875
1175.21	3120.54167
1178.548	3151.20833
1181.884	3186.875
1185.217	3226.54167
1188.548	3278.20833
1191.877	3342.875
1195.202	3400.54167
1198.526	3509.20833
1201.846	3533.54167
1205.165	3514.875
1208.48	3492.20833
1211.794	3468.20833
1215.104	3509.875
1218.413	3512.54167
1221.719	3474.54167
1225.022	3471.54167
1228.323	3427.875
1231.621	3368.20833
1234.917	3336.875
1238.21	3380.875
1241.501	3365.20833
1244.79	3351.20833
1248.076	3342.20833
1251.359	3386.54167
1254.64	3482.20833
1257.919	3518.875
1261.195	3547.20833
1264.468	3615.54167
1267.74	3651.54167
1271.008	3656.54167
1274.275	3639.20833
1277.538	3618.54167
1280.8	3615.20833
1284.059	3615.54167
1287.315	3624.54167
1290.569	3651.20833
1293.821	3686.20833
1297.07	3691.20833
1300.317	3720.875
1303.562	3703.875
1306.803	3665.875
1310.043	3647.54167
1313.28	3601.875
1316.515	3578.54167
1319.747	3608.54167
1322.977	3546.875
1326.204	3520.54167
1329.429	3457.875
1332.652	3437.54167
1335.872	3410.20833
1339.09	3357.54167
1342.306	3325.875
1345.519	3291.54167
1348.729	3250.54167
1351.938	3240.875
1355.144	3195.875
1358.347	3171.875
1361.548	3169.875
1364.747	3139.875
1367.944	3119.875
1371.138	3133.54167
1374.329	3158.54167
1377.518	3214.20833
1380.705	3234.20833
1383.89	3208.20833
1387.072	3098.54167
1390.252	2977.875
1393.429	2873.54167
1396.605	2797.875
1399.777	2728.20833
1402.948	2698.20833
1406.116	2706.20833
1409.282	2684.20833
1412.445	2680.20833
1415.606	2742.20833
1418.765	2758.875
1421.921	2817.20833
1425.075	2847.20833
1428.227	2919.875
1431.376	3042.54167
1434.524	3112.20833
1437.668	3198.54167
1440.811	3291.20833
1443.951	3295.875
1447.089	3318.875
1450.224	3291.875
1453.357	3255.875
1456.488	3224.54167
1459.617	3180.54167
1462.743	3131.20833
1465.867	3017.54167
1468.989	3011.20833
1472.108	2942.875
1475.225	2901.54167
1478.34	2860.875
1481.453	2850.20833
1484.563	2865.875
1487.671	2910.54167
1490.776	2924.20833
1493.88	2992.20833
1496.981	3040.875
1500.08	3117.875
1503.176	3153.20833
1506.271	3201.20833
1509.363	3247.20833
1512.452	3285.20833
1515.54	3310.54167
1518.625	3327.20833
1521.708	3421.875
1524.789	3537.875
1527.867	3678.875
1530.944	3855.54167
1534.018	4046.20833
1537.089	4203.20833
1540.159	4245.20833
1543.226	4220.54167
1546.291	4155.20833
1549.354	4092.875
1552.415	3994.54167
1555.473	3903.54167
1558.529	3830.20833
1561.583	3780.20833
1564.634	3790.20833
1567.684	3745.54167
1570.731	3779.54167
1573.776	3786.875
1576.819	3844.54167
1579.859	3873.20833
1582.898	3887.54167
1585.934	3942.20833
1588.968	3958.54167
1591.999	3944.54167
1595.029	3954.20833
1598.056	3986.20833
1601.081	4029.875
1604.104	3988.20833
1607.125	3961.875
1610.144	3886.54167
1613.16	3788.875
1616.174	3696.54167
1619.186	3602.20833
1622.196	3486.54167
1625.203	3405.20833
1628.209	3343.875
1631.212	3295.54167
1634.213	3293.875
1637.212	3285.875
1640.209	3227.54167
1643.203	3134.54167
1646.196	3038.875
1649.186	2915.54167
1652.174	2823.20833
1655.16	2726.54167
1658.144	2640.20833
1661.125	2523.20833
1664.105	2413.875
1667.082	2306.54167
1670.057	2196.875
1673.03	2066.875
1676.001	1943.54167
1678.97	1823.20833
1681.937	1710.20833
1684.901	1594.875
1687.863	1562.20833
1690.824	1486.20833
1693.782	1459.54167
1696.738	1390.20833
1699.692	1372.54167
1702.643	1319.54167
1705.593	1315.875
1708.54	1294.20833
1711.486	1293.875
1714.429	1238.54167
1717.37	1242.20833
1720.309	1206.875
1723.246	1207.20833
1726.181	1187.20833
1729.113	1175.54167
1732.044	1167.875
1734.972	1151.54167
1737.899	1146.875
1740.823	1145.20833
1743.745	1111.20833
1746.665	1100.875
1749.583	1080.54167
1752.499	1069.875
1755.413	1081.54167
1758.325	1038.20833
1761.235	1028.54167
1764.142	1009.20833
1767.048	1001.54167
1769.951	1005.875
1772.852	998.54167
1775.752	980.54167
1778.649	976.54167
1781.544	983.20833
1784.437	953.875
1787.328	967.875
1790.217	960.20833
1793.104	929.875
1795.989	949.20833
1798.872	926.54167
1801.753	943.54167
1804.631	936.20833
1807.508	934.54167
1810.383	916.20833
1813.255	922.20833
1816.126	924.20833
1818.994	915.875
1821.861	907.20833
1824.725	893.875
1827.587	905.54167
1830.448	884.54167
1833.306	880.20833
1836.162	888.20833
1839.017	869.875
1841.869	867.875
1844.719	864.20833
1847.567	845.54167
1850.414	838.20833
1853.258	848.875
1856.1	861.875
1858.94	866.20833
1861.778	852.54167
1864.614	838.20833
1867.448	849.54167
1870.28	830.20833
1873.111	853.54167
1875.939	834.54167
1878.765	854.875
1881.589	830.20833
1884.411	835.875
1887.231	845.875
1890.049	834.54167
1892.865	839.875
1895.68	818.54167
1898.492	823.875
1901.302	814.54167
1904.11	811.54167
1906.916	801.20833
1909.721	797.54167
1912.523	807.875
1915.323	783.54167
1918.122	792.20833
1920.918	790.20833
1923.712	779.54167
1926.505	773.875
1929.295	771.875
1932.084	778.20833
1934.87	776.875
1937.655	778.20833
1940.438	777.54167
1943.218	776.875
1945.997	785.54167
1948.774	783.875
1951.549	776.54167
1954.322	771.54167
1957.093	762.54167
1959.862	755.20833
1962.629	753.20833
1965.394	757.54167
1968.157	749.54167
1970.918	744.54167
1973.678	740.20833
1976.435	750.875
1979.19	728.875
1981.944	730.54167
1984.696	742.20833
1987.445	715.20833
1990.193	739.875
1992.939	741.20833
1995.683	725.20833
1998.425	704.20833
2001.165	732.54167
2003.903	707.54167
2006.639	722.20833
2009.374	711.20833
2012.106	716.54167
2014.837	693.20833
2017.566	708.54167
2020.292	712.54167
2023.017	714.20833
2025.74	707.20833
2028.461	694.20833
2031.18	696.54167
2033.898	690.54167
2036.613	698.875
2039.327	698.875
2042.038	676.20833
2044.748	693.20833
2047.456	697.54167
2050.162	669.20833
2052.866	676.54167
2055.568	690.20833
2058.268	678.54167
2060.967	688.54167
2063.663	665.20833
2066.358	671.54167
2069.051	659.20833
2071.742	667.20833
2074.431	672.875
2077.118	673.875
2079.804	665.20833
2082.487	665.20833
2085.169	664.54167
2087.849	690.54167
2090.527	659.54167
2093.203	680.54167
2095.877	673.875
2098.55	682.20833
2101.22	686.20833
2103.889	686.54167
2106.556	702.20833
2109.221	721.20833
2111.884	724.54167
2114.546	792.20833
2117.205	844.875
2119.863	919.20833
2122.519	983.875
2125.173	1036.20833
2127.825	1092.20833
2130.475	1085.20833
2133.124	1054.20833
2135.771	1007.54167
2138.416	962.54167
2141.059	875.875
2143.7	846.20833
2146.339	803.54167
2148.977	738.20833
2151.613	732.875
2154.247	715.20833
2156.879	700.20833
2159.51	680.54167
2162.138	664.20833
2164.765	662.875
2167.39	632.875
2170.013	661.875
2172.634	650.54167
2175.254	634.20833
2177.872	660.54167
2180.488	616.20833
2183.102	618.54167
2185.714	612.54167
2188.325	589.875
2190.934	594.20833
2193.541	595.20833
2196.146	600.20833
2198.75	577.54167
2201.351	590.875
2203.951	575.54167
2206.549	604.20833
2209.146	576.20833
2211.74	571.20833
2214.333	569.20833
2216.924	543.54167
2219.514	567.875
2222.101	562.875
2224.687	583.54167
2227.271	552.54167
2229.853	558.20833
2232.433	536.875
2235.012	552.54167
2237.589	555.54167
2240.164	559.20833
2242.738	544.54167
2245.309	539.54167
2247.879	549.54167
2250.448	551.20833
2253.014	526.875
2255.579	512.20833
2258.142	513.54167
2260.703	514.54167
2263.262	518.54167
2265.82	511.54167
2268.376	515.20833
2270.93	497.875
2273.483	491.20833
2276.033	508.875
2278.583	498.20833
2281.13	492.20833
2283.675	494.875
2286.219	487.54167
2288.761	497.54167
2291.302	505.20833
2293.841	505.54167
2296.377	473.20833
2298.913	487.54167
2301.446	491.20833
2303.978	477.875
2306.508	469.20833
2309.037	477.54167
2311.563	476.54167
2314.088	484.875
2316.612	465.54167
2319.133	468.20833
2321.653	475.875
2324.171	466.54167
2326.688	476.20833
2329.202	463.20833
2331.715	472.54167
2334.227	459.875
2336.736	461.54167
2339.244	466.20833
2341.751	436.20833
2344.255	461.20833
2346.758	457.875
2349.259	448.54167
2351.759	454.20833
2354.257	438.20833
2356.753	443.20833
2359.247	451.875
2361.74	454.20833
2364.231	454.875
2366.721	451.20833
2369.209	437.54167
2371.695	440.54167
2374.179	438.54167
2376.662	432.54167
2379.143	455.20833
2381.622	437.54167
2384.1	442.875
2386.576	430.875
2389.051	441.875
2391.524	450.54167
2393.995	445.54167
2396.464	436.875
2398.932	422.20833
2401.398	424.54167
2403.863	432.20833
2406.325	424.54167
2408.787	423.20833
2411.246	426.875
2413.704	414.875
2416.16	428.54167
2418.615	416.54167
2421.068	433.875
2423.519	435.20833
2425.969	414.875
2428.417	427.54167
2430.863	447.875
2433.308	426.875
2435.751	418.875
2438.193	416.54167
2440.633	420.875
2443.071	426.20833
2445.508	415.20833
2447.943	415.54167
2450.376	404.875
2452.808	410.875
2455.238	397.875
2457.667	450.54167
2460.093	407.54167
2462.519	398.54167
2464.942	416.54167
2467.365	408.20833
2469.785	416.20833
2472.204	406.20833
2474.621	390.20833
2477.037	418.875
2479.451	386.54167
2481.863	390.54167
2484.274	393.875
2486.683	402.875
2489.091	407.20833
2491.497	399.875
2493.901	406.54167
2496.304	394.54167
2498.705	396.20833
2501.105	395.875
2503.503	419.20833
2505.899	382.54167
2508.294	403.20833
2510.687	403.54167
2513.079	396.20833
2515.469	388.875
2517.858	397.54167
2520.245	401.875
2522.63	390.54167
2525.014	380.875
2527.396	379.20833
2529.776	380.20833
2532.156	393.20833
2534.533	383.875
2536.909	372.20833
2539.283	367.20833
2541.656	369.20833
2544.027	397.875
2546.397	381.20833
2548.765	374.54167
2551.131	376.875
2553.496	376.20833
2555.86	391.20833
2558.221	385.20833
2560.582	376.54167
2562.94	369.875
2565.298	377.20833
2567.653	394.54167
2570.007	372.54167
2572.36	384.875
2574.711	372.20833
2577.06	387.875
2579.408	383.54167
2581.754	368.20833
2584.099	382.20833
2586.442	376.875
2588.784	377.54167
2591.124	381.20833
2593.463	367.20833
2595.8	378.20833
2598.135	360.20833
2600.469	362.875
2602.802	377.54167
2605.133	377.875
2607.462	366.54167
2609.79	356.20833
2612.116	369.875
2614.441	371.54167
2616.764	371.20833
2619.086	372.54167
2621.406	351.20833
2623.725	386.875
2626.042	375.20833
2628.358	367.54167
2630.672	366.875
2632.985	379.54167
2635.296	370.875
2637.606	373.875
2639.914	358.20833
2642.22	367.20833
2644.525	369.20833
2646.829	379.20833
2649.131	383.54167
2651.432	374.54167
2653.731	375.20833
2656.028	381.54167
2658.324	385.20833
2660.619	383.54167
2662.912	384.20833
2665.204	368.875
2667.494	386.875
2669.782	368.875
2672.07	374.54167
2674.355	391.54167
2676.639	380.54167
2678.922	374.875
2681.203	372.875
2683.483	369.875
2685.761	369.875
2688.038	388.875
2690.313	398.54167
2692.587	381.20833
2694.859	374.875
2697.13	390.20833
2699.399	391.875
2701.667	386.875
2703.933	390.875
2706.198	391.875
2708.461	402.875
2710.723	398.20833
2712.984	397.20833
2715.243	407.20833
2717.5	394.54167
2719.757	409.875
2722.011	404.875
2724.264	405.875
2726.516	426.54167
2728.766	398.20833
2731.015	413.875
2733.262	405.54167
2735.508	412.20833
2737.753	411.54167
2739.996	397.875
2742.237	398.875
2744.477	412.54167
2746.716	414.875
2748.953	403.20833
2751.189	402.54167
2753.423	397.54167
2755.656	386.20833
2757.887	391.54167
2760.117	384.20833
2762.346	374.20833
2764.573	372.54167
2766.798	382.875
2769.022	382.20833
2771.245	384.20833
2773.467	385.875
2775.686	400.54167
2777.905	393.20833
2780.122	401.875
2782.337	404.54167
2784.552	407.54167
2786.764	392.54167
2788.976	410.875
2791.186	413.54167
2793.394	408.875
2795.601	420.875
2797.807	429.875
2800.011	437.54167
2802.214	438.20833
2804.415	439.54167
2806.615	443.20833
2808.814	443.875
2811.011	449.54167
2813.206	447.54167
2815.401	472.20833
2817.594	472.875
2819.785	484.875
2821.975	473.875
2824.164	476.875
2826.351	492.20833
2828.537	500.875
2830.722	513.54167
2832.905	515.54167
2835.086	554.20833
2837.267	567.20833
2839.445	577.54167
2841.623	605.54167
2843.799	628.20833
2845.974	642.875
2848.147	680.875
2850.319	693.54167
2852.489	725.875
2854.659	729.20833
2856.826	744.54167
2858.993	766.20833
2861.158	750.54167
2863.321	759.20833
2865.483	774.54167
2867.644	769.20833
2869.804	768.875
2871.962	762.54167
2874.118	751.54167
2876.274	761.875
2878.428	765.54167
2880.58	751.875
2882.731	749.54167
2884.881	739.875
2887.03	768.54167
2889.177	756.20833
2891.322	762.875
2893.467	776.20833
2895.61	770.54167
2897.751	798.875
2899.892	774.875
2902.03	781.20833
2904.168	801.875
2906.304	787.875
2908.439	824.875
2910.572	796.20833
2912.704	817.20833
2914.835	817.54167
2916.965	813.875
2919.093	822.54167
2921.219	795.54167
2923.345	819.875
2925.469	790.20833
2927.591	774.875
2929.712	768.54167
2931.832	767.20833
2933.951	741.875
2936.068	731.54167
2938.184	720.875
2940.299	698.54167
2942.412	677.20833
2944.524	651.875
2946.634	638.875
2948.744	601.54167
2950.851	623.54167
2952.958	582.20833
2955.063	583.875
2957.167	579.20833
2959.269	545.875
2961.371	565.20833
2963.471	534.20833
2965.569	539.54167
2967.666	510.20833
2969.762	510.20833
2971.857	504.875
2973.95	483.875
2976.042	487.875
2978.133	463.20833
2980.222	453.20833
2982.31	445.875
2984.396	424.54167
2986.482	426.875
2988.566	412.875
2990.648	419.54167
2992.73	410.54167
2994.81	405.54167
2996.889	400.20833
2998.966	396.20833
3001.042	399.875
3003.117	394.20833
3005.191	398.54167
3007.263	394.20833
3009.334	382.875
3011.403	383.20833
3013.472	363.875
3015.539	375.20833
3017.604	377.875
3019.669	342.875
3021.732	346.54167
3023.794	351.20833
3025.854	344.875
3027.914	342.20833
3029.971	356.20833
3032.028	345.54167
3034.083	337.54167
3036.137	340.875
3038.19	325.20833
3040.242	316.54167
3042.292	308.875
3044.341	314.54167
3046.388	325.875
3048.435	299.54167
3050.48	316.875
3052.524	314.20833
3054.566	293.54167
3056.607	307.54167
3058.647	296.54167
3060.686	277.875
3062.723	271.20833
3064.759	260.875
3066.794	-1.125
3068.828	0.54167
3070.86	1.54167
