-0.839	596.58333
3.438	707.25
7.711	210.58333
11.981	66.25
16.247	47.91667
20.509	50.58333
24.768	48.25
29.024	57.58333
33.276	45.91667
37.524	51.91667
41.769	49.91667
46.01	35.58333
50.247	45.58333
54.481	60.25
58.712	63.91667
62.939	51.91667
67.162	62.25
71.382	58.58333
75.599	47.25
79.812	65.25
84.021	80.25
88.227	67.91667
92.429	63.58333
96.628	58.25
100.823	73.91667
105.015	77.91667
109.204	71.58333
113.388	80.25
117.57	79.25
121.748	89.25
125.922	89.25
130.093	108.91667
134.261	102.58333
138.425	112.58333
142.585	146.91667
146.742	136.58333
150.896	173.58333
155.046	230.91667
159.193	352.25
163.336	594.25
167.476	1105.91667
171.613	1998.91667
175.746	3323.58333
179.875	4932.58333
184.002	6455.58333
188.124	7533.25
192.244	7882.58333
196.36	7823.25
200.472	7667.91667
204.581	7396.25
208.687	7244.58333
212.79	7160.58333
216.889	7191.25
220.984	7208.91667
225.077	7209.58333
229.165	7233.25
233.251	7225.91667
237.333	7188.58333
241.412	7094.25
245.487	7021.58333
249.559	6934.25
253.628	6930.58333
257.694	6833.25
261.756	6779.25
265.814	6664.58333
269.87	6473.58333
273.922	6262.91667
277.97	6163.91667
282.016	6115.91667
286.058	6130.25
290.097	6242.25
294.132	6319.58333
298.164	6285.91667
302.193	6026.25
306.219	5586.58333
310.241	5150.91667
314.26	4759.58333
318.276	4426.58333
322.288	4248.25
326.297	4021.58333
330.303	3920.58333
334.305	3828.91667
338.305	3758.91667
342.301	3716.91667
346.294	3693.25
350.283	3684.91667
354.269	3642.58333
358.252	3633.25
362.232	3597.91667
366.209	3597.91667
370.182	3558.91667
374.152	3533.25
378.119	3565.91667
382.083	3565.91667
386.043	3553.25
390	3509.91667
393.954	3540.58333
397.905	3494.91667
401.852	3517.58333
405.797	3462.91667
409.738	3477.58333
413.676	3447.58333
417.61	3429.58333
421.542	3393.25
425.47	3387.25
429.396	3368.58333
433.318	3361.58333
437.236	3358.91667
441.152	3382.58333
445.065	3315.91667
448.974	3305.58333
452.88	3272.25
456.783	3262.25
460.683	3250.58333
464.58	3242.58333
468.473	3239.91667
472.364	3264.58333
476.251	3280.58333
480.135	3340.91667
484.016	3366.58333
487.894	3369.91667
491.769	3375.58333
495.641	3386.25
499.509	3395.25
503.375	3400.91667
507.237	3402.58333
511.096	3370.25
514.952	3361.58333
518.805	3380.25
522.655	3369.58333
526.502	3322.58333
530.346	3354.58333
534.187	3334.25
538.024	3372.58333
541.859	3385.58333
545.69	3416.91667
549.519	3417.91667
553.344	3354.25
557.166	3335.25
560.985	3276.58333
564.802	3229.91667
568.615	3180.25
572.425	3128.91667
576.232	3133.91667
580.036	3113.25
583.836	3132.91667
587.634	3138.58333
591.429	3143.58333
595.221	3204.58333
599.01	3240.91667
602.796	3275.58333
606.578	3261.25
610.358	3280.25
614.135	3274.58333
617.909	3233.25
621.679	3211.25
625.447	3198.91667
629.212	3200.25
632.973	3182.58333
636.732	3185.91667
640.488	3193.25
644.241	3131.25
647.991	3137.25
651.737	3150.25
655.481	3168.58333
659.222	3159.91667
662.96	3149.25
666.695	3193.25
670.427	3182.91667
674.156	3201.58333
677.882	3188.58333
681.605	3152.58333
685.325	3120.91667
689.043	3138.25
692.757	3120.58333
696.468	3104.25
700.177	3101.58333
703.882	3075.58333
707.585	3056.25
711.284	3064.91667
714.981	3041.58333
718.675	3061.58333
722.366	3053.91667
726.054	3045.91667
729.739	3037.58333
733.421	3057.58333
737.1	3040.91667
740.777	3096.91667
744.45	3105.91667
748.121	3112.58333
751.789	3153.91667
755.453	3138.58333
759.115	3199.25
762.774	3199.91667
766.431	3200.91667
770.084	3271.25
773.734	3278.91667
777.382	3319.91667
781.027	3329.25
784.669	3343.91667
788.308	3352.91667
791.944	3383.58333
795.577	3383.25
799.208	3385.58333
802.835	3442.91667
806.46	3440.25
810.082	3468.25
813.701	3448.58333
817.317	3521.91667
820.931	3528.58333
824.542	3500.91667
828.149	3466.25
831.754	3418.25
835.357	3405.25
838.956	3437.58333
842.553	3423.58333
846.146	3399.58333
849.737	3371.25
853.326	3367.58333
856.911	3366.91667
860.493	3431.58333
864.073	3421.25
867.65	3460.91667
871.225	3513.58333
874.796	3537.91667
878.365	3522.25
881.931	3562.91667
885.494	3622.58333
889.054	3625.58333
892.612	3671.91667
896.166	3671.91667
899.719	3655.91667
903.268	3549.25
906.814	3510.25
910.358	3477.25
913.899	3447.58333
917.438	3421.58333
920.973	3415.58333
924.506	3450.91667
928.036	3508.58333
931.564	3554.25
935.088	3573.25
938.61	3610.58333
942.129	3632.58333
945.646	3707.91667
949.16	3759.91667
952.671	3817.58333
956.179	3807.58333
959.685	3757.58333
963.188	3769.91667
966.688	3716.25
970.185	3625.91667
973.68	3573.91667
977.173	3496.25
980.662	3448.25
984.149	3419.25
987.633	3410.25
991.114	3484.58333
994.593	3546.91667
998.069	3640.25
1001.542	3712.25
1005.013	3650.25
1008.481	3487.91667
1011.947	3414.58333
1015.409	3394.91667
1018.869	3387.91667
1022.327	3378.25
1025.782	3391.58333
1029.234	3387.58333
1032.683	3337.58333
1036.13	3214.25
1039.574	3101.25
1043.016	3023.91667
1046.455	2973.58333
1049.891	2947.25
1053.325	2965.58333
1056.756	2961.91667
1060.184	2981.91667
1063.61	3004.91667
1067.033	2996.25
1070.454	3001.91667
1073.872	3022.58333
1077.287	3027.91667
1080.7	3023.58333
1084.11	3016.58333
1087.517	2997.91667
1090.922	2957.58333
1094.325	2922.25
1097.724	2912.91667
1101.122	2924.91667
1104.516	2879.25
1107.908	2895.58333
1111.298	2956.91667
1114.684	2964.91667
1118.069	3011.25
1121.45	3059.58333
1124.83	3036.91667
1128.206	3087.58333
1131.58	3141.25
1134.951	3196.58333
1138.32	3298.58333
1141.687	3414.91667
1145.05	3455.58333
1148.412	3482.58333
1151.77	3426.25
1155.126	3445.91667
1158.48	3427.91667
1161.831	3451.58333
1165.18	3464.91667
1168.525	3515.58333
1171.869	3586.25
1175.21	3560.91667
1178.548	3627.58333
1181.884	3646.91667
1185.217	3711.91667
1188.548	3770.58333
1191.877	3866.25
1195.202	3946.25
1198.526	4053.25
1201.846	4065.91667
1205.165	4039.91667
1208.48	4010.25
1211.794	4044.25
1215.104	4039.91667
1218.413	4014.25
1221.719	4020.91667
1225.022	3970.25
1228.323	3895.58333
1231.621	3860.25
1234.917	3842.25
1238.21	3852.91667
1241.501	3816.91667
1244.79	3807.58333
1248.076	3814.91667
1251.359	3872.58333
1254.64	3936.58333
1257.919	3932.91667
1261.195	3997.58333
1264.468	4059.91667
1267.74	4118.58333
1271.008	4113.25
1274.275	4121.91667
1277.538	4112.25
1280.8	4095.91667
1284.059	4095.25
1287.315	4128.58333
1290.569	4150.58333
1293.821	4157.58333
1297.07	4212.25
1300.317	4189.58333
1303.562	4202.58333
1306.803	4190.58333
1310.043	4156.25
1313.28	4105.91667
1316.515	4093.58333
1319.747	4063.25
1322.977	4022.25
1326.204	4016.58333
1329.429	3973.58333
1332.652	3973.58333
1335.872	3967.25
1339.09	3878.91667
1342.306	3853.91667
1345.519	3794.91667
1348.729	3748.25
1351.938	3740.91667
1355.144	3705.58333
1358.347	3632.58333
1361.548	3617.25
1364.747	3600.25
1367.944	3595.25
1371.138	3587.91667
1374.329	3606.91667
1377.518	3627.25
1380.705	3691.25
1383.89	3655.25
1387.072	3541.91667
1390.252	3430.25
1393.429	3296.58333
1396.605	3193.25
1399.777	3113.91667
1402.948	3083.58333
1406.116	3066.25
1409.282	3096.91667
1412.445	3089.58333
1415.606	3120.58333
1418.765	3166.25
1421.921	3190.58333
1425.075	3263.25
1428.227	3344.91667
1431.376	3461.25
1434.524	3580.58333
1437.668	3681.58333
1440.811	3728.25
1443.951	3773.25
1447.089	3779.91667
1450.224	3769.91667
1453.357	3751.58333
1456.488	3688.58333
1459.617	3637.91667
1462.743	3578.25
1465.867	3507.91667
1468.989	3449.58333
1472.108	3412.91667
1475.225	3350.58333
1478.34	3311.91667
1481.453	3284.25
1484.563	3289.25
1487.671	3349.58333
1490.776	3394.58333
1493.88	3433.25
1496.981	3487.91667
1500.08	3528.91667
1503.176	3595.25
1506.271	3625.25
1509.363	3671.58333
1512.452	3711.58333
1515.54	3763.58333
1518.625	3804.25
1521.708	3893.25
1524.789	4018.25
1527.867	4173.91667
1530.944	4378.91667
1534.018	4555.25
1537.089	4717.91667
1540.159	4770.91667
1543.226	4743.91667
1546.291	4696.91667
1549.354	4577.25
1552.415	4488.25
1555.473	4373.25
1558.529	4316.58333
1561.583	4261.58333
1564.634	4221.58333
1567.684	4229.58333
1570.731	4241.58333
1573.776	4284.91667
1576.819	4352.25
1579.859	4383.91667
1582.898	4435.25
1585.934	4486.58333
1588.968	4516.25
1591.999	4493.58333
1595.029	4495.91667
1598.056	4531.25
1601.081	4535.58333
1604.104	4537.25
1607.125	4485.25
1610.144	4412.91667
1613.16	4303.58333
1616.174	4206.91667
1619.186	4124.25
1622.196	4038.91667
1625.203	3915.91667
1628.209	3855.25
1631.212	3822.58333
1634.213	3787.91667
1637.212	3785.91667
1640.209	3742.25
1643.203	3639.25
1646.196	3523.58333
1649.186	3397.58333
1652.174	3299.91667
1655.16	3140.58333
1658.144	3042.91667
1661.125	2926.58333
1664.105	2807.58333
1667.082	2679.58333
1670.057	2530.25
1673.03	2395.25
1676.001	2236.91667
1678.97	2092.25
1681.937	1980.58333
1684.901	1858.25
1687.863	1802.91667
1690.824	1706.58333
1693.782	1678.58333
1696.738	1614.91667
1699.692	1600.91667
1702.643	1555.25
1705.593	1523.91667
1708.54	1498.58333
1711.486	1497.91667
1714.429	1455.58333
1717.37	1431.58333
1720.309	1432.25
1723.246	1431.25
1726.181	1395.91667
1729.113	1388.91667
1732.044	1384.25
1734.972	1354.58333
1737.899	1369.91667
1740.823	1358.25
1743.745	1334.25
1746.665	1310.58333
1749.583	1284.58333
1752.499	1280.58333
1755.413	1266.91667
1758.325	1226.91667
1761.235	1225.58333
1764.142	1207.58333
1767.048	1184.58333
1769.951	1191.25
1772.852	1178.91667
1775.752	1163.58333
1778.649	1165.25
1781.544	1162.91667
1784.437	1141.25
1787.328	1156.25
1790.217	1142.25
1793.104	1119.25
1795.989	1105.58333
1798.872	1110.58333
1801.753	1120.91667
1804.631	1115.25
1807.508	1120.25
1810.383	1116.91667
1813.255	1106.25
1816.126	1091.25
1818.994	1104.58333
1821.861	1076.25
1824.725	1081.91667
1827.587	1073.58333
1830.448	1063.25
1833.306	1020.25
1836.162	1052.25
1839.017	1042.58333
1841.869	1042.58333
1844.719	1048.25
1847.567	1013.91667
1850.414	1016.25
1853.258	1016.25
1856.1	1044.58333
1858.94	1029.58333
1861.778	1024.91667
1864.614	1003.25
1867.448	1014.25
1870.28	1003.91667
1873.111	1020.25
1875.939	1021.91667
1878.765	1018.91667
1881.589	1004.25
1884.411	1003.58333
1887.231	1002.58333
1890.049	997.58333
1892.865	993.25
1895.68	989.58333
1898.492	991.91667
1901.302	978.25
1904.11	970.91667
1906.916	962.91667
1909.721	950.58333
1912.523	973.25
1915.323	950.58333
1918.122	934.25
1920.918	956.91667
1923.712	944.58333
1926.505	930.91667
1929.295	925.58333
1932.084	947.91667
1934.87	936.25
1937.655	924.58333
1940.438	929.58333
1943.218	938.25
1945.997	936.91667
1948.774	925.25
1951.549	941.58333
1954.322	913.58333
1957.093	928.91667
1959.862	907.58333
1962.629	894.91667
1965.394	901.58333
1968.157	886.58333
1970.918	887.25
1973.678	875.91667
1976.435	894.25
1979.19	881.58333
1981.944	868.25
1984.696	870.58333
1987.445	859.91667
1990.193	872.58333
1992.939	891.91667
1995.683	871.91667
1998.425	844.58333
2001.165	891.91667
2003.903	857.58333
2006.639	853.91667
2009.374	873.25
2012.106	860.25
2014.837	849.25
2017.566	851.91667
2020.292	850.91667
2023.017	848.58333
2025.74	841.58333
2028.461	835.58333
2031.18	837.25
2033.898	823.25
2036.613	829.91667
2039.327	834.58333
2042.038	818.91667
2044.748	825.25
2047.456	826.91667
2050.162	805.58333
2052.866	808.91667
2055.568	815.58333
2058.268	809.25
2060.967	808.91667
2063.663	798.58333
2066.358	796.25
2069.051	785.58333
2071.742	799.58333
2074.431	806.25
2077.118	792.58333
2079.804	786.91667
2082.487	796.25
2085.169	796.58333
2087.849	812.58333
2090.527	793.58333
2093.203	797.25
2095.877	815.91667
2098.55	817.91667
2101.22	815.91667
2103.889	821.58333
2106.556	825.91667
2109.221	844.25
2111.884	873.25
2114.546	928.58333
2117.205	988.58333
2119.863	1060.25
2122.519	1138.25
2125.173	1218.91667
2127.825	1278.91667
2130.475	1284.25
2133.124	1237.91667
2135.771	1182.91667
2138.416	1127.58333
2141.059	1058.25
2143.7	1004.91667
2146.339	949.25
2148.977	896.91667
2151.613	889.58333
2154.247	860.58333
2156.879	832.25
2159.51	805.58333
2162.138	789.25
2164.765	780.58333
2167.39	760.58333
2170.013	790.58333
2172.634	768.58333
2175.254	756.25
2177.872	781.58333
2180.488	739.25
2183.102	748.91667
2185.714	733.91667
2188.325	701.91667
2190.934	712.91667
2193.541	713.25
2196.146	708.91667
2198.75	696.58333
2201.351	700.58333
2203.951	681.25
2206.549	699.25
2209.146	685.25
2211.74	674.25
2214.333	680.91667
2216.924	656.91667
2219.514	678.58333
2222.101	663.58333
2224.687	671.25
2227.271	660.25
2229.853	658.91667
2232.433	636.91667
2235.012	668.91667
2237.589	657.91667
2240.164	670.25
2242.738	642.25
2245.309	638.58333
2247.879	637.91667
2250.448	638.91667
2253.014	613.91667
2255.579	600.25
2258.142	618.58333
2260.703	613.25
2263.262	608.91667
2265.82	601.58333
2268.376	593.58333
2270.93	587.25
2273.483	585.91667
2276.033	588.91667
2278.583	579.25
2281.13	587.91667
2283.675	567.91667
2286.219	569.58333
2288.761	573.25
2291.302	576.91667
2293.841	592.25
2296.377	561.91667
2298.913	567.58333
2301.446	570.91667
2303.978	567.25
2306.508	557.91667
2309.037	564.25
2311.563	555.25
2314.088	560.58333
2316.612	545.91667
2319.133	551.25
2321.653	548.91667
2324.171	543.58333
2326.688	562.91667
2329.202	542.25
2331.715	539.91667
2334.227	533.25
2336.736	539.25
2339.244	534.58333
2341.751	525.91667
2344.255	534.91667
2346.758	532.25
2349.259	510.91667
2351.759	519.58333
2354.257	519.91667
2356.753	510.58333
2359.247	520.58333
2361.74	530.58333
2364.231	524.58333
2366.721	521.91667
2369.209	514.91667
2371.695	500.25
2374.179	500.25
2376.662	493.91667
2379.143	514.91667
2381.622	498.25
2384.1	510.91667
2386.576	502.25
2389.051	519.58333
2391.524	517.91667
2393.995	506.91667
2396.464	494.58333
2398.932	498.91667
2401.398	494.91667
2403.863	502.91667
2406.325	495.91667
2408.787	484.91667
2411.246	487.58333
2413.704	489.58333
2416.16	482.58333
2418.615	480.58333
2421.068	491.25
2423.519	486.58333
2425.969	467.91667
2428.417	479.58333
2430.863	500.91667
2433.308	490.58333
2435.751	478.91667
2438.193	479.25
2440.633	469.91667
2443.071	482.25
2445.508	471.91667
2447.943	472.25
2450.376	457.58333
2452.808	468.91667
2455.238	461.58333
2457.667	495.25
2460.093	454.91667
2462.519	447.58333
2464.942	458.58333
2467.365	457.58333
2469.785	454.91667
2472.204	466.91667
2474.621	445.91667
2477.037	459.91667
2479.451	435.91667
2481.863	439.58333
2484.274	440.25
2486.683	447.58333
2489.091	456.91667
2491.497	431.25
2493.901	447.25
2496.304	439.58333
2498.705	446.91667
2501.105	437.91667
2503.503	465.58333
2505.899	425.91667
2508.294	458.58333
2510.687	428.91667
2513.079	440.25
2515.469	425.58333
2517.858	432.58333
2520.245	447.91667
2522.63	424.91667
2525.014	424.91667
2527.396	414.25
2529.776	412.25
2532.156	420.25
2534.533	426.58333
2536.909	416.25
2539.283	399.58333
2541.656	415.58333
2544.027	435.91667
2546.397	413.58333
2548.765	414.25
2551.131	413.25
2553.496	407.91667
2555.86	416.91667
2558.221	414.25
2560.582	415.25
2562.94	402.58333
2565.298	411.91667
2567.653	427.58333
2570.007	390.91667
2572.36	419.58333
2574.711	393.91667
2577.06	417.25
2579.408	419.58333
2581.754	402.91667
2584.099	399.25
2586.442	405.91667
2588.784	404.91667
2591.124	398.91667
2593.463	400.91667
2595.8	408.58333
2598.135	391.91667
2600.469	400.91667
2602.802	401.25
2605.133	409.58333
2607.462	386.91667
2609.79	383.25
2612.116	397.58333
2614.441	400.58333
2616.764	393.58333
2619.086	396.58333
2621.406	384.58333
2623.725	407.58333
2626.042	397.58333
2628.358	387.58333
2630.672	386.58333
2632.985	400.91667
2635.296	392.25
2637.606	392.25
2639.914	380.91667
2642.22	383.91667
2644.525	389.58333
2646.829	389.58333
2649.131	394.58333
2651.432	410.25
2653.731	388.58333
2656.028	392.91667
2658.324	414.58333
2660.619	394.58333
2662.912	392.58333
2665.204	380.91667
2667.494	394.58333
2669.782	385.58333
2672.07	394.25
2674.355	396.58333
2676.639	387.91667
2678.922	383.58333
2681.203	390.25
2683.483	379.91667
2685.761	384.25
2688.038	397.25
2690.313	403.91667
2692.587	388.58333
2694.859	383.25
2697.13	398.25
2699.399	400.25
2701.667	398.58333
2703.933	404.91667
2706.198	404.58333
2708.461	411.25
2710.723	415.91667
2712.984	415.91667
2715.243	417.91667
2717.5	406.91667
2719.757	424.58333
2722.011	410.25
2724.264	425.25
2726.516	436.25
2728.766	417.58333
2731.015	428.91667
2733.262	429.91667
2735.508	417.58333
2737.753	419.25
2739.996	410.58333
2742.237	406.25
2744.477	422.25
2746.716	420.25
2748.953	397.25
2751.189	410.58333
2753.423	394.91667
2755.656	386.91667
2757.887	381.91667
2760.117	396.58333
2762.346	383.58333
2764.573	377.58333
2766.798	389.91667
2769.022	383.91667
2771.245	392.58333
2773.467	385.58333
2775.686	408.58333
2777.905	390.91667
2780.122	411.58333
2782.337	400.25
2784.552	398.91667
2786.764	412.91667
2788.976	401.25
2791.186	416.58333
2793.394	417.91667
2795.601	425.58333
2797.807	434.25
2800.011	445.91667
2802.214	436.58333
2804.415	450.25
2806.615	438.58333
2808.814	449.58333
2811.011	462.25
2813.206	452.58333
2815.401	476.25
2817.594	470.25
2819.785	483.91667
2821.975	484.91667
2824.164	490.25
2826.351	494.25
2828.537	516.91667
2830.722	538.58333
2832.905	530.25
2835.086	565.58333
2837.267	599.91667
2839.445	606.58333
2841.623	614.25
2843.799	645.58333
2845.974	685.25
2848.147	714.58333
2850.319	755.91667
2852.489	780.58333
2854.659	787.25
2856.826	798.25
2858.993	827.25
2861.158	808.91667
2863.321	819.25
2865.483	815.25
2867.644	826.25
2869.804	813.25
2871.962	816.91667
2874.118	816.91667
2876.274	826.25
2878.428	810.58333
2880.58	808.91667
2882.731	809.58333
2884.881	817.58333
2887.03	832.25
2889.177	813.91667
2891.322	832.91667
2893.467	821.25
2895.61	820.58333
2897.751	840.58333
2899.892	834.58333
2902.03	846.91667
2904.168	849.91667
2906.304	842.25
2908.439	885.58333
2910.572	870.25
2912.704	880.58333
2914.835	884.91667
2916.965	860.25
2919.093	880.58333
2921.219	851.58333
2923.345	866.25
2925.469	844.25
2927.591	836.25
2929.712	806.25
2931.832	811.58333
2933.951	789.25
2936.068	777.58333
2938.184	762.58333
2940.299	723.25
2942.412	712.58333
2944.524	667.58333
2946.634	666.58333
2948.744	617.25
2950.851	641.58333
2952.958	596.58333
2955.063	590.91667
2957.167	581.91667
2959.269	552.58333
2961.371	566.25
2963.471	532.91667
2965.569	542.91667
2967.666	508.91667
2969.762	511.91667
2971.857	492.25
2973.95	472.25
2976.042	475.91667
2978.133	460.25
2980.222	445.58333
2982.31	424.58333
2984.396	401.58333
2986.482	403.91667
2988.566	393.25
2990.648	393.91667
2992.73	381.25
2994.81	372.91667
2996.889	375.58333
2998.966	369.58333
3001.042	375.25
3003.117	363.25
3005.191	365.58333
3007.263	357.25
3009.334	338.25
3011.403	357.91667
3013.472	330.58333
3015.539	341.58333
3017.604	345.25
3019.669	309.25
3021.732	312.25
3023.794	315.58333
3025.854	313.25
3027.914	306.58333
3029.971	314.91667
3032.028	299.25
3034.083	305.91667
3036.137	293.58333
3038.19	278.91667
3040.242	287.91667
3042.292	267.91667
3044.341	271.91667
3046.388	290.25
3048.435	263.58333
3050.48	285.58333
3052.524	269.91667
3054.566	253.91667
3056.607	271.58333
3058.647	258.91667
3060.686	245.25
3062.723	238.58333
3064.759	225.58333
3066.794	0.25
3068.828	3.91667
3070.86	0.91667
