-0.839	465.45833
3.438	541.79167
7.711	167.125
11.981	60.45833
16.247	43.45833
20.509	53.79167
24.768	45.125
29.024	55.79167
33.276	44.79167
37.524	49.125
41.769	44.45833
46.01	34.125
50.247	45.125
54.481	56.79167
58.712	61.45833
62.939	49.45833
67.162	64.125
71.382	56.125
75.599	45.79167
79.812	64.125
84.021	81.79167
88.227	61.79167
92.429	59.45833
96.628	54.45833
100.823	73.45833
105.015	75.45833
109.204	69.79167
113.388	74.79167
117.57	69.79167
121.748	88.125
125.922	80.125
130.093	96.125
134.261	95.45833
138.425	97.125
142.585	135.45833
146.742	129.125
150.896	155.79167
155.046	197.79167
159.193	305.125
163.336	513.125
167.476	968.79167
171.613	1771.125
175.746	2913.45833
179.875	4297.79167
184.002	5607.79167
188.124	6428.79167
192.244	6769.45833
196.36	6649.79167
200.472	6492.45833
204.581	6260.45833
208.687	6101.45833
212.79	6001.45833
216.889	5950.125
220.984	5937.79167
225.077	5955.125
229.165	5889.79167
233.251	5931.79167
237.333	5878.45833
241.412	5789.79167
245.487	5726.45833
249.559	5669.79167
253.628	5635.125
257.694	5594.79167
261.756	5561.79167
265.814	5438.45833
269.87	5325.79167
273.922	5168.45833
277.97	5073.45833
282.016	5062.79167
286.058	5099.125
290.097	5206.45833
294.132	5262.125
298.164	5280.45833
302.193	5059.125
306.219	4730.79167
310.241	4358.125
314.26	4055.125
318.276	3778.125
322.288	3603.45833
326.297	3466.125
330.303	3383.45833
334.305	3272.45833
338.305	3274.45833
342.301	3217.79167
346.294	3188.125
350.283	3148.79167
354.269	3161.125
358.252	3125.45833
362.232	3129.79167
366.209	3108.125
370.182	3080.79167
374.152	3087.125
378.119	3083.45833
382.083	3060.125
386.043	3072.125
390	3057.45833
393.954	3061.79167
397.905	3064.45833
401.852	3042.45833
405.797	3025.45833
409.738	3020.45833
413.676	3027.79167
417.61	3018.125
421.542	2999.45833
425.47	2993.45833
429.396	2955.45833
433.318	2953.125
437.236	2926.79167
441.152	2989.125
445.065	2914.125
448.974	2908.45833
452.88	2874.125
456.783	2864.125
460.683	2868.125
464.58	2850.45833
468.473	2891.125
472.364	2883.45833
476.251	2909.125
480.135	2929.79167
484.016	2969.125
487.894	2991.125
491.769	2992.79167
495.641	3001.45833
499.509	3005.125
503.375	3019.125
507.237	3026.45833
511.096	2996.125
514.952	3111.79167
518.805	3244.79167
522.655	3279.125
526.502	3107.79167
530.346	2993.79167
534.187	2952.79167
538.024	2980.125
541.859	2951.79167
545.69	2990.45833
549.519	2970.45833
553.344	2954.79167
557.166	2911.79167
560.985	2898.125
564.802	2852.45833
568.615	2821.45833
572.425	2724.45833
576.232	2772.79167
580.036	2756.125
583.836	2764.79167
587.634	2793.45833
591.429	2789.125
595.221	2839.45833
599.01	2857.79167
602.796	2880.125
606.578	2915.79167
610.358	2877.45833
614.135	2864.79167
617.909	2862.45833
621.679	2826.79167
625.447	2816.125
629.212	2795.79167
632.973	2805.45833
636.732	2801.125
640.488	2804.125
644.241	2805.125
647.991	2774.79167
651.737	2781.125
655.481	2770.125
659.222	2771.79167
662.96	2777.79167
666.695	2809.125
670.427	2809.45833
674.156	2815.125
677.882	2805.45833
681.605	2784.45833
685.325	2757.125
689.043	2770.125
692.757	2747.79167
696.468	2749.45833
700.177	2745.45833
703.882	2724.125
707.585	2725.45833
711.284	2693.79167
714.981	2691.79167
718.675	2691.79167
722.366	2722.125
726.054	2684.45833
729.739	2687.125
733.421	2704.45833
737.1	2688.125
740.777	2705.125
744.45	2701.79167
748.121	2727.45833
751.789	2767.45833
755.453	2746.79167
759.115	2767.125
762.774	2780.79167
766.431	2801.79167
770.084	2819.79167
773.734	2832.125
777.382	2874.45833
781.027	2888.79167
784.669	2886.45833
788.308	2875.45833
791.944	2921.45833
795.577	2921.125
799.208	2967.79167
802.835	2965.45833
806.46	2963.45833
810.082	2995.79167
813.701	3001.79167
817.317	3034.125
820.931	3021.125
824.542	3005.79167
828.149	2963.125
831.754	2955.45833
835.357	2923.125
838.956	2947.45833
842.553	2945.125
846.146	2891.79167
849.737	2894.79167
853.326	2877.79167
856.911	2867.125
860.493	2911.79167
864.073	2942.79167
867.65	2947.125
871.225	2968.79167
874.796	2994.45833
878.365	2985.125
881.931	3009.79167
885.494	3024.45833
889.054	3039.125
892.612	3091.45833
896.166	3086.125
899.719	3060.125
903.268	2992.45833
906.814	2984.79167
910.358	2914.125
913.899	2864.45833
917.438	2893.45833
920.973	2865.125
924.506	2890.125
928.036	2936.79167
931.564	2977.45833
935.088	3021.125
938.61	3017.45833
942.129	3035.125
945.646	3118.125
949.16	3142.45833
952.671	3174.45833
956.179	3182.45833
959.685	3127.79167
963.188	3140.45833
966.688	3128.125
970.185	3042.79167
973.68	2963.79167
977.173	2927.79167
980.662	2890.125
984.149	2902.79167
987.633	2859.79167
991.114	2914.45833
994.593	2972.45833
998.069	3036.79167
1001.542	3129.79167
1005.013	3052.45833
1008.481	2921.45833
1011.947	2875.45833
1015.409	2847.45833
1018.869	2859.45833
1022.327	2863.45833
1025.782	2826.125
1029.234	2863.79167
1032.683	2822.125
1036.13	2724.125
1039.574	2639.45833
1043.016	2577.45833
1046.455	2506.79167
1049.891	2495.79167
1053.325	2512.45833
1056.756	2508.125
1060.184	2510.79167
1063.61	2549.45833
1067.033	2552.125
1070.454	2534.79167
1073.872	2571.125
1077.287	2554.125
1080.7	2599.45833
1084.11	2545.79167
1087.517	2546.125
1090.922	2495.79167
1094.325	2476.79167
1097.724	2437.45833
1101.122	2468.45833
1104.516	2456.125
1107.908	2439.125
1111.298	2469.79167
1114.684	2492.125
1118.069	2544.79167
1121.45	2555.45833
1124.83	2563.79167
1128.206	2577.45833
1131.58	2621.125
1134.951	2678.125
1138.32	2749.45833
1141.687	2838.45833
1145.05	2884.79167
1148.412	2884.125
1151.77	2846.45833
1155.126	2827.79167
1158.48	2796.79167
1161.831	2832.125
1165.18	2825.125
1168.525	2872.79167
1171.869	2897.125
1175.21	2907.79167
1178.548	2923.79167
1181.884	2951.45833
1185.217	2998.79167
1188.548	3049.125
1191.877	3092.79167
1195.202	3181.45833
1198.526	3261.45833
1201.846	3270.79167
1205.165	3264.45833
1208.48	3290.45833
1211.794	3245.79167
1215.104	3263.79167
1218.413	3269.125
1221.719	3288.79167
1225.022	3226.45833
1228.323	3157.45833
1231.621	3140.125
1234.917	3128.125
1238.21	3148.45833
1241.501	3108.125
1244.79	3104.125
1248.076	3104.125
1251.359	3129.79167
1254.64	3208.79167
1257.919	3222.125
1261.195	3263.79167
1264.468	3318.79167
1267.74	3340.125
1271.008	3335.125
1274.275	3334.79167
1277.538	3318.79167
1280.8	3321.125
1284.059	3331.45833
1287.315	3357.45833
1290.569	3394.125
1293.821	3368.45833
1297.07	3399.45833
1300.317	3425.79167
1303.562	3417.79167
1306.803	3388.45833
1310.043	3366.125
1313.28	3330.79167
1316.515	3309.79167
1319.747	3291.45833
1322.977	3289.125
1326.204	3250.125
1329.429	3234.79167
1332.652	3224.125
1335.872	3230.79167
1339.09	3170.79167
1342.306	3147.79167
1345.519	3102.45833
1348.729	3098.125
1351.938	3075.125
1355.144	3021.79167
1358.347	2971.125
1361.548	2956.125
1364.747	2945.125
1367.944	2921.79167
1371.138	2928.79167
1374.329	2942.125
1377.518	2986.79167
1380.705	2987.125
1383.89	2956.45833
1387.072	2857.125
1390.252	2805.79167
1393.429	2713.45833
1396.605	2637.45833
1399.777	2562.125
1402.948	2560.45833
1406.116	2534.79167
1409.282	2550.45833
1412.445	2522.45833
1415.606	2580.125
1418.765	2611.45833
1421.921	2649.45833
1425.075	2687.45833
1428.227	2735.45833
1431.376	2857.125
1434.524	2922.125
1437.668	2985.45833
1440.811	3045.79167
1443.951	3077.79167
1447.089	3050.45833
1450.224	3060.125
1453.357	3035.79167
1456.488	3008.125
1459.617	2957.79167
1462.743	2911.79167
1465.867	2843.125
1468.989	2791.45833
1472.108	2742.79167
1475.225	2691.125
1478.34	2660.79167
1481.453	2646.79167
1484.563	2655.79167
1487.671	2679.45833
1490.776	2712.79167
1493.88	2721.45833
1496.981	2782.79167
1500.08	2787.79167
1503.176	2842.45833
1506.271	2865.45833
1509.363	2931.79167
1512.452	2947.45833
1515.54	3008.125
1518.625	3021.125
1521.708	3102.45833
1524.789	3137.45833
1527.867	3280.125
1530.944	3410.125
1534.018	3570.45833
1537.089	3711.125
1540.159	3742.45833
1543.226	3742.79167
1546.291	3648.45833
1549.354	3595.45833
1552.415	3527.125
1555.473	3458.125
1558.529	3367.45833
1561.583	3348.45833
1564.634	3293.45833
1567.684	3311.79167
1570.731	3308.45833
1573.776	3354.45833
1576.819	3400.79167
1579.859	3407.79167
1582.898	3447.45833
1585.934	3489.45833
1588.968	3500.45833
1591.999	3503.79167
1595.029	3487.125
1598.056	3500.45833
1601.081	3535.125
1604.104	3534.45833
1607.125	3503.45833
1610.144	3433.79167
1613.16	3353.45833
1616.174	3297.79167
1619.186	3218.125
1622.196	3129.79167
1625.203	3114.125
1628.209	3033.125
1631.212	3017.79167
1634.213	3003.45833
1637.212	3018.79167
1640.209	2993.125
1643.203	2932.125
1646.196	2838.79167
1649.186	2749.125
1652.174	2643.125
1655.16	2564.125
1658.144	2518.79167
1661.125	2390.79167
1664.105	2295.45833
1667.082	2210.45833
1670.057	2112.45833
1673.03	1979.79167
1676.001	1861.79167
1678.97	1755.125
1681.937	1643.125
1684.901	1574.79167
1687.863	1508.45833
1690.824	1449.79167
1693.782	1417.45833
1696.738	1375.45833
1699.692	1346.45833
1702.643	1321.125
1705.593	1307.79167
1708.54	1280.125
1711.486	1277.79167
1714.429	1261.79167
1717.37	1259.45833
1720.309	1229.79167
1723.246	1239.45833
1726.181	1202.79167
1729.113	1219.45833
1732.044	1194.45833
1734.972	1188.79167
1737.899	1198.45833
1740.823	1189.79167
1743.745	1155.125
1746.665	1157.125
1749.583	1140.125
1752.499	1120.125
1755.413	1116.125
1758.325	1086.125
1761.235	1075.45833
1764.142	1062.45833
1767.048	1044.45833
1769.951	1052.125
1772.852	1054.45833
1775.752	1052.79167
1778.649	1052.79167
1781.544	1052.125
1784.437	1022.45833
1787.328	1020.79167
1790.217	1020.125
1793.104	984.45833
1795.989	989.45833
1798.872	985.125
1801.753	1014.79167
1804.631	993.79167
1807.508	1010.125
1810.383	997.79167
1813.255	992.79167
1816.126	984.45833
1818.994	987.45833
1821.861	975.45833
1824.725	978.125
1827.587	963.45833
1830.448	944.125
1833.306	945.45833
1836.162	951.125
1839.017	942.45833
1841.869	937.79167
1844.719	937.79167
1847.567	923.79167
1850.414	918.79167
1853.258	923.79167
1856.1	939.79167
1858.94	934.125
1861.778	932.125
1864.614	913.79167
1867.448	919.45833
1870.28	903.45833
1873.111	942.125
1875.939	925.45833
1878.765	931.125
1881.589	904.45833
1884.411	907.45833
1887.231	922.79167
1890.049	909.79167
1892.865	920.125
1895.68	900.45833
1898.492	907.79167
1901.302	901.79167
1904.11	891.125
1906.916	891.125
1909.721	884.125
1912.523	891.45833
1915.323	872.45833
1918.122	885.125
1920.918	890.45833
1923.712	871.125
1926.505	867.79167
1929.295	860.79167
1932.084	891.79167
1934.87	883.79167
1937.655	863.45833
1940.438	861.125
1943.218	862.125
1945.997	864.79167
1948.774	880.45833
1951.549	864.45833
1954.322	855.45833
1957.093	872.45833
1959.862	849.45833
1962.629	841.125
1965.394	855.79167
1968.157	836.125
1970.918	842.125
1973.678	827.45833
1976.435	839.45833
1979.19	834.125
1981.944	832.79167
1984.696	830.45833
1987.445	805.125
1990.193	828.125
1992.939	848.79167
1995.683	824.45833
1998.425	813.125
2001.165	840.79167
2003.903	815.79167
2006.639	825.125
2009.374	836.45833
2012.106	830.125
2014.837	798.45833
2017.566	818.45833
2020.292	816.79167
2023.017	818.79167
2025.74	814.45833
2028.461	813.45833
2031.18	807.79167
2033.898	806.45833
2036.613	804.45833
2039.327	808.79167
2042.038	789.125
2044.748	796.79167
2047.456	796.79167
2050.162	793.125
2052.866	789.79167
2055.568	807.79167
2058.268	792.45833
2060.967	804.125
2063.663	775.125
2066.358	783.45833
2069.051	776.125
2071.742	787.79167
2074.431	793.45833
2077.118	779.125
2079.804	779.45833
2082.487	787.125
2085.169	793.45833
2087.849	811.45833
2090.527	772.45833
2093.203	777.125
2095.877	798.45833
2098.55	802.125
2101.22	806.45833
2103.889	815.45833
2106.556	801.79167
2109.221	830.79167
2111.884	829.79167
2114.546	887.125
2117.205	923.45833
2119.863	992.45833
2122.519	1002.45833
2125.173	1055.79167
2127.825	1112.125
2130.475	1116.79167
2133.124	1057.125
2135.771	1047.79167
2138.416	1014.45833
2141.059	962.125
2143.7	922.79167
2146.339	890.79167
2148.977	838.125
2151.613	849.125
2154.247	822.45833
2156.879	815.45833
2159.51	799.79167
2162.138	789.125
2164.765	791.125
2167.39	763.79167
2170.013	793.45833
2172.634	785.125
2175.254	777.125
2177.872	799.79167
2180.488	760.125
2183.102	765.79167
2185.714	767.125
2188.325	748.125
2190.934	741.45833
2193.541	757.79167
2196.146	740.79167
2198.75	734.45833
2201.351	735.45833
2203.951	718.125
2206.549	750.125
2209.146	722.79167
2211.74	732.45833
2214.333	727.125
2216.924	716.79167
2219.514	728.125
2222.101	727.125
2224.687	731.125
2227.271	722.45833
2229.853	715.79167
2232.433	712.79167
2235.012	728.79167
2237.589	715.79167
2240.164	743.45833
2242.738	717.125
2245.309	708.79167
2247.879	724.45833
2250.448	729.79167
2253.014	702.45833
2255.579	692.45833
2258.142	703.79167
2260.703	698.79167
2263.262	696.125
2265.82	696.125
2268.376	702.125
2270.93	691.45833
2273.483	692.79167
2276.033	695.79167
2278.583	686.45833
2281.13	687.45833
2283.675	682.125
2286.219	687.125
2288.761	689.45833
2291.302	688.45833
2293.841	699.79167
2296.377	669.45833
2298.913	686.79167
2301.446	701.45833
2303.978	690.79167
2306.508	678.125
2309.037	690.79167
2311.563	692.125
2314.088	694.45833
2316.612	680.45833
2319.133	688.125
2321.653	693.45833
2324.171	683.45833
2326.688	702.125
2329.202	680.45833
2331.715	687.125
2334.227	680.125
2336.736	701.125
2339.244	676.79167
2341.751	676.125
2344.255	696.79167
2346.758	696.79167
2349.259	679.45833
2351.759	692.79167
2354.257	681.45833
2356.753	687.45833
2359.247	684.79167
2361.74	702.45833
2364.231	702.125
2366.721	694.45833
2369.209	698.79167
2371.695	689.79167
2374.179	687.125
2376.662	684.125
2379.143	705.125
2381.622	689.79167
2384.1	698.125
2386.576	696.45833
2389.051	703.45833
2391.524	716.79167
2393.995	716.125
2396.464	705.79167
2398.932	695.45833
2401.398	698.125
2403.863	698.45833
2406.325	695.45833
2408.787	704.45833
2411.246	708.79167
2413.704	696.79167
2416.16	702.45833
2418.615	703.45833
2421.068	714.45833
2423.519	718.79167
2425.969	710.125
2428.417	707.45833
2430.863	727.125
2433.308	713.45833
2435.751	711.125
2438.193	714.45833
2440.633	722.79167
2443.071	713.79167
2445.508	705.79167
2447.943	718.125
2450.376	713.125
2452.808	712.45833
2455.238	707.125
2457.667	761.79167
2460.093	710.45833
2462.519	719.79167
2464.942	726.125
2467.365	736.125
2469.785	723.45833
2472.204	729.45833
2474.621	716.125
2477.037	750.45833
2479.451	724.45833
2481.863	718.45833
2484.274	734.125
2486.683	726.45833
2489.091	744.125
2491.497	728.79167
2493.901	746.45833
2496.304	732.45833
2498.705	744.79167
2501.105	733.125
2503.503	776.79167
2505.899	727.125
2508.294	758.125
2510.687	747.79167
2513.079	737.45833
2515.469	746.45833
2517.858	738.125
2520.245	756.79167
2522.63	738.125
2525.014	743.125
2527.396	745.45833
2529.776	736.45833
2532.156	774.79167
2534.533	748.45833
2536.909	739.79167
2539.283	739.79167
2541.656	745.125
2544.027	772.45833
2546.397	762.45833
2548.765	765.79167
2551.131	764.45833
2553.496	764.125
2555.86	769.125
2558.221	767.125
2560.582	769.125
2562.94	761.125
2565.298	771.125
2567.653	782.79167
2570.007	759.79167
2572.36	793.79167
2574.711	774.79167
2577.06	789.45833
2579.408	796.125
2581.754	781.45833
2584.099	792.125
2586.442	793.45833
2588.784	808.125
2591.124	804.79167
2593.463	794.79167
2595.8	808.79167
2598.135	790.45833
2600.469	795.79167
2602.802	811.125
2605.133	818.125
2607.462	799.79167
2609.79	801.125
2612.116	813.79167
2614.441	822.45833
2616.764	817.125
2619.086	805.45833
2621.406	806.79167
2623.725	830.45833
2626.042	832.45833
2628.358	824.79167
2630.672	832.125
2632.985	839.45833
2635.296	844.125
2637.606	835.125
2639.914	825.125
2642.22	849.79167
2644.525	842.45833
2646.829	847.45833
2649.131	864.79167
2651.432	866.45833
2653.731	856.125
2656.028	876.45833
2658.324	880.125
2660.619	863.45833
2662.912	879.125
2665.204	871.45833
2667.494	886.79167
2669.782	864.45833
2672.07	893.125
2674.355	895.125
2676.639	884.45833
2678.922	873.79167
2681.203	880.45833
2683.483	879.79167
2685.761	885.125
2688.038	893.45833
2690.313	920.45833
2692.587	898.45833
2694.859	892.79167
2697.13	910.45833
2699.399	912.79167
2701.667	929.125
2703.933	921.45833
2706.198	931.125
2708.461	935.45833
2710.723	940.79167
2712.984	936.125
2715.243	938.125
2717.5	918.79167
2719.757	968.45833
2722.011	956.125
2724.264	950.79167
2726.516	972.45833
2728.766	963.79167
2731.015	972.125
2733.262	977.79167
2735.508	983.79167
2737.753	978.79167
2739.996	974.79167
2742.237	969.79167
2744.477	976.45833
2746.716	983.125
2748.953	972.79167
2751.189	983.79167
2753.423	959.45833
2755.656	967.125
2757.887	950.125
2760.117	975.79167
2762.346	965.45833
2764.573	961.79167
2766.798	990.79167
2769.022	1042.79167
2771.245	992.79167
2773.467	963.79167
2775.686	993.45833
2777.905	986.79167
2780.122	997.45833
2782.337	995.79167
2784.552	994.125
2786.764	1021.125
2788.976	1019.45833
2791.186	1010.79167
2793.394	1020.125
2795.601	1041.125
2797.807	1048.79167
2800.011	1053.45833
2802.214	1047.45833
2804.415	1060.45833
2806.615	1064.79167
2808.814	1067.45833
2811.011	1071.79167
2813.206	1065.45833
2815.401	1092.45833
2817.594	1090.125
2819.785	1089.45833
2821.975	1086.79167
2824.164	1092.125
2826.351	1106.125
2828.537	1138.45833
2830.722	1116.45833
2832.905	1127.45833
2835.086	1165.45833
2837.267	1190.45833
2839.445	1196.45833
2841.623	1217.45833
2843.799	1236.125
2845.974	1264.79167
2848.147	1298.79167
2850.319	1326.45833
2852.489	1352.125
2854.659	1353.125
2856.826	1353.79167
2858.993	1402.125
2861.158	1365.125
2863.321	1385.79167
2865.483	1397.125
2867.644	1380.79167
2869.804	1391.125
2871.962	1383.125
2874.118	1392.79167
2876.274	1392.125
2878.428	1387.45833
2880.58	1382.79167
2882.731	1373.79167
2884.881	1374.45833
2887.03	1396.79167
2889.177	1384.79167
2891.322	1406.45833
2893.467	1386.79167
2895.61	1387.79167
2897.751	1422.79167
2899.892	1420.125
2902.03	1419.125
2904.168	1424.45833
2906.304	1422.45833
2908.439	1460.125
2910.572	1449.79167
2912.704	1465.45833
2914.835	1471.79167
2916.965	1448.125
2919.093	1483.45833
2921.219	1455.79167
2923.345	1449.79167
2925.469	1459.79167
2927.591	1443.79167
2929.712	1414.45833
2931.832	1402.79167
2933.951	1397.125
2936.068	1377.125
2938.184	1378.79167
2940.299	1333.79167
2942.412	1318.125
2944.524	1304.79167
2946.634	1288.125
2948.744	1266.45833
2950.851	1290.79167
2952.958	1255.125
2955.063	1262.45833
2957.167	1268.125
2959.269	1237.45833
2961.371	1274.125
2963.471	1238.125
2965.569	1251.79167
2967.666	1224.79167
2969.762	1232.79167
2971.857	1215.79167
2973.95	1178.45833
2976.042	1190.79167
2978.133	1169.45833
2980.222	1135.79167
2982.31	1135.125
2984.396	1120.79167
2986.482	1121.45833
2988.566	1107.125
2990.648	1109.125
2992.73	1110.125
2994.81	1092.125
2996.889	1120.125
2998.966	1107.125
3001.042	1111.45833
3003.117	1099.45833
3005.191	1114.125
3007.263	1094.125
3009.334	1092.79167
3011.403	1086.45833
3013.472	1059.79167
3015.539	1051.45833
3017.604	1061.45833
3019.669	1029.45833
3021.732	1029.79167
3023.794	1030.79167
3025.854	1024.45833
3027.914	1022.79167
3029.971	1033.125
3032.028	1032.79167
3034.083	1032.79167
3036.137	1005.125
3038.19	985.45833
3040.242	964.45833
3042.292	934.45833
3044.341	937.45833
3046.388	945.79167
3048.435	919.79167
3050.48	925.125
3052.524	920.45833
3054.566	900.79167
3056.607	914.45833
3058.647	886.79167
3060.686	860.125
3062.723	843.45833
3064.759	801.79167
3066.794	-0.54167
3068.828	2.79167
3070.86	2.125
