-0.839	578.75
3.438	721.75
7.711	209.75
11.981	62.75
16.247	49.08333
20.509	52.08333
24.768	49.08333
29.024	59.08333
33.276	45.41667
37.524	49.08333
41.769	43.75
46.01	34.75
50.247	45.75
54.481	56.75
58.712	64.41667
62.939	46.41667
67.162	66.41667
71.382	59.08333
75.599	51.41667
79.812	60.41667
84.021	80.75
88.227	63.41667
92.429	63.08333
96.628	56.08333
100.823	75.08333
105.015	80.41667
109.204	66.75
113.388	77.41667
117.57	78.75
121.748	92.75
125.922	88.41667
130.093	103.41667
134.261	105.75
138.425	105.75
142.585	151.75
146.742	132.75
150.896	179.75
155.046	225.75
159.193	341.41667
163.336	595.75
167.476	1099.08333
171.613	1985.41667
175.746	3309.41667
179.875	4919.41667
184.002	6421.08333
188.124	7470.41667
192.244	7796.75
196.36	7761.08333
200.472	7540.08333
204.581	7283.75
208.687	7136.41667
212.79	7043.41667
216.889	7060.75
220.984	7096.41667
225.077	7084.75
229.165	7060.41667
233.251	7082.41667
237.333	7036.41667
241.412	6955.41667
245.487	6905.41667
249.559	6812.08333
253.628	6719.08333
257.694	6720.41667
261.756	6636.08333
265.814	6512.41667
269.87	6301.75
273.922	6126.75
277.97	6005.75
282.016	5963.08333
286.058	5992.75
290.097	6100.08333
294.132	6169.75
298.164	6114.75
302.193	5814.75
306.219	5419.41667
310.241	4987.08333
314.26	4593.41667
318.276	4305.41667
322.288	4075.75
326.297	3878.08333
330.303	3774.75
334.305	3677.41667
338.305	3594.75
342.301	3564.75
346.294	3552.08333
350.283	3498.75
354.269	3489.08333
358.252	3449.08333
362.232	3448.75
366.209	3395.75
370.182	3382.41667
374.152	3384.41667
378.119	3382.08333
382.083	3380.75
386.043	3392.41667
390	3365.08333
393.954	3343.41667
397.905	3359.08333
401.852	3325.75
405.797	3265.75
409.738	3270.08333
413.676	3276.08333
417.61	3265.75
421.542	3244.41667
425.47	3217.08333
429.396	3189.75
433.318	3166.08333
437.236	3176.41667
441.152	3188.75
445.065	3151.08333
448.974	3140.08333
452.88	3095.08333
456.783	3099.75
460.683	3091.75
464.58	3071.41667
468.473	3074.08333
472.364	3112.41667
476.251	3093.75
480.135	3129.41667
484.016	3186.08333
487.894	3166.75
491.769	3207.41667
495.641	3229.75
499.509	3224.41667
503.375	3222.08333
507.237	3202.08333
511.096	3192.41667
514.952	3161.75
518.805	3167.08333
522.655	3166.08333
526.502	3160.41667
530.346	3152.75
534.187	3176.08333
538.024	3170.75
541.859	3194.41667
545.69	3250.75
549.519	3208.41667
553.344	3199.75
557.166	3147.41667
560.985	3111.41667
564.802	3041.08333
568.615	3000.75
572.425	2945.08333
576.232	2945.75
580.036	2949.75
583.836	2949.75
587.634	2958.41667
591.429	2974.08333
595.221	3043.08333
599.01	3048.41667
602.796	3124.75
606.578	3120.75
610.358	3103.08333
614.135	3072.41667
617.909	3072.08333
621.679	3024.08333
625.447	3018.41667
629.212	3018.41667
632.973	3013.41667
636.732	2996.75
640.488	3016.08333
644.241	2983.08333
647.991	2986.75
651.737	2978.08333
655.481	2964.08333
659.222	2957.41667
662.96	2965.75
666.695	2980.75
670.427	3005.41667
674.156	3013.41667
677.882	3006.08333
681.605	3003.41667
685.325	2971.41667
689.043	2957.08333
692.757	2943.08333
696.468	2938.75
700.177	2924.08333
703.882	2908.41667
707.585	2895.75
711.284	2912.08333
714.981	2876.41667
718.675	2899.75
722.366	2911.41667
726.054	2878.08333
729.739	2886.75
733.421	2899.75
737.1	2911.75
740.777	2905.75
744.45	2933.41667
748.121	2953.75
751.789	2999.08333
755.453	2992.75
759.115	3009.75
762.774	3039.75
766.431	3031.75
770.084	3091.75
773.734	3118.08333
777.382	3129.08333
781.027	3183.41667
784.669	3181.41667
788.308	3209.75
791.944	3218.41667
795.577	3220.08333
799.208	3257.75
802.835	3267.41667
806.46	3288.75
810.082	3285.75
813.701	3277.75
817.317	3344.08333
820.931	3356.08333
824.542	3322.08333
828.149	3286.41667
831.754	3287.08333
835.357	3243.08333
838.956	3279.41667
842.553	3255.41667
846.146	3273.41667
849.737	3219.08333
853.326	3235.75
856.911	3216.75
860.493	3282.75
864.073	3303.41667
867.65	3340.41667
871.225	3377.75
874.796	3398.75
878.365	3407.41667
881.931	3410.75
885.494	3460.75
889.054	3481.41667
892.612	3515.08333
896.166	3534.75
899.719	3502.75
903.268	3432.08333
906.814	3380.41667
910.358	3329.08333
913.899	3319.75
917.438	3298.75
920.973	3281.08333
924.506	3329.41667
928.036	3382.41667
931.564	3412.08333
935.088	3443.08333
938.61	3452.41667
942.129	3490.41667
945.646	3559.75
949.16	3618.08333
952.671	3678.75
956.179	3684.75
959.685	3646.41667
963.188	3617.41667
966.688	3581.41667
970.185	3475.08333
973.68	3433.41667
977.173	3370.08333
980.662	3302.08333
984.149	3301.08333
987.633	3282.08333
991.114	3352.75
994.593	3410.75
998.069	3507.41667
1001.542	3596.75
1005.013	3527.08333
1008.481	3337.08333
1011.947	3308.41667
1015.409	3263.41667
1018.869	3286.08333
1022.327	3293.75
1025.782	3253.75
1029.234	3254.08333
1032.683	3196.75
1036.13	3085.75
1039.574	2996.08333
1043.016	2917.41667
1046.455	2856.41667
1049.891	2832.41667
1053.325	2815.08333
1056.756	2850.08333
1060.184	2855.08333
1063.61	2880.41667
1067.033	2873.08333
1070.454	2885.75
1073.872	2917.41667
1077.287	2898.41667
1080.7	2894.41667
1084.11	2921.08333
1087.517	2880.08333
1090.922	2834.08333
1094.325	2831.41667
1097.724	2791.75
1101.122	2804.41667
1104.516	2799.08333
1107.908	2816.08333
1111.298	2827.41667
1114.684	2864.41667
1118.069	2917.75
1121.45	2956.08333
1124.83	2954.75
1128.206	2997.08333
1131.58	3030.08333
1134.951	3099.08333
1138.32	3192.41667
1141.687	3316.41667
1145.05	3371.75
1148.412	3396.08333
1151.77	3347.41667
1155.126	3336.08333
1158.48	3331.41667
1161.831	3350.41667
1165.18	3397.08333
1168.525	3418.41667
1171.869	3453.41667
1175.21	3481.41667
1178.548	3522.41667
1181.884	3531.08333
1185.217	3586.75
1188.548	3700.41667
1191.877	3743.41667
1195.202	3875.75
1198.526	3933.08333
1201.846	3962.08333
1205.165	3953.75
1208.48	3937.75
1211.794	3912.41667
1215.104	3915.08333
1218.413	3914.41667
1221.719	3897.41667
1225.022	3880.08333
1228.323	3775.75
1231.621	3773.41667
1234.917	3735.08333
1238.21	3740.75
1241.501	3737.75
1244.79	3715.41667
1248.076	3727.75
1251.359	3769.75
1254.64	3810.41667
1257.919	3839.41667
1261.195	3898.08333
1264.468	3975.75
1267.74	4011.41667
1271.008	4032.41667
1274.275	4022.75
1277.538	3994.41667
1280.8	3982.41667
1284.059	3995.75
1287.315	4028.08333
1290.569	4061.75
1293.821	4078.41667
1297.07	4091.08333
1300.317	4153.75
1303.562	4106.08333
1306.803	4059.08333
1310.043	4061.75
1313.28	4019.08333
1316.515	4015.41667
1319.747	3969.41667
1322.977	3944.08333
1326.204	3902.75
1329.429	3850.41667
1332.652	3827.08333
1335.872	3815.75
1339.09	3763.08333
1342.306	3740.75
1345.519	3684.41667
1348.729	3647.75
1351.938	3613.75
1355.144	3549.08333
1358.347	3509.41667
1361.548	3494.08333
1364.747	3515.08333
1367.944	3477.75
1371.138	3471.41667
1374.329	3511.75
1377.518	3537.08333
1380.705	3592.41667
1383.89	3515.08333
1387.072	3425.41667
1390.252	3297.75
1393.429	3170.08333
1396.605	3084.41667
1399.777	2989.08333
1402.948	2987.41667
1406.116	2974.75
1409.282	2974.41667
1412.445	2976.08333
1415.606	3033.08333
1418.765	3052.41667
1421.921	3102.41667
1425.075	3160.08333
1428.227	3258.75
1431.376	3377.75
1434.524	3492.75
1437.668	3564.08333
1440.811	3642.08333
1443.951	3677.41667
1447.089	3671.08333
1450.224	3652.41667
1453.357	3638.41667
1456.488	3620.08333
1459.617	3535.08333
1462.743	3492.75
1465.867	3412.08333
1468.989	3346.75
1472.108	3275.41667
1475.225	3239.41667
1478.34	3203.41667
1481.453	3193.08333
1484.563	3236.41667
1487.671	3275.08333
1490.776	3307.75
1493.88	3364.75
1496.981	3399.08333
1500.08	3466.08333
1503.176	3495.75
1506.271	3564.08333
1509.363	3598.08333
1512.452	3636.41667
1515.54	3687.08333
1518.625	3739.08333
1521.708	3808.41667
1524.789	3930.08333
1527.867	4079.41667
1530.944	4266.75
1534.018	4471.41667
1537.089	4630.08333
1540.159	4697.75
1543.226	4666.75
1546.291	4606.08333
1549.354	4510.75
1552.415	4400.75
1555.473	4301.41667
1558.529	4224.75
1561.583	4178.08333
1564.634	4158.41667
1567.684	4170.75
1570.731	4178.41667
1573.776	4227.08333
1576.819	4297.08333
1579.859	4308.75
1582.898	4372.41667
1585.934	4406.75
1588.968	4438.41667
1591.999	4426.75
1595.029	4438.41667
1598.056	4444.75
1601.081	4455.41667
1604.104	4463.08333
1607.125	4451.75
1610.144	4335.41667
1613.16	4255.75
1616.174	4161.41667
1619.186	4047.08333
1622.196	3938.41667
1625.203	3868.08333
1628.209	3750.41667
1631.212	3686.75
1634.213	3684.75
1637.212	3669.41667
1640.209	3561.41667
1643.203	3518.75
1646.196	3426.41667
1649.186	3273.75
1652.174	3171.75
1655.16	3044.41667
1658.144	2947.41667
1661.125	2814.75
1664.105	2717.41667
1667.082	2592.08333
1670.057	2449.08333
1673.03	2313.41667
1676.001	2158.75
1678.97	2023.41667
1681.937	1910.08333
1684.901	1785.41667
1687.863	1728.41667
1690.824	1651.75
1693.782	1619.08333
1696.738	1552.08333
1699.692	1515.08333
1702.643	1475.41667
1705.593	1467.41667
1708.54	1445.75
1711.486	1444.08333
1714.429	1399.75
1717.37	1391.41667
1720.309	1365.41667
1723.246	1353.75
1726.181	1325.75
1729.113	1325.41667
1732.044	1323.41667
1734.972	1289.08333
1737.899	1296.75
1740.823	1305.41667
1743.745	1244.41667
1746.665	1251.41667
1749.583	1231.08333
1752.499	1211.75
1755.413	1202.75
1758.325	1183.75
1761.235	1167.08333
1764.142	1145.75
1767.048	1124.08333
1769.951	1134.08333
1772.852	1133.41667
1775.752	1109.41667
1778.649	1113.41667
1781.544	1106.41667
1784.437	1082.75
1787.328	1100.41667
1790.217	1086.41667
1793.104	1054.75
1795.989	1067.08333
1798.872	1048.41667
1801.753	1065.08333
1804.631	1041.75
1807.508	1060.41667
1810.383	1038.75
1813.255	1054.75
1816.126	1031.08333
1818.994	1037.08333
1821.861	1036.75
1824.725	1023.08333
1827.587	1026.41667
1830.448	1020.08333
1833.306	994.41667
1836.162	989.08333
1839.017	993.75
1841.869	990.41667
1844.719	990.41667
1847.567	964.41667
1850.414	961.41667
1853.258	973.75
1856.1	981.08333
1858.94	987.08333
1861.778	968.75
1864.614	968.75
1867.448	956.08333
1870.28	948.08333
1873.111	968.08333
1875.939	951.08333
1878.765	970.41667
1881.589	957.41667
1884.411	966.41667
1887.231	954.75
1890.049	943.75
1892.865	956.41667
1895.68	920.41667
1898.492	942.41667
1901.302	923.08333
1904.11	932.08333
1906.916	910.08333
1909.721	903.75
1912.523	916.75
1915.323	892.08333
1918.122	890.75
1920.918	903.08333
1923.712	890.41667
1926.505	904.75
1929.295	861.08333
1932.084	904.08333
1934.87	893.08333
1937.655	896.41667
1940.438	883.41667
1943.218	877.08333
1945.997	877.75
1948.774	896.75
1951.549	886.08333
1954.322	875.75
1957.093	859.41667
1959.862	865.08333
1962.629	854.41667
1965.394	855.75
1968.157	850.75
1970.918	877.08333
1973.678	844.08333
1976.435	855.41667
1979.19	835.08333
1981.944	836.41667
1984.696	835.41667
1987.445	816.75
1990.193	822.08333
1992.939	855.41667
1995.683	831.08333
1998.425	804.75
2001.165	842.08333
2003.903	815.08333
2006.639	822.41667
2009.374	810.75
2012.106	808.08333
2014.837	802.75
2017.566	819.08333
2020.292	811.08333
2023.017	812.41667
2025.74	804.08333
2028.461	792.08333
2031.18	787.41667
2033.898	792.08333
2036.613	792.75
2039.327	790.75
2042.038	782.41667
2044.748	779.75
2047.456	784.08333
2050.162	789.41667
2052.866	774.75
2055.568	784.41667
2058.268	775.75
2060.967	768.08333
2063.663	756.75
2066.358	763.41667
2069.051	761.41667
2071.742	763.08333
2074.431	756.41667
2077.118	753.08333
2079.804	746.08333
2082.487	759.75
2085.169	760.08333
2087.849	796.08333
2090.527	745.41667
2093.203	754.41667
2095.877	770.75
2098.55	777.08333
2101.22	784.41667
2103.889	789.08333
2106.556	784.08333
2109.221	814.41667
2111.884	824.41667
2114.546	895.41667
2117.205	961.41667
2119.863	1043.08333
2122.519	1112.75
2125.173	1181.41667
2127.825	1243.41667
2130.475	1245.41667
2133.124	1207.75
2135.771	1160.41667
2138.416	1100.41667
2141.059	1027.08333
2143.7	971.75
2146.339	906.08333
2148.977	859.08333
2151.613	840.08333
2154.247	822.75
2156.879	791.41667
2159.51	777.75
2162.138	754.41667
2164.765	761.75
2167.39	739.75
2170.013	737.41667
2172.634	735.08333
2175.254	721.41667
2177.872	754.08333
2180.488	706.41667
2183.102	715.41667
2185.714	705.08333
2188.325	678.75
2190.934	693.08333
2193.541	691.41667
2196.146	682.41667
2198.75	666.08333
2201.351	665.08333
2203.951	658.41667
2206.549	682.75
2209.146	655.75
2211.74	643.75
2214.333	658.75
2216.924	630.41667
2219.514	643.75
2222.101	638.08333
2224.687	644.08333
2227.271	631.41667
2229.853	616.41667
2232.433	609.75
2235.012	626.75
2237.589	635.41667
2240.164	627.08333
2242.738	616.75
2245.309	607.75
2247.879	610.75
2250.448	605.08333
2253.014	594.75
2255.579	582.08333
2258.142	584.75
2260.703	571.75
2263.262	581.08333
2265.82	566.75
2268.376	575.41667
2270.93	562.41667
2273.483	553.08333
2276.033	570.08333
2278.583	550.75
2281.13	551.08333
2283.675	555.08333
2286.219	555.08333
2288.761	548.08333
2291.302	545.75
2293.841	571.41667
2296.377	536.08333
2298.913	539.08333
2301.446	548.75
2303.978	536.75
2306.508	543.75
2309.037	532.75
2311.563	535.41667
2314.088	533.08333
2316.612	518.75
2319.133	527.75
2321.653	528.75
2324.171	523.75
2326.688	532.08333
2329.202	519.41667
2331.715	515.41667
2334.227	513.41667
2336.736	526.08333
2339.244	506.08333
2341.751	499.41667
2344.255	511.08333
2346.758	506.41667
2349.259	486.41667
2351.759	509.75
2354.257	495.41667
2356.753	483.41667
2359.247	495.41667
2361.74	509.75
2364.231	498.75
2366.721	491.75
2369.209	486.08333
2371.695	488.08333
2374.179	480.41667
2376.662	479.08333
2379.143	491.75
2381.622	479.41667
2384.1	493.08333
2386.576	477.75
2389.051	485.75
2391.524	494.41667
2393.995	477.08333
2396.464	481.08333
2398.932	472.41667
2401.398	469.08333
2403.863	477.08333
2406.325	467.75
2408.787	477.41667
2411.246	464.75
2413.704	459.75
2416.16	462.75
2418.615	458.08333
2421.068	479.75
2423.519	471.08333
2425.969	461.41667
2428.417	463.08333
2430.863	483.41667
2433.308	467.75
2435.751	458.08333
2438.193	456.41667
2440.633	460.41667
2443.071	445.75
2445.508	445.08333
2447.943	447.75
2450.376	435.75
2452.808	445.75
2455.238	435.41667
2457.667	478.08333
2460.093	439.08333
2462.519	432.75
2464.942	438.75
2467.365	440.75
2469.785	443.41667
2472.204	436.08333
2474.621	437.08333
2477.037	447.41667
2479.451	427.08333
2481.863	424.41667
2484.274	427.41667
2486.683	424.75
2489.091	439.08333
2491.497	425.41667
2493.901	429.41667
2496.304	423.08333
2498.705	426.41667
2501.105	411.75
2503.503	442.75
2505.899	410.41667
2508.294	443.75
2510.687	417.75
2513.079	418.08333
2515.469	418.41667
2517.858	418.41667
2520.245	425.08333
2522.63	403.75
2525.014	409.41667
2527.396	407.41667
2529.776	401.08333
2532.156	414.75
2534.533	398.75
2536.909	400.41667
2539.283	390.08333
2541.656	393.08333
2544.027	418.08333
2546.397	390.75
2548.765	399.41667
2551.131	404.75
2553.496	401.75
2555.86	401.41667
2558.221	395.08333
2560.582	390.41667
2562.94	383.75
2565.298	397.75
2567.653	408.75
2570.007	383.08333
2572.36	402.75
2574.711	378.41667
2577.06	411.75
2579.408	393.41667
2581.754	390.75
2584.099	386.75
2586.442	387.41667
2588.784	391.08333
2591.124	395.75
2593.463	389.41667
2595.8	385.75
2598.135	374.41667
2600.469	381.41667
2602.802	396.41667
2605.133	389.41667
2607.462	375.08333
2609.79	370.08333
2612.116	384.41667
2614.441	381.08333
2616.764	375.75
2619.086	381.75
2621.406	369.75
2623.725	392.75
2626.042	380.41667
2628.358	373.41667
2630.672	370.08333
2632.985	384.75
2635.296	379.75
2637.606	374.75
2639.914	362.08333
2642.22	371.75
2644.525	377.75
2646.829	377.41667
2649.131	383.08333
2651.432	391.75
2653.731	376.08333
2656.028	381.41667
2658.324	392.75
2660.619	375.75
2662.912	384.08333
2665.204	374.08333
2667.494	378.41667
2669.782	365.08333
2672.07	380.08333
2674.355	379.08333
2676.639	380.41667
2678.922	370.75
2681.203	377.08333
2683.483	364.08333
2685.761	365.08333
2688.038	392.41667
2690.313	390.75
2692.587	380.08333
2694.859	370.08333
2697.13	381.41667
2699.399	392.41667
2701.667	396.08333
2703.933	397.41667
2706.198	393.08333
2708.461	405.08333
2710.723	396.75
2712.984	410.08333
2715.243	400.41667
2717.5	394.08333
2719.757	410.41667
2722.011	406.41667
2724.264	409.08333
2726.516	412.08333
2728.766	402.08333
2731.015	415.75
2733.262	420.41667
2735.508	410.41667
2737.753	397.08333
2739.996	398.75
2742.237	394.08333
2744.477	404.75
2746.716	403.75
2748.953	394.75
2751.189	404.41667
2753.423	386.08333
2755.656	377.08333
2757.887	370.75
2760.117	374.08333
2762.346	365.75
2764.573	368.75
2766.798	380.75
2769.022	373.75
2771.245	385.08333
2773.467	384.41667
2775.686	383.75
2777.905	384.08333
2780.122	384.08333
2782.337	398.75
2784.552	394.75
2786.764	395.08333
2788.976	398.08333
2791.186	400.08333
2793.394	413.75
2795.601	415.41667
2797.807	427.41667
2800.011	430.08333
2802.214	428.41667
2804.415	426.08333
2806.615	434.41667
2808.814	441.41667
2811.011	454.08333
2813.206	455.75
2815.401	468.08333
2817.594	471.08333
2819.785	480.75
2821.975	471.41667
2824.164	473.41667
2826.351	502.75
2828.537	521.08333
2830.722	514.75
2832.905	529.41667
2835.086	539.08333
2837.267	578.41667
2839.445	598.08333
2841.623	615.75
2843.799	641.08333
2845.974	683.41667
2848.147	713.75
2850.319	729.41667
2852.489	771.41667
2854.659	768.75
2856.826	785.08333
2858.993	821.41667
2861.158	799.08333
2863.321	801.08333
2865.483	820.08333
2867.644	825.75
2869.804	807.41667
2871.962	808.75
2874.118	812.08333
2876.274	812.75
2878.428	805.08333
2880.58	801.75
2882.731	789.41667
2884.881	802.75
2887.03	810.75
2889.177	804.41667
2891.322	822.75
2893.467	815.41667
2895.61	827.08333
2897.751	835.75
2899.892	827.08333
2902.03	846.75
2904.168	849.75
2906.304	844.41667
2908.439	871.41667
2910.572	840.75
2912.704	857.08333
2914.835	870.08333
2916.965	854.41667
2919.093	873.08333
2921.219	847.41667
2923.345	873.41667
2925.469	828.08333
2927.591	839.41667
2929.712	800.08333
2931.832	798.75
2933.951	783.41667
2936.068	778.08333
2938.184	745.75
2940.299	730.08333
2942.412	691.41667
2944.524	666.08333
2946.634	664.41667
2948.744	618.75
2950.851	622.08333
2952.958	588.75
2955.063	578.41667
2957.167	576.75
2959.269	538.75
2961.371	563.75
2963.471	521.41667
2965.569	523.41667
2967.666	502.75
2969.762	494.75
2971.857	482.75
2973.95	468.75
2976.042	462.75
2978.133	448.75
2980.222	437.75
2982.31	420.41667
2984.396	398.75
2986.482	397.75
2988.566	384.08333
2990.648	389.08333
2992.73	379.41667
2994.81	359.08333
2996.889	367.08333
2998.966	370.41667
3001.042	370.41667
3003.117	352.41667
3005.191	353.41667
3007.263	350.41667
3009.334	333.41667
3011.403	348.75
3013.472	324.41667
3015.539	331.75
3017.604	347.41667
3019.669	306.75
3021.732	309.08333
3023.794	310.75
3025.854	297.75
3027.914	299.08333
3029.971	306.08333
3032.028	294.41667
3034.083	302.08333
3036.137	285.08333
3038.19	282.41667
3040.242	268.75
3042.292	261.75
3044.341	267.08333
3046.388	282.75
3048.435	262.41667
3050.48	268.75
3052.524	264.41667
3054.566	252.08333
3056.607	259.75
3058.647	252.08333
3060.686	239.41667
3062.723	237.08333
3064.759	222.08333
3066.794	0.75
3068.828	2.41667
3070.86	1.75
