-0.839	450.04167
3.438	533.04167
7.711	161.375
11.981	60.375
16.247	46.70833
20.509	47.70833
24.768	44.04167
29.024	53.04167
33.276	42.04167
37.524	46.375
41.769	48.04167
46.01	33.04167
50.247	43.70833
54.481	50.70833
58.712	59.70833
62.939	48.04167
67.162	62.70833
71.382	56.70833
75.599	46.04167
79.812	59.70833
84.021	74.375
88.227	57.375
92.429	55.70833
96.628	49.375
100.823	64.375
105.015	69.04167
109.204	59.70833
113.388	71.70833
117.57	68.70833
121.748	83.70833
125.922	70.70833
130.093	89.70833
134.261	92.375
138.425	87.04167
142.585	130.04167
146.742	117.04167
150.896	143.04167
155.046	181.04167
159.193	284.04167
163.336	487.70833
167.476	873.04167
171.613	1594.70833
175.746	2661.04167
179.875	3860.70833
184.002	4957.70833
188.124	5711.04167
192.244	5881.70833
196.36	5795.70833
200.472	5561.375
204.581	5323.70833
208.687	5129.375
212.79	5041.70833
216.889	4947.70833
220.984	4927.70833
225.077	4852.04167
229.165	4821.70833
233.251	4754.04167
237.333	4718.04167
241.412	4627.375
245.487	4560.70833
249.559	4471.70833
253.628	4421.375
257.694	4406.375
261.756	4359.375
265.814	4292.70833
269.87	4155.04167
273.922	4044.04167
277.97	4010.375
282.016	3955.04167
286.058	3993.70833
290.097	4119.04167
294.132	4133.375
298.164	4141.70833
302.193	3947.375
306.219	3652.04167
310.241	3381.70833
314.26	3102.70833
318.276	2888.70833
322.288	2742.04167
326.297	2601.70833
330.303	2542.375
334.305	2465.375
338.305	2423.375
342.301	2377.70833
346.294	2361.375
350.283	2353.70833
354.269	2330.375
358.252	2311.04167
362.232	2300.04167
366.209	2262.375
370.182	2234.70833
374.152	2228.375
378.119	2229.04167
382.083	2238.70833
386.043	2248.70833
390	2215.375
393.954	2232.04167
397.905	2205.04167
401.852	2199.04167
405.797	2170.04167
409.738	2179.70833
413.676	2173.04167
417.61	2167.70833
421.542	2153.04167
425.47	2121.70833
429.396	2116.70833
433.318	2101.04167
437.236	2092.70833
441.152	2124.04167
445.065	2061.70833
448.974	2083.70833
452.88	2039.04167
456.783	2037.04167
460.683	2004.70833
464.58	2037.70833
468.473	2024.04167
472.364	2043.70833
476.251	2016.70833
480.135	2064.375
484.016	2094.70833
487.894	2102.375
491.769	2115.70833
495.641	2145.70833
499.509	2129.04167
503.375	2126.375
507.237	2137.70833
511.096	2155.70833
514.952	2259.375
518.805	2400.04167
522.655	2448.70833
526.502	2276.375
530.346	2134.70833
534.187	2121.04167
538.024	2133.70833
541.859	2121.375
545.69	2162.70833
549.519	2128.04167
553.344	2130.375
557.166	2065.375
560.985	2046.04167
564.802	2021.70833
568.615	2001.04167
572.425	1974.04167
576.232	1954.70833
580.036	1957.04167
583.836	1972.375
587.634	1966.375
591.429	1967.04167
595.221	2012.70833
599.01	2034.04167
602.796	2053.04167
606.578	2058.375
610.358	2053.375
614.135	2047.70833
617.909	2016.375
621.679	2011.04167
625.447	1979.375
629.212	1994.04167
632.973	1989.70833
636.732	2003.375
640.488	1991.04167
644.241	1955.70833
647.991	1964.375
651.737	1983.04167
655.481	1962.375
659.222	1971.04167
662.96	1979.70833
666.695	1997.375
670.427	2017.04167
674.156	2017.70833
677.882	2022.04167
681.605	1990.70833
685.325	1967.04167
689.043	1966.375
692.757	1930.04167
696.468	1948.04167
700.177	1945.375
703.882	1921.70833
707.585	1916.04167
711.284	1914.375
714.981	1940.375
718.675	1916.375
722.366	1952.70833
726.054	1906.375
729.739	1920.375
733.421	1947.375
737.1	1942.70833
740.777	1945.375
744.45	1959.70833
748.121	1953.04167
751.789	1996.70833
755.453	1992.04167
759.115	2011.375
762.774	2028.375
766.431	2039.04167
770.084	2042.70833
773.734	2052.04167
777.382	2104.375
781.027	2122.70833
784.669	2137.70833
788.308	2138.70833
791.944	2151.70833
795.577	2147.70833
799.208	2191.04167
802.835	2194.375
806.46	2193.04167
810.082	2213.04167
813.701	2226.375
817.317	2230.375
820.931	2254.04167
824.542	2253.04167
828.149	2200.375
831.754	2183.375
835.357	2187.70833
838.956	2170.04167
842.553	2177.70833
846.146	2160.375
849.737	2125.70833
853.326	2139.375
856.911	2140.04167
860.493	2170.375
864.073	2182.70833
867.65	2216.70833
871.225	2232.375
874.796	2248.70833
878.365	2262.375
881.931	2281.70833
885.494	2300.70833
889.054	2332.70833
892.612	2362.375
896.166	2361.04167
899.719	2342.70833
903.268	2305.04167
906.814	2264.375
910.358	2218.70833
913.899	2198.04167
917.438	2190.04167
920.973	2177.04167
924.506	2232.04167
928.036	2253.04167
931.564	2278.70833
935.088	2305.70833
938.61	2316.375
942.129	2364.04167
945.646	2407.04167
949.16	2446.70833
952.671	2472.375
956.179	2467.70833
959.685	2429.70833
963.188	2457.04167
966.688	2425.70833
970.185	2335.04167
973.68	2283.375
977.173	2249.04167
980.662	2228.04167
984.149	2213.375
987.633	2181.70833
991.114	2226.70833
994.593	2285.70833
998.069	2307.70833
1001.542	2400.04167
1005.013	2347.375
1008.481	2211.04167
1011.947	2198.375
1015.409	2182.375
1018.869	2183.375
1022.327	2181.375
1025.782	2156.70833
1029.234	2180.04167
1032.683	2146.70833
1036.13	2098.04167
1039.574	2025.04167
1043.016	1953.04167
1046.455	1913.70833
1049.891	1909.375
1053.325	1916.04167
1056.756	1911.70833
1060.184	1920.04167
1063.61	1925.70833
1067.033	1938.70833
1070.454	1934.04167
1073.872	1975.375
1077.287	1963.375
1080.7	1981.04167
1084.11	1968.375
1087.517	1964.04167
1090.922	1905.70833
1094.325	1909.04167
1097.724	1888.375
1101.122	1899.04167
1104.516	1904.375
1107.908	1887.375
1111.298	1924.70833
1114.684	1947.70833
1118.069	1982.375
1121.45	1986.375
1124.83	1989.04167
1128.206	2017.04167
1131.58	2038.70833
1134.951	2087.375
1138.32	2139.04167
1141.687	2228.70833
1145.05	2273.04167
1148.412	2274.04167
1151.77	2235.04167
1155.126	2230.70833
1158.48	2205.70833
1161.831	2236.04167
1165.18	2248.375
1168.525	2270.375
1171.869	2283.04167
1175.21	2305.04167
1178.548	2334.04167
1181.884	2348.04167
1185.217	2403.70833
1188.548	2461.70833
1191.877	2512.375
1195.202	2600.375
1198.526	2676.04167
1201.846	2696.70833
1205.165	2687.70833
1208.48	2718.70833
1211.794	2672.375
1215.104	2693.04167
1218.413	2680.04167
1221.719	2665.04167
1225.022	2625.70833
1228.323	2605.04167
1231.621	2560.04167
1234.917	2526.04167
1238.21	2563.70833
1241.501	2538.375
1244.79	2526.04167
1248.076	2527.70833
1251.359	2536.70833
1254.64	2597.375
1257.919	2615.375
1261.195	2654.375
1264.468	2683.375
1267.74	2705.375
1271.008	2722.70833
1274.275	2722.70833
1277.538	2720.04167
1280.8	2716.04167
1284.059	2714.04167
1287.315	2761.375
1290.569	2781.375
1293.821	2801.70833
1297.07	2839.70833
1300.317	2837.375
1303.562	2841.70833
1306.803	2817.04167
1310.043	2837.375
1313.28	2785.375
1316.515	2787.375
1319.747	2766.04167
1322.977	2761.375
1326.204	2731.70833
1329.429	2699.375
1332.652	2695.70833
1335.872	2679.70833
1339.09	2617.70833
1342.306	2573.375
1345.519	2527.70833
1348.729	2489.04167
1351.938	2491.04167
1355.144	2484.04167
1358.347	2443.04167
1361.548	2441.375
1364.747	2411.04167
1367.944	2392.375
1371.138	2397.04167
1374.329	2422.04167
1377.518	2436.375
1380.705	2440.375
1383.89	2415.04167
1387.072	2352.375
1390.252	2269.375
1393.429	2180.70833
1396.605	2140.70833
1399.777	2070.375
1402.948	2090.375
1406.116	2063.70833
1409.282	2088.70833
1412.445	2086.70833
1415.606	2120.04167
1418.765	2126.04167
1421.921	2174.04167
1425.075	2189.70833
1428.227	2275.04167
1431.376	2366.70833
1434.524	2443.04167
1437.668	2490.375
1440.811	2558.375
1443.951	2577.04167
1447.089	2595.375
1450.224	2586.70833
1453.357	2532.04167
1456.488	2514.70833
1459.617	2472.04167
1462.743	2430.70833
1465.867	2338.70833
1468.989	2308.04167
1472.108	2283.375
1475.225	2230.04167
1478.34	2206.375
1481.453	2188.375
1484.563	2204.70833
1487.671	2233.04167
1490.776	2261.04167
1493.88	2300.04167
1496.981	2341.04167
1500.08	2353.70833
1503.176	2383.70833
1506.271	2394.04167
1509.363	2419.04167
1512.452	2471.70833
1515.54	2491.375
1518.625	2534.04167
1521.708	2565.375
1524.789	2647.04167
1527.867	2721.375
1530.944	2832.375
1534.018	2965.04167
1537.089	3077.70833
1540.159	3120.04167
1543.226	3124.70833
1546.291	3064.70833
1549.354	3014.70833
1552.415	2938.04167
1555.473	2886.375
1558.529	2856.70833
1561.583	2820.70833
1564.634	2787.375
1567.684	2824.70833
1570.731	2801.70833
1573.776	2877.70833
1576.819	2913.70833
1579.859	2950.70833
1582.898	2983.375
1585.934	3015.375
1588.968	3033.70833
1591.999	2994.70833
1595.029	3023.04167
1598.056	3050.70833
1601.081	3110.04167
1604.104	3087.375
1607.125	3088.375
1610.144	3007.04167
1613.16	2936.04167
1616.174	2851.04167
1619.186	2779.04167
1622.196	2706.04167
1625.203	2629.375
1628.209	2563.70833
1631.212	2561.375
1634.213	2561.04167
1637.212	2569.70833
1640.209	2539.04167
1643.203	2477.70833
1646.196	2390.375
1649.186	2301.375
1652.174	2236.375
1655.16	2167.70833
1658.144	2117.375
1661.125	2016.375
1664.105	1922.04167
1667.082	1845.04167
1670.057	1739.70833
1673.03	1633.70833
1676.001	1523.70833
1678.97	1427.375
1681.937	1343.04167
1684.901	1254.375
1687.863	1240.04167
1690.824	1182.04167
1693.782	1151.04167
1696.738	1096.375
1699.692	1080.70833
1702.643	1053.375
1705.593	1038.70833
1708.54	1041.70833
1711.486	1045.375
1714.429	1000.04167
1717.37	997.375
1720.309	987.70833
1723.246	989.375
1726.181	961.70833
1729.113	968.04167
1732.044	963.70833
1734.972	943.375
1737.899	956.70833
1740.823	951.70833
1743.745	918.70833
1746.665	910.375
1749.583	888.375
1752.499	878.70833
1755.413	881.375
1758.325	847.375
1761.235	847.70833
1764.142	843.375
1767.048	821.70833
1769.951	823.375
1772.852	829.70833
1775.752	822.04167
1778.649	815.04167
1781.544	829.375
1784.437	795.375
1787.328	816.70833
1790.217	785.375
1793.104	778.04167
1795.989	780.70833
1798.872	773.70833
1801.753	788.04167
1804.631	786.04167
1807.508	791.04167
1810.383	786.04167
1813.255	773.70833
1816.126	766.375
1818.994	776.04167
1821.861	759.375
1824.725	765.375
1827.587	765.70833
1830.448	764.70833
1833.306	741.04167
1836.162	748.04167
1839.017	744.70833
1841.869	748.70833
1844.719	731.04167
1847.567	735.04167
1850.414	724.70833
1853.258	725.375
1856.1	741.375
1858.94	735.70833
1861.778	735.04167
1864.614	719.04167
1867.448	725.70833
1870.28	716.04167
1873.111	732.04167
1875.939	725.70833
1878.765	747.70833
1881.589	719.04167
1884.411	728.375
1887.231	728.375
1890.049	721.04167
1892.865	728.375
1895.68	719.375
1898.492	708.375
1901.302	717.04167
1904.11	710.70833
1906.916	709.375
1909.721	697.70833
1912.523	714.375
1915.323	695.04167
1918.122	694.375
1920.918	702.375
1923.712	687.375
1926.505	700.375
1929.295	683.70833
1932.084	697.70833
1934.87	699.04167
1937.655	695.70833
1940.438	691.70833
1943.218	696.70833
1945.997	691.04167
1948.774	688.04167
1951.549	707.375
1954.322	687.04167
1957.093	681.04167
1959.862	678.04167
1962.629	676.375
1965.394	674.375
1968.157	665.70833
1970.918	671.70833
1973.678	652.375
1976.435	681.375
1979.19	685.04167
1981.944	667.04167
1984.696	658.70833
1987.445	642.375
1990.193	662.70833
1992.939	671.70833
1995.683	658.04167
1998.425	644.375
2001.165	669.375
2003.903	659.04167
2006.639	655.70833
2009.374	667.375
2012.106	656.375
2014.837	640.04167
2017.566	658.04167
2020.292	649.375
2023.017	654.70833
2025.74	650.70833
2028.461	638.04167
2031.18	658.375
2033.898	648.375
2036.613	649.70833
2039.327	642.04167
2042.038	642.375
2044.748	643.375
2047.456	644.375
2050.162	643.04167
2052.866	634.04167
2055.568	651.04167
2058.268	639.04167
2060.967	639.04167
2063.663	630.70833
2066.358	638.70833
2069.051	634.04167
2071.742	640.70833
2074.431	652.375
2077.118	639.375
2079.804	641.70833
2082.487	644.70833
2085.169	652.70833
2087.849	663.70833
2090.527	632.70833
2093.203	639.375
2095.877	661.70833
2098.55	658.70833
2101.22	669.70833
2103.889	674.375
2106.556	666.375
2109.221	693.375
2111.884	686.375
2114.546	727.04167
2117.205	769.375
2119.863	822.70833
2122.519	842.375
2125.173	877.04167
2127.825	931.04167
2130.475	909.375
2133.124	878.70833
2135.771	849.70833
2138.416	834.70833
2141.059	779.70833
2143.7	759.375
2146.339	720.04167
2148.977	681.70833
2151.613	695.70833
2154.247	680.04167
2156.879	661.70833
2159.51	647.70833
2162.138	646.04167
2164.765	653.375
2167.39	638.70833
2170.013	654.04167
2172.634	654.04167
2175.254	630.70833
2177.872	672.70833
2180.488	616.70833
2183.102	634.375
2185.714	619.70833
2188.325	607.70833
2190.934	611.375
2193.541	629.70833
2196.146	627.04167
2198.75	606.70833
2201.351	612.70833
2203.951	608.04167
2206.549	623.04167
2209.146	614.70833
2211.74	605.04167
2214.333	621.70833
2216.924	596.04167
2219.514	605.04167
2222.101	600.70833
2224.687	616.375
2227.271	601.70833
2229.853	584.70833
2232.433	591.70833
2235.012	604.375
2237.589	605.04167
2240.164	614.375
2242.738	604.375
2245.309	591.04167
2247.879	607.04167
2250.448	615.04167
2253.014	599.70833
2255.579	578.70833
2258.142	598.04167
2260.703	577.375
2263.262	580.375
2265.82	576.04167
2268.376	586.375
2270.93	576.70833
2273.483	580.375
2276.033	597.70833
2278.583	566.70833
2281.13	580.04167
2283.675	573.70833
2286.219	577.70833
2288.761	586.70833
2291.302	591.04167
2293.841	592.375
2296.377	575.04167
2298.913	577.70833
2301.446	593.70833
2303.978	589.04167
2306.508	576.375
2309.037	586.70833
2311.563	588.375
2314.088	600.375
2316.612	568.375
2319.133	584.04167
2321.653	598.04167
2324.171	581.375
2326.688	593.04167
2329.202	582.375
2331.715	588.375
2334.227	583.375
2336.736	590.70833
2339.244	595.70833
2341.751	578.70833
2344.255	599.70833
2346.758	592.70833
2349.259	573.04167
2351.759	582.375
2354.257	579.70833
2356.753	575.375
2359.247	587.375
2361.74	592.04167
2364.231	594.04167
2366.721	586.70833
2369.209	581.375
2371.695	601.70833
2374.179	590.04167
2376.662	582.375
2379.143	609.04167
2381.622	591.04167
2384.1	604.375
2386.576	597.375
2389.051	615.04167
2391.524	610.375
2393.995	604.70833
2396.464	583.70833
2398.932	606.04167
2401.398	598.375
2403.863	599.70833
2406.325	600.70833
2408.787	615.375
2411.246	599.375
2413.704	602.375
2416.16	604.375
2418.615	601.375
2421.068	623.375
2423.519	616.375
2425.969	615.70833
2428.417	621.70833
2430.863	642.375
2433.308	620.70833
2435.751	618.04167
2438.193	617.04167
2440.633	626.375
2443.071	623.375
2445.508	619.70833
2447.943	613.70833
2450.376	611.04167
2452.808	624.04167
2455.238	625.70833
2457.667	652.70833
2460.093	613.375
2462.519	623.70833
2464.942	636.70833
2467.365	632.375
2469.785	647.375
2472.204	633.70833
2474.621	624.04167
2477.037	648.70833
2479.451	614.375
2481.863	625.375
2484.274	624.70833
2486.683	633.04167
2489.091	658.04167
2491.497	634.375
2493.901	641.70833
2496.304	643.70833
2498.705	652.04167
2501.105	641.04167
2503.503	676.375
2505.899	642.70833
2508.294	668.375
2510.687	650.04167
2513.079	662.375
2515.469	651.70833
2517.858	666.70833
2520.245	664.04167
2522.63	648.70833
2525.014	651.70833
2527.396	655.70833
2529.776	649.04167
2532.156	674.375
2534.533	663.375
2536.909	655.70833
2539.283	653.375
2541.656	668.70833
2544.027	687.375
2546.397	676.375
2548.765	663.70833
2551.131	669.375
2553.496	670.04167
2555.86	690.70833
2558.221	686.375
2560.582	673.70833
2562.94	680.375
2565.298	678.375
2567.653	699.04167
2570.007	675.04167
2572.36	700.04167
2574.711	681.70833
2577.06	713.375
2579.408	700.04167
2581.754	701.70833
2584.099	708.04167
2586.442	688.375
2588.784	704.70833
2591.124	700.04167
2593.463	712.04167
2595.8	707.04167
2598.135	689.375
2600.469	708.70833
2602.802	706.70833
2605.133	729.375
2607.462	717.375
2609.79	693.375
2612.116	713.04167
2614.441	729.70833
2616.764	712.375
2619.086	721.04167
2621.406	727.375
2623.725	735.375
2626.042	735.375
2628.358	735.70833
2630.672	730.70833
2632.985	759.375
2635.296	750.70833
2637.606	750.70833
2639.914	735.70833
2642.22	755.04167
2644.525	741.70833
2646.829	752.70833
2649.131	770.70833
2651.432	784.375
2653.731	766.70833
2656.028	772.70833
2658.324	778.70833
2660.619	776.04167
2662.912	789.04167
2665.204	775.04167
2667.494	776.70833
2669.782	776.375
2672.07	790.70833
2674.355	792.04167
2676.639	787.375
2678.922	773.70833
2681.203	794.04167
2683.483	777.375
2685.761	791.70833
2688.038	794.70833
2690.313	805.70833
2692.587	794.375
2694.859	800.375
2697.13	809.70833
2699.399	836.04167
2701.667	826.04167
2703.933	831.04167
2706.198	834.04167
2708.461	848.375
2710.723	849.04167
2712.984	846.375
2715.243	843.04167
2717.5	836.375
2719.757	855.04167
2722.011	841.70833
2724.264	857.04167
2726.516	867.04167
2728.766	870.70833
2731.015	889.375
2733.262	873.375
2735.508	874.70833
2737.753	893.375
2739.996	861.04167
2742.237	869.70833
2744.477	885.70833
2746.716	899.04167
2748.953	865.70833
2751.189	870.04167
2753.423	872.375
2755.656	860.70833
2757.887	865.70833
2760.117	852.70833
2762.346	863.375
2764.573	857.70833
2766.798	869.70833
2769.022	865.70833
2771.245	874.375
2773.467	870.04167
2775.686	893.70833
2777.905	890.70833
2780.122	898.70833
2782.337	908.70833
2784.552	904.375
2786.764	893.70833
2788.976	914.375
2791.186	917.04167
2793.394	926.375
2795.601	944.70833
2797.807	941.04167
2800.011	949.375
2802.214	952.70833
2804.415	964.70833
2806.615	954.375
2808.814	959.70833
2811.011	964.04167
2813.206	959.04167
2815.401	982.04167
2817.594	980.70833
2819.785	993.04167
2821.975	983.375
2824.164	983.375
2826.351	996.375
2828.537	1021.70833
2830.722	1042.04167
2832.905	1040.04167
2835.086	1052.70833
2837.267	1096.04167
2839.445	1103.70833
2841.623	1125.70833
2843.799	1127.04167
2845.974	1163.70833
2848.147	1188.70833
2850.319	1222.70833
2852.489	1237.04167
2854.659	1249.375
2856.826	1259.70833
2858.993	1286.70833
2861.158	1276.04167
2863.321	1278.04167
2865.483	1296.375
2867.644	1290.04167
2869.804	1288.375
2871.962	1279.04167
2874.118	1277.375
2876.274	1286.70833
2878.428	1288.375
2880.58	1271.04167
2882.731	1273.04167
2884.881	1272.70833
2887.03	1269.375
2889.177	1289.375
2891.322	1293.375
2893.467	1281.70833
2895.61	1285.04167
2897.751	1311.70833
2899.892	1299.70833
2902.03	1306.70833
2904.168	1323.04167
2906.304	1340.04167
2908.439	1340.04167
2910.572	1347.04167
2912.704	1345.375
2914.835	1360.375
2916.965	1354.70833
2919.093	1365.04167
2921.219	1333.375
2923.345	1374.375
2925.469	1350.04167
2927.591	1327.04167
2929.712	1315.70833
2931.832	1298.375
2933.951	1283.04167
2936.068	1279.04167
2938.184	1256.375
2940.299	1240.04167
2942.412	1247.375
2944.524	1207.375
2946.634	1209.04167
2948.744	1160.375
2950.851	1202.375
2952.958	1150.375
2955.063	1149.04167
2957.167	1156.375
2959.269	1126.04167
2961.371	1173.04167
2963.471	1120.70833
2965.569	1137.04167
2967.666	1123.70833
2969.762	1114.70833
2971.857	1105.04167
2973.95	1089.70833
2976.042	1075.70833
2978.133	1075.375
2980.222	1053.375
2982.31	1025.04167
2984.396	1014.375
2986.482	1010.04167
2988.566	1010.04167
2990.648	995.04167
2992.73	1000.70833
2994.81	987.375
2996.889	1002.375
2998.966	999.70833
3001.042	1010.375
3003.117	995.70833
3005.191	1007.375
3007.263	999.375
3009.334	990.04167
3011.403	984.375
3013.472	975.375
3015.539	964.375
3017.604	964.04167
3019.669	934.04167
3021.732	936.04167
3023.794	941.04167
3025.854	927.70833
3027.914	926.375
3029.971	938.04167
3032.028	926.375
3034.083	939.375
3036.137	924.70833
3038.19	888.375
3040.242	874.04167
3042.292	855.04167
3044.341	857.70833
3046.388	862.04167
3048.435	831.04167
3050.48	841.375
3052.524	840.04167
3054.566	822.375
3056.607	814.70833
3058.647	821.04167
3060.686	792.70833
3062.723	770.04167
3064.759	734.70833
3066.794	-2.95833
3068.828	4.04167
3070.86	2.70833
