-0.839	464.29167
3.438	535.95833
7.711	162.29167
11.981	63.29167
16.247	45.95833
20.509	51.625
24.768	41.625
29.024	55.29167
33.276	43.95833
37.524	47.95833
41.769	44.95833
46.01	32.95833
50.247	46.95833
54.481	59.95833
58.712	63.29167
62.939	47.95833
67.162	60.29167
71.382	58.625
75.599	43.29167
79.812	63.625
84.021	78.95833
88.227	60.29167
92.429	59.625
96.628	54.29167
100.823	72.95833
105.015	76.625
109.204	68.95833
113.388	76.625
117.57	77.29167
121.748	82.625
125.922	72.625
130.093	90.625
134.261	95.625
138.425	94.95833
142.585	135.29167
146.742	125.625
150.896	152.625
155.046	189.95833
159.193	307.29167
163.336	513.95833
167.476	933.95833
171.613	1709.625
175.746	2832.29167
179.875	4193.625
184.002	5410.625
188.124	6299.29167
192.244	6557.95833
196.36	6456.95833
200.472	6284.29167
204.581	6084.625
208.687	5873.625
212.79	5794.95833
216.889	5772.29167
220.984	5728.29167
225.077	5703.625
229.165	5707.95833
233.251	5680.625
237.333	5628.625
241.412	5572.95833
245.487	5498.95833
249.559	5405.29167
253.628	5402.625
257.694	5371.95833
261.756	5312.29167
265.814	5238.95833
269.87	5057.95833
273.922	4922.625
277.97	4855.29167
282.016	4836.625
286.058	4893.625
290.097	4952.625
294.132	5071.95833
298.164	5053.95833
302.193	4796.29167
306.219	4462.29167
310.241	4116.625
314.26	3780.29167
318.276	3549.95833
322.288	3369.29167
326.297	3214.29167
330.303	3128.29167
334.305	3060.29167
338.305	3000.29167
342.301	2974.29167
346.294	2952.95833
350.283	2935.95833
354.269	2913.95833
358.252	2858.29167
362.232	2863.625
366.209	2859.95833
370.182	2824.29167
374.152	2802.95833
378.119	2806.625
382.083	2811.625
386.043	2822.625
390	2789.95833
393.954	2788.625
397.905	2767.29167
401.852	2805.29167
405.797	2755.29167
409.738	2744.29167
413.676	2753.95833
417.61	2766.625
421.542	2732.625
425.47	2706.29167
429.396	2680.625
433.318	2686.625
437.236	2674.95833
441.152	2703.29167
445.065	2625.625
448.974	2642.95833
452.88	2609.95833
456.783	2621.95833
460.683	2575.95833
464.58	2577.625
468.473	2600.625
472.364	2610.625
476.251	2607.29167
480.135	2634.625
484.016	2695.29167
487.894	2693.625
491.769	2742.95833
495.641	2728.625
499.509	2713.29167
503.375	2738.625
507.237	2726.29167
511.096	2741.625
514.952	2836.95833
518.805	2955.95833
522.655	2989.95833
526.502	2830.29167
530.346	2715.95833
534.187	2680.95833
538.024	2687.95833
541.859	2707.95833
545.69	2738.625
549.519	2708.95833
553.344	2685.95833
557.166	2629.29167
560.985	2605.95833
564.802	2550.29167
568.615	2546.95833
572.425	2500.29167
576.232	2488.625
580.036	2475.29167
583.836	2493.625
587.634	2520.95833
591.429	2518.95833
595.221	2561.29167
599.01	2577.95833
602.796	2608.29167
606.578	2633.29167
610.358	2627.95833
614.135	2582.29167
617.909	2595.95833
621.679	2571.29167
625.447	2540.95833
629.212	2540.625
632.973	2562.95833
636.732	2530.625
640.488	2528.29167
644.241	2511.95833
647.991	2501.29167
651.737	2534.625
655.481	2507.29167
659.222	2507.95833
662.96	2500.625
666.695	2505.29167
670.427	2565.625
674.156	2562.29167
677.882	2539.29167
681.605	2526.95833
685.325	2502.95833
689.043	2480.29167
692.757	2474.625
696.468	2489.29167
700.177	2481.95833
703.882	2472.625
707.585	2458.625
711.284	2435.625
714.981	2453.29167
718.675	2459.625
722.366	2459.29167
726.054	2453.95833
729.739	2454.625
733.421	2456.95833
737.1	2440.29167
740.777	2456.29167
744.45	2461.29167
748.121	2489.95833
751.789	2516.95833
755.453	2510.625
759.115	2532.625
762.774	2540.29167
766.431	2557.29167
770.084	2582.29167
773.734	2580.95833
777.382	2604.95833
781.027	2638.625
784.669	2650.625
788.308	2644.625
791.944	2685.95833
795.577	2665.625
799.208	2687.95833
802.835	2733.625
806.46	2734.95833
810.082	2737.95833
813.701	2762.95833
817.317	2780.29167
820.931	2773.29167
824.542	2781.29167
828.149	2743.95833
831.754	2708.625
835.357	2707.625
838.956	2698.95833
842.553	2713.625
846.146	2707.29167
849.737	2654.95833
853.326	2667.625
856.911	2666.95833
860.493	2711.625
864.073	2730.95833
867.65	2729.95833
871.225	2772.29167
874.796	2767.625
878.365	2761.625
881.931	2808.29167
885.494	2834.625
889.054	2857.95833
892.612	2881.625
896.166	2863.625
899.719	2848.625
903.268	2797.95833
906.814	2759.625
910.358	2719.95833
913.899	2694.625
917.438	2676.29167
920.973	2666.95833
924.506	2690.95833
928.036	2751.29167
931.564	2777.29167
935.088	2801.625
938.61	2827.625
942.129	2859.625
945.646	2909.29167
949.16	2945.95833
952.671	2992.29167
956.179	2974.625
959.685	2957.29167
963.188	2950.29167
966.688	2917.625
970.185	2828.29167
973.68	2775.29167
977.173	2735.29167
980.662	2697.29167
984.149	2701.95833
987.633	2674.29167
991.114	2760.625
994.593	2788.625
998.069	2842.95833
1001.542	2920.95833
1005.013	2922.95833
1008.481	2719.29167
1011.947	2676.95833
1015.409	2681.95833
1018.869	2661.625
1022.327	2667.95833
1025.782	2634.95833
1029.234	2674.95833
1032.683	2628.625
1036.13	2553.29167
1039.574	2478.95833
1043.016	2388.95833
1046.455	2349.625
1049.891	2346.95833
1053.325	2331.625
1056.756	2319.625
1060.184	2341.29167
1063.61	2344.29167
1067.033	2379.95833
1070.454	2362.95833
1073.872	2397.95833
1077.287	2378.95833
1080.7	2384.625
1084.11	2394.29167
1087.517	2370.29167
1090.922	2335.29167
1094.325	2326.29167
1097.724	2294.95833
1101.122	2303.29167
1104.516	2289.95833
1107.908	2299.625
1111.298	2326.29167
1114.684	2345.95833
1118.069	2366.625
1121.45	2407.95833
1124.83	2404.625
1128.206	2420.95833
1131.58	2464.29167
1134.951	2510.29167
1138.32	2587.625
1141.687	2669.95833
1145.05	2714.95833
1148.412	2716.625
1151.77	2701.29167
1155.126	2685.95833
1158.48	2672.29167
1161.831	2668.29167
1165.18	2671.625
1168.525	2714.95833
1171.869	2764.29167
1175.21	2758.95833
1178.548	2778.29167
1181.884	2802.29167
1185.217	2813.29167
1188.548	2896.625
1191.877	2951.29167
1195.202	3060.95833
1198.526	3087.625
1201.846	3139.29167
1205.165	3119.95833
1208.48	3103.625
1211.794	3116.95833
1215.104	3132.625
1218.413	3133.29167
1221.719	3121.29167
1225.022	3071.95833
1228.323	3016.29167
1231.621	2990.625
1234.917	2982.95833
1238.21	2996.29167
1241.501	2990.29167
1244.79	2968.95833
1248.076	2963.29167
1251.359	3011.625
1254.64	3056.95833
1257.919	3084.95833
1261.195	3115.625
1264.468	3165.29167
1267.74	3209.95833
1271.008	3206.625
1274.275	3191.29167
1277.538	3172.29167
1280.8	3169.95833
1284.059	3177.95833
1287.315	3186.29167
1290.569	3216.29167
1293.821	3247.29167
1297.07	3249.29167
1300.317	3300.29167
1303.562	3281.95833
1306.803	3243.95833
1310.043	3217.29167
1313.28	3214.29167
1316.515	3194.95833
1319.747	3158.95833
1322.977	3158.29167
1326.204	3142.95833
1329.429	3074.95833
1332.652	3078.625
1335.872	3064.29167
1339.09	3027.95833
1342.306	2965.625
1345.519	2963.29167
1348.729	2935.95833
1351.938	2931.625
1355.144	2869.625
1358.347	2826.95833
1361.548	2821.625
1364.747	2794.95833
1367.944	2780.29167
1371.138	2801.95833
1374.329	2806.29167
1377.518	2840.625
1380.705	2858.29167
1383.89	2828.625
1387.072	2765.95833
1390.252	2660.625
1393.429	2567.625
1396.605	2489.29167
1399.777	2457.29167
1402.948	2410.95833
1406.116	2421.625
1409.282	2419.29167
1412.445	2420.625
1415.606	2461.625
1418.765	2496.29167
1421.921	2514.625
1425.075	2557.29167
1428.227	2634.29167
1431.376	2703.625
1434.524	2797.95833
1437.668	2891.95833
1440.811	2917.29167
1443.951	2953.95833
1447.089	2980.95833
1450.224	2923.95833
1453.357	2902.29167
1456.488	2884.625
1459.617	2813.95833
1462.743	2779.95833
1465.867	2714.29167
1468.989	2655.625
1472.108	2621.625
1475.225	2577.29167
1478.34	2556.95833
1481.453	2548.95833
1484.563	2536.29167
1487.671	2554.625
1490.776	2588.625
1493.88	2644.625
1496.981	2683.29167
1500.08	2704.29167
1503.176	2753.625
1506.271	2765.625
1509.363	2805.95833
1512.452	2842.625
1515.54	2877.95833
1518.625	2889.95833
1521.708	2963.95833
1524.789	3049.625
1527.867	3157.625
1530.944	3317.29167
1534.018	3438.95833
1537.089	3584.625
1540.159	3637.625
1543.226	3642.29167
1546.291	3576.95833
1549.354	3492.95833
1552.415	3420.29167
1555.473	3337.29167
1558.529	3259.625
1561.583	3230.29167
1564.634	3202.625
1567.684	3208.95833
1570.731	3239.95833
1573.776	3269.29167
1576.819	3283.29167
1579.859	3339.95833
1582.898	3360.29167
1585.934	3398.625
1588.968	3410.625
1591.999	3393.95833
1595.029	3371.95833
1598.056	3439.29167
1601.081	3440.29167
1604.104	3445.95833
1607.125	3414.29167
1610.144	3313.29167
1613.16	3266.625
1616.174	3178.95833
1619.186	3129.95833
1622.196	3038.625
1625.203	2975.29167
1628.209	2937.625
1631.212	2898.29167
1634.213	2915.29167
1637.212	2891.625
1640.209	2872.29167
1643.203	2784.29167
1646.196	2715.95833
1649.186	2607.95833
1652.174	2531.29167
1655.16	2456.625
1658.144	2383.625
1661.125	2264.625
1664.105	2209.29167
1667.082	2110.29167
1670.057	2015.29167
1673.03	1895.625
1676.001	1777.95833
1678.97	1662.95833
1681.937	1559.95833
1684.901	1488.625
1687.863	1419.95833
1690.824	1366.29167
1693.782	1341.625
1696.738	1291.625
1699.692	1258.625
1702.643	1240.625
1705.593	1224.95833
1708.54	1204.625
1711.486	1201.95833
1714.429	1179.625
1717.37	1163.95833
1720.309	1156.625
1723.246	1154.29167
1726.181	1123.29167
1729.113	1138.29167
1732.044	1108.625
1734.972	1108.95833
1737.899	1114.29167
1740.823	1124.95833
1743.745	1071.29167
1746.665	1063.625
1749.583	1039.29167
1752.499	1055.625
1755.413	1033.29167
1758.325	1006.29167
1761.235	1004.29167
1764.142	983.625
1767.048	975.29167
1769.951	973.29167
1772.852	978.625
1775.752	964.95833
1778.649	971.95833
1781.544	963.95833
1784.437	929.95833
1787.328	952.625
1790.217	934.625
1793.104	921.625
1795.989	931.95833
1798.872	923.95833
1801.753	925.95833
1804.631	923.95833
1807.508	927.95833
1810.383	921.625
1813.255	907.625
1816.126	907.95833
1818.994	924.625
1821.861	894.625
1824.725	893.95833
1827.587	908.29167
1830.448	891.625
1833.306	862.625
1836.162	890.625
1839.017	882.625
1841.869	871.29167
1844.719	864.29167
1847.567	853.625
1850.414	850.29167
1853.258	853.625
1856.1	858.29167
1858.94	872.95833
1861.778	853.29167
1864.614	856.625
1867.448	856.95833
1870.28	851.625
1873.111	863.29167
1875.939	849.95833
1878.765	874.625
1881.589	833.29167
1884.411	836.625
1887.231	860.95833
1890.049	845.29167
1892.865	839.625
1895.68	824.29167
1898.492	850.29167
1901.302	835.95833
1904.11	828.95833
1906.916	826.29167
1909.721	816.625
1912.523	825.29167
1915.323	795.29167
1918.122	803.625
1920.918	812.95833
1923.712	808.29167
1926.505	805.625
1929.295	794.625
1932.084	800.625
1934.87	804.95833
1937.655	805.95833
1940.438	814.29167
1943.218	806.95833
1945.997	807.625
1948.774	814.625
1951.549	818.625
1954.322	806.29167
1957.093	798.29167
1959.862	789.625
1962.629	788.29167
1965.394	788.625
1968.157	778.29167
1970.918	776.95833
1973.678	773.29167
1976.435	788.625
1979.19	771.29167
1981.944	764.95833
1984.696	768.95833
1987.445	761.95833
1990.193	769.625
1992.939	780.95833
1995.683	779.95833
1998.425	752.95833
2001.165	785.95833
2003.903	758.95833
2006.639	756.625
2009.374	759.29167
2012.106	762.29167
2014.837	747.29167
2017.566	753.625
2020.292	762.95833
2023.017	760.29167
2025.74	747.625
2028.461	746.625
2031.18	736.29167
2033.898	751.29167
2036.613	750.625
2039.327	753.29167
2042.038	740.625
2044.748	734.625
2047.456	746.95833
2050.162	731.95833
2052.866	732.625
2055.568	760.95833
2058.268	730.29167
2060.967	741.625
2063.663	727.625
2066.358	725.625
2069.051	738.625
2071.742	732.625
2074.431	735.95833
2077.118	734.625
2079.804	732.95833
2082.487	725.625
2085.169	739.95833
2087.849	746.29167
2090.527	725.625
2093.203	750.625
2095.877	753.625
2098.55	755.95833
2101.22	751.95833
2103.889	773.625
2106.556	761.95833
2109.221	780.95833
2111.884	788.29167
2114.546	849.625
2117.205	873.625
2119.863	947.29167
2122.519	967.625
2125.173	1024.625
2127.825	1055.625
2130.475	1059.95833
2133.124	1025.29167
2135.771	992.95833
2138.416	953.625
2141.059	908.625
2143.7	885.29167
2146.339	839.95833
2148.977	796.625
2151.613	789.29167
2154.247	785.95833
2156.879	777.95833
2159.51	746.95833
2162.138	741.29167
2164.765	738.95833
2167.39	732.29167
2170.013	753.95833
2172.634	736.625
2175.254	731.29167
2177.872	758.29167
2180.488	718.95833
2183.102	725.625
2185.714	715.29167
2188.325	688.625
2190.934	715.29167
2193.541	717.95833
2196.146	697.95833
2198.75	697.95833
2201.351	701.95833
2203.951	688.95833
2206.549	711.625
2209.146	684.625
2211.74	692.29167
2214.333	697.625
2216.924	672.625
2219.514	693.29167
2222.101	685.625
2224.687	698.625
2227.271	689.625
2229.853	681.95833
2232.433	664.29167
2235.012	682.625
2237.589	688.29167
2240.164	695.95833
2242.738	680.625
2245.309	666.625
2247.879	682.95833
2250.448	689.625
2253.014	676.29167
2255.579	657.95833
2258.142	663.625
2260.703	654.29167
2263.262	660.29167
2265.82	652.625
2268.376	675.625
2270.93	649.625
2273.483	644.95833
2276.033	663.29167
2278.583	657.29167
2281.13	655.625
2283.675	647.625
2286.219	655.625
2288.761	658.29167
2291.302	652.95833
2293.841	674.625
2296.377	641.29167
2298.913	653.29167
2301.446	668.95833
2303.978	652.625
2306.508	657.95833
2309.037	663.95833
2311.563	658.625
2314.088	668.625
2316.612	648.625
2319.133	652.625
2321.653	651.29167
2324.171	649.625
2326.688	660.95833
2329.202	650.95833
2331.715	657.95833
2334.227	640.29167
2336.736	658.29167
2339.244	654.95833
2341.751	639.29167
2344.255	660.95833
2346.758	660.95833
2349.259	649.625
2351.759	668.95833
2354.257	657.95833
2356.753	650.625
2359.247	660.95833
2361.74	663.29167
2364.231	664.625
2366.721	653.29167
2369.209	657.625
2371.695	664.625
2374.179	662.29167
2376.662	646.95833
2379.143	681.29167
2381.622	660.29167
2384.1	669.625
2386.576	670.29167
2389.051	685.625
2391.524	686.95833
2393.995	679.95833
2396.464	666.625
2398.932	664.625
2401.398	665.29167
2403.863	673.95833
2406.325	674.95833
2408.787	682.95833
2411.246	662.625
2413.704	672.95833
2416.16	670.625
2418.615	671.95833
2421.068	692.29167
2423.519	696.625
2425.969	681.95833
2428.417	692.29167
2430.863	707.29167
2433.308	692.625
2435.751	698.95833
2438.193	680.29167
2440.633	698.95833
2443.071	698.95833
2445.508	686.29167
2447.943	678.29167
2450.376	690.625
2452.808	694.29167
2455.238	686.29167
2457.667	707.95833
2460.093	706.625
2462.519	693.29167
2464.942	693.95833
2467.365	700.625
2469.785	708.625
2472.204	707.625
2474.621	690.29167
2477.037	716.625
2479.451	687.625
2481.863	694.95833
2484.274	709.95833
2486.683	708.95833
2489.091	721.95833
2491.497	713.29167
2493.901	719.29167
2496.304	712.625
2498.705	727.95833
2501.105	701.625
2503.503	750.625
2505.899	711.625
2508.294	731.625
2510.687	716.29167
2513.079	722.95833
2515.469	704.95833
2517.858	729.29167
2520.245	733.95833
2522.63	724.625
2525.014	721.625
2527.396	715.625
2529.776	711.29167
2532.156	738.95833
2534.533	725.625
2536.909	730.625
2539.283	717.95833
2541.656	731.29167
2544.027	761.95833
2546.397	733.625
2548.765	746.95833
2551.131	750.625
2553.496	749.29167
2555.86	754.95833
2558.221	749.625
2560.582	742.95833
2562.94	735.29167
2565.298	744.95833
2567.653	767.625
2570.007	745.29167
2572.36	776.29167
2574.711	741.29167
2577.06	779.95833
2579.408	769.29167
2581.754	775.95833
2584.099	770.95833
2586.442	772.29167
2588.784	776.95833
2591.124	771.625
2593.463	779.625
2595.8	786.95833
2598.135	784.625
2600.469	768.95833
2602.802	798.625
2605.133	801.29167
2607.462	773.95833
2609.79	782.95833
2612.116	798.625
2614.441	793.29167
2616.764	805.95833
2619.086	801.95833
2621.406	786.29167
2623.725	818.29167
2626.042	804.625
2628.358	797.625
2630.672	807.29167
2632.985	828.625
2635.296	816.29167
2637.606	820.625
2639.914	807.625
2642.22	826.95833
2644.525	825.95833
2646.829	831.29167
2649.131	841.625
2651.432	842.625
2653.731	839.625
2656.028	851.29167
2658.324	860.625
2660.619	847.29167
2662.912	861.29167
2665.204	855.95833
2667.494	869.625
2669.782	851.95833
2672.07	881.95833
2674.355	859.625
2676.639	862.95833
2678.922	856.29167
2681.203	869.95833
2683.483	866.95833
2685.761	867.95833
2688.038	872.95833
2690.313	895.95833
2692.587	890.29167
2694.859	879.625
2697.13	888.29167
2699.399	892.29167
2701.667	911.29167
2703.933	897.95833
2706.198	906.95833
2708.461	912.95833
2710.723	921.29167
2712.984	911.29167
2715.243	926.625
2717.5	920.95833
2719.757	938.29167
2722.011	942.625
2724.264	957.29167
2726.516	957.29167
2728.766	953.625
2731.015	967.625
2733.262	970.625
2735.508	968.29167
2737.753	956.95833
2739.996	947.95833
2742.237	954.95833
2744.477	975.29167
2746.716	983.95833
2748.953	958.625
2751.189	959.29167
2753.423	941.625
2755.656	936.95833
2757.887	947.625
2760.117	954.29167
2762.346	926.95833
2764.573	939.625
2766.798	946.95833
2769.022	944.95833
2771.245	962.625
2773.467	953.95833
2775.686	976.625
2777.905	963.29167
2780.122	972.625
2782.337	988.95833
2784.552	975.95833
2786.764	993.625
2788.976	987.625
2791.186	999.29167
2793.394	1012.29167
2795.601	1011.95833
2797.807	1047.29167
2800.011	1029.95833
2802.214	1047.625
2804.415	1028.625
2806.615	1045.625
2808.814	1039.95833
2811.011	1048.95833
2813.206	1051.95833
2815.401	1061.95833
2817.594	1058.625
2819.785	1075.95833
2821.975	1075.29167
2824.164	1083.95833
2826.351	1091.95833
2828.537	1114.29167
2830.722	1118.29167
2832.905	1127.625
2835.086	1154.625
2837.267	1181.625
2839.445	1175.625
2841.623	1198.95833
2843.799	1230.29167
2845.974	1244.625
2848.147	1278.625
2850.319	1284.95833
2852.489	1328.29167
2854.659	1340.95833
2856.826	1337.29167
2858.993	1369.625
2861.158	1377.625
2863.321	1371.625
2865.483	1378.29167
2867.644	1377.29167
2869.804	1381.29167
2871.962	1365.95833
2874.118	1370.625
2876.274	1360.95833
2878.428	1363.625
2880.58	1361.29167
2882.731	1349.625
2884.881	1352.625
2887.03	1363.29167
2889.177	1372.625
2891.322	1375.625
2893.467	1369.625
2895.61	1383.95833
2897.751	1399.95833
2899.892	1400.95833
2902.03	1408.29167
2904.168	1404.95833
2906.304	1406.29167
2908.439	1437.95833
2910.572	1415.95833
2912.704	1463.625
2914.835	1429.95833
2916.965	1430.29167
2919.093	1454.29167
2921.219	1427.95833
2923.345	1444.625
2925.469	1428.625
2927.591	1421.625
2929.712	1403.29167
2931.832	1387.29167
2933.951	1388.625
2936.068	1356.625
2938.184	1349.625
2940.299	1321.29167
2942.412	1318.625
2944.524	1289.29167
2946.634	1288.95833
2948.744	1260.95833
2950.851	1286.95833
2952.958	1247.95833
2955.063	1236.625
2957.167	1245.625
2959.269	1222.95833
2961.371	1251.95833
2963.471	1219.95833
2965.569	1229.29167
2967.666	1203.625
2969.762	1201.625
2971.857	1184.29167
2973.95	1168.625
2976.042	1167.625
2978.133	1136.625
2980.222	1146.95833
2982.31	1117.95833
2984.396	1099.625
2986.482	1106.29167
2988.566	1088.625
2990.648	1087.95833
2992.73	1083.625
2994.81	1074.95833
2996.889	1076.29167
2998.966	1102.29167
3001.042	1100.95833
3003.117	1079.95833
3005.191	1091.625
3007.263	1093.95833
3009.334	1062.625
3011.403	1072.95833
3013.472	1055.29167
3015.539	1047.95833
3017.604	1043.29167
3019.669	1005.95833
3021.732	1007.29167
3023.794	1012.95833
3025.854	1013.95833
3027.914	1005.95833
3029.971	1016.625
3032.028	1023.29167
3034.083	1017.29167
3036.137	983.95833
3038.19	964.625
3040.242	947.95833
3042.292	923.625
3044.341	931.29167
3046.388	932.29167
3048.435	887.625
3050.48	914.29167
3052.524	915.29167
3054.566	888.625
3056.607	901.625
3058.647	888.29167
3060.686	846.95833
3062.723	815.625
3064.759	799.625
3066.794	0.625
3068.828	2.95833
3070.86	1.95833
