-0.839	461.66667
3.438	540.66667
7.711	163
11.981	56
16.247	42
20.509	50.33333
24.768	46.33333
29.024	50.33333
33.276	41.66667
37.524	48.33333
41.769	48.33333
46.01	30
50.247	46.33333
54.481	59.66667
58.712	58.66667
62.939	47
67.162	62
71.382	56.33333
75.599	41.33333
79.812	60.33333
84.021	73.66667
88.227	56.66667
92.429	53.33333
96.628	52.66667
100.823	67.33333
105.015	72.33333
109.204	60.33333
113.388	69.33333
117.57	67.33333
121.748	80.66667
125.922	72
130.093	93
134.261	93.33333
138.425	87
142.585	125
146.742	113.66667
150.896	142.33333
155.046	175.66667
159.193	282
163.336	479
167.476	866
171.613	1572
175.746	2612.33333
179.875	3793.66667
184.002	4947
188.124	5651
192.244	5843.33333
196.36	5741.33333
200.472	5515.33333
204.581	5286.66667
208.687	5074
212.79	4967.66667
216.889	4884
220.984	4819.66667
225.077	4798.66667
229.165	4765.33333
233.251	4718
237.333	4632
241.412	4560.66667
245.487	4481.66667
249.559	4425.66667
253.628	4376.33333
257.694	4349.33333
261.756	4321
265.814	4206
269.87	4100.66667
273.922	3987.33333
277.97	3955
282.016	3915.66667
286.058	3938.66667
290.097	4063.66667
294.132	4134.33333
298.164	4100.33333
302.193	3881.66667
306.219	3628
310.241	3323
314.26	3057.33333
318.276	2843.66667
322.288	2706.33333
326.297	2591
330.303	2483.33333
334.305	2419
338.305	2363
342.301	2350.33333
346.294	2329
350.283	2309.66667
354.269	2305.66667
358.252	2274.33333
362.232	2238.33333
366.209	2229.66667
370.182	2204.66667
374.152	2182.66667
378.119	2209.33333
382.083	2188
386.043	2205.33333
390	2159
393.954	2187.66667
397.905	2163
401.852	2159.66667
405.797	2131.66667
409.738	2126
413.676	2118.66667
417.61	2121.33333
421.542	2080.33333
425.47	2095
429.396	2059.33333
433.318	2051.33333
437.236	2066.66667
441.152	2090
445.065	2030.33333
448.974	2018.66667
452.88	2012
456.783	1987.66667
460.683	1987.66667
464.58	1976.33333
468.473	1968
472.364	1989.66667
476.251	1969.33333
480.135	2014.66667
484.016	2042.33333
487.894	2055
491.769	2060.33333
495.641	2060.66667
499.509	2092.33333
503.375	2085
507.237	2104.33333
511.096	2120.33333
514.952	2230.66667
518.805	2355
522.655	2382
526.502	2234
530.346	2092.33333
534.187	2086.33333
538.024	2068.33333
541.859	2097
545.69	2108.66667
549.519	2099
553.344	2080.66667
557.166	2050.33333
560.985	2002.66667
564.802	1995.66667
568.615	1956
572.425	1908.66667
576.232	1905.33333
580.036	1898.66667
583.836	1904
587.634	1935.66667
591.429	1925.33333
595.221	1960.33333
599.01	2003
602.796	2013.66667
606.578	2011.33333
610.358	1992
614.135	1995
617.909	1981.66667
621.679	1959
625.447	1949.66667
629.212	1934.66667
632.973	1940.66667
636.732	1944
640.488	1937
644.241	1931.33333
647.991	1927.33333
651.737	1948.66667
655.481	1931.66667
659.222	1933.33333
662.96	1917
666.695	1939
670.427	1953.66667
674.156	1969.33333
677.882	1950
681.605	1943.33333
685.325	1924
689.043	1927
692.757	1890.66667
696.468	1893
700.177	1915.33333
703.882	1880.33333
707.585	1864.66667
711.284	1863
714.981	1860
718.675	1875.66667
722.366	1897.33333
726.054	1868
729.739	1882.33333
733.421	1893.66667
737.1	1870
740.777	1893.66667
744.45	1923.66667
748.121	1915.66667
751.789	1964
755.453	1940.33333
759.115	1969.66667
762.774	1981
766.431	1974.66667
770.084	2006
773.734	2008.33333
777.382	2065
781.027	2086.66667
784.669	2097.33333
788.308	2092.33333
791.944	2125.33333
795.577	2133.66667
799.208	2136
802.835	2158.66667
806.46	2157
810.082	2168.33333
813.701	2182.33333
817.317	2212.33333
820.931	2183
824.542	2197.66667
828.149	2173.33333
831.754	2143
835.357	2142
838.956	2156.66667
842.553	2162
846.146	2120.66667
849.737	2115
853.326	2108.33333
856.911	2091.66667
860.493	2132
864.073	2149.33333
867.65	2177.66667
871.225	2223.66667
874.796	2218.33333
878.365	2233
881.931	2250
885.494	2274
889.054	2302.66667
892.612	2321
896.166	2317
899.719	2328
903.268	2264.33333
906.814	2255
910.358	2189
913.899	2164.33333
917.438	2158
920.973	2146.33333
924.506	2185.33333
928.036	2215.66667
931.564	2241.66667
935.088	2267
938.61	2283
942.129	2306
945.646	2365.33333
949.16	2412
952.671	2441
956.179	2445.33333
959.685	2427.66667
963.188	2396.33333
966.688	2401.66667
970.185	2322.66667
973.68	2260.66667
977.173	2207.33333
980.662	2197.33333
984.149	2158.66667
987.633	2150.66667
991.114	2196
994.593	2252.66667
998.069	2299
1001.542	2349.33333
1005.013	2337.66667
1008.481	2197.33333
1011.947	2176.66667
1015.409	2149
1018.869	2152.33333
1022.327	2153
1025.782	2128.66667
1029.234	2150.33333
1032.683	2117.33333
1036.13	2062
1039.574	1969
1043.016	1918.66667
1046.455	1896
1049.891	1864.66667
1053.325	1880.33333
1056.756	1872
1060.184	1904
1063.61	1893.66667
1067.033	1899
1070.454	1908
1073.872	1956.33333
1077.287	1945.33333
1080.7	1942.66667
1084.11	1945.66667
1087.517	1942.66667
1090.922	1902
1094.325	1886.33333
1097.724	1846
1101.122	1859.66667
1104.516	1857.33333
1107.908	1850
1111.298	1898.33333
1114.684	1927
1118.069	1941.33333
1121.45	1989.33333
1124.83	1973.66667
1128.206	1990.33333
1131.58	2009
1134.951	2075
1138.32	2126.66667
1141.687	2210
1145.05	2245
1148.412	2228.66667
1151.77	2221.66667
1155.126	2224
1158.48	2195.33333
1161.831	2197.33333
1165.18	2240.33333
1168.525	2244.33333
1171.869	2262.33333
1175.21	2305.33333
1178.548	2325
1181.884	2345.33333
1185.217	2375
1188.548	2449.66667
1191.877	2503.66667
1195.202	2575.33333
1198.526	2640.33333
1201.846	2676.66667
1205.165	2674.33333
1208.48	2665.66667
1211.794	2641.33333
1215.104	2670
1218.413	2660
1221.719	2676
1225.022	2627.33333
1228.323	2581
1231.621	2548.33333
1234.917	2532.33333
1238.21	2561.66667
1241.501	2513
1244.79	2478.33333
1248.076	2481.33333
1251.359	2526
1254.64	2594.33333
1257.919	2576.66667
1261.195	2631.33333
1264.468	2685.33333
1267.74	2719.33333
1271.008	2713.66667
1274.275	2704.33333
1277.538	2680.33333
1280.8	2685.66667
1284.059	2692.66667
1287.315	2739.66667
1290.569	2757
1293.821	2771.33333
1297.07	2809.66667
1300.317	2825.33333
1303.562	2838
1306.803	2806
1310.043	2802.33333
1313.28	2773
1316.515	2762.66667
1319.747	2742
1322.977	2750
1326.204	2707
1329.429	2689.33333
1332.652	2666.66667
1335.872	2646.66667
1339.09	2589.66667
1342.306	2559.66667
1345.519	2485.66667
1348.729	2495.33333
1351.938	2465
1355.144	2439
1358.347	2404.33333
1361.548	2404.33333
1364.747	2411.33333
1367.944	2364.66667
1371.138	2372
1374.329	2378
1377.518	2418.66667
1380.705	2417.66667
1383.89	2389.33333
1387.072	2311.33333
1390.252	2241
1393.429	2176.66667
1396.605	2111
1399.777	2059
1402.948	2049.33333
1406.116	2062
1409.282	2062.33333
1412.445	2063.33333
1415.606	2088
1418.765	2127
1421.921	2159.33333
1425.075	2209.33333
1428.227	2242.33333
1431.376	2330
1434.524	2427.66667
1437.668	2506.66667
1440.811	2535.66667
1443.951	2543.33333
1447.089	2581.33333
1450.224	2558.33333
1453.357	2515
1456.488	2503.66667
1459.617	2454
1462.743	2385.33333
1465.867	2331.66667
1468.989	2292
1472.108	2259.66667
1475.225	2219.66667
1478.34	2194
1481.453	2167.33333
1484.563	2184.66667
1487.671	2207.66667
1490.776	2245
1493.88	2243.33333
1496.981	2310.66667
1500.08	2346.33333
1503.176	2357.66667
1506.271	2367.33333
1509.363	2407.33333
1512.452	2450.33333
1515.54	2480.33333
1518.625	2489.66667
1521.708	2568.33333
1524.789	2622.66667
1527.867	2684
1530.944	2822.33333
1534.018	2943.66667
1537.089	3046.66667
1540.159	3103.66667
1543.226	3092
1546.291	3055.33333
1549.354	2999
1552.415	2919.33333
1555.473	2878
1558.529	2812.33333
1561.583	2789.33333
1564.634	2783.66667
1567.684	2795.66667
1570.731	2818.33333
1573.776	2864.66667
1576.819	2903.66667
1579.859	2936
1582.898	2962
1585.934	3012
1588.968	3006.33333
1591.999	3002.66667
1595.029	3013
1598.056	3053
1601.081	3081.66667
1604.104	3074
1607.125	3059.33333
1610.144	2994
1613.16	2921.33333
1616.174	2845.66667
1619.186	2762
1622.196	2689.33333
1625.203	2616
1628.209	2567.33333
1631.212	2530.66667
1634.213	2509.33333
1637.212	2513.66667
1640.209	2467.33333
1643.203	2434.66667
1646.196	2361.66667
1649.186	2267.33333
1652.174	2216.66667
1655.16	2136.66667
1658.144	2091.66667
1661.125	1978
1664.105	1905.66667
1667.082	1799.33333
1670.057	1729.33333
1673.03	1608
1676.001	1517.66667
1678.97	1399.66667
1681.937	1326.66667
1684.901	1258.66667
1687.863	1229
1690.824	1160.66667
1693.782	1142.33333
1696.738	1088.66667
1699.692	1059
1702.643	1044
1705.593	1038.33333
1708.54	1013.33333
1711.486	1018.33333
1714.429	981.66667
1717.37	987
1720.309	956.33333
1723.246	981.66667
1726.181	951.66667
1729.113	962
1732.044	930
1734.972	904.66667
1737.899	929.33333
1740.823	938
1743.745	904.66667
1746.665	890.66667
1749.583	875
1752.499	861.33333
1755.413	861.33333
1758.325	829.66667
1761.235	843
1764.142	821.33333
1767.048	812.66667
1769.951	801.66667
1772.852	805.66667
1775.752	806.33333
1778.649	797
1781.544	799.33333
1784.437	784.33333
1787.328	793.66667
1790.217	787.66667
1793.104	762.33333
1795.989	762.66667
1798.872	770
1801.753	773.66667
1804.631	771.66667
1807.508	776.66667
1810.383	767.66667
1813.255	763
1816.126	752
1818.994	752.66667
1821.861	749.66667
1824.725	754
1827.587	745
1830.448	737.66667
1833.306	716.66667
1836.162	745
1839.017	735
1841.869	730.66667
1844.719	725
1847.567	713.66667
1850.414	707.33333
1853.258	715
1856.1	735.33333
1858.94	731.66667
1861.778	713
1864.614	719.66667
1867.448	714.33333
1870.28	706.33333
1873.111	729.66667
1875.939	709.33333
1878.765	725
1881.589	711.66667
1884.411	715.66667
1887.231	715
1890.049	712.66667
1892.865	717
1895.68	701.66667
1898.492	695.33333
1901.302	699.66667
1904.11	695
1906.916	688.66667
1909.721	680.33333
1912.523	696.33333
1915.323	673.33333
1918.122	686.33333
1920.918	697.33333
1923.712	685
1926.505	670.33333
1929.295	676.33333
1932.084	690
1934.87	681
1937.655	676
1940.438	681.33333
1943.218	675
1945.997	687
1948.774	683.33333
1951.549	679.66667
1954.322	673.33333
1957.093	673.66667
1959.862	671.33333
1962.629	666
1965.394	670.33333
1968.157	652.33333
1970.918	663
1973.678	647
1976.435	666
1979.19	657.66667
1981.944	656.33333
1984.696	647
1987.445	635.33333
1990.193	652
1992.939	651.33333
1995.683	661
1998.425	638
2001.165	678.33333
2003.903	647.33333
2006.639	645.66667
2009.374	658.66667
2012.106	645.66667
2014.837	641.33333
2017.566	643.66667
2020.292	649.66667
2023.017	647.66667
2025.74	647.33333
2028.461	627
2031.18	649
2033.898	640.66667
2036.613	636.33333
2039.327	640.33333
2042.038	621
2044.748	626.33333
2047.456	651.33333
2050.162	627.33333
2052.866	635.66667
2055.568	636.33333
2058.268	623.33333
2060.967	630.66667
2063.663	623.66667
2066.358	625.66667
2069.051	622.66667
2071.742	626.33333
2074.431	632.66667
2077.118	630.66667
2079.804	626
2082.487	636.33333
2085.169	627.66667
2087.849	655.66667
2090.527	629
2093.203	641
2095.877	646.66667
2098.55	647.33333
2101.22	646
2103.889	658.33333
2106.556	646.66667
2109.221	669
2111.884	692.66667
2114.546	736.33333
2117.205	754.33333
2119.863	817.66667
2122.519	835.66667
2125.173	876.33333
2127.825	914.33333
2130.475	915.33333
2133.124	877
2135.771	846.66667
2138.416	814.33333
2141.059	779
2143.7	760
2146.339	713
2148.977	685
2151.613	689
2154.247	669
2156.879	659
2159.51	646
2162.138	633
2164.765	639.33333
2167.39	622.33333
2170.013	641
2172.634	642.66667
2175.254	638
2177.872	659.33333
2180.488	618.33333
2183.102	629.66667
2185.714	620.66667
2188.325	597
2190.934	614
2193.541	621.66667
2196.146	612
2198.75	602.66667
2201.351	607.33333
2203.951	599.33333
2206.549	617
2209.146	612.66667
2211.74	605.66667
2214.333	615.33333
2216.924	600
2219.514	594.33333
2222.101	595.66667
2224.687	610.66667
2227.271	599
2229.853	601
2232.433	580.33333
2235.012	604.66667
2237.589	603.33333
2240.164	612.33333
2242.738	603.33333
2245.309	594
2247.879	605.66667
2250.448	600.66667
2253.014	584
2255.579	579.33333
2258.142	588.33333
2260.703	571
2263.262	584.33333
2265.82	580.33333
2268.376	586.66667
2270.93	574
2273.483	576
2276.033	573
2278.583	578.33333
2281.13	570
2283.675	570.66667
2286.219	573.66667
2288.761	582.66667
2291.302	582.33333
2293.841	581.66667
2296.377	576
2298.913	582
2301.446	594
2303.978	594
2306.508	569.66667
2309.037	585
2311.563	582.66667
2314.088	584.33333
2316.612	572
2319.133	579
2321.653	584.33333
2324.171	579
2326.688	587.66667
2329.202	581.33333
2331.715	582
2334.227	587.33333
2336.736	588.66667
2339.244	580.66667
2341.751	568
2344.255	582.33333
2346.758	581
2349.259	573.33333
2351.759	576.33333
2354.257	577
2356.753	569
2359.247	586
2361.74	590.66667
2364.231	605
2366.721	602.33333
2369.209	589.66667
2371.695	585.66667
2374.179	587.66667
2376.662	563.66667
2379.143	607
2381.622	595.33333
2384.1	604
2386.576	592
2389.051	606.66667
2391.524	613.66667
2393.995	605.66667
2396.464	593.33333
2398.932	597.33333
2401.398	604
2403.863	607
2406.325	602
2408.787	605.33333
2411.246	597.66667
2413.704	589.66667
2416.16	598
2418.615	606.66667
2421.068	608.33333
2423.519	611
2425.969	618.66667
2428.417	608.33333
2430.863	646.33333
2433.308	613.33333
2435.751	622.33333
2438.193	626.66667
2440.633	620.66667
2443.071	628
2445.508	622
2447.943	621.66667
2450.376	617.66667
2452.808	629
2455.238	612.33333
2457.667	653.66667
2460.093	626
2462.519	624
2464.942	628
2467.365	635
2469.785	635.33333
2472.204	630.66667
2474.621	628.66667
2477.037	645
2479.451	631.33333
2481.863	625
2484.274	639
2486.683	637.66667
2489.091	644
2491.497	645.33333
2493.901	653.33333
2496.304	638.33333
2498.705	650.66667
2501.105	652.33333
2503.503	674.66667
2505.899	627.66667
2508.294	662.33333
2510.687	662.33333
2513.079	671.66667
2515.469	649
2517.858	659.33333
2520.245	659.66667
2522.63	655
2525.014	654.66667
2527.396	649.33333
2529.776	649.33333
2532.156	684
2534.533	649.66667
2536.909	652
2539.283	648.66667
2541.656	654.33333
2544.027	690.33333
2546.397	671.66667
2548.765	668.33333
2551.131	669.33333
2553.496	669
2555.86	690
2558.221	681.66667
2560.582	674
2562.94	665.66667
2565.298	677.33333
2567.653	702.33333
2570.007	678.66667
2572.36	699
2574.711	683.66667
2577.06	700.66667
2579.408	706.33333
2581.754	696
2584.099	696
2586.442	700.66667
2588.784	708
2591.124	701.66667
2593.463	714.33333
2595.8	701
2598.135	708.33333
2600.469	709.33333
2602.802	720.33333
2605.133	735.66667
2607.462	715
2609.79	712.33333
2612.116	727
2614.441	723.33333
2616.764	725.66667
2619.086	723
2621.406	722.66667
2623.725	746.33333
2626.042	743
2628.358	741.66667
2630.672	734.66667
2632.985	747.33333
2635.296	749
2637.606	755.33333
2639.914	743.33333
2642.22	745
2644.525	753.33333
2646.829	764.33333
2649.131	778.66667
2651.432	782
2653.731	769.33333
2656.028	784
2658.324	787
2660.619	779
2662.912	796.33333
2665.204	771.33333
2667.494	783.33333
2669.782	782.33333
2672.07	795
2674.355	807.33333
2676.639	798
2678.922	791.66667
2681.203	788.33333
2683.483	777.66667
2685.761	786.66667
2688.038	801.66667
2690.313	828.66667
2692.587	818
2694.859	806.33333
2697.13	808
2699.399	821
2701.667	826.66667
2703.933	825.66667
2706.198	840.33333
2708.461	845.66667
2710.723	844.66667
2712.984	857
2715.243	850.33333
2717.5	842.66667
2719.757	864.66667
2722.011	852.66667
2724.264	894.66667
2726.516	888.33333
2728.766	871.66667
2731.015	881
2733.262	881.33333
2735.508	890.66667
2737.753	893
2739.996	874
2742.237	879.66667
2744.477	874.66667
2746.716	873
2748.953	884.66667
2751.189	884.66667
2753.423	878
2755.656	879
2757.887	874.66667
2760.117	873
2762.346	867
2764.573	864.33333
2766.798	872
2769.022	876.66667
2771.245	885
2773.467	886
2775.686	893
2777.905	891.33333
2780.122	898.66667
2782.337	904.66667
2784.552	917.66667
2786.764	914
2788.976	932.66667
2791.186	919.66667
2793.394	927
2795.601	931.33333
2797.807	953
2800.011	959.66667
2802.214	960.33333
2804.415	952.66667
2806.615	976
2808.814	973.33333
2811.011	988.33333
2813.206	976.33333
2815.401	991.33333
2817.594	996.66667
2819.785	1006
2821.975	999.33333
2824.164	1002
2826.351	1018
2828.537	1018
2830.722	1040.66667
2832.905	1053.66667
2835.086	1075
2837.267	1094.33333
2839.445	1108
2841.623	1113.33333
2843.799	1143
2845.974	1181.33333
2848.147	1203
2850.319	1230
2852.489	1252.33333
2854.659	1265
2856.826	1272.66667
2858.993	1299
2861.158	1268.33333
2863.321	1296
2865.483	1310
2867.644	1306
2869.804	1289.33333
2871.962	1286.33333
2874.118	1298
2876.274	1284.33333
2878.428	1298
2880.58	1283
2882.731	1288.33333
2884.881	1286
2887.03	1291
2889.177	1299
2891.322	1298
2893.467	1304.66667
2895.61	1311.66667
2897.751	1327
2899.892	1320.33333
2902.03	1327.33333
2904.168	1330.33333
2906.304	1336.66667
2908.439	1372.33333
2910.572	1343.66667
2912.704	1357.66667
2914.835	1363.33333
2916.965	1366
2919.093	1373
2921.219	1342.33333
2923.345	1366.33333
2925.469	1354.66667
2927.591	1332.66667
2929.712	1319.33333
2931.832	1308
2933.951	1289.66667
2936.068	1283.33333
2938.184	1268.33333
2940.299	1269.66667
2942.412	1245.66667
2944.524	1211.33333
2946.634	1202.66667
2948.744	1172
2950.851	1202.66667
2952.958	1167.66667
2955.063	1178.33333
2957.167	1163
2959.269	1150
2961.371	1182.66667
2963.471	1147.33333
2965.569	1153.33333
2967.666	1118.66667
2969.762	1130
2971.857	1115
2973.95	1089
2976.042	1095.66667
2978.133	1072.33333
2980.222	1043
2982.31	1035.33333
2984.396	1025
2986.482	1027
2988.566	1018
2990.648	1017.66667
2992.73	1002.66667
2994.81	1007.66667
2996.889	1013
2998.966	1007.33333
3001.042	1015.66667
3003.117	1018.33333
3005.191	1007.66667
3007.263	1020
3009.334	1002
3011.403	1000
3013.472	979.66667
3015.539	973.66667
3017.604	987.33333
3019.669	946
3021.732	962.33333
3023.794	951.33333
3025.854	943.33333
3027.914	927.66667
3029.971	949.33333
3032.028	940.33333
3034.083	941.66667
3036.137	917
3038.19	906
3040.242	869
3042.292	865
3044.341	856.33333
3046.388	868
3048.435	844.66667
3050.48	850.33333
3052.524	846
3054.566	838.66667
3056.607	837.33333
3058.647	824.33333
3060.686	785.33333
3062.723	774.66667
3064.759	742
3066.794	0
3068.828	1.66667
3070.86	2.33333
