-0.839	460.70833
3.438	532.375
7.711	160.375
11.981	55.375
16.247	41.70833
20.509	46.70833
24.768	43.70833
29.024	51.70833
33.276	44.04167
37.524	46.04167
41.769	42.375
46.01	30.04167
50.247	45.70833
54.481	60.375
58.712	59.70833
62.939	46.04167
67.162	61.04167
71.382	53.375
75.599	42.04167
79.812	58.04167
84.021	78.04167
88.227	59.04167
92.429	59.70833
96.628	52.375
100.823	65.04167
105.015	73.70833
109.204	63.70833
113.388	70.70833
117.57	71.04167
121.748	80.70833
125.922	74.04167
130.093	91.70833
134.261	95.70833
138.425	88.375
142.585	132.04167
146.742	121.70833
150.896	144.04167
155.046	184.375
159.193	287.04167
163.336	482.375
167.476	891.375
171.613	1619.70833
175.746	2670.70833
179.875	3922.375
184.002	5046.04167
188.124	5835.375
192.244	6032.04167
196.36	5900.70833
200.472	5669.375
204.581	5481.70833
208.687	5241.375
212.79	5128.04167
216.889	5074.04167
220.984	5025.70833
225.077	4998.70833
229.165	4951.375
233.251	4875.375
237.333	4837.375
241.412	4754.375
245.487	4676.70833
249.559	4627.70833
253.628	4578.70833
257.694	4547.04167
261.756	4508.04167
265.814	4442.04167
269.87	4306.70833
273.922	4164.04167
277.97	4122.04167
282.016	4099.70833
286.058	4079.04167
290.097	4212.04167
294.132	4296.04167
298.164	4259.70833
302.193	4077.04167
306.219	3783.375
310.241	3503.04167
314.26	3232.375
318.276	3019.375
322.288	2887.04167
326.297	2758.04167
330.303	2643.04167
334.305	2584.04167
338.305	2568.04167
342.301	2503.04167
346.294	2489.04167
350.283	2475.375
354.269	2438.70833
358.252	2441.70833
362.232	2438.04167
366.209	2409.375
370.182	2377.04167
374.152	2362.04167
378.119	2393.70833
382.083	2380.70833
386.043	2370.70833
390	2366.04167
393.954	2373.70833
397.905	2350.375
401.852	2335.375
405.797	2337.04167
409.738	2317.70833
413.676	2312.04167
417.61	2319.375
421.542	2303.375
425.47	2256.375
429.396	2258.04167
433.318	2244.375
437.236	2229.375
441.152	2290.04167
445.065	2196.70833
448.974	2197.375
452.88	2176.04167
456.783	2155.375
460.683	2160.04167
464.58	2156.04167
468.473	2171.70833
472.364	2157.70833
476.251	2184.04167
480.135	2209.375
484.016	2239.375
487.894	2248.70833
491.769	2257.375
495.641	2279.70833
499.509	2263.70833
503.375	2295.04167
507.237	2297.375
511.096	2288.375
514.952	2405.70833
518.805	2535.04167
522.655	2593.70833
526.502	2433.375
530.346	2293.70833
534.187	2272.375
538.024	2280.70833
541.859	2267.70833
545.69	2287.70833
549.519	2267.04167
553.344	2252.375
557.166	2231.375
560.985	2202.375
564.802	2172.375
568.615	2116.04167
572.425	2085.70833
576.232	2088.70833
580.036	2099.375
583.836	2090.04167
587.634	2094.04167
591.429	2083.70833
595.221	2158.375
599.01	2150.04167
602.796	2164.375
606.578	2182.375
610.358	2186.70833
614.135	2169.70833
617.909	2168.04167
621.679	2151.375
625.447	2127.04167
629.212	2127.70833
632.973	2142.70833
636.732	2132.04167
640.488	2130.70833
644.241	2098.375
647.991	2101.70833
651.737	2128.04167
655.481	2102.375
659.222	2112.04167
662.96	2116.375
666.695	2127.375
670.427	2166.70833
674.156	2164.375
677.882	2139.375
681.605	2123.375
685.325	2091.04167
689.043	2098.375
692.757	2084.04167
696.468	2077.04167
700.177	2088.375
703.882	2058.04167
707.585	2038.70833
711.284	2051.70833
714.981	2045.375
718.675	2053.04167
722.366	2069.375
726.054	2046.70833
729.739	2064.04167
733.421	2077.375
737.1	2058.04167
740.777	2072.04167
744.45	2075.04167
748.121	2097.04167
751.789	2137.70833
755.453	2116.375
759.115	2131.375
762.774	2138.70833
766.431	2175.375
770.084	2176.70833
773.734	2187.04167
777.382	2219.70833
781.027	2226.70833
784.669	2235.04167
788.308	2247.70833
791.944	2271.04167
795.577	2303.04167
799.208	2308.70833
802.835	2323.04167
806.46	2340.70833
810.082	2356.70833
813.701	2344.70833
817.317	2367.70833
820.931	2374.70833
824.542	2354.70833
828.149	2323.375
831.754	2300.70833
835.357	2317.375
838.956	2318.375
842.553	2300.70833
846.146	2288.375
849.737	2246.375
853.326	2246.04167
856.911	2262.70833
860.493	2266.70833
864.073	2297.70833
867.65	2319.375
871.225	2341.375
874.796	2368.70833
878.365	2365.04167
881.931	2397.70833
885.494	2406.375
889.054	2437.04167
892.612	2452.70833
896.166	2437.70833
899.719	2454.04167
903.268	2400.375
906.814	2356.70833
910.358	2330.375
913.899	2293.04167
917.438	2290.04167
920.973	2266.375
924.506	2326.04167
928.036	2346.04167
931.564	2374.70833
935.088	2436.375
938.61	2429.375
942.129	2467.04167
945.646	2507.375
949.16	2551.04167
952.671	2591.375
956.179	2574.04167
959.685	2570.70833
963.188	2582.375
966.688	2547.375
970.185	2460.04167
973.68	2413.375
977.173	2343.375
980.662	2322.375
984.149	2312.375
987.633	2297.04167
991.114	2351.04167
994.593	2379.375
998.069	2444.375
1001.542	2510.04167
1005.013	2468.70833
1008.481	2328.70833
1011.947	2302.70833
1015.409	2282.70833
1018.869	2280.04167
1022.327	2299.04167
1025.782	2273.70833
1029.234	2290.70833
1032.683	2248.04167
1036.13	2194.70833
1039.574	2118.04167
1043.016	2058.375
1046.455	2017.375
1049.891	1995.70833
1053.325	1994.375
1056.756	1996.375
1060.184	2013.70833
1063.61	2007.04167
1067.033	2040.70833
1070.454	2036.375
1073.872	2067.375
1077.287	2059.04167
1080.7	2071.70833
1084.11	2066.375
1087.517	2033.375
1090.922	2016.04167
1094.325	1985.70833
1097.724	1985.70833
1101.122	1980.375
1104.516	1960.375
1107.908	1961.375
1111.298	2019.375
1114.684	2022.375
1118.069	2065.70833
1121.45	2071.70833
1124.83	2054.04167
1128.206	2088.04167
1131.58	2131.70833
1134.951	2182.375
1138.32	2227.70833
1141.687	2319.70833
1145.05	2370.70833
1148.412	2359.04167
1151.77	2327.04167
1155.126	2338.70833
1158.48	2288.70833
1161.831	2308.04167
1165.18	2333.375
1168.525	2353.70833
1171.869	2379.375
1175.21	2377.375
1178.548	2396.375
1181.884	2462.70833
1185.217	2465.70833
1188.548	2545.375
1191.877	2596.70833
1195.202	2689.70833
1198.526	2757.375
1201.846	2777.04167
1205.165	2769.375
1208.48	2767.375
1211.794	2746.375
1215.104	2779.04167
1218.413	2772.04167
1221.719	2818.04167
1225.022	2731.04167
1228.323	2683.375
1231.621	2673.375
1234.917	2619.04167
1238.21	2641.04167
1241.501	2598.70833
1244.79	2588.70833
1248.076	2606.375
1251.359	2624.70833
1254.64	2702.04167
1257.919	2687.375
1261.195	2727.70833
1264.468	2763.70833
1267.74	2819.375
1271.008	2800.375
1274.275	2812.375
1277.538	2776.375
1280.8	2812.70833
1284.059	2775.375
1287.315	2843.04167
1290.569	2845.04167
1293.821	2870.375
1297.07	2925.04167
1300.317	2903.04167
1303.562	2897.70833
1306.803	2902.04167
1310.043	2900.70833
1313.28	2860.04167
1316.515	2842.04167
1319.747	2836.04167
1322.977	2835.70833
1326.204	2836.04167
1329.429	2803.04167
1332.652	2784.04167
1335.872	2767.375
1339.09	2705.70833
1342.306	2669.375
1345.519	2636.375
1348.729	2588.70833
1351.938	2631.70833
1355.144	2582.04167
1358.347	2547.70833
1361.548	2532.04167
1364.747	2505.70833
1367.944	2478.375
1371.138	2466.04167
1374.329	2487.375
1377.518	2510.375
1380.705	2510.70833
1383.89	2499.375
1387.072	2400.70833
1390.252	2340.04167
1393.429	2266.70833
1396.605	2213.04167
1399.777	2157.70833
1402.948	2153.70833
1406.116	2158.70833
1409.282	2154.04167
1412.445	2179.375
1415.606	2202.375
1418.765	2223.04167
1421.921	2230.70833
1425.075	2272.04167
1428.227	2339.375
1431.376	2432.375
1434.524	2524.04167
1437.668	2575.04167
1440.811	2614.375
1443.951	2647.70833
1447.089	2669.04167
1450.224	2649.70833
1453.357	2620.375
1456.488	2584.375
1459.617	2530.375
1462.743	2511.04167
1465.867	2429.04167
1468.989	2398.375
1472.108	2346.04167
1475.225	2295.04167
1478.34	2271.375
1481.453	2271.70833
1484.563	2258.70833
1487.671	2286.70833
1490.776	2321.375
1493.88	2358.70833
1496.981	2399.70833
1500.08	2426.04167
1503.176	2449.375
1506.271	2456.04167
1509.363	2497.70833
1512.452	2518.375
1515.54	2577.04167
1518.625	2592.375
1521.708	2635.70833
1524.789	2700.70833
1527.867	2797.70833
1530.944	2911.04167
1534.018	3034.375
1537.089	3168.70833
1540.159	3167.04167
1543.226	3169.70833
1546.291	3121.04167
1549.354	3033.375
1552.415	2988.375
1555.473	2928.70833
1558.529	2892.04167
1561.583	2857.70833
1564.634	2856.04167
1567.684	2849.375
1570.731	2878.375
1573.776	2886.375
1576.819	2945.70833
1579.859	2988.70833
1582.898	3023.70833
1585.934	3063.04167
1588.968	3064.375
1591.999	3063.04167
1595.029	3083.04167
1598.056	3094.375
1601.081	3134.70833
1604.104	3131.04167
1607.125	3106.375
1610.144	3045.04167
1613.16	2941.375
1616.174	2902.04167
1619.186	2842.70833
1622.196	2746.70833
1625.203	2683.375
1628.209	2646.04167
1631.212	2632.375
1634.213	2632.70833
1637.212	2633.70833
1640.209	2617.70833
1643.203	2557.375
1646.196	2488.70833
1649.186	2409.70833
1652.174	2327.375
1655.16	2256.375
1658.144	2215.375
1661.125	2093.375
1664.105	1999.375
1667.082	1904.04167
1670.057	1817.04167
1673.03	1698.70833
1676.001	1579.04167
1678.97	1492.04167
1681.937	1400.375
1684.901	1307.375
1687.863	1297.70833
1690.824	1212.70833
1693.782	1209.375
1696.738	1177.375
1699.692	1152.70833
1702.643	1110.70833
1705.593	1090.04167
1708.54	1093.70833
1711.486	1085.04167
1714.429	1055.70833
1717.37	1045.375
1720.309	1022.04167
1723.246	1033.04167
1726.181	1013.04167
1729.113	1015.375
1732.044	996.04167
1734.972	989.375
1737.899	1004.375
1740.823	991.70833
1743.745	955.375
1746.665	949.04167
1749.583	931.375
1752.499	925.04167
1755.413	919.375
1758.325	901.70833
1761.235	896.375
1764.142	883.04167
1767.048	869.04167
1769.951	877.375
1772.852	869.70833
1775.752	870.375
1778.649	867.04167
1781.544	876.375
1784.437	847.04167
1787.328	870.04167
1790.217	844.04167
1793.104	822.04167
1795.989	821.375
1798.872	813.70833
1801.753	832.375
1804.631	824.70833
1807.508	827.70833
1810.383	829.04167
1813.255	835.04167
1816.126	821.04167
1818.994	815.70833
1821.861	805.70833
1824.725	809.70833
1827.587	808.375
1830.448	809.70833
1833.306	783.375
1836.162	802.70833
1839.017	781.70833
1841.869	792.375
1844.719	792.04167
1847.567	769.375
1850.414	755.70833
1853.258	779.70833
1856.1	789.04167
1858.94	787.375
1861.778	783.375
1864.614	768.70833
1867.448	771.04167
1870.28	762.375
1873.111	788.70833
1875.939	769.04167
1878.765	776.70833
1881.589	766.70833
1884.411	764.70833
1887.231	766.375
1890.049	759.70833
1892.865	758.375
1895.68	756.70833
1898.492	767.375
1901.302	753.70833
1904.11	746.70833
1906.916	750.375
1909.721	743.70833
1912.523	747.70833
1915.323	744.70833
1918.122	735.04167
1920.918	752.70833
1923.712	731.04167
1926.505	723.04167
1929.295	725.04167
1932.084	733.375
1934.87	734.70833
1937.655	734.70833
1940.438	728.70833
1943.218	726.70833
1945.997	737.375
1948.774	743.375
1951.549	734.04167
1954.322	730.70833
1957.093	724.375
1959.862	721.375
1962.629	709.375
1965.394	708.04167
1968.157	708.70833
1970.918	722.70833
1973.678	711.375
1976.435	717.375
1979.19	707.70833
1981.944	702.375
1984.696	702.04167
1987.445	696.70833
1990.193	703.04167
1992.939	703.04167
1995.683	689.04167
1998.425	673.70833
2001.165	722.375
2003.903	684.375
2006.639	691.375
2009.374	698.04167
2012.106	698.70833
2014.837	679.04167
2017.566	688.70833
2020.292	696.04167
2023.017	699.04167
2025.74	685.375
2028.461	692.70833
2031.18	681.70833
2033.898	680.04167
2036.613	677.04167
2039.327	692.375
2042.038	673.70833
2044.748	678.375
2047.456	696.04167
2050.162	668.375
2052.866	677.375
2055.568	680.70833
2058.268	667.04167
2060.967	678.04167
2063.663	670.04167
2066.358	666.375
2069.051	663.375
2071.742	673.70833
2074.431	687.70833
2077.118	664.04167
2079.804	664.04167
2082.487	669.375
2085.169	693.375
2087.849	688.04167
2090.527	665.375
2093.203	672.70833
2095.877	690.70833
2098.55	685.375
2101.22	703.04167
2103.889	699.70833
2106.556	707.375
2109.221	718.70833
2111.884	722.04167
2114.546	758.70833
2117.205	786.70833
2119.863	842.04167
2122.519	861.375
2125.173	913.70833
2127.825	945.375
2130.475	943.375
2133.124	924.04167
2135.771	888.375
2138.416	842.70833
2141.059	816.70833
2143.7	784.375
2146.339	756.375
2148.977	714.04167
2151.613	719.375
2154.247	711.375
2156.879	682.375
2159.51	671.70833
2162.138	678.375
2164.765	685.04167
2167.39	655.70833
2170.013	675.70833
2172.634	679.375
2175.254	668.70833
2177.872	693.04167
2180.488	651.04167
2183.102	661.70833
2185.714	654.70833
2188.325	635.04167
2190.934	654.375
2193.541	664.375
2196.146	642.375
2198.75	637.04167
2201.351	640.375
2203.951	633.70833
2206.549	650.70833
2209.146	638.375
2211.74	634.04167
2214.333	639.04167
2216.924	618.375
2219.514	627.375
2222.101	632.04167
2224.687	644.04167
2227.271	634.04167
2229.853	621.70833
2232.433	615.375
2235.012	647.375
2237.589	627.04167
2240.164	640.375
2242.738	627.70833
2245.309	622.70833
2247.879	635.70833
2250.448	634.70833
2253.014	618.04167
2255.579	606.70833
2258.142	614.70833
2260.703	605.375
2263.262	608.04167
2265.82	608.04167
2268.376	625.70833
2270.93	611.375
2273.483	592.375
2276.033	612.70833
2278.583	608.375
2281.13	614.70833
2283.675	602.70833
2286.219	599.375
2288.761	611.04167
2291.302	615.70833
2293.841	625.04167
2296.377	591.70833
2298.913	606.04167
2301.446	628.04167
2303.978	612.70833
2306.508	615.04167
2309.037	608.375
2311.563	608.04167
2314.088	609.04167
2316.612	594.04167
2319.133	612.04167
2321.653	612.375
2324.171	613.04167
2326.688	627.04167
2329.202	608.70833
2331.715	612.70833
2334.227	603.70833
2336.736	606.04167
2339.244	608.70833
2341.751	603.375
2344.255	620.04167
2346.758	612.375
2349.259	593.375
2351.759	614.375
2354.257	600.70833
2356.753	605.04167
2359.247	621.04167
2361.74	615.70833
2364.231	616.375
2366.721	619.70833
2369.209	611.70833
2371.695	609.375
2374.179	616.375
2376.662	599.375
2379.143	625.70833
2381.622	611.04167
2384.1	621.375
2386.576	621.04167
2389.051	639.375
2391.524	633.375
2393.995	626.375
2396.464	628.70833
2398.932	616.375
2401.398	618.70833
2403.863	609.70833
2406.325	620.375
2408.787	629.04167
2411.246	623.04167
2413.704	632.70833
2416.16	633.04167
2418.615	629.04167
2421.068	651.70833
2423.519	639.70833
2425.969	627.04167
2428.417	634.04167
2430.863	663.70833
2433.308	639.375
2435.751	644.70833
2438.193	641.04167
2440.633	645.04167
2443.071	646.375
2445.508	652.375
2447.943	634.375
2450.376	633.70833
2452.808	644.04167
2455.238	648.70833
2457.667	673.70833
2460.093	641.70833
2462.519	642.70833
2464.942	647.375
2467.365	665.70833
2469.785	662.04167
2472.204	654.375
2474.621	651.04167
2477.037	675.70833
2479.451	640.70833
2481.863	645.70833
2484.274	659.04167
2486.683	662.70833
2489.091	676.70833
2491.497	661.70833
2493.901	667.04167
2496.304	668.375
2498.705	680.70833
2501.105	662.70833
2503.503	696.70833
2505.899	656.70833
2508.294	687.375
2510.687	678.04167
2513.079	679.375
2515.469	672.375
2517.858	681.70833
2520.245	690.375
2522.63	669.70833
2525.014	667.70833
2527.396	662.70833
2529.776	671.70833
2532.156	685.70833
2534.533	676.375
2536.909	667.375
2539.283	672.375
2541.656	689.375
2544.027	699.70833
2546.397	680.04167
2548.765	677.04167
2551.131	694.375
2553.496	690.04167
2555.86	711.04167
2558.221	699.04167
2560.582	693.70833
2562.94	692.70833
2565.298	706.70833
2567.653	716.70833
2570.007	693.04167
2572.36	722.375
2574.711	697.04167
2577.06	717.70833
2579.408	721.70833
2581.754	711.70833
2584.099	730.04167
2586.442	714.70833
2588.784	718.04167
2591.124	728.375
2593.463	720.375
2595.8	739.70833
2598.135	718.70833
2600.469	728.70833
2602.802	733.04167
2605.133	745.375
2607.462	730.04167
2609.79	723.70833
2612.116	747.70833
2614.441	734.70833
2616.764	742.04167
2619.086	744.70833
2621.406	734.04167
2623.725	763.70833
2626.042	761.04167
2628.358	744.04167
2630.672	755.375
2632.985	775.375
2635.296	765.04167
2637.606	751.04167
2639.914	758.70833
2642.22	763.70833
2644.525	771.375
2646.829	779.375
2649.131	792.375
2651.432	784.04167
2653.731	784.70833
2656.028	801.375
2658.324	814.04167
2660.619	795.375
2662.912	814.375
2665.204	790.375
2667.494	803.04167
2669.782	800.70833
2672.07	820.70833
2674.355	807.70833
2676.639	808.70833
2678.922	793.375
2681.203	816.375
2683.483	811.70833
2685.761	806.375
2688.038	822.04167
2690.313	844.375
2692.587	821.70833
2694.859	831.70833
2697.13	832.04167
2699.399	841.70833
2701.667	853.70833
2703.933	860.70833
2706.198	848.70833
2708.461	862.375
2710.723	872.04167
2712.984	868.375
2715.243	860.70833
2717.5	864.375
2719.757	877.375
2722.011	872.375
2724.264	878.375
2726.516	898.04167
2728.766	889.375
2731.015	895.70833
2733.262	899.70833
2735.508	908.375
2737.753	907.04167
2739.996	892.04167
2742.237	895.375
2744.477	904.70833
2746.716	907.70833
2748.953	903.70833
2751.189	899.70833
2753.423	893.70833
2755.656	890.70833
2757.887	872.70833
2760.117	880.375
2762.346	879.70833
2764.573	876.04167
2766.798	883.04167
2769.022	883.375
2771.245	901.375
2773.467	892.04167
2775.686	904.375
2777.905	910.70833
2780.122	905.375
2782.337	916.70833
2784.552	918.375
2786.764	926.04167
2788.976	934.375
2791.186	942.375
2793.394	946.04167
2795.601	968.04167
2797.807	975.375
2800.011	978.04167
2802.214	972.70833
2804.415	969.04167
2806.615	980.375
2808.814	988.04167
2811.011	990.375
2813.206	987.70833
2815.401	1002.375
2817.594	1008.70833
2819.785	1020.04167
2821.975	1007.04167
2824.164	1009.375
2826.351	1027.375
2828.537	1041.04167
2830.722	1054.04167
2832.905	1049.375
2835.086	1078.04167
2837.267	1113.70833
2839.445	1115.375
2841.623	1126.70833
2843.799	1158.04167
2845.974	1183.375
2848.147	1215.70833
2850.319	1242.70833
2852.489	1266.04167
2854.659	1266.04167
2856.826	1294.04167
2858.993	1316.375
2861.158	1300.375
2863.321	1305.70833
2865.483	1308.04167
2867.644	1306.70833
2869.804	1320.375
2871.962	1316.375
2874.118	1316.04167
2876.274	1298.70833
2878.428	1288.70833
2880.58	1296.375
2882.731	1282.04167
2884.881	1295.04167
2887.03	1293.375
2889.177	1303.70833
2891.322	1324.375
2893.467	1305.04167
2895.61	1297.04167
2897.751	1339.375
2899.892	1329.04167
2902.03	1338.04167
2904.168	1343.375
2906.304	1344.04167
2908.439	1371.04167
2910.572	1359.375
2912.704	1380.375
2914.835	1386.375
2916.965	1374.04167
2919.093	1395.70833
2921.219	1367.04167
2923.345	1384.70833
2925.469	1355.04167
2927.591	1367.70833
2929.712	1327.375
2931.832	1322.70833
2933.951	1320.375
2936.068	1293.70833
2938.184	1285.375
2940.299	1262.375
2942.412	1252.70833
2944.524	1210.04167
2946.634	1234.70833
2948.744	1168.70833
2950.851	1224.70833
2952.958	1180.70833
2955.063	1182.04167
2957.167	1178.375
2959.269	1170.70833
2961.371	1176.70833
2963.471	1149.04167
2965.569	1155.375
2967.666	1132.70833
2969.762	1146.70833
2971.857	1139.375
2973.95	1110.375
2976.042	1095.70833
2978.133	1084.375
2980.222	1085.04167
2982.31	1060.70833
2984.396	1031.04167
2986.482	1039.04167
2988.566	1036.70833
2990.648	1028.375
2992.73	1026.375
2994.81	1017.04167
2996.889	1028.04167
2998.966	1027.375
3001.042	1021.04167
3003.117	1042.04167
3005.191	1019.70833
3007.263	1016.375
3009.334	1004.04167
3011.403	1016.375
3013.472	991.04167
3015.539	985.375
3017.604	995.375
3019.669	941.375
3021.732	964.04167
3023.794	963.375
3025.854	954.04167
3027.914	950.70833
3029.971	964.70833
3032.028	950.70833
3034.083	938.70833
3036.137	936.375
3038.19	903.70833
3040.242	903.04167
3042.292	879.04167
3044.341	865.70833
3046.388	877.375
3048.435	849.04167
3050.48	866.04167
3052.524	857.70833
3054.566	825.04167
3056.607	845.70833
3058.647	828.375
3060.686	804.375
3062.723	786.375
3064.759	754.375
3066.794	-2.95833
3068.828	2.04167
3070.86	2.375
