-0.839	591
3.438	689.33333
7.711	208.66667
11.981	66.66667
16.247	47
20.509	52
24.768	46
29.024	56.33333
33.276	44.33333
37.524	51.33333
41.769	49
46.01	37
50.247	44.33333
54.481	62
58.712	67
62.939	50.66667
67.162	65.66667
71.382	58
75.599	47
79.812	65.33333
84.021	84.33333
88.227	64
92.429	58.66667
96.628	50.66667
100.823	71.33333
105.015	77.66667
109.204	70.66667
113.388	77.66667
117.57	78.33333
121.748	90.33333
125.922	85
130.093	103.33333
134.261	102.66667
138.425	106.66667
142.585	146.33333
146.742	146.33333
150.896	173
155.046	220.33333
159.193	354.66667
163.336	602.33333
167.476	1079
171.613	2004.66667
175.746	3343.66667
179.875	4960.33333
184.002	6441.66667
188.124	7478.66667
192.244	7787
196.36	7749.33333
200.472	7519.33333
204.581	7258.66667
208.687	7076.66667
212.79	7027.66667
216.889	7004
220.984	7009
225.077	7005.33333
229.165	6977
233.251	7006.66667
237.333	6988.33333
241.412	6859.66667
245.487	6800.66667
249.559	6717.66667
253.628	6662.33333
257.694	6593.66667
261.756	6544
265.814	6400.33333
269.87	6204.66667
273.922	6013
277.97	5928
282.016	5857
286.058	5889.33333
290.097	6001
294.132	6091.66667
298.164	6072.66667
302.193	5761
306.219	5292.66667
310.241	4878.66667
314.26	4520
318.276	4207.66667
322.288	3964
326.297	3799.66667
330.303	3668.66667
334.305	3576.66667
338.305	3526.66667
342.301	3445.66667
346.294	3439
350.283	3417
354.269	3406.66667
358.252	3348.33333
362.232	3314.66667
366.209	3304.33333
370.182	3286
374.152	3274.66667
378.119	3284
382.083	3253.66667
386.043	3304
390	3260.66667
393.954	3245.66667
397.905	3228.66667
401.852	3220.33333
405.797	3166.33333
409.738	3150
413.676	3162.33333
417.61	3130.33333
421.542	3120
425.47	3094
429.396	3066.33333
433.318	3068
437.236	3045.66667
441.152	3028
445.065	3012.66667
448.974	3001.33333
452.88	2979.33333
456.783	2949.66667
460.683	2945
464.58	2942.66667
468.473	2944.33333
472.364	2975
476.251	2965
480.135	2996.33333
484.016	3033.66667
487.894	3074
491.769	3062.66667
495.641	3069.33333
499.509	3070
503.375	3088.66667
507.237	3063.66667
511.096	3063.33333
514.952	3058
518.805	3027.66667
522.655	3055
526.502	3008.33333
530.346	3058.66667
534.187	3059.66667
538.024	3060
541.859	3083.66667
545.69	3086.33333
549.519	3106.33333
553.344	3053.66667
557.166	3035.33333
560.985	2979.66667
564.802	2930.66667
568.615	2884
572.425	2848.66667
576.232	2828
580.036	2836.66667
583.836	2820.66667
587.634	2832.66667
591.429	2830.66667
595.221	2927.66667
599.01	2934.33333
602.796	2986
606.578	2991.66667
610.358	2985
614.135	2948.66667
617.909	2931
621.679	2903
625.447	2900
629.212	2897
632.973	2912
636.732	2893.33333
640.488	2887
644.241	2857.66667
647.991	2870.66667
651.737	2846
655.481	2821.33333
659.222	2839.33333
662.96	2838.66667
666.695	2850.66667
670.427	2868.33333
674.156	2889.66667
677.882	2874.33333
681.605	2850.66667
685.325	2846.33333
689.043	2839
692.757	2813.33333
696.468	2813
700.177	2820
703.882	2774.33333
707.585	2785.66667
711.284	2760.33333
714.981	2773.66667
718.675	2777
722.366	2812
726.054	2776.33333
729.739	2768.33333
733.421	2801.66667
737.1	2772.66667
740.777	2790
744.45	2807
748.121	2820
751.789	2857.33333
755.453	2876.66667
759.115	2889
762.774	2914.33333
766.431	2949.66667
770.084	2969.66667
773.734	3002
777.382	3044.33333
781.027	3053.33333
784.669	3090.33333
788.308	3103.66667
791.944	3114
795.577	3136.33333
799.208	3124
802.835	3147.33333
806.46	3155.66667
810.082	3179.33333
813.701	3197
817.317	3196
820.931	3198
824.542	3205
828.149	3184
831.754	3169
835.357	3152.66667
838.956	3176.66667
842.553	3167.66667
846.146	3158
849.737	3124.66667
853.326	3150.66667
856.911	3130.66667
860.493	3193
864.073	3220
867.65	3252.33333
871.225	3301.33333
874.796	3322
878.365	3323.33333
881.931	3358.33333
885.494	3386.33333
889.054	3418.66667
892.612	3448.33333
896.166	3445.33333
899.719	3415.33333
903.268	3368.33333
906.814	3311.66667
910.358	3265
913.899	3211.66667
917.438	3197.66667
920.973	3210.33333
924.506	3260.66667
928.036	3255.66667
931.564	3316
935.088	3349.33333
938.61	3380
942.129	3396.33333
945.646	3490.33333
949.16	3523.33333
952.671	3609.66667
956.179	3578
959.685	3543
963.188	3505.33333
966.688	3460.33333
970.185	3369.66667
973.68	3300
977.173	3256.66667
980.662	3215.33333
984.149	3186
987.633	3198.33333
991.114	3227.33333
994.593	3306.66667
998.069	3407.66667
1001.542	3495
1005.013	3425.33333
1008.481	3264.33333
1011.947	3206
1015.409	3185
1018.869	3210.33333
1022.327	3206.66667
1025.782	3162.33333
1029.234	3151.66667
1032.683	3130
1036.13	3018.33333
1039.574	2911.66667
1043.016	2824.66667
1046.455	2753.66667
1049.891	2742.66667
1053.325	2748
1056.756	2749.66667
1060.184	2767.33333
1063.61	2765
1067.033	2791.66667
1070.454	2797.33333
1073.872	2835.66667
1077.287	2812.66667
1080.7	2813.66667
1084.11	2804
1087.517	2771.66667
1090.922	2764.33333
1094.325	2737.66667
1097.724	2729.33333
1101.122	2746.66667
1104.516	2731.66667
1107.908	2722.66667
1111.298	2773.66667
1114.684	2786
1118.069	2836.33333
1121.45	2883.66667
1124.83	2879
1128.206	2907.33333
1131.58	2962
1134.951	3030.66667
1138.32	3133
1141.687	3248
1145.05	3336.66667
1148.412	3304
1151.77	3298
1155.126	3297
1158.48	3287
1161.831	3308.66667
1165.18	3317.66667
1168.525	3382.66667
1171.869	3407.66667
1175.21	3412.33333
1178.548	3446.66667
1181.884	3503.33333
1185.217	3568.66667
1188.548	3631.33333
1191.877	3708
1195.202	3811.33333
1198.526	3856.66667
1201.846	3881
1205.165	3886
1208.48	3839.66667
1211.794	3826
1215.104	3841.33333
1218.413	3828.33333
1221.719	3807
1225.022	3793.66667
1228.323	3710
1231.621	3725.66667
1234.917	3665
1238.21	3656.33333
1241.501	3677.66667
1244.79	3642.66667
1248.076	3676
1251.359	3689.66667
1254.64	3755
1257.919	3793
1261.195	3841
1264.468	3891.66667
1267.74	3964.66667
1271.008	3986.66667
1274.275	3959.66667
1277.538	3925.33333
1280.8	3920.33333
1284.059	3902.66667
1287.315	3965.33333
1290.569	3988
1293.821	4006.33333
1297.07	4036.66667
1300.317	4050.33333
1303.562	4033
1306.803	4011.66667
1310.043	4008
1313.28	3976.66667
1316.515	3941.66667
1319.747	3900.33333
1322.977	3888.66667
1326.204	3842
1329.429	3785.66667
1332.652	3746.33333
1335.872	3724.66667
1339.09	3682.33333
1342.306	3652.33333
1345.519	3579.66667
1348.729	3514.66667
1351.938	3508.33333
1355.144	3476
1358.347	3459.66667
1361.548	3410
1364.747	3420
1367.944	3385.66667
1371.138	3399.66667
1374.329	3455.66667
1377.518	3482.66667
1380.705	3481
1383.89	3446.33333
1387.072	3357
1390.252	3220.66667
1393.429	3129.66667
1396.605	3014.66667
1399.777	2958
1402.948	2901
1406.116	2912.66667
1409.282	2910
1412.445	2932.33333
1415.606	2957.66667
1418.765	3017.33333
1421.921	3067.33333
1425.075	3117.66667
1428.227	3217.33333
1431.376	3310
1434.524	3441.66667
1437.668	3523
1440.811	3555.33333
1443.951	3598.33333
1447.089	3621.66667
1450.224	3607.66667
1453.357	3560
1456.488	3545.33333
1459.617	3501.33333
1462.743	3406.66667
1465.867	3354.33333
1468.989	3307.33333
1472.108	3272.33333
1475.225	3213
1478.34	3188
1481.453	3171
1484.563	3158.66667
1487.671	3216
1490.776	3282.33333
1493.88	3337.33333
1496.981	3365.33333
1500.08	3413
1503.176	3472.66667
1506.271	3540.33333
1509.363	3572.66667
1512.452	3567.33333
1515.54	3630
1518.625	3673
1521.708	3789.33333
1524.789	3880
1527.867	4044
1530.944	4229.33333
1534.018	4404.66667
1537.089	4592.33333
1540.159	4654.66667
1543.226	4630.33333
1546.291	4563.33333
1549.354	4447.33333
1552.415	4342.33333
1555.473	4278
1558.529	4191.66667
1561.583	4157
1564.634	4148.66667
1567.684	4145
1570.731	4179
1573.776	4190.33333
1576.819	4263.33333
1579.859	4306
1582.898	4314
1585.934	4353
1588.968	4382.33333
1591.999	4408
1595.029	4407.66667
1598.056	4438.33333
1601.081	4437
1604.104	4450.33333
1607.125	4386.33333
1610.144	4305.66667
1613.16	4202.66667
1616.174	4118
1619.186	3985.66667
1622.196	3876.66667
1625.203	3780.33333
1628.209	3681.33333
1631.212	3613
1634.213	3608
1637.212	3574.66667
1640.209	3475.33333
1643.203	3383.66667
1646.196	3320.66667
1649.186	3161
1652.174	3079.66667
1655.16	2952.66667
1658.144	2898.66667
1661.125	2735.33333
1664.105	2624.66667
1667.082	2509.33333
1670.057	2412.66667
1673.03	2241.66667
1676.001	2096.33333
1678.97	1976.66667
1681.937	1853.33333
1684.901	1741.33333
1687.863	1686
1690.824	1613.33333
1693.782	1580.33333
1696.738	1526.66667
1699.692	1492.33333
1702.643	1441.33333
1705.593	1426.33333
1708.54	1408.66667
1711.486	1393.66667
1714.429	1347.33333
1717.37	1355.33333
1720.309	1312.33333
1723.246	1319
1726.181	1292.66667
1729.113	1293.33333
1732.044	1286.66667
1734.972	1264.33333
1737.899	1268
1740.823	1249
1743.745	1214
1746.665	1188
1749.583	1197.66667
1752.499	1169
1755.413	1164.33333
1758.325	1132.66667
1761.235	1126
1764.142	1107.66667
1767.048	1092.66667
1769.951	1093.33333
1772.852	1090.66667
1775.752	1066
1778.649	1062.66667
1781.544	1069
1784.437	1041.66667
1787.328	1060
1790.217	1043.66667
1793.104	1011.66667
1795.989	1021.66667
1798.872	1010
1801.753	1026.33333
1804.631	1021.66667
1807.508	1022.33333
1810.383	1007.66667
1813.255	1001.33333
1816.126	1003.66667
1818.994	1005.66667
1821.861	986.33333
1824.725	995.66667
1827.587	981.66667
1830.448	969.66667
1833.306	946.66667
1836.162	964.33333
1839.017	968.33333
1841.869	958
1844.719	939.66667
1847.567	932.33333
1850.414	931.33333
1853.258	916.66667
1856.1	943.33333
1858.94	934.33333
1861.778	938.66667
1864.614	930.66667
1867.448	921.33333
1870.28	927
1873.111	950
1875.939	925.66667
1878.765	942.33333
1881.589	913
1884.411	910
1887.231	913.66667
1890.049	900.66667
1892.865	916.66667
1895.68	895.33333
1898.492	904.66667
1901.302	901.66667
1904.11	898
1906.916	871
1909.721	867.66667
1912.523	882.33333
1915.323	858.66667
1918.122	861.33333
1920.918	869.33333
1923.712	864.33333
1926.505	868
1929.295	850
1932.084	852
1934.87	860.66667
1937.655	858
1940.438	856.66667
1943.218	853
1945.997	855.66667
1948.774	865.33333
1951.549	853
1954.322	844
1957.093	828.33333
1959.862	842.66667
1962.629	822.33333
1965.394	831
1968.157	813.66667
1970.918	821.66667
1973.678	812.33333
1976.435	825
1979.19	813
1981.944	804.66667
1984.696	790.66667
1987.445	788
1990.193	809.66667
1992.939	820
1995.683	797
1998.425	770.66667
2001.165	814
2003.903	792.66667
2006.639	785
2009.374	785
2012.106	791
2014.837	762
2017.566	770
2020.292	776
2023.017	769
2025.74	763
2028.461	773
2031.18	778
2033.898	762
2036.613	765.66667
2039.327	767
2042.038	745
2044.748	751.66667
2047.456	756.33333
2050.162	743
2052.866	750.66667
2055.568	763.33333
2058.268	737.66667
2060.967	745
2063.663	725.66667
2066.358	737.66667
2069.051	735
2071.742	730
2074.431	739
2077.118	731
2079.804	717.33333
2082.487	734.33333
2085.169	747
2087.849	760
2090.527	725.66667
2093.203	744.66667
2095.877	741.66667
2098.55	752
2101.22	759.66667
2103.889	758
2106.556	779.66667
2109.221	798
2111.884	809.33333
2114.546	872
2117.205	938.66667
2119.863	1034.33333
2122.519	1081.33333
2125.173	1164
2127.825	1230
2130.475	1234.33333
2133.124	1174.66667
2135.771	1122.33333
2138.416	1073.33333
2141.059	999
2143.7	943
2146.339	884.33333
2148.977	837.33333
2151.613	828.33333
2154.247	790.33333
2156.879	783.33333
2159.51	744
2162.138	737
2164.765	726.33333
2167.39	727
2170.013	730.66667
2172.634	727
2175.254	699.33333
2177.872	723
2180.488	679.33333
2183.102	695.33333
2185.714	670
2188.325	654.66667
2190.934	668.33333
2193.541	671
2196.146	650
2198.75	637.33333
2201.351	649.33333
2203.951	636
2206.549	653
2209.146	639.33333
2211.74	627.33333
2214.333	643.66667
2216.924	610.66667
2219.514	626.66667
2222.101	617
2224.687	622
2227.271	601.66667
2229.853	604.66667
2232.433	593
2235.012	617.33333
2237.589	600
2240.164	616
2242.738	596.33333
2245.309	580.33333
2247.879	593.66667
2250.448	595
2253.014	577
2255.579	566.33333
2258.142	570
2260.703	564.66667
2263.262	558
2265.82	550.33333
2268.376	554.33333
2270.93	540.33333
2273.483	536.66667
2276.033	542.66667
2278.583	543.66667
2281.13	546.33333
2283.675	536.66667
2286.219	535
2288.761	535
2291.302	532.66667
2293.841	542.33333
2296.377	513.33333
2298.913	520.33333
2301.446	530.66667
2303.978	529
2306.508	512.33333
2309.037	530.33333
2311.563	512
2314.088	528.33333
2316.612	506.66667
2319.133	510
2321.653	513
2324.171	501.33333
2326.688	523
2329.202	494
2331.715	500.66667
2334.227	489.33333
2336.736	498.66667
2339.244	493
2341.751	484.66667
2344.255	498.66667
2346.758	483.33333
2349.259	483
2351.759	487.33333
2354.257	488.66667
2356.753	474.33333
2359.247	482.66667
2361.74	491.66667
2364.231	484.66667
2366.721	482.66667
2369.209	470.33333
2371.695	480.33333
2374.179	473.33333
2376.662	462
2379.143	479.33333
2381.622	466.33333
2384.1	470
2386.576	474
2389.051	486.66667
2391.524	478
2393.995	479
2396.464	463.33333
2398.932	467.33333
2401.398	449.66667
2403.863	459.33333
2406.325	458.33333
2408.787	454
2411.246	456.33333
2413.704	455.66667
2416.16	451.66667
2418.615	452.66667
2421.068	455.33333
2423.519	453
2425.969	437
2428.417	454
2430.863	470.66667
2433.308	454
2435.751	435
2438.193	437
2440.633	438.33333
2443.071	454
2445.508	435
2447.943	439.33333
2450.376	433
2452.808	433.66667
2455.238	434.66667
2457.667	460
2460.093	430
2462.519	419.66667
2464.942	420
2467.365	427.33333
2469.785	433.33333
2472.204	422.66667
2474.621	415.33333
2477.037	441
2479.451	417.66667
2481.863	409.66667
2484.274	419
2486.683	415.33333
2489.091	426.33333
2491.497	425
2493.901	423.33333
2496.304	406.66667
2498.705	415
2501.105	411.33333
2503.503	434.33333
2505.899	407.66667
2508.294	434.33333
2510.687	402.66667
2513.079	411.66667
2515.469	394.66667
2517.858	405.33333
2520.245	409.33333
2522.63	404.33333
2525.014	396.66667
2527.396	397.66667
2529.776	388.33333
2532.156	408.33333
2534.533	389.33333
2536.909	382
2539.283	379.33333
2541.656	384.66667
2544.027	401.66667
2546.397	391.33333
2548.765	390
2551.131	391.33333
2553.496	390.66667
2555.86	387
2558.221	386.33333
2560.582	387
2562.94	379
2565.298	383.33333
2567.653	391.66667
2570.007	371
2572.36	395.66667
2574.711	378.66667
2577.06	394.33333
2579.408	378.66667
2581.754	380.66667
2584.099	382.66667
2586.442	366.33333
2588.784	386.33333
2591.124	382
2593.463	377
2595.8	377.33333
2598.135	367.33333
2600.469	372
2602.802	376.33333
2605.133	391.66667
2607.462	361.66667
2609.79	364.66667
2612.116	377.66667
2614.441	377.33333
2616.764	372
2619.086	371.66667
2621.406	358.33333
2623.725	382
2626.042	371.66667
2628.358	368.66667
2630.672	356.66667
2632.985	376.33333
2635.296	374
2637.606	368
2639.914	368
2642.22	365.33333
2644.525	366.66667
2646.829	363.66667
2649.131	374
2651.432	378.66667
2653.731	374.33333
2656.028	387.66667
2658.324	384
2660.619	365.33333
2662.912	374.33333
2665.204	366.66667
2667.494	375.66667
2669.782	366.66667
2672.07	382.33333
2674.355	377.33333
2676.639	369
2678.922	362.33333
2681.203	370.33333
2683.483	360.66667
2685.761	364.66667
2688.038	378.33333
2690.313	384.33333
2692.587	380.33333
2694.859	372
2697.13	377.66667
2699.399	382.66667
2701.667	392
2703.933	382.66667
2706.198	389
2708.461	405
2710.723	402
2712.984	398.66667
2715.243	396.33333
2717.5	386
2719.757	405.66667
2722.011	394.33333
2724.264	409
2726.516	416.33333
2728.766	397.33333
2731.015	417
2733.262	404.33333
2735.508	406.66667
2737.753	402
2739.996	383.33333
2742.237	383
2744.477	398
2746.716	404.66667
2748.953	385.33333
2751.189	389
2753.423	381.66667
2755.656	374.33333
2757.887	379.33333
2760.117	367.33333
2762.346	368.33333
2764.573	361.33333
2766.798	375.33333
2769.022	369
2771.245	386.33333
2773.467	375.66667
2775.686	383.66667
2777.905	382
2780.122	389
2782.337	391.66667
2784.552	394.33333
2786.764	391.66667
2788.976	395.66667
2791.186	394.33333
2793.394	396.33333
2795.601	404.66667
2797.807	418.33333
2800.011	416.66667
2802.214	431
2804.415	428.66667
2806.615	428.33333
2808.814	429.66667
2811.011	444
2813.206	451
2815.401	464.33333
2817.594	464.33333
2819.785	472.33333
2821.975	467.33333
2824.164	476.66667
2826.351	498.33333
2828.537	517
2830.722	522.66667
2832.905	527.66667
2835.086	557
2837.267	573.66667
2839.445	592
2841.623	618
2843.799	639.66667
2845.974	666.66667
2848.147	712.33333
2850.319	735.66667
2852.489	767.66667
2854.659	775.66667
2856.826	781.33333
2858.993	821.66667
2861.158	803
2863.321	814.66667
2865.483	818.33333
2867.644	817
2869.804	806
2871.962	810.33333
2874.118	797.66667
2876.274	812
2878.428	803.33333
2880.58	792.33333
2882.731	789.66667
2884.881	809.33333
2887.03	804.33333
2889.177	810.66667
2891.322	807.66667
2893.467	814
2895.61	818
2897.751	828
2899.892	813
2902.03	834
2904.168	838.66667
2906.304	838.33333
2908.439	863
2910.572	844.33333
2912.704	862.33333
2914.835	865
2916.965	857
2919.093	876
2921.219	840.33333
2923.345	849.33333
2925.469	839
2927.591	830.66667
2929.712	795
2931.832	804
2933.951	781.66667
2936.068	758.66667
2938.184	735
2940.299	721
2942.412	693
2944.524	661
2946.634	658.66667
2948.744	602.66667
2950.851	628.66667
2952.958	584
2955.063	579.66667
2957.167	574.66667
2959.269	540
2961.371	561
2963.471	522
2965.569	526
2967.666	504.33333
2969.762	489
2971.857	476
2973.95	465
2976.042	453
2978.133	452.66667
2980.222	433.33333
2982.31	416
2984.396	392.33333
2986.482	397.33333
2988.566	384
2990.648	375
2992.73	372.33333
2994.81	367
2996.889	366.66667
2998.966	359
3001.042	363.33333
3003.117	357.66667
3005.191	351.33333
3007.263	352.66667
3009.334	336.66667
3011.403	340
3013.472	322.33333
3015.539	332
3017.604	332.66667
3019.669	298
3021.732	304
3023.794	307
3025.854	295
3027.914	297.33333
3029.971	303.66667
3032.028	292
3034.083	297.66667
3036.137	289.66667
3038.19	278.66667
3040.242	275.66667
3042.292	266.33333
3044.341	267.66667
3046.388	272.66667
3048.435	259.66667
3050.48	270.66667
3052.524	262.33333
3054.566	251
3056.607	260.66667
3058.647	252.33333
3060.686	243
3062.723	236.66667
3064.759	224.66667
3066.794	0.33333
3068.828	3.33333
3070.86	1.33333
