-0.839	670.25
3.438	810.58333
7.711	238.58333
11.981	70.25
16.247	50.91667
20.509	49.58333
24.768	45.91667
29.024	53.91667
33.276	46.58333
37.524	47.58333
41.769	45.58333
46.01	34.58333
50.247	47.91667
54.481	60.25
58.712	65.91667
62.939	47.25
67.162	62.25
71.382	59.91667
75.599	47.91667
79.812	61.25
84.021	82.25
88.227	60.25
92.429	61.58333
96.628	51.58333
100.823	74.91667
105.015	78.25
109.204	69.91667
113.388	75.58333
117.57	78.58333
121.748	89.91667
125.922	85.91667
130.093	101.25
134.261	102.58333
138.425	99.58333
142.585	145.91667
146.742	135.25
150.896	162.58333
155.046	203.58333
159.193	317.25
163.336	543.58333
167.476	1004.91667
171.613	1839.91667
175.746	3067.91667
179.875	4550.58333
184.002	5953.91667
188.124	6935.58333
192.244	7338.58333
196.36	7235.58333
200.472	7002.25
204.581	6811.91667
208.687	6618.91667
212.79	6528.25
216.889	6493.25
220.984	6493.58333
225.077	6500.58333
229.165	6487.58333
233.251	6456.58333
237.333	6459.58333
241.412	6341.58333
245.487	6277.91667
249.559	6204.91667
253.628	6198.91667
257.694	6107.58333
261.756	6032.58333
265.814	5881.91667
269.87	5711.25
273.922	5522.91667
277.97	5414.58333
282.016	5365.25
286.058	5377.25
290.097	5465.91667
294.132	5550.58333
298.164	5463.58333
302.193	5216.58333
306.219	4810.25
310.241	4444.58333
314.26	4118.91667
318.276	3841.25
322.288	3653.91667
326.297	3469.58333
330.303	3369.58333
334.305	3280.25
338.305	3204.25
342.301	3194.58333
346.294	3154.58333
350.283	3127.58333
354.269	3123.58333
358.252	3085.58333
362.232	3077.25
366.209	3046.58333
370.182	3036.91667
374.152	3016.58333
378.119	3016.58333
382.083	2992.25
386.043	3017.25
390	2989.58333
393.954	2991.25
397.905	2982.58333
401.852	2969.91667
405.797	2927.58333
409.738	2895.91667
413.676	2924.91667
417.61	2877.58333
421.542	2865.58333
425.47	2828.58333
429.396	2835.91667
433.318	2809.25
437.236	2815.58333
441.152	2840.25
445.065	2777.91667
448.974	2771.58333
452.88	2748.91667
456.783	2732.58333
460.683	2711.58333
464.58	2699.58333
468.473	2724.91667
472.364	2736.58333
476.251	2732.91667
480.135	2755.58333
484.016	2837.58333
487.894	2815.25
491.769	2833.25
495.641	2839.58333
499.509	2857.25
503.375	2846.25
507.237	2831.91667
511.096	2815.25
514.952	2821.91667
518.805	2875.91667
522.655	2875.91667
526.502	2850.25
530.346	2809.58333
534.187	2798.58333
538.024	2809.91667
541.859	2826.58333
545.69	2881.25
549.519	2836.58333
553.344	2808.25
557.166	2782.58333
560.985	2740.58333
564.802	2697.91667
568.615	2653.25
572.425	2600.91667
576.232	2607.91667
580.036	2597.58333
583.836	2600.25
587.634	2621.25
591.429	2620.25
595.221	2693.58333
599.01	2730.58333
602.796	2730.91667
606.578	2742.25
610.358	2741.91667
614.135	2707.25
617.909	2699.91667
621.679	2662.91667
625.447	2664.91667
629.212	2671.91667
632.973	2674.58333
636.732	2677.58333
640.488	2646.25
644.241	2658.58333
647.991	2634.58333
651.737	2638.91667
655.481	2602.25
659.222	2608.91667
662.96	2589.25
666.695	2635.25
670.427	2631.25
674.156	2656.58333
677.882	2642.91667
681.605	2620.58333
685.325	2613.91667
689.043	2619.58333
692.757	2600.25
696.468	2594.91667
700.177	2596.91667
703.882	2572.25
707.585	2565.91667
711.284	2549.91667
714.981	2550.25
718.675	2547.25
722.366	2570.25
726.054	2542.91667
729.739	2552.25
733.421	2575.58333
737.1	2561.91667
740.777	2588.25
744.45	2575.91667
748.121	2597.25
751.789	2657.25
755.453	2628.58333
759.115	2668.58333
762.774	2663.25
766.431	2693.91667
770.084	2735.25
773.734	2733.91667
777.382	2791.58333
781.027	2828.25
784.669	2840.58333
788.308	2859.91667
791.944	2869.91667
795.577	2872.58333
799.208	2861.58333
802.835	2905.25
806.46	2936.91667
810.082	2920.58333
813.701	2926.25
817.317	2935.91667
820.931	2962.58333
824.542	2954.91667
828.149	2934.25
831.754	2919.25
835.357	2905.91667
838.956	2938.25
842.553	2913.91667
846.146	2901.91667
849.737	2894.91667
853.326	2872.25
856.911	2913.91667
860.493	2945.25
864.073	2953.58333
867.65	2991.58333
871.225	3014.58333
874.796	3043.25
878.365	3052.91667
881.931	3082.91667
885.494	3107.25
889.054	3137.25
892.612	3169.91667
896.166	3156.91667
899.719	3154.91667
903.268	3090.91667
906.814	3046.25
910.358	2972.58333
913.899	2934.25
917.438	2919.25
920.973	2940.58333
924.506	2953.91667
928.036	2975.58333
931.564	3011.25
935.088	3048.58333
938.61	3079.91667
942.129	3101.25
945.646	3191.91667
949.16	3238.58333
952.671	3283.91667
956.179	3279.25
959.685	3216.91667
963.188	3218.91667
966.688	3154.58333
970.185	3110.58333
973.68	3012.91667
977.173	3019.25
980.662	2945.25
984.149	2929.91667
987.633	2937.91667
991.114	3006.58333
994.593	3040.58333
998.069	3135.58333
1001.542	3220.91667
1005.013	3171.25
1008.481	2981.58333
1011.947	2930.91667
1015.409	2929.25
1018.869	2933.58333
1022.327	2934.91667
1025.782	2897.91667
1029.234	2892.91667
1032.683	2846.58333
1036.13	2771.91667
1039.574	2668.58333
1043.016	2602.91667
1046.455	2528.91667
1049.891	2508.25
1053.325	2525.25
1056.756	2512.58333
1060.184	2548.58333
1063.61	2556.91667
1067.033	2573.58333
1070.454	2584.58333
1073.872	2600.91667
1077.287	2579.91667
1080.7	2611.25
1084.11	2585.91667
1087.517	2575.58333
1090.922	2550.91667
1094.325	2499.58333
1097.724	2487.91667
1101.122	2517.58333
1104.516	2503.25
1107.908	2504.25
1111.298	2550.91667
1114.684	2586.91667
1118.069	2604.58333
1121.45	2631.58333
1124.83	2630.25
1128.206	2667.58333
1131.58	2708.25
1134.951	2771.58333
1138.32	2867.91667
1141.687	2973.25
1145.05	3021.58333
1148.412	3037.58333
1151.77	3012.58333
1155.126	2998.58333
1158.48	2978.91667
1161.831	3009.58333
1165.18	3001.91667
1168.525	3068.91667
1171.869	3090.25
1175.21	3123.25
1178.548	3157.91667
1181.884	3165.91667
1185.217	3200.58333
1188.548	3256.58333
1191.877	3313.91667
1195.202	3417.91667
1198.526	3494.25
1201.846	3523.58333
1205.165	3508.91667
1208.48	3487.58333
1211.794	3465.58333
1215.104	3514.58333
1218.413	3484.58333
1221.719	3467.58333
1225.022	3452.58333
1228.323	3401.25
1231.621	3374.25
1234.917	3331.91667
1238.21	3350.91667
1241.501	3356.91667
1244.79	3323.25
1248.076	3325.58333
1251.359	3389.25
1254.64	3464.91667
1257.919	3454.91667
1261.195	3561.58333
1264.468	3612.25
1267.74	3636.58333
1271.008	3637.91667
1274.275	3643.25
1277.538	3602.91667
1280.8	3605.91667
1284.059	3579.25
1287.315	3637.25
1290.569	3644.25
1293.821	3663.25
1297.07	3655.91667
1300.317	3682.58333
1303.562	3658.25
1306.803	3645.25
1310.043	3620.58333
1313.28	3604.91667
1316.515	3579.58333
1319.747	3554.58333
1322.977	3514.25
1326.204	3495.91667
1329.429	3445.25
1332.652	3430.91667
1335.872	3397.91667
1339.09	3351.91667
1342.306	3321.58333
1345.519	3276.25
1348.729	3240.91667
1351.938	3223.91667
1355.144	3174.25
1358.347	3144.25
1361.548	3140.91667
1364.747	3142.25
1367.944	3094.91667
1371.138	3121.58333
1374.329	3159.91667
1377.518	3199.25
1380.705	3180.58333
1383.89	3178.25
1387.072	3087.91667
1390.252	2933.58333
1393.429	2831.91667
1396.605	2794.91667
1399.777	2693.25
1402.948	2679.58333
1406.116	2673.25
1409.282	2686.25
1412.445	2686.91667
1415.606	2723.91667
1418.765	2753.58333
1421.921	2791.91667
1425.075	2846.58333
1428.227	2919.58333
1431.376	3041.91667
1434.524	3123.58333
1437.668	3216.91667
1440.811	3263.25
1443.951	3286.58333
1447.089	3303.58333
1450.224	3285.91667
1453.357	3269.25
1456.488	3242.25
1459.617	3184.25
1462.743	3118.25
1465.867	3038.25
1468.989	2992.58333
1472.108	2932.58333
1475.225	2880.58333
1478.34	2860.91667
1481.453	2829.91667
1484.563	2865.25
1487.671	2886.91667
1490.776	2919.25
1493.88	3001.91667
1496.981	3050.25
1500.08	3096.58333
1503.176	3146.91667
1506.271	3189.58333
1509.363	3245.91667
1512.452	3263.91667
1515.54	3293.58333
1518.625	3330.25
1521.708	3403.25
1524.789	3486.91667
1527.867	3672.25
1530.944	3850.91667
1534.018	4002.25
1537.089	4171.25
1540.159	4238.58333
1543.226	4229.58333
1546.291	4174.25
1549.354	4074.91667
1552.415	3987.25
1555.473	3889.25
1558.529	3816.91667
1561.583	3765.58333
1564.634	3743.58333
1567.684	3745.25
1570.731	3766.25
1573.776	3793.25
1576.819	3848.25
1579.859	3884.58333
1582.898	3910.25
1585.934	3945.25
1588.968	3926.58333
1591.999	3933.91667
1595.029	3974.25
1598.056	3983.58333
1601.081	4000.58333
1604.104	3988.91667
1607.125	3946.25
1610.144	3887.25
1613.16	3782.25
1616.174	3688.25
1619.186	3600.58333
1622.196	3493.58333
1625.203	3391.58333
1628.209	3322.58333
1631.212	3287.91667
1634.213	3279.58333
1637.212	3252.58333
1640.209	3201.58333
1643.203	3125.91667
1646.196	3029.91667
1649.186	2894.58333
1652.174	2798.91667
1655.16	2727.58333
1658.144	2624.91667
1661.125	2499.91667
1664.105	2402.91667
1667.082	2305.25
1670.057	2200.25
1673.03	2032.25
1676.001	1909.25
1678.97	1820.58333
1681.937	1703.58333
1684.901	1612.25
1687.863	1557.58333
1690.824	1470.58333
1693.782	1453.91667
1696.738	1389.91667
1699.692	1362.91667
1702.643	1300.58333
1705.593	1302.91667
1708.54	1291.25
1711.486	1285.58333
1714.429	1236.25
1717.37	1242.58333
1720.309	1194.58333
1723.246	1199.91667
1726.181	1185.91667
1729.113	1195.91667
1732.044	1161.25
1734.972	1155.58333
1737.899	1156.58333
1740.823	1146.91667
1743.745	1118.25
1746.665	1095.91667
1749.583	1089.91667
1752.499	1065.25
1755.413	1054.91667
1758.325	1020.58333
1761.235	1024.91667
1764.142	1018.25
1767.048	992.25
1769.951	987.91667
1772.852	995.58333
1775.752	975.91667
1778.649	979.58333
1781.544	975.25
1784.437	945.91667
1787.328	967.58333
1790.217	954.25
1793.104	927.91667
1795.989	921.58333
1798.872	912.58333
1801.753	933.25
1804.631	913.25
1807.508	924.91667
1810.383	918.25
1813.255	910.25
1816.126	907.91667
1818.994	915.58333
1821.861	893.58333
1824.725	896.25
1827.587	888.58333
1830.448	871.58333
1833.306	861.58333
1836.162	869.58333
1839.017	852.91667
1841.869	863.91667
1844.719	862.25
1847.567	851.91667
1850.414	853.58333
1853.258	846.91667
1856.1	848.25
1858.94	852.58333
1861.778	843.91667
1864.614	834.91667
1867.448	838.58333
1870.28	825.25
1873.111	850.25
1875.939	840.91667
1878.765	856.25
1881.589	825.91667
1884.411	827.58333
1887.231	831.25
1890.049	821.58333
1892.865	830.58333
1895.68	813.25
1898.492	815.58333
1901.302	812.25
1904.11	799.25
1906.916	797.91667
1909.721	794.58333
1912.523	803.91667
1915.323	787.91667
1918.122	776.25
1920.918	791.91667
1923.712	776.58333
1926.505	783.58333
1929.295	767.25
1932.084	784.58333
1934.87	783.58333
1937.655	764.25
1940.438	765.58333
1943.218	763.91667
1945.997	776.25
1948.774	775.58333
1951.549	779.58333
1954.322	776.91667
1957.093	755.58333
1959.862	760.58333
1962.629	752.58333
1965.394	751.91667
1968.157	732.91667
1970.918	746.58333
1973.678	731.25
1976.435	741.25
1979.19	732.25
1981.944	736.91667
1984.696	724.58333
1987.445	715.58333
1990.193	732.58333
1992.939	736.25
1995.683	719.91667
1998.425	706.58333
2001.165	735.25
2003.903	709.25
2006.639	716.91667
2009.374	721.91667
2012.106	713.58333
2014.837	688.25
2017.566	708.25
2020.292	720.58333
2023.017	712.58333
2025.74	706.25
2028.461	691.91667
2031.18	686.58333
2033.898	682.25
2036.613	694.25
2039.327	691.25
2042.038	682.91667
2044.748	681.58333
2047.456	681.91667
2050.162	679.25
2052.866	669.25
2055.568	680.91667
2058.268	673.91667
2060.967	678.91667
2063.663	659.91667
2066.358	661.25
2069.051	660.25
2071.742	668.91667
2074.431	667.58333
2077.118	659.91667
2079.804	651.58333
2082.487	665.91667
2085.169	677.58333
2087.849	676.91667
2090.527	668.91667
2093.203	676.91667
2095.877	673.91667
2098.55	673.25
2101.22	686.58333
2103.889	696.25
2106.556	697.58333
2109.221	729.25
2111.884	733.58333
2114.546	793.58333
2117.205	850.25
2119.863	929.58333
2122.519	967.91667
2125.173	1032.58333
2127.825	1098.25
2130.475	1089.25
2133.124	1048.91667
2135.771	1003.91667
2138.416	952.25
2141.059	889.58333
2143.7	842.25
2146.339	791.58333
2148.977	743.25
2151.613	742.25
2154.247	699.91667
2156.879	684.58333
2159.51	668.58333
2162.138	659.25
2164.765	650.25
2167.39	628.58333
2170.013	650.58333
2172.634	648.58333
2175.254	630.58333
2177.872	645.25
2180.488	617.58333
2183.102	618.58333
2185.714	619.58333
2188.325	582.91667
2190.934	592.25
2193.541	606.25
2196.146	592.58333
2198.75	578.25
2201.351	581.91667
2203.951	576.91667
2206.549	588.91667
2209.146	558.58333
2211.74	574.58333
2214.333	575.91667
2216.924	553.58333
2219.514	564.58333
2222.101	559.25
2224.687	576.91667
2227.271	560.58333
2229.853	539.91667
2232.433	534.58333
2235.012	564.25
2237.589	544.25
2240.164	562.25
2242.738	539.91667
2245.309	538.25
2247.879	540.25
2250.448	546.25
2253.014	519.91667
2255.579	516.91667
2258.142	519.91667
2260.703	508.91667
2263.262	515.91667
2265.82	504.91667
2268.376	512.25
2270.93	483.58333
2273.483	493.91667
2276.033	504.58333
2278.583	492.91667
2281.13	500.25
2283.675	478.91667
2286.219	492.58333
2288.761	488.58333
2291.302	487.25
2293.841	503.58333
2296.377	466.25
2298.913	483.25
2301.446	484.58333
2303.978	478.58333
2306.508	478.25
2309.037	472.58333
2311.563	483.91667
2314.088	488.25
2316.612	460.58333
2319.133	468.58333
2321.653	469.25
2324.171	467.91667
2326.688	483.91667
2329.202	459.25
2331.715	465.25
2334.227	466.25
2336.736	466.25
2339.244	459.25
2341.751	444.25
2344.255	463.25
2346.758	458.25
2349.259	444.25
2351.759	459.58333
2354.257	452.25
2356.753	439.25
2359.247	453.25
2361.74	457.25
2364.231	447.58333
2366.721	452.91667
2369.209	435.25
2371.695	449.25
2374.179	437.58333
2376.662	428.25
2379.143	452.25
2381.622	430.25
2384.1	439.25
2386.576	431.25
2389.051	445.91667
2391.524	449.91667
2393.995	441.58333
2396.464	432.91667
2398.932	437.91667
2401.398	422.91667
2403.863	425.25
2406.325	419.91667
2408.787	427.58333
2411.246	418.25
2413.704	422.91667
2416.16	420.91667
2418.615	427.25
2421.068	428.25
2423.519	426.91667
2425.969	413.91667
2428.417	421.91667
2430.863	443.58333
2433.308	422.25
2435.751	424.58333
2438.193	420.25
2440.633	416.58333
2443.071	414.25
2445.508	409.91667
2447.943	412.25
2450.376	405.25
2452.808	421.25
2455.238	395.91667
2457.667	452.91667
2460.093	410.58333
2462.519	400.91667
2464.942	403.25
2467.365	413.58333
2469.785	412.58333
2472.204	409.58333
2474.621	396.25
2477.037	419.91667
2479.451	389.25
2481.863	395.91667
2484.274	392.25
2486.683	400.91667
2489.091	407.91667
2491.497	400.91667
2493.901	403.58333
2496.304	398.58333
2498.705	401.25
2501.105	392.25
2503.503	412.91667
2505.899	381.91667
2508.294	416.25
2510.687	392.58333
2513.079	388.58333
2515.469	380.58333
2517.858	391.91667
2520.245	400.25
2522.63	382.58333
2525.014	386.58333
2527.396	378.91667
2529.776	383.58333
2532.156	391.91667
2534.533	374.25
2536.909	372.58333
2539.283	367.58333
2541.656	378.91667
2544.027	402.25
2546.397	373.91667
2548.765	379.58333
2551.131	372.58333
2553.496	374.25
2555.86	373.58333
2558.221	382.91667
2560.582	376.91667
2562.94	359.25
2565.298	376.58333
2567.653	386.58333
2570.007	356.25
2572.36	384.91667
2574.711	371.91667
2577.06	383.91667
2579.408	376.25
2581.754	375.58333
2584.099	386.91667
2586.442	369.58333
2588.784	377.25
2591.124	369.58333
2593.463	373.25
2595.8	381.91667
2598.135	362.25
2600.469	376.91667
2602.802	377.91667
2605.133	380.25
2607.462	368.91667
2609.79	362.58333
2612.116	372.91667
2614.441	375.91667
2616.764	366.58333
2619.086	359.91667
2621.406	359.25
2623.725	389.25
2626.042	369.91667
2628.358	364.58333
2630.672	361.25
2632.985	372.25
2635.296	367.25
2637.606	369.91667
2639.914	366.91667
2642.22	371.58333
2644.525	368.91667
2646.829	372.25
2649.131	386.58333
2651.432	387.25
2653.731	371.25
2656.028	387.58333
2658.324	382.58333
2660.619	372.58333
2662.912	389.25
2665.204	369.25
2667.494	378.58333
2669.782	371.91667
2672.07	372.25
2674.355	375.91667
2676.639	383.58333
2678.922	374.91667
2681.203	376.25
2683.483	360.58333
2685.761	370.91667
2688.038	378.91667
2690.313	394.25
2692.587	386.58333
2694.859	372.91667
2697.13	384.58333
2699.399	392.58333
2701.667	396.91667
2703.933	391.25
2706.198	395.58333
2708.461	409.91667
2710.723	410.91667
2712.984	394.58333
2715.243	407.91667
2717.5	391.58333
2719.757	416.58333
2722.011	400.58333
2724.264	413.58333
2726.516	419.91667
2728.766	410.91667
2731.015	413.58333
2733.262	409.91667
2735.508	404.58333
2737.753	409.91667
2739.996	398.91667
2742.237	389.25
2744.477	419.25
2746.716	415.91667
2748.953	391.25
2751.189	406.58333
2753.423	398.91667
2755.656	383.91667
2757.887	380.25
2760.117	382.58333
2762.346	393.58333
2764.573	378.91667
2766.798	382.58333
2769.022	389.58333
2771.245	393.25
2773.467	387.58333
2775.686	393.58333
2777.905	402.25
2780.122	405.91667
2782.337	397.25
2784.552	402.91667
2786.764	397.91667
2788.976	408.91667
2791.186	415.91667
2793.394	412.58333
2795.601	421.58333
2797.807	431.58333
2800.011	431.91667
2802.214	437.25
2804.415	440.25
2806.615	436.91667
2808.814	441.91667
2811.011	460.58333
2813.206	447.91667
2815.401	472.25
2817.594	464.91667
2819.785	484.25
2821.975	471.58333
2824.164	475.91667
2826.351	496.58333
2828.537	508.25
2830.722	510.91667
2832.905	510.58333
2835.086	542.91667
2837.267	565.25
2839.445	591.25
2841.623	605.91667
2843.799	626.25
2845.974	645.91667
2848.147	671.58333
2850.319	700.58333
2852.489	718.25
2854.659	735.25
2856.826	740.58333
2858.993	770.58333
2861.158	742.25
2863.321	751.91667
2865.483	771.91667
2867.644	777.58333
2869.804	753.58333
2871.962	760.58333
2874.118	767.25
2876.274	755.91667
2878.428	759.25
2880.58	758.91667
2882.731	750.91667
2884.881	754.58333
2887.03	761.91667
2889.177	761.91667
2891.322	780.58333
2893.467	768.25
2895.61	756.58333
2897.751	793.91667
2899.892	785.25
2902.03	785.25
2904.168	800.58333
2906.304	797.25
2908.439	807.58333
2910.572	805.91667
2912.704	812.25
2914.835	819.58333
2916.965	817.25
2919.093	816.25
2921.219	796.25
2923.345	811.25
2925.469	783.58333
2927.591	787.91667
2929.712	761.25
2931.832	762.58333
2933.951	734.91667
2936.068	740.91667
2938.184	719.58333
2940.299	688.25
2942.412	677.58333
2944.524	654.25
2946.634	643.25
2948.744	595.25
2950.851	626.25
2952.958	581.91667
2955.063	590.25
2957.167	580.91667
2959.269	545.91667
2961.371	580.25
2963.471	534.25
2965.569	540.58333
2967.666	504.25
2969.762	510.58333
2971.857	496.25
2973.95	486.25
2976.042	491.25
2978.133	467.58333
2980.222	462.25
2982.31	439.91667
2984.396	427.58333
2986.482	434.25
2988.566	418.25
2990.648	411.25
2992.73	413.58333
2994.81	397.91667
2996.889	402.58333
2998.966	399.25
3001.042	390.25
3003.117	397.58333
3005.191	397.25
3007.263	388.91667
3009.334	377.25
3011.403	379.91667
3013.472	366.58333
3015.539	376.58333
3017.604	381.58333
3019.669	342.58333
3021.732	350.58333
3023.794	358.25
3025.854	344.91667
3027.914	335.58333
3029.971	357.58333
3032.028	338.91667
3034.083	338.91667
3036.137	335.91667
3038.19	323.58333
3040.242	316.25
3042.292	313.25
3044.341	312.58333
3046.388	320.58333
3048.435	295.25
3050.48	320.25
3052.524	305.91667
3054.566	295.91667
3056.607	306.91667
3058.647	296.25
3060.686	282.91667
3062.723	275.91667
3064.759	255.25
3066.794	-0.41667
3068.828	5.25
3070.86	2.58333
