-0.839	502.375
3.438	585.04167
7.711	175.375
11.981	62.70833
16.247	44.04167
20.509	51.375
24.768	45.70833
29.024	53.375
33.276	42.04167
37.524	54.375
41.769	47.375
46.01	32.70833
50.247	47.375
54.481	59.70833
58.712	61.375
62.939	48.04167
67.162	63.70833
71.382	60.04167
75.599	48.04167
79.812	63.375
84.021	78.70833
88.227	62.375
92.429	62.70833
96.628	51.04167
100.823	69.70833
105.015	71.375
109.204	64.375
113.388	79.04167
117.57	76.70833
121.748	87.375
125.922	78.04167
130.093	102.04167
134.261	99.70833
138.425	99.70833
142.585	137.70833
146.742	134.04167
150.896	160.70833
155.046	204.70833
159.193	321.04167
163.336	543.04167
167.476	995.04167
171.613	1847.375
175.746	3067.375
179.875	4463.04167
184.002	5807.04167
188.124	6701.375
192.244	6991.375
196.36	6893.70833
200.472	6697.375
204.581	6462.70833
208.687	6232.04167
212.79	6122.04167
216.889	6114.70833
220.984	6068.04167
225.077	6035.375
229.165	6015.70833
233.251	5954.70833
237.333	5920.04167
241.412	5825.70833
245.487	5765.375
249.559	5672.70833
253.628	5683.70833
257.694	5598.04167
261.756	5578.04167
265.814	5448.375
269.87	5352.375
273.922	5193.04167
277.97	5112.04167
282.016	5104.70833
286.058	5106.375
290.097	5195.70833
294.132	5293.70833
298.164	5276.375
302.193	5071.375
306.219	4755.04167
310.241	4386.70833
314.26	4074.70833
318.276	3822.70833
322.288	3637.375
326.297	3512.70833
330.303	3407.70833
334.305	3335.70833
338.305	3287.04167
342.301	3279.70833
346.294	3257.375
350.283	3216.04167
354.269	3206.04167
358.252	3187.375
362.232	3160.375
366.209	3153.70833
370.182	3120.70833
374.152	3106.70833
378.119	3127.04167
382.083	3126.04167
386.043	3133.70833
390	3103.70833
393.954	3140.04167
397.905	3142.375
401.852	3114.70833
405.797	3052.70833
409.738	3113.04167
413.676	3128.70833
417.61	3148.375
421.542	3088.04167
425.47	3005.04167
429.396	2997.70833
433.318	2980.70833
437.236	2966.04167
441.152	3004.04167
445.065	2951.70833
448.974	2973.04167
452.88	2899.375
456.783	2906.04167
460.683	2865.375
464.58	2892.04167
468.473	2894.375
472.364	2917.04167
476.251	2912.04167
480.135	2946.04167
484.016	2997.04167
487.894	2985.04167
491.769	3004.04167
495.641	3018.04167
499.509	3030.70833
503.375	3045.04167
507.237	3015.375
511.096	3031.04167
514.952	3104.375
518.805	3186.04167
522.655	3216.375
526.502	3099.04167
530.346	3009.375
534.187	2980.70833
538.024	2977.70833
541.859	3018.04167
545.69	3052.70833
549.519	3028.70833
553.344	3010.04167
557.166	2956.375
560.985	2907.04167
564.802	2870.375
568.615	2851.375
572.425	2798.04167
576.232	2776.70833
580.036	2803.04167
583.836	2793.375
587.634	2807.04167
591.429	2808.70833
595.221	2871.04167
599.01	2880.375
602.796	2905.375
606.578	2920.04167
610.358	2929.04167
614.135	2902.04167
617.909	2872.375
621.679	2844.70833
625.447	2833.70833
629.212	2847.70833
632.973	2820.70833
636.732	2842.70833
640.488	2843.375
644.241	2807.70833
647.991	2803.70833
651.737	2817.375
655.481	2798.375
659.222	2810.375
662.96	2802.70833
666.695	2834.70833
670.427	2815.70833
674.156	2841.04167
677.882	2848.70833
681.605	2826.70833
685.325	2770.375
689.043	2794.375
692.757	2768.04167
696.468	2758.70833
700.177	2761.70833
703.882	2720.70833
707.585	2718.375
711.284	2709.70833
714.981	2685.375
718.675	2705.375
722.366	2729.04167
726.054	2710.70833
729.739	2699.04167
733.421	2734.375
737.1	2712.04167
740.777	2715.04167
744.45	2736.04167
748.121	2738.375
751.789	2817.375
755.453	2761.04167
759.115	2806.04167
762.774	2814.04167
766.431	2824.70833
770.084	2827.04167
773.734	2865.04167
777.382	2885.375
781.027	2892.70833
784.669	2905.375
788.308	2907.70833
791.944	2944.70833
795.577	2942.375
799.208	2965.04167
802.835	2993.70833
806.46	3013.375
810.082	3015.375
813.701	3018.04167
817.317	3060.04167
820.931	3032.04167
824.542	3044.70833
828.149	2993.04167
831.754	2972.375
835.357	2954.375
838.956	2983.375
842.553	2993.04167
846.146	2952.04167
849.737	2919.70833
853.326	2901.04167
856.911	2884.375
860.493	2931.375
864.073	2972.70833
867.65	3014.04167
871.225	3028.70833
874.796	3016.70833
878.365	2996.375
881.931	3026.375
885.494	3081.70833
889.054	3101.375
892.612	3115.70833
896.166	3121.375
899.719	3098.04167
903.268	3008.70833
906.814	2998.375
910.358	2965.70833
913.899	2913.375
917.438	2927.375
920.973	2885.04167
924.506	2933.375
928.036	3000.375
931.564	3015.70833
935.088	3069.70833
938.61	3074.04167
942.129	3111.04167
945.646	3132.375
949.16	3212.04167
952.671	3223.70833
956.179	3232.70833
959.685	3189.375
963.188	3201.70833
966.688	3159.70833
970.185	3069.04167
973.68	3014.375
977.173	3022.04167
980.662	3027.04167
984.149	2920.375
987.633	2912.04167
991.114	2967.04167
994.593	2984.70833
998.069	3053.375
1001.542	3155.70833
1005.013	3113.04167
1008.481	2931.04167
1011.947	2888.375
1015.409	2862.375
1018.869	2859.375
1022.327	2849.375
1025.782	2859.375
1029.234	2850.04167
1032.683	2809.70833
1036.13	2730.375
1039.574	2646.70833
1043.016	2589.04167
1046.455	2542.04167
1049.891	2521.04167
1053.325	2541.70833
1056.756	2519.375
1060.184	2549.04167
1063.61	2561.375
1067.033	2555.70833
1070.454	2562.70833
1073.872	2596.04167
1077.287	2585.04167
1080.7	2583.375
1084.11	2591.70833
1087.517	2568.04167
1090.922	2521.04167
1094.325	2506.70833
1097.724	2485.70833
1101.122	2498.70833
1104.516	2453.04167
1107.908	2466.375
1111.298	2516.70833
1114.684	2528.70833
1118.069	2576.375
1121.45	2616.04167
1124.83	2578.375
1128.206	2597.375
1131.58	2648.375
1134.951	2704.04167
1138.32	2772.04167
1141.687	2875.375
1145.05	2934.04167
1148.412	2902.04167
1151.77	2897.04167
1155.126	2885.70833
1158.48	2845.04167
1161.831	2872.70833
1165.18	2872.375
1168.525	2904.375
1171.869	2913.375
1175.21	2942.70833
1178.548	2976.70833
1181.884	3018.04167
1185.217	3042.70833
1188.548	3120.375
1191.877	3159.04167
1195.202	3290.04167
1198.526	3341.04167
1201.846	3346.375
1205.165	3357.04167
1208.48	3344.70833
1211.794	3312.04167
1215.104	3343.375
1218.413	3363.70833
1221.719	3333.04167
1225.022	3316.375
1228.323	3256.70833
1231.621	3208.375
1234.917	3202.70833
1238.21	3189.04167
1241.501	3149.70833
1244.79	3141.04167
1248.076	3144.375
1251.359	3158.04167
1254.64	3258.04167
1257.919	3241.04167
1261.195	3291.70833
1264.468	3359.04167
1267.74	3398.375
1271.008	3390.70833
1274.275	3377.70833
1277.538	3386.04167
1280.8	3371.70833
1284.059	3370.70833
1287.315	3422.04167
1290.569	3426.04167
1293.821	3449.70833
1297.07	3451.375
1300.317	3496.04167
1303.562	3488.375
1306.803	3453.70833
1310.043	3454.375
1313.28	3406.04167
1316.515	3387.70833
1319.747	3382.04167
1322.977	3359.70833
1326.204	3349.375
1329.429	3337.70833
1332.652	3313.375
1335.872	3290.375
1339.09	3237.375
1342.306	3201.375
1345.519	3152.04167
1348.729	3131.04167
1351.938	3114.375
1355.144	3070.70833
1358.347	3035.04167
1361.548	3029.04167
1364.747	3001.04167
1367.944	2966.375
1371.138	2997.04167
1374.329	2996.70833
1377.518	3024.04167
1380.705	3030.04167
1383.89	3021.70833
1387.072	2912.375
1390.252	2815.70833
1393.429	2728.70833
1396.605	2686.375
1399.777	2599.375
1402.948	2601.70833
1406.116	2595.375
1409.282	2614.375
1412.445	2592.375
1415.606	2642.375
1418.765	2667.04167
1421.921	2690.375
1425.075	2736.04167
1428.227	2799.04167
1431.376	2907.70833
1434.524	2975.04167
1437.668	3072.375
1440.811	3103.04167
1443.951	3146.70833
1447.089	3142.04167
1450.224	3161.375
1453.357	3104.375
1456.488	3084.70833
1459.617	3021.375
1462.743	2979.70833
1465.867	2882.70833
1468.989	2858.375
1472.108	2823.04167
1475.225	2777.70833
1478.34	2724.04167
1481.453	2724.70833
1484.563	2738.375
1487.671	2760.04167
1490.776	2788.375
1493.88	2830.70833
1496.981	2858.70833
1500.08	2890.70833
1503.176	2946.04167
1506.271	2950.70833
1509.363	3017.04167
1512.452	3029.04167
1515.54	3079.70833
1518.625	3106.375
1521.708	3170.375
1524.789	3246.70833
1527.867	3338.04167
1530.944	3501.375
1534.018	3624.04167
1537.089	3763.375
1540.159	3794.70833
1543.226	3775.04167
1546.291	3706.04167
1549.354	3646.70833
1552.415	3564.70833
1555.473	3491.375
1558.529	3443.70833
1561.583	3412.70833
1564.634	3390.375
1567.684	3380.70833
1570.731	3439.04167
1573.776	3457.70833
1576.819	3530.375
1579.859	3551.70833
1582.898	3584.04167
1585.934	3621.04167
1588.968	3618.70833
1591.999	3627.375
1595.029	3617.04167
1598.056	3657.375
1601.081	3670.70833
1604.104	3671.04167
1607.125	3677.70833
1610.144	3577.70833
1613.16	3495.04167
1616.174	3428.70833
1619.186	3363.375
1622.196	3263.04167
1625.203	3163.375
1628.209	3129.70833
1631.212	3082.70833
1634.213	3111.70833
1637.212	3083.70833
1640.209	3056.04167
1643.203	2993.70833
1646.196	2923.70833
1649.186	2822.375
1652.174	2740.04167
1655.16	2638.375
1658.144	2585.04167
1661.125	2466.04167
1664.105	2384.70833
1667.082	2254.70833
1670.057	2153.04167
1673.03	2037.375
1676.001	1894.04167
1678.97	1785.04167
1681.937	1686.375
1684.901	1610.70833
1687.863	1562.375
1690.824	1474.375
1693.782	1462.375
1696.738	1410.70833
1699.692	1377.70833
1702.643	1359.70833
1705.593	1344.70833
1708.54	1324.375
1711.486	1315.375
1714.429	1283.375
1717.37	1294.04167
1720.309	1248.04167
1723.246	1272.70833
1726.181	1234.375
1729.113	1229.70833
1732.044	1231.375
1734.972	1206.04167
1737.899	1222.375
1740.823	1214.04167
1743.745	1165.375
1746.665	1165.375
1749.583	1156.70833
1752.499	1138.04167
1755.413	1143.04167
1758.325	1112.375
1761.235	1104.375
1764.142	1083.375
1767.048	1068.375
1769.951	1085.70833
1772.852	1074.375
1775.752	1087.04167
1778.649	1095.70833
1781.544	1068.70833
1784.437	1028.04167
1787.328	1038.375
1790.217	1035.04167
1793.104	1006.375
1795.989	1014.375
1798.872	997.375
1801.753	1029.04167
1804.631	1007.04167
1807.508	1027.04167
1810.383	1014.70833
1813.255	989.70833
1816.126	991.70833
1818.994	1001.70833
1821.861	990.70833
1824.725	998.70833
1827.587	987.375
1830.448	978.70833
1833.306	952.70833
1836.162	963.375
1839.017	955.04167
1841.869	957.70833
1844.719	949.375
1847.567	935.70833
1850.414	930.04167
1853.258	947.04167
1856.1	943.04167
1858.94	958.04167
1861.778	930.70833
1864.614	923.375
1867.448	918.375
1870.28	910.04167
1873.111	953.04167
1875.939	929.375
1878.765	934.375
1881.589	926.375
1884.411	909.04167
1887.231	933.375
1890.049	922.375
1892.865	913.04167
1895.68	909.70833
1898.492	927.04167
1901.302	896.70833
1904.11	911.375
1906.916	890.04167
1909.721	875.04167
1912.523	892.04167
1915.323	876.375
1918.122	882.70833
1920.918	889.375
1923.712	878.04167
1926.505	876.70833
1929.295	873.70833
1932.084	892.70833
1934.87	875.70833
1937.655	866.70833
1940.438	861.04167
1943.218	864.04167
1945.997	869.375
1948.774	876.70833
1951.549	878.375
1954.322	871.04167
1957.093	864.70833
1959.862	853.375
1962.629	848.04167
1965.394	850.375
1968.157	836.70833
1970.918	839.375
1973.678	832.04167
1976.435	845.375
1979.19	833.70833
1981.944	819.04167
1984.696	827.375
1987.445	808.375
1990.193	819.70833
1992.939	840.04167
1995.683	821.04167
1998.425	810.70833
2001.165	831.04167
2003.903	801.04167
2006.639	825.375
2009.374	819.70833
2012.106	820.375
2014.837	791.375
2017.566	817.375
2020.292	812.375
2023.017	812.70833
2025.74	804.375
2028.461	792.04167
2031.18	797.04167
2033.898	790.375
2036.613	798.04167
2039.327	799.375
2042.038	783.70833
2044.748	777.375
2047.456	799.375
2050.162	768.04167
2052.866	784.70833
2055.568	793.70833
2058.268	772.375
2060.967	780.04167
2063.663	768.375
2066.358	767.70833
2069.051	767.375
2071.742	777.375
2074.431	786.04167
2077.118	770.04167
2079.804	757.70833
2082.487	765.04167
2085.169	784.04167
2087.849	789.70833
2090.527	754.70833
2093.203	776.04167
2095.877	782.375
2098.55	792.04167
2101.22	790.70833
2103.889	803.70833
2106.556	791.70833
2109.221	810.70833
2111.884	819.375
2114.546	870.375
2117.205	900.375
2119.863	979.375
2122.519	1009.70833
2125.173	1047.375
2127.825	1098.375
2130.475	1110.375
2133.124	1060.04167
2135.771	1032.04167
2138.416	996.04167
2141.059	936.04167
2143.7	918.04167
2146.339	869.04167
2148.977	829.70833
2151.613	821.04167
2154.247	803.04167
2156.879	794.04167
2159.51	781.04167
2162.138	771.375
2164.765	762.70833
2167.39	746.375
2170.013	762.04167
2172.634	756.70833
2175.254	737.70833
2177.872	770.375
2180.488	721.70833
2183.102	720.04167
2185.714	732.70833
2188.325	703.70833
2190.934	720.70833
2193.541	725.70833
2196.146	712.375
2198.75	696.70833
2201.351	697.375
2203.951	674.375
2206.549	714.70833
2209.146	696.70833
2211.74	704.70833
2214.333	697.375
2216.924	679.04167
2219.514	688.04167
2222.101	689.70833
2224.687	698.70833
2227.271	673.70833
2229.853	676.375
2232.433	660.04167
2235.012	681.70833
2237.589	681.04167
2240.164	701.375
2242.738	666.70833
2245.309	660.375
2247.879	669.04167
2250.448	673.375
2253.014	661.04167
2255.579	663.375
2258.142	665.375
2260.703	649.70833
2263.262	655.375
2265.82	641.70833
2268.376	651.375
2270.93	637.70833
2273.483	642.04167
2276.033	652.04167
2278.583	643.70833
2281.13	629.70833
2283.675	630.375
2286.219	633.375
2288.761	646.70833
2291.302	641.70833
2293.841	648.70833
2296.377	619.375
2298.913	632.375
2301.446	649.375
2303.978	636.375
2306.508	617.04167
2309.037	637.375
2311.563	626.375
2314.088	631.375
2316.612	622.375
2319.133	627.375
2321.653	621.70833
2324.171	621.375
2326.688	633.375
2329.202	629.70833
2331.715	626.375
2334.227	620.04167
2336.736	619.04167
2339.244	606.375
2341.751	620.04167
2344.255	627.375
2346.758	628.04167
2349.259	610.70833
2351.759	618.375
2354.257	613.70833
2356.753	601.375
2359.247	615.375
2361.74	622.70833
2364.231	608.70833
2366.721	625.375
2369.209	610.375
2371.695	621.375
2374.179	612.375
2376.662	593.04167
2379.143	618.70833
2381.622	615.70833
2384.1	629.375
2386.576	608.04167
2389.051	623.375
2391.524	628.375
2393.995	625.375
2396.464	613.375
2398.932	619.375
2401.398	612.375
2403.863	621.70833
2406.325	613.04167
2408.787	611.70833
2411.246	610.70833
2413.704	615.375
2416.16	609.70833
2418.615	618.04167
2421.068	631.375
2423.519	628.70833
2425.969	605.70833
2428.417	615.04167
2430.863	637.04167
2433.308	617.04167
2435.751	613.70833
2438.193	612.375
2440.633	622.375
2443.071	626.04167
2445.508	609.04167
2447.943	617.04167
2450.376	602.04167
2452.808	614.375
2455.238	613.375
2457.667	650.70833
2460.093	625.04167
2462.519	619.375
2464.942	617.04167
2467.365	626.04167
2469.785	629.04167
2472.204	619.04167
2474.621	610.04167
2477.037	629.375
2479.451	618.375
2481.863	605.375
2484.274	614.375
2486.683	616.375
2489.091	626.70833
2491.497	616.375
2493.901	632.04167
2496.304	625.70833
2498.705	631.375
2501.105	621.04167
2503.503	650.04167
2505.899	608.04167
2508.294	635.04167
2510.687	630.04167
2513.079	631.04167
2515.469	606.04167
2517.858	629.70833
2520.245	629.70833
2522.63	620.375
2525.014	621.70833
2527.396	617.375
2529.776	616.04167
2532.156	622.04167
2534.533	613.04167
2536.909	616.375
2539.283	609.04167
2541.656	624.375
2544.027	639.04167
2546.397	634.70833
2548.765	624.375
2551.131	633.04167
2553.496	629.375
2555.86	632.70833
2558.221	640.70833
2560.582	629.70833
2562.94	627.375
2565.298	633.70833
2567.653	648.70833
2570.007	620.04167
2572.36	642.04167
2574.711	633.04167
2577.06	659.04167
2579.408	650.04167
2581.754	643.70833
2584.099	641.70833
2586.442	633.04167
2588.784	638.70833
2591.124	649.375
2593.463	645.70833
2595.8	653.375
2598.135	644.375
2600.469	645.70833
2602.802	656.04167
2605.133	651.04167
2607.462	644.04167
2609.79	648.04167
2612.116	653.375
2614.441	652.375
2616.764	645.375
2619.086	649.70833
2621.406	647.70833
2623.725	677.04167
2626.042	665.04167
2628.358	655.04167
2630.672	656.70833
2632.985	679.70833
2635.296	671.04167
2637.606	682.375
2639.914	666.70833
2642.22	660.375
2644.525	675.70833
2646.829	678.70833
2649.131	679.375
2651.432	697.375
2653.731	676.04167
2656.028	689.375
2658.324	699.375
2660.619	696.70833
2662.912	696.375
2665.204	687.04167
2667.494	694.375
2669.782	687.375
2672.07	709.375
2674.355	700.04167
2676.639	705.04167
2678.922	698.70833
2681.203	691.375
2683.483	687.375
2685.761	696.375
2688.038	703.375
2690.313	714.04167
2692.587	710.04167
2694.859	702.04167
2697.13	710.70833
2699.399	721.375
2701.667	732.375
2703.933	729.70833
2706.198	749.70833
2708.461	731.70833
2710.723	736.70833
2712.984	730.375
2715.243	738.375
2717.5	744.04167
2719.757	746.70833
2722.011	751.04167
2724.264	760.70833
2726.516	777.375
2728.766	757.04167
2731.015	765.70833
2733.262	780.04167
2735.508	756.04167
2737.753	760.04167
2739.996	761.375
2742.237	752.375
2744.477	768.70833
2746.716	767.04167
2748.953	758.04167
2751.189	766.70833
2753.423	750.375
2755.656	738.04167
2757.887	735.70833
2760.117	753.70833
2762.346	741.375
2764.573	731.04167
2766.798	741.375
2769.022	751.04167
2771.245	761.04167
2773.467	753.375
2775.686	770.04167
2777.905	759.375
2780.122	773.70833
2782.337	770.04167
2784.552	775.04167
2786.764	771.70833
2788.976	779.04167
2791.186	799.04167
2793.394	798.04167
2795.601	798.70833
2797.807	816.04167
2800.011	824.375
2802.214	834.70833
2804.415	836.70833
2806.615	825.04167
2808.814	832.04167
2811.011	847.70833
2813.206	831.04167
2815.401	852.375
2817.594	857.375
2819.785	871.70833
2821.975	852.04167
2824.164	863.375
2826.351	875.375
2828.537	899.04167
2830.722	907.04167
2832.905	893.04167
2835.086	939.375
2837.267	954.70833
2839.445	981.70833
2841.623	1006.04167
2843.799	1008.04167
2845.974	1027.04167
2848.147	1080.375
2850.319	1103.04167
2852.489	1130.04167
2854.659	1143.375
2856.826	1151.04167
2858.993	1186.70833
2861.158	1161.04167
2863.321	1171.375
2865.483	1182.70833
2867.644	1184.375
2869.804	1184.70833
2871.962	1167.70833
2874.118	1181.04167
2876.274	1208.375
2878.428	1196.375
2880.58	1177.375
2882.731	1161.70833
2884.881	1158.375
2887.03	1170.70833
2889.177	1169.375
2891.322	1195.70833
2893.467	1180.375
2895.61	1165.70833
2897.751	1203.70833
2899.892	1193.375
2902.03	1191.04167
2904.168	1199.04167
2906.304	1220.70833
2908.439	1238.04167
2910.572	1206.04167
2912.704	1229.375
2914.835	1231.04167
2916.965	1227.04167
2919.093	1264.70833
2921.219	1214.70833
2923.345	1236.04167
2925.469	1212.04167
2927.591	1202.70833
2929.712	1167.70833
2931.832	1191.375
2933.951	1171.04167
2936.068	1152.04167
2938.184	1128.04167
2940.299	1126.04167
2942.412	1100.04167
2944.524	1075.70833
2946.634	1067.375
2948.744	1022.70833
2950.851	1057.375
2952.958	1008.04167
2955.063	1010.04167
2957.167	1011.375
2959.269	981.04167
2961.371	1010.04167
2963.471	970.70833
2965.569	985.04167
2967.666	943.70833
2969.762	956.70833
2971.857	935.375
2973.95	928.70833
2976.042	924.04167
2978.133	905.04167
2980.222	884.375
2982.31	868.375
2984.396	846.70833
2986.482	845.04167
2988.566	842.375
2990.648	843.375
2992.73	835.70833
2994.81	827.04167
2996.889	846.70833
2998.966	842.375
3001.042	833.375
3003.117	821.70833
3005.191	832.375
3007.263	822.04167
3009.334	815.375
3011.403	816.375
3013.472	796.70833
3015.539	805.04167
3017.604	793.04167
3019.669	761.04167
3021.732	766.04167
3023.794	754.70833
3025.854	758.375
3027.914	761.04167
3029.971	779.70833
3032.028	767.375
3034.083	763.375
3036.137	740.04167
3038.19	716.70833
3040.242	707.375
3042.292	696.04167
3044.341	693.375
3046.388	695.04167
3048.435	676.375
3050.48	701.04167
3052.524	669.04167
3054.566	675.375
3056.607	675.70833
3058.647	663.375
3060.686	634.375
3062.723	624.375
3064.759	599.04167
3066.794	-0.625
3068.828	0.70833
3070.86	3.04167
