-0.839	636.83333
3.438	770.5
7.711	229.5
11.981	68.16667
16.247	48.5
20.509	50.5
24.768	46.5
29.024	60.83333
33.276	45.16667
37.524	51.5
41.769	48.83333
46.01	36.16667
50.247	47.83333
54.481	60.16667
58.712	61.83333
62.939	52.5
67.162	67.83333
71.382	58.16667
75.599	48.16667
79.812	63.16667
84.021	84.83333
88.227	64.5
92.429	65.5
96.628	53.5
100.823	71.83333
105.015	80.5
109.204	73.83333
113.388	78.5
117.57	77.83333
121.748	92.83333
125.922	81.83333
130.093	98.5
134.261	104.16667
138.425	101.5
142.585	138.5
146.742	132.5
150.896	163.83333
155.046	202.16667
159.193	323.83333
163.336	554.16667
167.476	1019.83333
171.613	1850.5
175.746	3129.16667
179.875	4668.83333
184.002	6091.16667
188.124	7116.16667
192.244	7485.5
196.36	7453.83333
200.472	7204.16667
204.581	7046.5
208.687	6850.5
212.79	6754.16667
216.889	6733.16667
220.984	6711.5
225.077	6740.5
229.165	6716.16667
233.251	6734.83333
237.333	6722.83333
241.412	6620.16667
245.487	6531.16667
249.559	6448.5
253.628	6414.16667
257.694	6386.83333
261.756	6316.16667
265.814	6161.83333
269.87	5975.16667
273.922	5783.83333
277.97	5663.83333
282.016	5592.16667
286.058	5622.83333
290.097	5759.83333
294.132	5794.83333
298.164	5750.5
302.193	5451.16667
306.219	5101.5
310.241	4697.83333
314.26	4349.5
318.276	4065.5
322.288	3864.16667
326.297	3687.16667
330.303	3602.5
334.305	3513.5
338.305	3450.5
342.301	3405.83333
346.294	3390.5
350.283	3396.5
354.269	3344.16667
358.252	3327.5
362.232	3303.83333
366.209	3310.83333
370.182	3257.5
374.152	3258.83333
378.119	3282.16667
382.083	3276.5
386.043	3268.83333
390	3216.83333
393.954	3237.83333
397.905	3240.5
401.852	3219.5
405.797	3188.83333
409.738	3196.16667
413.676	3183.16667
417.61	3161.16667
421.542	3122.5
425.47	3106.5
429.396	3101.16667
433.318	3077.5
437.236	3084.83333
441.152	3103.5
445.065	3024.16667
448.974	3045.16667
452.88	2999.5
456.783	2992.16667
460.683	2979.83333
464.58	3003.5
468.473	2986.83333
472.364	3013.16667
476.251	2994.5
480.135	3031.83333
484.016	3076.83333
487.894	3109.16667
491.769	3132.16667
495.641	3146.5
499.509	3155.16667
503.375	3166.83333
507.237	3160.5
511.096	3115.83333
514.952	3129.83333
518.805	3149.16667
522.655	3174.83333
526.502	3114.83333
530.346	3091.83333
534.187	3098.16667
538.024	3117.83333
541.859	3116.5
545.69	3139.16667
549.519	3133.5
553.344	3098.5
557.166	3056.16667
560.985	3009.83333
564.802	2962.83333
568.615	2919.83333
572.425	2847.83333
576.232	2851.83333
580.036	2864.83333
583.836	2863.16667
587.634	2914.16667
591.429	2889.5
595.221	2979.16667
599.01	2991.83333
602.796	3043.16667
606.578	3025.16667
610.358	3024.5
614.135	3002.5
617.909	2988.5
621.679	2961.83333
625.447	2933.5
629.212	2944.5
632.973	2952.5
636.732	2929.83333
640.488	2942.83333
644.241	2923.83333
647.991	2922.16667
651.737	2917.83333
655.481	2899.16667
659.222	2897.5
662.96	2895.5
666.695	2927.5
670.427	2916.5
674.156	2929.5
677.882	2910.5
681.605	2910.16667
685.325	2855.5
689.043	2893.83333
692.757	2852.16667
696.468	2856.16667
700.177	2837.5
703.882	2845.5
707.585	2802.5
711.284	2838.5
714.981	2802.83333
718.675	2830.83333
722.366	2824.83333
726.054	2797.5
729.739	2817.16667
733.421	2812.5
737.1	2799.5
740.777	2820.16667
744.45	2841.5
748.121	2853.5
751.789	2900.83333
755.453	2898.83333
759.115	2912.5
762.774	2918.83333
766.431	2957.16667
770.084	2999.83333
773.734	3010.5
777.382	3045.5
781.027	3077.16667
784.669	3107.5
788.308	3080.5
791.944	3105.5
795.577	3116.16667
799.208	3142.83333
802.835	3176.83333
806.46	3192.5
810.082	3203.16667
813.701	3189.16667
817.317	3223.83333
820.931	3219.16667
824.542	3221.83333
828.149	3185.83333
831.754	3132.5
835.357	3154.5
838.956	3176.16667
842.553	3145.5
846.146	3130.5
849.737	3093.83333
853.326	3084.5
856.911	3100.83333
860.493	3148.5
864.073	3168.83333
867.65	3184.5
871.225	3217.16667
874.796	3245.83333
878.365	3224.16667
881.931	3258.16667
885.494	3316.83333
889.054	3342.5
892.612	3352.5
896.166	3378.5
899.719	3339.83333
903.268	3300.5
906.814	3221.83333
910.358	3176.16667
913.899	3138.5
917.438	3137.5
920.973	3097.83333
924.506	3141.5
928.036	3214.16667
931.564	3227.83333
935.088	3287.83333
938.61	3302.5
942.129	3320.83333
945.646	3397.5
949.16	3461.83333
952.671	3501.83333
956.179	3504.83333
959.685	3497.5
963.188	3459.16667
966.688	3402.16667
970.185	3338.16667
973.68	3254.16667
977.173	3207.83333
980.662	3164.5
984.149	3173.16667
987.633	3148.5
991.114	3216.83333
994.593	3273.16667
998.069	3349.16667
1001.542	3452.5
1005.013	3389.16667
1008.481	3217.16667
1011.947	3156.16667
1015.409	3159.5
1018.869	3131.5
1022.327	3160.5
1025.782	3106.83333
1029.234	3119.83333
1032.683	3058.5
1036.13	3002.83333
1039.574	2868.16667
1043.016	2772.5
1046.455	2735.5
1049.891	2706.83333
1053.325	2704.16667
1056.756	2716.83333
1060.184	2732.83333
1063.61	2765.83333
1067.033	2753.5
1070.454	2765.83333
1073.872	2814.5
1077.287	2788.83333
1080.7	2799.5
1084.11	2764.83333
1087.517	2752.83333
1090.922	2718.5
1094.325	2692.5
1097.724	2652.83333
1101.122	2687.16667
1104.516	2679.16667
1107.908	2690.16667
1111.298	2706.16667
1114.684	2759.16667
1118.069	2790.5
1121.45	2820.83333
1124.83	2788.83333
1128.206	2830.5
1131.58	2864.5
1134.951	2929.16667
1138.32	3011.5
1141.687	3119.16667
1145.05	3183.16667
1148.412	3224.5
1151.77	3178.16667
1155.126	3181.83333
1158.48	3146.5
1161.831	3185.5
1165.18	3163.83333
1168.525	3198.16667
1171.869	3250.83333
1175.21	3272.5
1178.548	3284.5
1181.884	3317.83333
1185.217	3346.16667
1188.548	3418.5
1191.877	3475.83333
1195.202	3570.5
1198.526	3644.16667
1201.846	3683.16667
1205.165	3689.83333
1208.48	3688.83333
1211.794	3664.5
1215.104	3692.83333
1218.413	3672.5
1221.719	3677.5
1225.022	3620.83333
1228.323	3564.83333
1231.621	3534.16667
1234.917	3508.5
1238.21	3538.16667
1241.501	3495.5
1244.79	3510.5
1248.076	3528.83333
1251.359	3538.16667
1254.64	3631.83333
1257.919	3653.16667
1261.195	3683.5
1264.468	3766.16667
1267.74	3814.5
1271.008	3807.5
1274.275	3801.5
1277.538	3754.16667
1280.8	3773.5
1284.059	3736.83333
1287.315	3804.5
1290.569	3779.83333
1293.821	3818.16667
1297.07	3854.83333
1300.317	3853.16667
1303.562	3893.16667
1306.803	4128.16667
1310.043	3922.83333
1313.28	3768.83333
1316.515	3743.5
1319.747	3721.83333
1322.977	3707.83333
1326.204	3671.83333
1329.429	3639.16667
1332.652	3619.5
1335.872	3596.83333
1339.09	3541.83333
1342.306	3547.83333
1345.519	3503.16667
1348.729	3460.5
1351.938	3440.83333
1355.144	3393.16667
1358.347	3323.16667
1361.548	3299.16667
1364.747	3304.5
1367.944	3260.83333
1371.138	3286.5
1374.329	3313.16667
1377.518	3354.16667
1380.705	3380.83333
1383.89	3370.83333
1387.072	3245.5
1390.252	3164.16667
1393.429	3020.83333
1396.605	2938.16667
1399.777	2885.16667
1402.948	2818.5
1406.116	2826.5
1409.282	2823.5
1412.445	2835.83333
1415.606	2889.16667
1418.765	2905.5
1421.921	2947.5
1425.075	2970.83333
1428.227	3076.5
1431.376	3204.16667
1434.524	3295.83333
1437.668	3387.5
1440.811	3401.83333
1443.951	3460.5
1447.089	3467.16667
1450.224	3439.5
1453.357	3401.83333
1456.488	3373.5
1459.617	3312.83333
1462.743	3277.16667
1465.867	3177.5
1468.989	3122.83333
1472.108	3082.5
1475.225	3040.5
1478.34	2984.16667
1481.453	2978.5
1484.563	2966.5
1487.671	3028.16667
1490.776	3090.16667
1493.88	3124.16667
1496.981	3199.16667
1500.08	3205.83333
1503.176	3269.83333
1506.271	3286.16667
1509.363	3334.16667
1512.452	3396.5
1515.54	3443.16667
1518.625	3475.16667
1521.708	3542.5
1524.789	3652.5
1527.867	3788.16667
1530.944	3982.83333
1534.018	4170.5
1537.089	4313.83333
1540.159	4364.5
1543.226	4337.16667
1546.291	4304.5
1549.354	4200.16667
1552.415	4111.5
1555.473	4015.16667
1558.529	3949.5
1561.583	3901.5
1564.634	3862.16667
1567.684	3859.83333
1570.731	3883.83333
1573.776	3926.5
1576.819	3941.83333
1579.859	3985.5
1582.898	4011.16667
1585.934	4065.5
1588.968	4068.5
1591.999	4070.16667
1595.029	4063.5
1598.056	4088.83333
1601.081	4119.16667
1604.104	4130.83333
1607.125	4069.16667
1610.144	3983.83333
1613.16	3913.5
1616.174	3847.83333
1619.186	3743.16667
1622.196	3643.83333
1625.203	3550.5
1628.209	3502.16667
1631.212	3503.83333
1634.213	3486.5
1637.212	3477.5
1640.209	3434.83333
1643.203	3365.16667
1646.196	3255.16667
1649.186	3112.5
1652.174	3004.5
1655.16	2885.16667
1658.144	2803.16667
1661.125	2658.83333
1664.105	2551.5
1667.082	2431.83333
1670.057	2325.5
1673.03	2176.83333
1676.001	2028.16667
1678.97	1919.5
1681.937	1811.83333
1684.901	1711.16667
1687.863	1650.16667
1690.824	1569.5
1693.782	1546.16667
1696.738	1476.5
1699.692	1464.83333
1702.643	1408.16667
1705.593	1405.16667
1708.54	1385.5
1711.486	1376.5
1714.429	1323.83333
1717.37	1323.5
1720.309	1293.5
1723.246	1292.5
1726.181	1279.16667
1729.113	1253.83333
1732.044	1243.5
1734.972	1239.83333
1737.899	1245.83333
1740.823	1241.83333
1743.745	1199.16667
1746.665	1185.83333
1749.583	1163.16667
1752.499	1146.83333
1755.413	1158.16667
1758.325	1115.16667
1761.235	1113.83333
1764.142	1108.5
1767.048	1084.83333
1769.951	1089.83333
1772.852	1075.16667
1775.752	1074.5
1778.649	1062.5
1781.544	1049.16667
1784.437	1039.16667
1787.328	1046.5
1790.217	1037.5
1793.104	1004.5
1795.989	1012.16667
1798.872	1005.5
1801.753	1009.83333
1804.631	1014.16667
1807.508	1006.5
1810.383	1011.83333
1813.255	997.83333
1816.126	998.83333
1818.994	990.5
1821.861	984.16667
1824.725	984.16667
1827.587	978.5
1830.448	958.16667
1833.306	929.5
1836.162	947.16667
1839.017	953.5
1841.869	932.5
1844.719	937.5
1847.567	927.16667
1850.414	917.5
1853.258	917.16667
1856.1	930.83333
1858.94	931.16667
1861.778	917.5
1864.614	927.83333
1867.448	922.83333
1870.28	907.5
1873.111	937.16667
1875.939	920.16667
1878.765	933.83333
1881.589	912.5
1884.411	906.5
1887.231	909.5
1890.049	883.16667
1892.865	897.83333
1895.68	885.16667
1898.492	901.5
1901.302	887.5
1904.11	886.83333
1906.916	875.5
1909.721	860.5
1912.523	864.5
1915.323	856.5
1918.122	851.5
1920.918	850.83333
1923.712	861.16667
1926.505	865.83333
1929.295	837.5
1932.084	848.16667
1934.87	861.5
1937.655	848.16667
1940.438	847.5
1943.218	839.5
1945.997	841.5
1948.774	844.5
1951.549	840.5
1954.322	848.16667
1957.093	831.16667
1959.862	823.83333
1962.629	824.83333
1965.394	821.5
1968.157	799.5
1970.918	808.5
1973.678	805.16667
1976.435	817.5
1979.19	791.5
1981.944	788.5
1984.696	784.5
1987.445	782.5
1990.193	795.5
1992.939	803.83333
1995.683	781.5
1998.425	771.5
2001.165	799.5
2003.903	773.83333
2006.639	768.83333
2009.374	782.5
2012.106	784.5
2014.837	756.5
2017.566	772.5
2020.292	765.5
2023.017	770.16667
2025.74	759.16667
2028.461	750.83333
2031.18	760.5
2033.898	749.16667
2036.613	752.16667
2039.327	753.16667
2042.038	746.5
2044.748	733.5
2047.456	744.83333
2050.162	727.5
2052.866	737.16667
2055.568	743.5
2058.268	723.83333
2060.967	722.16667
2063.663	722.5
2066.358	730.83333
2069.051	720.16667
2071.742	722.83333
2074.431	731.5
2077.118	715.16667
2079.804	705.16667
2082.487	704.16667
2085.169	734.5
2087.849	740.16667
2090.527	712.16667
2093.203	718.5
2095.877	735.83333
2098.55	736.16667
2101.22	736.16667
2103.889	739.83333
2106.556	748.16667
2109.221	776.16667
2111.884	797.16667
2114.546	833.83333
2117.205	889.5
2119.863	967.83333
2122.519	1015.83333
2125.173	1086.83333
2127.825	1139.5
2130.475	1136.83333
2133.124	1109.5
2135.771	1066.5
2138.416	1017.5
2141.059	931.83333
2143.7	895.83333
2146.339	836.83333
2148.977	787.16667
2151.613	791.5
2154.247	766.16667
2156.879	732.83333
2159.51	719.16667
2162.138	698.16667
2164.765	711.83333
2167.39	686.83333
2170.013	698.16667
2172.634	685.5
2175.254	677.16667
2177.872	700.5
2180.488	663.5
2183.102	665.16667
2185.714	658.5
2188.325	637.16667
2190.934	642.83333
2193.541	645.83333
2196.146	635.16667
2198.75	625.16667
2201.351	607.83333
2203.951	603.16667
2206.549	632.16667
2209.146	615.16667
2211.74	607.16667
2214.333	622.16667
2216.924	606.16667
2219.514	606.83333
2222.101	593.5
2224.687	605.16667
2227.271	601.5
2229.853	582.5
2232.433	581.83333
2235.012	602.16667
2237.589	592.16667
2240.164	600.16667
2242.738	585.16667
2245.309	572.83333
2247.879	578.83333
2250.448	579.16667
2253.014	564.16667
2255.579	551.16667
2258.142	562.16667
2260.703	550.16667
2263.262	547.5
2265.82	551.16667
2268.376	556.16667
2270.93	531.16667
2273.483	536.5
2276.033	545.5
2278.583	536.5
2281.13	528.83333
2283.675	526.83333
2286.219	523.16667
2288.761	534.83333
2291.302	531.16667
2293.841	528.5
2296.377	508.16667
2298.913	508.83333
2301.446	526.83333
2303.978	521.83333
2306.508	512.16667
2309.037	512.16667
2311.563	512.16667
2314.088	504.5
2316.612	491.16667
2319.133	507.83333
2321.653	504.16667
2324.171	491.16667
2326.688	515.83333
2329.202	495.83333
2331.715	495.83333
2334.227	487.5
2336.736	491.83333
2339.244	481.16667
2341.751	481.5
2344.255	493.5
2346.758	493.16667
2349.259	480.83333
2351.759	478.83333
2354.257	477.16667
2356.753	474.83333
2359.247	478.16667
2361.74	476.16667
2364.231	478.83333
2366.721	474.5
2369.209	473.5
2371.695	473.83333
2374.179	459.83333
2376.662	455.16667
2379.143	473.16667
2381.622	466.83333
2384.1	470.83333
2386.576	459.16667
2389.051	471.16667
2391.524	469.83333
2393.995	465.83333
2396.464	460.5
2398.932	454.16667
2401.398	456.5
2403.863	450.5
2406.325	449.83333
2408.787	454.83333
2411.246	456.16667
2413.704	455.16667
2416.16	445.83333
2418.615	441.5
2421.068	455.16667
2423.519	445.83333
2425.969	439.83333
2428.417	446.5
2430.863	469.16667
2433.308	447.5
2435.751	447.5
2438.193	448.83333
2440.633	438.5
2443.071	449.5
2445.508	426.5
2447.943	441.83333
2450.376	427.83333
2452.808	431.16667
2455.238	422.83333
2457.667	467.5
2460.093	430.16667
2462.519	421.83333
2464.942	422.16667
2467.365	436.16667
2469.785	439.5
2472.204	426.16667
2474.621	420.16667
2477.037	441.83333
2479.451	417.83333
2481.863	413.16667
2484.274	418.5
2486.683	428.83333
2489.091	432.16667
2491.497	419.83333
2493.901	426.16667
2496.304	416.5
2498.705	429.83333
2501.105	404.16667
2503.503	439.83333
2505.899	404.5
2508.294	427.16667
2510.687	409.83333
2513.079	409.16667
2515.469	402.5
2517.858	404.16667
2520.245	416.16667
2522.63	411.83333
2525.014	413.5
2527.396	401.5
2529.776	391.16667
2532.156	417.83333
2534.533	389.16667
2536.909	391.5
2539.283	394.16667
2541.656	391.83333
2544.027	412.16667
2546.397	403.83333
2548.765	389.16667
2551.131	393.83333
2553.496	403.5
2555.86	403.16667
2558.221	398.16667
2560.582	395.83333
2562.94	390.83333
2565.298	392.5
2567.653	412.5
2570.007	386.83333
2572.36	410.5
2574.711	389.5
2577.06	411.16667
2579.408	401.16667
2581.754	389.5
2584.099	397.16667
2586.442	394.16667
2588.784	389.83333
2591.124	392.5
2593.463	387.16667
2595.8	389.83333
2598.135	379.5
2600.469	379.83333
2602.802	403.5
2605.133	400.83333
2607.462	381.16667
2609.79	381.5
2612.116	385.83333
2614.441	391.5
2616.764	389.5
2619.086	380.5
2621.406	370.83333
2623.725	402.16667
2626.042	390.5
2628.358	371.5
2630.672	384.5
2632.985	396.83333
2635.296	389.5
2637.606	390.83333
2639.914	373.83333
2642.22	375.83333
2644.525	380.5
2646.829	380.5
2649.131	394.16667
2651.432	396.16667
2653.731	391.16667
2656.028	395.5
2658.324	398.5
2660.619	383.16667
2662.912	403.83333
2665.204	384.83333
2667.494	396.16667
2669.782	385.5
2672.07	392.16667
2674.355	399.16667
2676.639	399.16667
2678.922	387.16667
2681.203	386.16667
2683.483	385.83333
2685.761	378.5
2688.038	393.83333
2690.313	408.5
2692.587	397.16667
2694.859	395.5
2697.13	398.83333
2699.399	403.5
2701.667	409.16667
2703.933	398.5
2706.198	405.5
2708.461	409.5
2710.723	415.16667
2712.984	417.83333
2715.243	415.16667
2717.5	403.83333
2719.757	424.16667
2722.011	404.5
2724.264	427.5
2726.516	427.5
2728.766	420.16667
2731.015	427.5
2733.262	422.5
2735.508	423.5
2737.753	421.83333
2739.996	401.83333
2742.237	413.16667
2744.477	418.16667
2746.716	416.83333
2748.953	407.5
2751.189	414.5
2753.423	396.5
2755.656	394.5
2757.887	401.5
2760.117	401.5
2762.346	390.5
2764.573	385.16667
2766.798	391.16667
2769.022	388.16667
2771.245	397.16667
2773.467	395.16667
2775.686	398.16667
2777.905	406.5
2780.122	412.83333
2782.337	418.5
2784.552	405.83333
2786.764	408.5
2788.976	416.83333
2791.186	411.83333
2793.394	417.83333
2795.601	429.16667
2797.807	443.5
2800.011	442.16667
2802.214	454.16667
2804.415	445.16667
2806.615	436.5
2808.814	451.5
2811.011	461.16667
2813.206	459.83333
2815.401	477.83333
2817.594	472.83333
2819.785	473.83333
2821.975	478.83333
2824.164	481.16667
2826.351	497.83333
2828.537	512.5
2830.722	520.5
2832.905	519.5
2835.086	549.83333
2837.267	570.5
2839.445	589.5
2841.623	605.83333
2843.799	621.83333
2845.974	653.5
2848.147	679.5
2850.319	711.83333
2852.489	735.16667
2854.659	745.16667
2856.826	758.5
2858.993	773.16667
2861.158	774.83333
2863.321	771.83333
2865.483	769.5
2867.644	775.16667
2869.804	777.16667
2871.962	776.5
2874.118	783.5
2876.274	766.83333
2878.428	764.16667
2880.58	760.16667
2882.731	753.5
2884.881	762.83333
2887.03	767.5
2889.177	779.5
2891.322	789.83333
2893.467	772.5
2895.61	771.83333
2897.751	798.5
2899.892	788.83333
2902.03	802.83333
2904.168	812.5
2906.304	798.5
2908.439	826.83333
2910.572	820.83333
2912.704	823.5
2914.835	825.5
2916.965	809.16667
2919.093	842.83333
2921.219	809.83333
2923.345	831.16667
2925.469	797.5
2927.591	789.83333
2929.712	767.83333
2931.832	774.5
2933.951	755.83333
2936.068	743.83333
2938.184	713.16667
2940.299	696.83333
2942.412	690.5
2944.524	656.5
2946.634	645.83333
2948.744	603.5
2950.851	632.83333
2952.958	591.16667
2955.063	592.16667
2957.167	583.83333
2959.269	552.16667
2961.371	581.5
2963.471	532.5
2965.569	546.83333
2967.666	512.16667
2969.762	521.16667
2971.857	516.5
2973.95	491.16667
2976.042	488.16667
2978.133	476.16667
2980.222	458.83333
2982.31	449.5
2984.396	425.16667
2986.482	433.5
2988.566	419.83333
2990.648	422.5
2992.73	410.16667
2994.81	406.5
2996.889	407.16667
2998.966	400.83333
3001.042	398.83333
3003.117	398.16667
3005.191	399.16667
3007.263	397.16667
3009.334	384.83333
3011.403	386.83333
3013.472	371.5
3015.539	374.5
3017.604	385.83333
3019.669	344.16667
3021.732	352.83333
3023.794	350.16667
3025.854	349.5
3027.914	333.5
3029.971	359.16667
3032.028	344.83333
3034.083	344.5
3036.137	344.83333
3038.19	320.83333
3040.242	316.5
3042.292	308.16667
3044.341	309.5
3046.388	325.16667
3048.435	302.16667
3050.48	323.16667
3052.524	305.83333
3054.566	291.16667
3056.607	308.5
3058.647	292.83333
3060.686	280.83333
3062.723	279.83333
3064.759	264.16667
3066.794	-0.5
3068.828	2.16667
3070.86	1.5
