-0.839	464.20833
3.438	532.54167
7.711	157.20833
11.981	57.875
16.247	44.54167
20.509	51.20833
24.768	44.54167
29.024	52.20833
33.276	43.54167
37.524	44.20833
41.769	45.54167
46.01	30.20833
50.247	43.20833
54.481	56.20833
58.712	60.54167
62.939	47.54167
67.162	57.875
71.382	51.20833
75.599	45.54167
79.812	60.54167
84.021	77.875
88.227	54.54167
92.429	59.875
96.628	47.54167
100.823	65.20833
105.015	71.20833
109.204	62.875
113.388	70.875
117.57	66.20833
121.748	78.875
125.922	71.20833
130.093	94.54167
134.261	93.875
138.425	91.20833
142.585	128.54167
146.742	119.875
150.896	146.875
155.046	175.54167
159.193	282.54167
163.336	474.875
167.476	882.20833
171.613	1595.20833
175.746	2655.875
179.875	3886.54167
184.002	4985.54167
188.124	5717.20833
192.244	5916.54167
196.36	5811.54167
200.472	5562.875
204.581	5356.54167
208.687	5161.875
212.79	5055.875
216.889	4981.20833
220.984	4929.875
225.077	4917.20833
229.165	4835.54167
233.251	4807.20833
237.333	4751.20833
241.412	4629.54167
245.487	4583.20833
249.559	4543.20833
253.628	4479.875
257.694	4448.54167
261.756	4420.54167
265.814	4309.875
269.87	4191.875
273.922	4075.875
277.97	4033.54167
282.016	3990.20833
286.058	4059.20833
290.097	4129.20833
294.132	4203.20833
298.164	4155.875
302.193	3978.20833
306.219	3728.54167
310.241	3418.875
314.26	3139.875
318.276	2932.875
322.288	2792.875
326.297	2667.875
330.303	2593.54167
334.305	2496.20833
338.305	2469.54167
342.301	2423.54167
346.294	2414.54167
350.283	2392.20833
354.269	2390.20833
358.252	2347.875
362.232	2348.875
366.209	2301.20833
370.182	2311.875
374.152	2283.20833
378.119	2309.54167
382.083	2276.875
386.043	2292.54167
390	2263.20833
393.954	2262.20833
397.905	2251.875
401.852	2248.20833
405.797	2223.20833
409.738	2221.54167
413.676	2214.875
417.61	2225.20833
421.542	2202.54167
425.47	2178.54167
429.396	2171.20833
433.318	2155.875
437.236	2158.875
441.152	2173.875
445.065	2124.875
448.974	2107.54167
452.88	2106.875
456.783	2089.54167
460.683	2072.875
464.58	2082.54167
468.473	2073.875
472.364	2089.54167
476.251	2089.54167
480.135	2100.54167
484.016	2151.20833
487.894	2139.875
491.769	2163.875
495.641	2173.875
499.509	2172.20833
503.375	2174.20833
507.237	2183.54167
511.096	2204.875
514.952	2338.20833
518.805	2445.54167
522.655	2474.20833
526.502	2340.875
530.346	2215.54167
534.187	2178.875
538.024	2167.54167
541.859	2183.20833
545.69	2209.875
549.519	2178.54167
553.344	2160.20833
557.166	2135.54167
560.985	2124.54167
564.802	2079.20833
568.615	2049.20833
572.425	2000.54167
576.232	2007.54167
580.036	1986.54167
583.836	1997.875
587.634	2019.875
591.429	2008.54167
595.221	2065.54167
599.01	2079.875
602.796	2093.54167
606.578	2096.875
610.358	2104.54167
614.135	2101.54167
617.909	2078.875
621.679	2051.20833
625.447	2048.875
629.212	2043.20833
632.973	2040.875
636.732	2042.875
640.488	2044.875
644.241	2022.20833
647.991	2027.20833
651.737	2045.54167
655.481	2024.875
659.222	2019.54167
662.96	1998.20833
666.695	2040.875
670.427	2057.54167
674.156	2061.54167
677.882	2051.875
681.605	2034.20833
685.325	2026.875
689.043	2021.875
692.757	1998.54167
696.468	1977.875
700.177	1981.20833
703.882	1960.875
707.585	1968.54167
711.284	1978.20833
714.981	1969.20833
718.675	1965.20833
722.366	1975.20833
726.054	1964.54167
729.739	1970.54167
733.421	1973.875
737.1	1958.20833
740.777	2004.875
744.45	1982.54167
748.121	2023.20833
751.789	2049.54167
755.453	2047.875
759.115	2052.20833
762.774	2073.54167
766.431	2070.875
770.084	2104.54167
773.734	2096.54167
777.382	2143.875
781.027	2163.20833
784.669	2164.875
788.308	2181.54167
791.944	2194.54167
795.577	2215.20833
799.208	2224.875
802.835	2244.875
806.46	2267.54167
810.082	2271.875
813.701	2274.54167
817.317	2300.875
820.931	2282.875
824.542	2312.20833
828.149	2254.875
831.754	2223.54167
835.357	2234.54167
838.956	2236.875
842.553	2215.875
846.146	2190.20833
849.737	2173.875
853.326	2188.875
856.911	2177.20833
860.493	2197.875
864.073	2240.20833
867.65	2250.54167
871.225	2282.20833
874.796	2276.875
878.365	2293.875
881.931	2304.875
885.494	2344.875
889.054	2352.20833
892.612	2398.20833
896.166	2381.54167
899.719	2373.54167
903.268	2330.54167
906.814	2292.54167
910.358	2258.875
913.899	2229.20833
917.438	2222.54167
920.973	2199.20833
924.506	2239.54167
928.036	2292.54167
931.564	2323.875
935.088	2339.54167
938.61	2361.54167
942.129	2391.20833
945.646	2446.20833
949.16	2500.20833
952.671	2504.20833
956.179	2499.20833
959.685	2485.54167
963.188	2493.875
966.688	2451.20833
970.185	2380.875
973.68	2328.875
977.173	2290.54167
980.662	2250.875
984.149	2259.20833
987.633	2216.20833
991.114	2260.20833
994.593	2308.54167
998.069	2359.20833
1001.542	2412.20833
1005.013	2394.54167
1008.481	2261.20833
1011.947	2233.20833
1015.409	2233.875
1018.869	2212.54167
1022.327	2217.875
1025.782	2203.20833
1029.234	2218.20833
1032.683	2186.54167
1036.13	2133.20833
1039.574	2054.54167
1043.016	1987.54167
1046.455	1962.20833
1049.891	1931.20833
1053.325	1938.54167
1056.756	1943.54167
1060.184	1948.54167
1063.61	1953.875
1067.033	1983.54167
1070.454	1985.20833
1073.872	2003.20833
1077.287	1998.20833
1080.7	2022.54167
1084.11	1998.20833
1087.517	1993.54167
1090.922	1959.54167
1094.325	1932.20833
1097.724	1901.20833
1101.122	1929.875
1104.516	1924.875
1107.908	1926.875
1111.298	1961.54167
1114.684	1971.875
1118.069	1998.54167
1121.45	2020.54167
1124.83	2013.875
1128.206	2026.54167
1131.58	2078.54167
1134.951	2116.875
1138.32	2200.54167
1141.687	2247.875
1145.05	2286.875
1148.412	2281.20833
1151.77	2278.54167
1155.126	2272.54167
1158.48	2240.20833
1161.831	2259.20833
1165.18	2273.875
1168.525	2301.20833
1171.869	2334.875
1175.21	2341.20833
1178.548	2353.875
1181.884	2390.875
1185.217	2412.20833
1188.548	2505.20833
1191.877	2535.875
1195.202	2622.20833
1198.526	2698.20833
1201.846	2703.54167
1205.165	2714.20833
1208.48	2711.875
1211.794	2701.875
1215.104	2730.20833
1218.413	2716.54167
1221.719	2713.54167
1225.022	2695.20833
1228.323	2617.875
1231.621	2598.20833
1234.917	2571.54167
1238.21	2559.20833
1241.501	2560.875
1244.79	2561.875
1248.076	2532.875
1251.359	2572.20833
1254.64	2624.875
1257.919	2641.54167
1261.195	2684.875
1264.468	2719.20833
1267.74	2741.54167
1271.008	2745.54167
1274.275	2745.875
1277.538	2735.875
1280.8	2735.875
1284.059	2727.875
1287.315	2768.54167
1290.569	2816.54167
1293.821	2831.54167
1297.07	2859.54167
1300.317	2864.875
1303.562	2874.54167
1306.803	2825.875
1310.043	2837.20833
1313.28	2810.875
1316.515	2806.20833
1319.747	2785.875
1322.977	2782.54167
1326.204	2763.875
1329.429	2711.54167
1332.652	2733.20833
1335.872	2693.875
1339.09	2637.54167
1342.306	2587.54167
1345.519	2557.54167
1348.729	2547.20833
1351.938	2536.54167
1355.144	2511.54167
1358.347	2463.54167
1361.548	2456.875
1364.747	2443.54167
1367.944	2410.875
1371.138	2418.875
1374.329	2424.54167
1377.518	2453.875
1380.705	2464.20833
1383.89	2447.875
1387.072	2354.875
1390.252	2290.20833
1393.429	2198.20833
1396.605	2145.875
1399.777	2113.54167
1402.948	2090.20833
1406.116	2070.54167
1409.282	2122.20833
1412.445	2103.875
1415.606	2128.875
1418.765	2166.875
1421.921	2206.875
1425.075	2208.875
1428.227	2277.20833
1431.376	2384.875
1434.524	2457.20833
1437.668	2531.20833
1440.811	2565.875
1443.951	2586.54167
1447.089	2621.20833
1450.224	2593.20833
1453.357	2558.875
1456.488	2524.20833
1459.617	2475.875
1462.743	2455.20833
1465.867	2362.875
1468.989	2352.54167
1472.108	2286.54167
1475.225	2250.875
1478.34	2227.875
1481.453	2202.20833
1484.563	2212.20833
1487.671	2248.875
1490.776	2281.54167
1493.88	2328.54167
1496.981	2332.54167
1500.08	2362.54167
1503.176	2393.875
1506.271	2407.54167
1509.363	2456.875
1512.452	2468.54167
1515.54	2505.20833
1518.625	2532.20833
1521.708	2617.875
1524.789	2647.875
1527.867	2734.54167
1530.944	2873.54167
1534.018	2980.54167
1537.089	3087.20833
1540.159	3124.54167
1543.226	3144.54167
1546.291	3094.20833
1549.354	3013.875
1552.415	2958.20833
1555.473	2909.20833
1558.529	2838.875
1561.583	2814.20833
1564.634	2816.875
1567.684	2844.20833
1570.731	2831.20833
1573.776	2869.20833
1576.819	2929.875
1579.859	2953.20833
1582.898	2986.54167
1585.934	2999.875
1588.968	3037.54167
1591.999	3015.20833
1595.029	3055.20833
1598.056	3076.20833
1601.081	3125.875
1604.104	3121.20833
1607.125	3082.54167
1610.144	2997.875
1613.16	2932.20833
1616.174	2872.54167
1619.186	2795.875
1622.196	2706.54167
1625.203	2641.20833
1628.209	2602.54167
1631.212	2572.54167
1634.213	2574.875
1637.212	2564.20833
1640.209	2563.54167
1643.203	2504.20833
1646.196	2436.54167
1649.186	2338.20833
1652.174	2247.54167
1655.16	2194.54167
1658.144	2146.54167
1661.125	2040.54167
1664.105	1947.20833
1667.082	1863.54167
1670.057	1779.20833
1673.03	1657.20833
1676.001	1534.875
1678.97	1448.875
1681.937	1354.20833
1684.901	1289.875
1687.863	1247.875
1690.824	1196.875
1693.782	1201.20833
1696.738	1111.54167
1699.692	1101.875
1702.643	1070.20833
1705.593	1059.875
1708.54	1048.875
1711.486	1054.20833
1714.429	1009.875
1717.37	1012.20833
1720.309	1003.54167
1723.246	1000.54167
1726.181	968.54167
1729.113	983.54167
1732.044	968.20833
1734.972	948.875
1737.899	971.54167
1740.823	961.875
1743.745	935.875
1746.665	919.875
1749.583	910.54167
1752.499	914.875
1755.413	892.875
1758.325	869.54167
1761.235	864.20833
1764.142	857.54167
1767.048	835.875
1769.951	842.875
1772.852	844.54167
1775.752	837.875
1778.649	830.20833
1781.544	843.54167
1784.437	811.54167
1787.328	830.875
1790.217	809.20833
1793.104	791.54167
1795.989	796.54167
1798.872	788.875
1801.753	806.54167
1804.631	803.20833
1807.508	806.20833
1810.383	792.20833
1813.255	792.20833
1816.126	773.54167
1818.994	792.20833
1821.861	779.54167
1824.725	778.54167
1827.587	781.54167
1830.448	787.54167
1833.306	752.54167
1836.162	762.20833
1839.017	762.20833
1841.869	753.875
1844.719	748.20833
1847.567	742.20833
1850.414	743.875
1853.258	744.875
1856.1	755.875
1858.94	771.20833
1861.778	748.875
1864.614	730.875
1867.448	752.20833
1870.28	734.20833
1873.111	755.875
1875.939	731.875
1878.765	756.875
1881.589	735.875
1884.411	741.875
1887.231	747.875
1890.049	728.54167
1892.865	745.20833
1895.68	720.20833
1898.492	737.875
1901.302	729.875
1904.11	726.20833
1906.916	723.54167
1909.721	706.54167
1912.523	715.20833
1915.323	706.20833
1918.122	694.54167
1920.918	717.54167
1923.712	696.54167
1926.505	691.20833
1929.295	688.20833
1932.084	707.875
1934.87	703.875
1937.655	700.875
1940.438	700.54167
1943.218	705.875
1945.997	712.54167
1948.774	714.54167
1951.549	714.54167
1954.322	694.54167
1957.093	696.54167
1959.862	689.54167
1962.629	687.20833
1965.394	694.875
1968.157	675.54167
1970.918	684.54167
1973.678	673.20833
1976.435	690.20833
1979.19	680.20833
1981.944	674.20833
1984.696	675.875
1987.445	659.20833
1990.193	677.20833
1992.939	688.875
1995.683	679.54167
1998.425	653.54167
2001.165	694.875
2003.903	655.54167
2006.639	676.875
2009.374	667.20833
2012.106	674.54167
2014.837	654.54167
2017.566	668.20833
2020.292	669.875
2023.017	656.875
2025.74	663.20833
2028.461	661.20833
2031.18	668.54167
2033.898	664.875
2036.613	667.875
2039.327	657.875
2042.038	646.54167
2044.748	656.54167
2047.456	664.20833
2050.162	644.54167
2052.866	655.875
2055.568	663.875
2058.268	652.54167
2060.967	653.20833
2063.663	646.20833
2066.358	657.20833
2069.051	639.54167
2071.742	646.20833
2074.431	653.54167
2077.118	647.54167
2079.804	648.54167
2082.487	649.20833
2085.169	658.875
2087.849	682.20833
2090.527	656.20833
2093.203	648.20833
2095.877	657.20833
2098.55	671.54167
2101.22	666.875
2103.889	676.20833
2106.556	683.20833
2109.221	700.875
2111.884	696.20833
2114.546	753.54167
2117.205	786.875
2119.863	831.875
2122.519	851.54167
2125.173	892.54167
2127.825	945.875
2130.475	933.20833
2133.124	894.54167
2135.771	856.20833
2138.416	849.20833
2141.059	795.20833
2143.7	775.20833
2146.339	743.20833
2148.977	696.20833
2151.613	699.875
2154.247	691.20833
2156.879	670.875
2159.51	661.20833
2162.138	657.54167
2164.765	665.20833
2167.39	640.875
2170.013	657.875
2172.634	651.54167
2175.254	647.54167
2177.872	672.20833
2180.488	631.54167
2183.102	641.875
2185.714	641.54167
2188.325	633.54167
2190.934	628.54167
2193.541	635.54167
2196.146	629.54167
2198.75	617.875
2201.351	625.20833
2203.951	605.54167
2206.549	629.54167
2209.146	612.54167
2211.74	614.54167
2214.333	623.20833
2216.924	604.54167
2219.514	621.875
2222.101	610.20833
2224.687	632.875
2227.271	622.20833
2229.853	603.20833
2232.433	596.20833
2235.012	630.54167
2237.589	612.20833
2240.164	631.20833
2242.738	616.875
2245.309	598.875
2247.879	611.20833
2250.448	610.54167
2253.014	602.20833
2255.579	595.54167
2258.142	609.20833
2260.703	594.54167
2263.262	604.875
2265.82	592.875
2268.376	597.875
2270.93	580.54167
2273.483	596.20833
2276.033	599.20833
2278.583	591.875
2281.13	591.875
2283.675	584.20833
2286.219	582.54167
2288.761	591.875
2291.302	602.875
2293.841	608.20833
2296.377	588.875
2298.913	587.20833
2301.446	616.875
2303.978	595.875
2306.508	593.54167
2309.037	596.875
2311.563	596.875
2314.088	594.20833
2316.612	573.54167
2319.133	587.875
2321.653	591.875
2324.171	589.20833
2326.688	606.54167
2329.202	592.20833
2331.715	595.875
2334.227	598.54167
2336.736	595.875
2339.244	597.54167
2341.751	586.20833
2344.255	608.875
2346.758	594.54167
2349.259	579.875
2351.759	600.54167
2354.257	596.54167
2356.753	593.20833
2359.247	589.20833
2361.74	618.875
2364.231	602.875
2366.721	609.20833
2369.209	601.20833
2371.695	597.875
2374.179	595.20833
2376.662	594.875
2379.143	613.20833
2381.622	608.875
2384.1	610.875
2386.576	613.54167
2389.051	627.20833
2391.524	627.875
2393.995	622.54167
2396.464	610.875
2398.932	619.875
2401.398	616.54167
2403.863	603.20833
2406.325	618.875
2408.787	616.54167
2411.246	607.20833
2413.704	615.54167
2416.16	613.54167
2418.615	613.875
2421.068	631.20833
2423.519	626.54167
2425.969	617.20833
2428.417	616.875
2430.863	650.54167
2433.308	639.875
2435.751	626.20833
2438.193	632.20833
2440.633	640.54167
2443.071	639.54167
2445.508	617.54167
2447.943	621.875
2450.376	632.20833
2452.808	630.54167
2455.238	635.20833
2457.667	663.875
2460.093	633.875
2462.519	623.54167
2464.942	627.54167
2467.365	648.875
2469.785	647.54167
2472.204	646.54167
2474.621	642.54167
2477.037	659.875
2479.451	640.875
2481.863	630.54167
2484.274	650.54167
2486.683	656.20833
2489.091	648.875
2491.497	644.54167
2493.901	664.20833
2496.304	655.875
2498.705	669.20833
2501.105	652.54167
2503.503	685.875
2505.899	649.875
2508.294	674.20833
2510.687	664.20833
2513.079	663.875
2515.469	651.54167
2517.858	656.20833
2520.245	674.54167
2522.63	658.875
2525.014	657.875
2527.396	670.875
2529.776	653.54167
2532.156	671.54167
2534.533	660.20833
2536.909	664.54167
2539.283	655.20833
2541.656	669.875
2544.027	693.20833
2546.397	683.54167
2548.765	678.875
2551.131	681.875
2553.496	681.20833
2555.86	693.20833
2558.221	694.54167
2560.582	688.20833
2562.94	676.54167
2565.298	685.875
2567.653	714.54167
2570.007	689.54167
2572.36	720.54167
2574.711	700.875
2577.06	724.54167
2579.408	722.54167
2581.754	710.875
2584.099	709.875
2586.442	704.54167
2588.784	711.875
2591.124	710.54167
2593.463	714.20833
2595.8	729.20833
2598.135	711.54167
2600.469	717.875
2602.802	733.20833
2605.133	738.54167
2607.462	720.54167
2609.79	712.20833
2612.116	729.20833
2614.441	732.875
2616.764	742.875
2619.086	721.20833
2621.406	732.20833
2623.725	755.54167
2626.042	743.875
2628.358	743.20833
2630.672	738.875
2632.985	767.54167
2635.296	758.54167
2637.606	758.20833
2639.914	752.54167
2642.22	754.20833
2644.525	766.875
2646.829	775.20833
2649.131	789.20833
2651.432	789.20833
2653.731	776.20833
2656.028	791.875
2658.324	797.875
2660.619	778.875
2662.912	791.54167
2665.204	773.54167
2667.494	802.20833
2669.782	775.875
2672.07	798.54167
2674.355	812.875
2676.639	803.875
2678.922	783.54167
2681.203	802.875
2683.483	807.20833
2685.761	796.54167
2688.038	807.875
2690.313	829.875
2692.587	813.875
2694.859	810.875
2697.13	814.20833
2699.399	833.875
2701.667	841.20833
2703.933	839.875
2706.198	834.54167
2708.461	859.20833
2710.723	853.20833
2712.984	858.20833
2715.243	862.20833
2717.5	855.20833
2719.757	878.54167
2722.011	861.875
2724.264	871.54167
2726.516	893.54167
2728.766	879.875
2731.015	895.875
2733.262	896.20833
2735.508	880.54167
2737.753	894.54167
2739.996	878.20833
2742.237	879.875
2744.477	891.54167
2746.716	889.54167
2748.953	878.54167
2751.189	904.20833
2753.423	877.875
2755.656	869.20833
2757.887	874.875
2760.117	883.875
2762.346	871.20833
2764.573	867.20833
2766.798	874.54167
2769.022	884.20833
2771.245	895.875
2773.467	881.20833
2775.686	884.875
2777.905	907.875
2780.122	900.54167
2782.337	924.875
2784.552	895.20833
2786.764	904.20833
2788.976	922.20833
2791.186	927.875
2793.394	937.20833
2795.601	949.54167
2797.807	962.875
2800.011	961.20833
2802.214	983.875
2804.415	965.54167
2806.615	960.54167
2808.814	979.54167
2811.011	992.20833
2813.206	975.54167
2815.401	1000.54167
2817.594	999.20833
2819.785	1010.54167
2821.975	995.54167
2824.164	1003.875
2826.351	1029.875
2828.537	1022.20833
2830.722	1051.20833
2832.905	1043.54167
2835.086	1080.875
2837.267	1104.20833
2839.445	1117.20833
2841.623	1123.875
2843.799	1154.20833
2845.974	1166.875
2848.147	1206.20833
2850.319	1225.875
2852.489	1259.54167
2854.659	1275.875
2856.826	1279.54167
2858.993	1295.875
2861.158	1304.54167
2863.321	1305.20833
2865.483	1310.54167
2867.644	1304.54167
2869.804	1315.875
2871.962	1298.20833
2874.118	1299.875
2876.274	1298.20833
2878.428	1310.20833
2880.58	1283.54167
2882.731	1292.875
2884.881	1271.20833
2887.03	1300.875
2889.177	1298.54167
2891.322	1291.875
2893.467	1302.54167
2895.61	1303.875
2897.751	1317.54167
2899.892	1313.54167
2902.03	1336.20833
2904.168	1333.54167
2906.304	1334.54167
2908.439	1362.20833
2910.572	1355.875
2912.704	1366.875
2914.835	1386.20833
2916.965	1360.54167
2919.093	1377.54167
2921.219	1343.875
2923.345	1360.875
2925.469	1352.20833
2927.591	1360.875
2929.712	1315.875
2931.832	1313.20833
2933.951	1300.20833
2936.068	1293.54167
2938.184	1269.20833
2940.299	1259.54167
2942.412	1239.20833
2944.524	1210.54167
2946.634	1220.20833
2948.744	1181.20833
2950.851	1207.54167
2952.958	1171.875
2955.063	1185.20833
2957.167	1181.20833
2959.269	1137.54167
2961.371	1187.875
2963.471	1146.875
2965.569	1142.20833
2967.666	1131.875
2969.762	1132.20833
2971.857	1121.54167
2973.95	1093.875
2976.042	1103.20833
2978.133	1072.20833
2980.222	1057.875
2982.31	1047.875
2984.396	1023.54167
2986.482	1021.54167
2988.566	1024.875
2990.648	1025.20833
2992.73	1014.875
2994.81	1002.875
2996.889	1020.875
2998.966	1009.875
3001.042	1016.875
3003.117	1020.54167
3005.191	1014.54167
3007.263	1020.875
3009.334	1003.54167
3011.403	998.54167
3013.472	987.875
3015.539	981.20833
3017.604	985.875
3019.669	940.875
3021.732	938.875
3023.794	949.20833
3025.854	942.54167
3027.914	935.20833
3029.971	956.875
3032.028	945.875
3034.083	952.875
3036.137	929.54167
3038.19	885.875
3040.242	889.875
3042.292	874.54167
3044.341	866.20833
3046.388	882.20833
3048.435	839.54167
3050.48	861.20833
3052.524	840.875
3054.566	838.54167
3056.607	830.54167
3058.647	825.20833
3060.686	795.875
3062.723	765.54167
3064.759	746.875
3066.794	0.20833
3068.828	1.54167
3070.86	3.20833
