-0.839	573.20833
3.438	707.54167
7.711	208.54167
11.981	67.20833
16.247	48.54167
20.509	53.875
24.768	47.20833
29.024	58.875
33.276	48.54167
37.524	49.20833
41.769	48.20833
46.01	32.20833
50.247	49.875
54.481	61.20833
58.712	64.54167
62.939	50.54167
67.162	64.20833
71.382	57.875
75.599	50.54167
79.812	65.54167
84.021	82.875
88.227	64.875
92.429	63.875
96.628	54.54167
100.823	77.20833
105.015	81.20833
109.204	65.54167
113.388	88.875
117.57	84.875
121.748	91.54167
125.922	85.875
130.093	104.875
134.261	104.875
138.425	106.20833
142.585	146.20833
146.742	142.875
150.896	174.54167
155.046	223.875
159.193	343.54167
163.336	592.875
167.476	1080.54167
171.613	2001.20833
175.746	3325.54167
179.875	4917.54167
184.002	6451.875
188.124	7472.875
192.244	7817.875
196.36	7775.875
200.472	7569.54167
204.581	7325.875
208.687	7161.20833
212.79	7100.54167
216.889	7063.54167
220.984	7099.875
225.077	7102.875
229.165	7105.20833
233.251	7147.875
237.333	7090.875
241.412	6983.875
245.487	6939.20833
249.559	6864.875
253.628	6827.54167
257.694	6716.875
261.756	6706.54167
265.814	6541.20833
269.87	6375.20833
273.922	6156.54167
277.97	6043.54167
282.016	6015.54167
286.058	6018.875
290.097	6135.875
294.132	6213.54167
298.164	6134.875
302.193	5864.20833
306.219	5474.875
310.241	5038.54167
314.26	4640.54167
318.276	4355.54167
322.288	4102.875
326.297	3913.20833
330.303	3812.875
334.305	3725.20833
338.305	3650.875
342.301	3599.875
346.294	3591.20833
350.283	3537.54167
354.269	3552.875
358.252	3521.875
362.232	3477.54167
366.209	3467.20833
370.182	3415.875
374.152	3437.54167
378.119	3429.20833
382.083	3414.875
386.043	3458.875
390	3379.875
393.954	3409.20833
397.905	3387.54167
401.852	3358.54167
405.797	3325.875
409.738	3324.20833
413.676	3305.875
417.61	3333.20833
421.542	3288.54167
425.47	3260.20833
429.396	3219.54167
433.318	3218.875
437.236	3215.875
441.152	3241.875
445.065	3190.20833
448.974	3159.20833
452.88	3141.20833
456.783	3143.54167
460.683	3109.54167
464.58	3140.54167
468.473	3123.875
472.364	3139.875
476.251	3120.875
480.135	3189.875
484.016	3227.875
487.894	3221.20833
491.769	3268.54167
495.641	3259.54167
499.509	3265.20833
503.375	3258.875
507.237	3253.54167
511.096	3245.875
514.952	3216.20833
518.805	3220.20833
522.655	3206.20833
526.502	3219.20833
530.346	3213.20833
534.187	3254.54167
538.024	3241.54167
541.859	3248.20833
545.69	3284.20833
549.519	3249.20833
553.344	3221.875
557.166	3188.875
560.985	3138.20833
564.802	3097.54167
568.615	3052.875
572.425	2996.875
576.232	2998.20833
580.036	2975.54167
583.836	2991.20833
587.634	3000.20833
591.429	3020.20833
595.221	3077.20833
599.01	3117.20833
602.796	3145.875
606.578	3162.54167
610.358	3179.54167
614.135	3111.875
617.909	3106.20833
621.679	3078.875
625.447	3074.54167
629.212	3053.54167
632.973	3049.20833
636.732	3063.875
640.488	3052.54167
644.241	3055.20833
647.991	3009.20833
651.737	3048.54167
655.481	3009.20833
659.222	3028.54167
662.96	3015.20833
666.695	3040.54167
670.427	3042.54167
674.156	3052.875
677.882	3033.20833
681.605	3018.875
685.325	3004.54167
689.043	2997.54167
692.757	2982.54167
696.468	2976.875
700.177	2961.54167
703.882	2948.54167
707.585	2922.20833
711.284	2934.875
714.981	2921.875
718.675	2919.20833
722.366	2959.54167
726.054	2929.20833
729.739	2925.875
733.421	2931.54167
737.1	2921.875
740.777	2972.54167
744.45	2967.20833
748.121	2979.20833
751.789	3049.54167
755.453	3026.20833
759.115	3035.875
762.774	3064.20833
766.431	3079.875
770.084	3128.54167
773.734	3152.20833
777.382	3179.875
781.027	3226.54167
784.669	3220.20833
788.308	3225.20833
791.944	3262.54167
795.577	3266.875
799.208	3307.54167
802.835	3310.54167
806.46	3329.875
810.082	3318.54167
813.701	3354.54167
817.317	3373.875
820.931	3380.875
824.542	3380.875
828.149	3358.875
831.754	3307.875
835.357	3312.20833
838.956	3298.875
842.553	3296.20833
846.146	3272.875
849.737	3272.20833
853.326	3263.20833
856.911	3284.20833
860.493	3327.20833
864.073	3339.54167
867.65	3382.875
871.225	3387.875
874.796	3416.20833
878.365	3432.875
881.931	3469.54167
885.494	3489.54167
889.054	3538.20833
892.612	3567.54167
896.166	3554.54167
899.719	3533.875
903.268	3456.875
906.814	3423.875
910.358	3354.875
913.899	3339.54167
917.438	3316.54167
920.973	3319.875
924.506	3340.20833
928.036	3410.20833
931.564	3431.20833
935.088	3475.54167
938.61	3491.54167
942.129	3528.875
945.646	3593.20833
949.16	3643.20833
952.671	3700.20833
956.179	3704.875
959.685	3676.875
963.188	3657.20833
966.688	3614.875
970.185	3523.875
973.68	3445.875
977.173	3378.20833
980.662	3354.20833
984.149	3318.54167
987.633	3340.875
991.114	3368.54167
994.593	3415.54167
998.069	3540.875
1001.542	3614.54167
1005.013	3560.54167
1008.481	3394.875
1011.947	3330.875
1015.409	3292.20833
1018.869	3316.875
1022.327	3278.875
1025.782	3276.54167
1029.234	3290.54167
1032.683	3214.54167
1036.13	3132.54167
1039.574	3046.875
1043.016	2950.875
1046.455	2873.875
1049.891	2860.54167
1053.325	2851.20833
1056.756	2849.875
1060.184	2885.875
1063.61	2882.54167
1067.033	2910.54167
1070.454	2906.20833
1073.872	2954.875
1077.287	2911.875
1080.7	2945.20833
1084.11	2935.875
1087.517	2881.54167
1090.922	2855.875
1094.325	2838.54167
1097.724	2815.54167
1101.122	2815.20833
1104.516	2810.875
1107.908	2829.54167
1111.298	2861.875
1114.684	2899.20833
1118.069	2929.875
1121.45	2989.54167
1124.83	2962.54167
1128.206	3000.54167
1131.58	3061.875
1134.951	3127.54167
1138.32	3226.875
1141.687	3352.54167
1145.05	3380.875
1148.412	3391.54167
1151.77	3370.875
1155.126	3394.54167
1158.48	3360.20833
1161.831	3373.875
1165.18	3403.54167
1168.525	3443.20833
1171.869	3464.20833
1175.21	3478.20833
1178.548	3547.20833
1181.884	3562.875
1185.217	3608.20833
1188.548	3718.54167
1191.877	3760.54167
1195.202	3871.20833
1198.526	3957.875
1201.846	3969.54167
1205.165	3968.54167
1208.48	3949.875
1211.794	3932.54167
1215.104	3944.875
1218.413	3922.54167
1221.719	3940.20833
1225.022	3894.54167
1228.323	3799.54167
1231.621	3809.20833
1234.917	3752.20833
1238.21	3784.20833
1241.501	3741.20833
1244.79	3757.54167
1248.076	3747.20833
1251.359	3767.875
1254.64	3877.20833
1257.919	3871.875
1261.195	3936.875
1264.468	3975.20833
1267.74	4058.54167
1271.008	4075.875
1274.275	4045.875
1277.538	4025.54167
1280.8	4016.54167
1284.059	3996.20833
1287.315	4043.875
1290.569	4066.54167
1293.821	4071.20833
1297.07	4113.54167
1300.317	4148.54167
1303.562	4123.20833
1306.803	4127.54167
1310.043	4075.20833
1313.28	4048.54167
1316.515	4014.54167
1319.747	4010.20833
1322.977	3980.20833
1326.204	3927.20833
1329.429	3882.54167
1332.652	3866.54167
1335.872	3851.875
1339.09	3835.20833
1342.306	3753.54167
1345.519	3702.875
1348.729	3672.20833
1351.938	3653.54167
1355.144	3580.20833
1358.347	3565.54167
1361.548	3527.54167
1364.747	3526.20833
1367.944	3492.54167
1371.138	3524.20833
1374.329	3529.20833
1377.518	3581.875
1380.705	3584.54167
1383.89	3548.875
1387.072	3470.20833
1390.252	3319.20833
1393.429	3240.54167
1396.605	3107.54167
1399.777	3033.54167
1402.948	3005.20833
1406.116	3002.54167
1409.282	3000.20833
1412.445	3009.54167
1415.606	3031.875
1418.765	3096.54167
1421.921	3129.875
1425.075	3186.875
1428.227	3290.20833
1431.376	3393.875
1434.524	3520.54167
1437.668	3590.20833
1440.811	3659.875
1443.951	3696.20833
1447.089	3722.875
1450.224	3672.20833
1453.357	3662.875
1456.488	3629.20833
1459.617	3545.20833
1462.743	3523.54167
1465.867	3424.54167
1468.989	3369.20833
1472.108	3330.54167
1475.225	3275.54167
1478.34	3247.20833
1481.453	3224.20833
1484.563	3236.875
1487.671	3255.54167
1490.776	3321.20833
1493.88	3377.20833
1496.981	3431.54167
1500.08	3515.875
1503.176	3509.54167
1506.271	3550.875
1509.363	3607.875
1512.452	3639.54167
1515.54	3708.20833
1518.625	3735.875
1521.708	3832.54167
1524.789	3955.54167
1527.867	4103.54167
1530.944	4295.20833
1534.018	4471.20833
1537.089	4659.875
1540.159	4701.875
1543.226	4675.875
1546.291	4603.20833
1549.354	4504.54167
1552.415	4439.20833
1555.473	4316.20833
1558.529	4243.54167
1561.583	4193.20833
1564.634	4163.875
1567.684	4178.875
1570.731	4205.54167
1573.776	4256.875
1576.819	4315.54167
1579.859	4351.20833
1582.898	4384.20833
1585.934	4468.20833
1588.968	4477.54167
1591.999	4478.54167
1595.029	4452.875
1598.056	4454.54167
1601.081	4496.20833
1604.104	4491.54167
1607.125	4435.54167
1610.144	4356.875
1613.16	4256.54167
1616.174	4185.20833
1619.186	4082.20833
1622.196	3983.875
1625.203	3846.20833
1628.209	3793.875
1631.212	3715.20833
1634.213	3716.20833
1637.212	3713.875
1640.209	3641.875
1643.203	3560.875
1646.196	3430.875
1649.186	3286.20833
1652.174	3184.54167
1655.16	3078.20833
1658.144	3006.20833
1661.125	2839.54167
1664.105	2734.54167
1667.082	2611.875
1670.057	2486.54167
1673.03	2324.54167
1676.001	2172.54167
1678.97	2038.875
1681.937	1914.54167
1684.901	1823.54167
1687.863	1755.20833
1690.824	1677.54167
1693.782	1650.20833
1696.738	1573.54167
1699.692	1551.54167
1702.643	1491.54167
1705.593	1487.54167
1708.54	1467.20833
1711.486	1438.20833
1714.429	1415.875
1717.37	1406.54167
1720.309	1375.20833
1723.246	1369.54167
1726.181	1340.20833
1729.113	1362.20833
1732.044	1323.875
1734.972	1319.54167
1737.899	1326.875
1740.823	1317.54167
1743.745	1263.875
1746.665	1275.54167
1749.583	1239.54167
1752.499	1225.20833
1755.413	1217.20833
1758.325	1188.875
1761.235	1188.54167
1764.142	1170.54167
1767.048	1140.20833
1769.951	1147.875
1772.852	1144.20833
1775.752	1129.875
1778.649	1127.54167
1781.544	1124.875
1784.437	1101.875
1787.328	1118.20833
1790.217	1091.875
1793.104	1070.875
1795.989	1068.875
1798.872	1064.20833
1801.753	1078.20833
1804.631	1073.875
1807.508	1074.54167
1810.383	1060.20833
1813.255	1069.54167
1816.126	1042.54167
1818.994	1058.54167
1821.861	1043.875
1824.725	1040.20833
1827.587	1034.54167
1830.448	1028.54167
1833.306	1009.54167
1836.162	1018.20833
1839.017	1016.20833
1841.869	1003.875
1844.719	1003.20833
1847.567	979.20833
1850.414	980.54167
1853.258	972.20833
1856.1	1006.54167
1858.94	992.54167
1861.778	985.20833
1864.614	976.54167
1867.448	979.20833
1870.28	952.54167
1873.111	993.54167
1875.939	973.54167
1878.765	979.20833
1881.589	955.54167
1884.411	986.54167
1887.231	972.20833
1890.049	965.20833
1892.865	955.20833
1895.68	941.20833
1898.492	945.20833
1901.302	941.54167
1904.11	948.54167
1906.916	937.875
1909.721	926.875
1912.523	918.875
1915.323	909.20833
1918.122	918.54167
1920.918	912.20833
1923.712	911.54167
1926.505	907.875
1929.295	885.20833
1932.084	905.54167
1934.87	909.20833
1937.655	896.875
1940.438	885.20833
1943.218	901.20833
1945.997	905.54167
1948.774	895.20833
1951.549	907.54167
1954.322	892.54167
1957.093	872.875
1959.862	872.875
1962.629	877.875
1965.394	871.20833
1968.157	847.20833
1970.918	863.54167
1973.678	859.20833
1976.435	872.20833
1979.19	854.54167
1981.944	831.20833
1984.696	852.875
1987.445	843.20833
1990.193	838.875
1992.939	851.20833
1995.683	846.875
1998.425	819.875
2001.165	852.54167
2003.903	819.875
2006.639	833.875
2009.374	829.20833
2012.106	820.20833
2014.837	800.54167
2017.566	827.875
2020.292	833.54167
2023.017	819.875
2025.74	805.20833
2028.461	811.875
2031.18	817.20833
2033.898	799.875
2036.613	802.20833
2039.327	809.54167
2042.038	785.54167
2044.748	792.54167
2047.456	792.875
2050.162	779.54167
2052.866	774.54167
2055.568	787.20833
2058.268	770.54167
2060.967	777.875
2063.663	772.54167
2066.358	773.54167
2069.051	767.20833
2071.742	774.20833
2074.431	780.20833
2077.118	770.20833
2079.804	759.20833
2082.487	774.20833
2085.169	780.54167
2087.849	794.20833
2090.527	749.875
2093.203	774.54167
2095.877	779.54167
2098.55	791.54167
2101.22	796.875
2103.889	801.54167
2106.556	807.20833
2109.221	826.20833
2111.884	845.54167
2114.546	908.20833
2117.205	968.54167
2119.863	1041.54167
2122.519	1114.54167
2125.173	1187.54167
2127.825	1257.54167
2130.475	1270.875
2133.124	1210.20833
2135.771	1165.54167
2138.416	1117.54167
2141.059	1040.20833
2143.7	1003.20833
2146.339	933.875
2148.977	875.875
2151.613	857.20833
2154.247	837.54167
2156.879	791.54167
2159.51	789.20833
2162.138	770.20833
2164.765	761.54167
2167.39	741.875
2170.013	767.20833
2172.634	743.54167
2175.254	724.54167
2177.872	751.875
2180.488	703.20833
2183.102	713.20833
2185.714	713.875
2188.325	683.875
2190.934	702.20833
2193.541	700.875
2196.146	688.54167
2198.75	680.54167
2201.351	681.20833
2203.951	667.875
2206.549	677.54167
2209.146	655.20833
2211.74	662.875
2214.333	663.875
2216.924	641.20833
2219.514	650.54167
2222.101	639.20833
2224.687	654.875
2227.271	635.875
2229.853	636.54167
2232.433	619.54167
2235.012	641.54167
2237.589	638.875
2240.164	643.875
2242.738	621.875
2245.309	615.54167
2247.879	624.20833
2250.448	618.54167
2253.014	605.875
2255.579	584.20833
2258.142	585.54167
2260.703	579.20833
2263.262	595.875
2265.82	579.54167
2268.376	577.875
2270.93	557.875
2273.483	576.875
2276.033	574.20833
2278.583	566.20833
2281.13	564.20833
2283.675	554.54167
2286.219	561.54167
2288.761	562.54167
2291.302	562.875
2293.841	561.20833
2296.377	542.20833
2298.913	543.54167
2301.446	563.20833
2303.978	547.875
2306.508	542.875
2309.037	548.20833
2311.563	552.54167
2314.088	548.20833
2316.612	522.875
2319.133	540.20833
2321.653	531.875
2324.171	527.54167
2326.688	535.54167
2329.202	528.875
2331.715	522.20833
2334.227	517.875
2336.736	526.875
2339.244	515.875
2341.751	504.20833
2344.255	520.875
2346.758	518.54167
2349.259	497.54167
2351.759	510.875
2354.257	497.875
2356.753	500.54167
2359.247	496.875
2361.74	508.54167
2364.231	503.20833
2366.721	499.54167
2369.209	495.20833
2371.695	503.20833
2374.179	487.875
2376.662	478.20833
2379.143	503.20833
2381.622	477.20833
2384.1	493.875
2386.576	483.20833
2389.051	492.54167
2391.524	501.875
2393.995	491.875
2396.464	480.875
2398.932	481.54167
2401.398	474.20833
2403.863	486.20833
2406.325	469.875
2408.787	474.54167
2411.246	477.875
2413.704	466.875
2416.16	467.20833
2418.615	470.875
2421.068	479.20833
2423.519	474.875
2425.969	461.20833
2428.417	471.54167
2430.863	490.54167
2433.308	472.54167
2435.751	469.20833
2438.193	462.875
2440.633	455.20833
2443.071	462.875
2445.508	455.20833
2447.943	453.875
2450.376	446.54167
2452.808	452.875
2455.238	445.54167
2457.667	486.875
2460.093	450.20833
2462.519	434.20833
2464.942	451.875
2467.365	452.54167
2469.785	452.875
2472.204	448.54167
2474.621	434.54167
2477.037	453.875
2479.451	427.54167
2481.863	422.54167
2484.274	427.54167
2486.683	432.875
2489.091	449.20833
2491.497	438.54167
2493.901	442.54167
2496.304	428.54167
2498.705	428.20833
2501.105	426.54167
2503.503	460.54167
2505.899	414.20833
2508.294	449.875
2510.687	425.875
2513.079	428.875
2515.469	404.875
2517.858	415.20833
2520.245	433.875
2522.63	410.54167
2525.014	411.20833
2527.396	415.875
2529.776	407.875
2532.156	413.20833
2534.533	404.20833
2536.909	408.54167
2539.283	394.54167
2541.656	404.875
2544.027	426.54167
2546.397	405.875
2548.765	396.20833
2551.131	406.20833
2553.496	401.54167
2555.86	412.875
2558.221	408.20833
2560.582	390.20833
2562.94	390.20833
2565.298	404.54167
2567.653	412.875
2570.007	379.20833
2572.36	403.875
2574.711	380.20833
2577.06	413.54167
2579.408	406.875
2581.754	395.20833
2584.099	401.20833
2586.442	387.875
2588.784	404.54167
2591.124	391.875
2593.463	396.875
2595.8	394.54167
2598.135	373.54167
2600.469	382.20833
2602.802	391.875
2605.133	400.20833
2607.462	377.54167
2609.79	376.54167
2612.116	387.54167
2614.441	387.54167
2616.764	389.875
2619.086	385.54167
2621.406	372.875
2623.725	397.20833
2626.042	383.875
2628.358	374.20833
2630.672	371.20833
2632.985	396.20833
2635.296	385.20833
2637.606	383.54167
2639.914	362.54167
2642.22	372.875
2644.525	377.875
2646.829	382.875
2649.131	396.54167
2651.432	395.54167
2653.731	377.875
2656.028	392.20833
2658.324	400.54167
2660.619	383.20833
2662.912	397.54167
2665.204	376.54167
2667.494	392.54167
2669.782	372.54167
2672.07	396.20833
2674.355	389.875
2676.639	387.875
2678.922	375.54167
2681.203	384.54167
2683.483	372.20833
2685.761	369.875
2688.038	378.875
2690.313	401.875
2692.587	384.20833
2694.859	384.20833
2697.13	387.54167
2699.399	394.875
2701.667	401.20833
2703.933	399.54167
2706.198	405.54167
2708.461	410.875
2710.723	403.875
2712.984	407.875
2715.243	413.875
2717.5	398.20833
2719.757	421.20833
2722.011	413.875
2724.264	417.20833
2726.516	418.20833
2728.766	419.875
2731.015	415.20833
2733.262	406.875
2735.508	409.54167
2737.753	413.875
2739.996	395.875
2742.237	392.875
2744.477	401.54167
2746.716	410.875
2748.953	384.875
2751.189	394.20833
2753.423	382.875
2755.656	378.875
2757.887	380.875
2760.117	386.54167
2762.346	373.875
2764.573	368.875
2766.798	375.54167
2769.022	381.54167
2771.245	394.20833
2773.467	384.875
2775.686	393.20833
2777.905	389.54167
2780.122	400.20833
2782.337	398.875
2784.552	399.20833
2786.764	400.54167
2788.976	405.875
2791.186	403.54167
2793.394	415.54167
2795.601	412.20833
2797.807	435.20833
2800.011	432.54167
2802.214	439.20833
2804.415	438.875
2806.615	431.20833
2808.814	439.20833
2811.011	450.875
2813.206	446.54167
2815.401	470.20833
2817.594	470.54167
2819.785	480.875
2821.975	473.20833
2824.164	482.875
2826.351	493.875
2828.537	517.20833
2830.722	529.54167
2832.905	533.20833
2835.086	560.20833
2837.267	584.54167
2839.445	603.54167
2841.623	630.54167
2843.799	652.20833
2845.974	683.875
2848.147	716.54167
2850.319	726.875
2852.489	753.20833
2854.659	779.54167
2856.826	789.54167
2858.993	822.20833
2861.158	800.875
2863.321	798.875
2865.483	826.20833
2867.644	818.54167
2869.804	812.875
2871.962	812.875
2874.118	823.54167
2876.274	806.875
2878.428	821.20833
2880.58	809.20833
2882.731	799.875
2884.881	803.20833
2887.03	808.875
2889.177	802.875
2891.322	824.20833
2893.467	822.20833
2895.61	815.875
2897.751	839.54167
2899.892	830.20833
2902.03	852.875
2904.168	846.875
2906.304	851.20833
2908.439	874.54167
2910.572	852.875
2912.704	865.20833
2914.835	866.54167
2916.965	856.20833
2919.093	887.54167
2921.219	841.875
2923.345	862.20833
2925.469	837.875
2927.591	827.54167
2929.712	820.875
2931.832	794.20833
2933.951	787.54167
2936.068	775.875
2938.184	756.20833
2940.299	727.875
2942.412	700.54167
2944.524	665.875
2946.634	672.54167
2948.744	608.20833
2950.851	633.54167
2952.958	596.54167
2955.063	578.875
2957.167	569.875
2959.269	550.54167
2961.371	562.875
2963.471	530.54167
2965.569	527.54167
2967.666	505.54167
2969.762	505.54167
2971.857	483.875
2973.95	481.54167
2976.042	468.20833
2978.133	450.875
2980.222	435.875
2982.31	422.20833
2984.396	405.20833
2986.482	406.875
2988.566	391.54167
2990.648	379.875
2992.73	375.875
2994.81	373.20833
2996.889	374.875
2998.966	366.875
3001.042	367.54167
3003.117	363.20833
3005.191	352.20833
3007.263	357.875
3009.334	338.20833
3011.403	342.20833
3013.472	328.54167
3015.539	336.20833
3017.604	343.54167
3019.669	307.875
3021.732	316.20833
3023.794	307.54167
3025.854	298.54167
3027.914	302.20833
3029.971	304.875
3032.028	300.20833
3034.083	301.20833
3036.137	297.54167
3038.19	282.54167
3040.242	274.20833
3042.292	270.875
3044.341	277.875
3046.388	282.875
3048.435	253.20833
3050.48	271.875
3052.524	267.875
3054.566	249.875
3056.607	267.875
3058.647	250.875
3060.686	243.20833
3062.723	236.875
3064.759	222.20833
3066.794	-2.125
3068.828	2.54167
3070.86	2.54167
