-0.839	586.04167
3.438	706.375
7.711	210.70833
11.981	66.70833
16.247	48.70833
20.509	53.04167
24.768	49.70833
29.024	53.70833
33.276	46.04167
37.524	52.375
41.769	49.70833
46.01	40.375
50.247	51.04167
54.481	56.375
58.712	62.04167
62.939	49.04167
67.162	68.70833
71.382	59.70833
75.599	48.70833
79.812	67.375
84.021	81.04167
88.227	62.375
92.429	63.04167
96.628	54.70833
100.823	74.04167
105.015	77.375
109.204	77.70833
113.388	77.375
117.57	81.375
121.748	90.375
125.922	87.04167
130.093	107.70833
134.261	104.375
138.425	108.04167
142.585	144.04167
146.742	145.04167
150.896	173.04167
155.046	218.04167
159.193	346.375
163.336	584.04167
167.476	1089.375
171.613	2007.04167
175.746	3301.04167
179.875	4901.375
184.002	6406.04167
188.124	7418.375
192.244	7755.04167
196.36	7755.375
200.472	7516.375
204.581	7314.04167
208.687	7101.70833
212.79	7021.70833
216.889	7013.04167
220.984	7044.375
225.077	7041.04167
229.165	7071.375
233.251	7083.70833
237.333	7000.04167
241.412	6934.04167
245.487	6835.375
249.559	6799.04167
253.628	6752.04167
257.694	6678.70833
261.756	6603.04167
265.814	6489.375
269.87	6274.70833
273.922	6101.04167
277.97	5966.375
282.016	5926.04167
286.058	5964.375
290.097	6085.04167
294.132	6152.04167
298.164	6085.375
302.193	5825.375
306.219	5397.375
310.241	4967.70833
314.26	4583.70833
318.276	4257.04167
322.288	4041.70833
326.297	3873.375
330.303	3769.375
334.305	3635.04167
338.305	3579.70833
342.301	3527.70833
346.294	3497.70833
350.283	3458.04167
354.269	3452.04167
358.252	3431.04167
362.232	3402.04167
366.209	3401.375
370.182	3356.04167
374.152	3346.04167
378.119	3377.70833
382.083	3340.375
386.043	3381.04167
390	3341.70833
393.954	3341.70833
397.905	3281.70833
401.852	3290.375
405.797	3239.70833
409.738	3244.04167
413.676	3250.04167
417.61	3223.375
421.542	3212.375
425.47	3171.70833
429.396	3165.70833
433.318	3165.70833
437.236	3119.04167
441.152	3158.375
445.065	3099.04167
448.974	3104.375
452.88	3048.04167
456.783	3057.375
460.683	3034.375
464.58	3024.04167
468.473	3054.375
472.364	3049.375
476.251	3057.375
480.135	3093.70833
484.016	3129.70833
487.894	3156.04167
491.769	3186.04167
495.641	3177.375
499.509	3218.04167
503.375	3181.70833
507.237	3182.70833
511.096	3152.375
514.952	3138.04167
518.805	3161.375
522.655	3150.04167
526.502	3141.375
530.346	3139.70833
534.187	3148.375
538.024	3165.375
541.859	3176.375
545.69	3217.375
549.519	3192.375
553.344	3166.375
557.166	3105.375
560.985	3080.04167
564.802	3020.70833
568.615	2991.04167
572.425	2928.04167
576.232	2937.04167
580.036	2928.375
583.836	2915.70833
587.634	2953.70833
591.429	2939.70833
595.221	3029.04167
599.01	3033.70833
602.796	3068.375
606.578	3081.375
610.358	3090.04167
614.135	3038.04167
617.909	3012.70833
621.679	2999.375
625.447	2982.70833
629.212	2998.375
632.973	2971.70833
636.732	2970.04167
640.488	2981.04167
644.241	2969.04167
647.991	2970.375
651.737	2967.04167
655.481	2957.375
659.222	2955.70833
662.96	2933.375
666.695	2962.04167
670.427	2969.70833
674.156	3004.375
677.882	2952.375
681.605	2948.375
685.325	2924.375
689.043	2920.375
692.757	2906.70833
696.468	2908.375
700.177	2872.70833
703.882	2882.04167
707.585	2856.04167
711.284	2860.70833
714.981	2860.375
718.675	2865.04167
722.366	2882.70833
726.054	2839.04167
729.739	2845.375
733.421	2860.70833
737.1	2879.04167
740.777	2889.70833
744.45	2891.04167
748.121	2920.375
751.789	3001.04167
755.453	2949.04167
759.115	2981.70833
762.774	2975.70833
766.431	3022.70833
770.084	3078.70833
773.734	3071.04167
777.382	3130.04167
781.027	3141.04167
784.669	3166.04167
788.308	3176.04167
791.944	3197.04167
795.577	3225.70833
799.208	3221.70833
802.835	3251.04167
806.46	3244.375
810.082	3267.375
813.701	3268.375
817.317	3315.04167
820.931	3313.04167
824.542	3316.04167
828.149	3273.04167
831.754	3250.375
835.357	3251.70833
838.956	3261.375
842.553	3244.70833
846.146	3216.375
849.737	3198.70833
853.326	3198.04167
856.911	3211.70833
860.493	3264.70833
864.073	3284.70833
867.65	3331.04167
871.225	3356.70833
874.796	3356.375
878.365	3372.04167
881.931	3399.04167
885.494	3447.70833
889.054	3460.70833
892.612	3497.375
896.166	3495.375
899.719	3506.04167
903.268	3430.375
906.814	3399.375
910.358	3336.375
913.899	3292.375
917.438	3275.70833
920.973	3256.375
924.506	3283.70833
928.036	3315.04167
931.564	3398.04167
935.088	3425.70833
938.61	3423.04167
942.129	3480.70833
945.646	3545.70833
949.16	3629.375
952.671	3634.04167
956.179	3681.375
959.685	3630.04167
963.188	3610.04167
966.688	3530.04167
970.185	3450.04167
973.68	3413.375
977.173	3333.70833
980.662	3289.375
984.149	3283.70833
987.633	3261.70833
991.114	3327.70833
994.593	3403.375
998.069	3480.70833
1001.542	3548.04167
1005.013	3526.70833
1008.481	3341.375
1011.947	3281.70833
1015.409	3263.04167
1018.869	3259.375
1022.327	3256.70833
1025.782	3219.04167
1029.234	3217.375
1032.683	3185.70833
1036.13	3081.375
1039.574	2962.04167
1043.016	2897.04167
1046.455	2829.04167
1049.891	2803.375
1053.325	2826.70833
1056.756	2818.375
1060.184	2831.04167
1063.61	2839.04167
1067.033	2876.375
1070.454	2865.70833
1073.872	2898.375
1077.287	2881.70833
1080.7	2889.04167
1084.11	2900.70833
1087.517	2835.70833
1090.922	2822.04167
1094.325	2802.375
1097.724	2786.70833
1101.122	2791.375
1104.516	2770.04167
1107.908	2790.70833
1111.298	2840.04167
1114.684	2867.70833
1118.069	2898.375
1121.45	2956.375
1124.83	2919.70833
1128.206	2969.04167
1131.58	3014.04167
1134.951	3098.375
1138.32	3181.375
1141.687	3293.04167
1145.05	3355.04167
1148.412	3378.70833
1151.77	3337.04167
1155.126	3327.70833
1158.48	3332.04167
1161.831	3353.375
1165.18	3373.04167
1168.525	3420.375
1171.869	3457.375
1175.21	3466.375
1178.548	3548.375
1181.884	3541.70833
1185.217	3606.04167
1188.548	3692.04167
1191.877	3729.375
1195.202	3865.70833
1198.526	3922.04167
1201.846	3949.04167
1205.165	3943.04167
1208.48	3938.04167
1211.794	3905.70833
1215.104	3882.375
1218.413	3893.375
1221.719	3897.70833
1225.022	3852.375
1228.323	3782.375
1231.621	3747.375
1234.917	3735.375
1238.21	3740.70833
1241.501	3723.375
1244.79	3718.04167
1248.076	3731.04167
1251.359	3730.70833
1254.64	3823.375
1257.919	3836.375
1261.195	3877.70833
1264.468	3954.70833
1267.74	4004.04167
1271.008	4028.70833
1274.275	4009.70833
1277.538	3985.04167
1280.8	3989.70833
1284.059	3978.04167
1287.315	3996.375
1290.569	4042.375
1293.821	4054.70833
1297.07	4078.375
1300.317	4096.70833
1303.562	4103.70833
1306.803	4061.70833
1310.043	4029.70833
1313.28	4009.375
1316.515	3991.70833
1319.747	3954.04167
1322.977	3938.70833
1326.204	3915.70833
1329.429	3824.70833
1332.652	3818.70833
1335.872	3806.04167
1339.09	3755.04167
1342.306	3707.04167
1345.519	3657.375
1348.729	3594.70833
1351.938	3585.70833
1355.144	3545.70833
1358.347	3499.375
1361.548	3475.04167
1364.747	3475.04167
1367.944	3447.375
1371.138	3487.375
1374.329	3483.04167
1377.518	3524.375
1380.705	3577.04167
1383.89	3518.04167
1387.072	3437.04167
1390.252	3308.04167
1393.429	3172.70833
1396.605	3067.04167
1399.777	3021.70833
1402.948	2973.70833
1406.116	2960.04167
1409.282	2953.70833
1412.445	2987.70833
1415.606	3030.70833
1418.765	3062.70833
1421.921	3105.375
1425.075	3153.375
1428.227	3245.375
1431.376	3351.70833
1434.524	3491.04167
1437.668	3569.04167
1440.811	3618.375
1443.951	3656.04167
1447.089	3663.04167
1450.224	3656.375
1453.357	3635.04167
1456.488	3604.375
1459.617	3532.70833
1462.743	3487.70833
1465.867	3409.70833
1468.989	3333.375
1472.108	3308.375
1475.225	3236.04167
1478.34	3220.70833
1481.453	3208.04167
1484.563	3228.70833
1487.671	3265.04167
1490.776	3299.70833
1493.88	3382.04167
1496.981	3393.04167
1500.08	3480.70833
1503.176	3514.375
1506.271	3561.375
1509.363	3593.04167
1512.452	3610.04167
1515.54	3683.04167
1518.625	3722.375
1521.708	3808.70833
1524.789	3915.04167
1527.867	4075.04167
1530.944	4277.70833
1534.018	4486.375
1537.089	4649.04167
1540.159	4702.375
1543.226	4653.375
1546.291	4601.70833
1549.354	4490.375
1552.415	4408.04167
1555.473	4314.375
1558.529	4244.70833
1561.583	4204.375
1564.634	4155.70833
1567.684	4164.70833
1570.731	4177.375
1573.776	4238.04167
1576.819	4262.04167
1579.859	4328.70833
1582.898	4390.70833
1585.934	4422.375
1588.968	4433.70833
1591.999	4429.70833
1595.029	4452.375
1598.056	4462.04167
1601.081	4499.04167
1604.104	4484.70833
1607.125	4430.70833
1610.144	4318.70833
1613.16	4241.04167
1616.174	4170.70833
1619.186	4031.375
1622.196	3926.70833
1625.203	3820.375
1628.209	3749.70833
1631.212	3694.04167
1634.213	3669.70833
1637.212	3653.375
1640.209	3598.375
1643.203	3488.70833
1646.196	3380.04167
1649.186	3269.70833
1652.174	3145.70833
1655.16	3041.375
1658.144	2932.04167
1661.125	2808.04167
1664.105	2689.375
1667.082	2558.70833
1670.057	2429.70833
1673.03	2307.04167
1676.001	2152.70833
1678.97	2014.375
1681.937	1889.375
1684.901	1795.04167
1687.863	1725.375
1690.824	1634.70833
1693.782	1613.04167
1696.738	1553.04167
1699.692	1523.04167
1702.643	1474.375
1705.593	1460.70833
1708.54	1441.70833
1711.486	1418.04167
1714.429	1374.375
1717.37	1398.375
1720.309	1356.70833
1723.246	1354.04167
1726.181	1333.70833
1729.113	1327.375
1732.044	1289.70833
1734.972	1291.70833
1737.899	1293.04167
1740.823	1282.70833
1743.745	1256.70833
1746.665	1250.70833
1749.583	1212.375
1752.499	1203.375
1755.413	1194.70833
1758.325	1161.375
1761.235	1156.375
1764.142	1121.04167
1767.048	1123.04167
1769.951	1123.70833
1772.852	1107.04167
1775.752	1098.04167
1778.649	1093.375
1781.544	1099.375
1784.437	1079.375
1787.328	1093.375
1790.217	1074.70833
1793.104	1059.375
1795.989	1051.375
1798.872	1040.04167
1801.753	1060.70833
1804.631	1049.375
1807.508	1057.375
1810.383	1042.70833
1813.255	1036.375
1816.126	1038.70833
1818.994	1032.375
1821.861	1020.70833
1824.725	1020.04167
1827.587	1022.375
1830.448	1009.375
1833.306	985.70833
1836.162	988.04167
1839.017	989.375
1841.869	972.70833
1844.719	964.375
1847.567	956.70833
1850.414	955.70833
1853.258	956.04167
1856.1	969.70833
1858.94	968.04167
1861.778	948.375
1864.614	954.70833
1867.448	954.375
1870.28	946.70833
1873.111	971.70833
1875.939	947.04167
1878.765	957.04167
1881.589	939.70833
1884.411	939.70833
1887.231	945.70833
1890.049	942.04167
1892.865	933.70833
1895.68	921.375
1898.492	938.70833
1901.302	921.04167
1904.11	923.04167
1906.916	914.04167
1909.721	904.70833
1912.523	903.04167
1915.323	878.04167
1918.122	892.70833
1920.918	897.04167
1923.712	892.375
1926.505	877.70833
1929.295	884.04167
1932.084	898.04167
1934.87	885.70833
1937.655	870.04167
1940.438	877.70833
1943.218	882.04167
1945.997	884.70833
1948.774	887.70833
1951.549	881.70833
1954.322	868.375
1957.093	864.375
1959.862	849.04167
1962.629	848.04167
1965.394	861.375
1968.157	840.70833
1970.918	849.04167
1973.678	846.70833
1976.435	845.375
1979.19	835.70833
1981.944	819.04167
1984.696	821.70833
1987.445	800.70833
1990.193	820.375
1992.939	838.375
1995.683	832.375
1998.425	796.375
2001.165	829.04167
2003.903	807.375
2006.639	807.04167
2009.374	811.70833
2012.106	815.04167
2014.837	793.70833
2017.566	800.70833
2020.292	811.04167
2023.017	808.70833
2025.74	796.70833
2028.461	785.70833
2031.18	787.04167
2033.898	783.375
2036.613	790.04167
2039.327	790.70833
2042.038	776.04167
2044.748	777.375
2047.456	783.375
2050.162	757.04167
2052.866	770.70833
2055.568	770.70833
2058.268	762.04167
2060.967	765.70833
2063.663	750.04167
2066.358	752.04167
2069.051	753.375
2071.742	766.04167
2074.431	773.70833
2077.118	741.70833
2079.804	747.04167
2082.487	750.04167
2085.169	750.70833
2087.849	768.04167
2090.527	751.70833
2093.203	767.375
2095.877	770.375
2098.55	766.04167
2101.22	776.04167
2103.889	770.375
2106.556	787.70833
2109.221	816.375
2111.884	833.70833
2114.546	905.375
2117.205	946.375
2119.863	1036.70833
2122.519	1079.04167
2125.173	1167.04167
2127.825	1230.04167
2130.475	1249.04167
2133.124	1194.04167
2135.771	1158.70833
2138.416	1097.375
2141.059	1022.375
2143.7	979.70833
2146.339	905.70833
2148.977	846.04167
2151.613	845.70833
2154.247	823.375
2156.879	791.375
2159.51	777.375
2162.138	758.375
2164.765	757.375
2167.39	731.70833
2170.013	746.70833
2172.634	723.70833
2175.254	711.04167
2177.872	743.04167
2180.488	701.375
2183.102	717.375
2185.714	694.375
2188.325	673.375
2190.934	687.375
2193.541	695.04167
2196.146	668.04167
2198.75	655.04167
2201.351	669.04167
2203.951	643.375
2206.549	668.70833
2209.146	664.04167
2211.74	652.375
2214.333	645.04167
2216.924	624.375
2219.514	645.375
2222.101	637.04167
2224.687	646.375
2227.271	616.04167
2229.853	619.70833
2232.433	601.70833
2235.012	622.375
2237.589	623.375
2240.164	635.70833
2242.738	618.375
2245.309	594.70833
2247.879	610.04167
2250.448	606.375
2253.014	589.375
2255.579	572.04167
2258.142	586.04167
2260.703	576.70833
2263.262	574.04167
2265.82	573.04167
2268.376	575.375
2270.93	551.375
2273.483	562.04167
2276.033	563.375
2278.583	558.375
2281.13	553.04167
2283.675	538.375
2286.219	557.70833
2288.761	549.375
2291.302	556.04167
2293.841	556.70833
2296.377	532.04167
2298.913	547.375
2301.446	554.375
2303.978	540.375
2306.508	538.04167
2309.037	525.70833
2311.563	535.04167
2314.088	533.70833
2316.612	504.375
2319.133	525.375
2321.653	534.04167
2324.171	508.04167
2326.688	535.70833
2329.202	514.375
2331.715	512.04167
2334.227	510.04167
2336.736	515.70833
2339.244	503.04167
2341.751	497.375
2344.255	507.70833
2346.758	498.04167
2349.259	496.70833
2351.759	496.375
2354.257	491.70833
2356.753	485.70833
2359.247	477.375
2361.74	500.04167
2364.231	499.04167
2366.721	495.375
2369.209	487.04167
2371.695	499.70833
2374.179	490.375
2376.662	483.375
2379.143	495.70833
2381.622	476.375
2384.1	486.04167
2386.576	468.70833
2389.051	492.70833
2391.524	495.04167
2393.995	482.70833
2396.464	469.375
2398.932	473.375
2401.398	469.375
2403.863	469.375
2406.325	467.70833
2408.787	466.375
2411.246	462.70833
2413.704	462.70833
2416.16	458.70833
2418.615	454.04167
2421.068	472.04167
2423.519	470.375
2425.969	460.70833
2428.417	472.04167
2430.863	481.70833
2433.308	464.70833
2435.751	453.04167
2438.193	466.70833
2440.633	464.70833
2443.071	455.375
2445.508	448.04167
2447.943	451.04167
2450.376	441.375
2452.808	442.70833
2455.238	433.70833
2457.667	473.70833
2460.093	439.70833
2462.519	437.70833
2464.942	426.70833
2467.365	444.70833
2469.785	437.375
2472.204	436.04167
2474.621	427.70833
2477.037	454.70833
2479.451	428.04167
2481.863	419.70833
2484.274	425.70833
2486.683	424.375
2489.091	438.04167
2491.497	417.04167
2493.901	423.04167
2496.304	421.04167
2498.705	433.04167
2501.105	418.04167
2503.503	438.375
2505.899	405.04167
2508.294	429.04167
2510.687	416.04167
2513.079	423.70833
2515.469	406.70833
2517.858	407.04167
2520.245	427.04167
2522.63	408.70833
2525.014	401.375
2527.396	407.375
2529.776	396.70833
2532.156	412.04167
2534.533	402.70833
2536.909	402.375
2539.283	381.70833
2541.656	398.375
2544.027	422.04167
2546.397	399.70833
2548.765	392.04167
2551.131	397.04167
2553.496	397.375
2555.86	396.04167
2558.221	404.375
2560.582	388.375
2562.94	385.375
2565.298	384.04167
2567.653	401.375
2570.007	383.375
2572.36	407.04167
2574.711	389.04167
2577.06	403.70833
2579.408	392.04167
2581.754	382.04167
2584.099	398.70833
2586.442	381.70833
2588.784	388.04167
2591.124	387.375
2593.463	386.70833
2595.8	394.375
2598.135	376.375
2600.469	383.04167
2602.802	388.04167
2605.133	386.70833
2607.462	366.04167
2609.79	366.04167
2612.116	387.70833
2614.441	384.70833
2616.764	380.70833
2619.086	381.70833
2621.406	363.70833
2623.725	390.70833
2626.042	376.375
2628.358	372.70833
2630.672	361.04167
2632.985	390.04167
2635.296	381.70833
2637.606	370.375
2639.914	366.70833
2642.22	374.375
2644.525	377.375
2646.829	377.04167
2649.131	384.70833
2651.432	389.70833
2653.731	379.375
2656.028	386.04167
2658.324	395.04167
2660.619	378.375
2662.912	385.04167
2665.204	373.04167
2667.494	386.70833
2669.782	366.70833
2672.07	388.04167
2674.355	389.375
2676.639	374.375
2678.922	370.04167
2681.203	371.04167
2683.483	378.04167
2685.761	368.70833
2688.038	376.04167
2690.313	392.375
2692.587	385.70833
2694.859	370.04167
2697.13	388.04167
2699.399	401.70833
2701.667	397.04167
2703.933	393.375
2706.198	396.04167
2708.461	400.04167
2710.723	413.375
2712.984	405.04167
2715.243	396.375
2717.5	393.375
2719.757	417.70833
2722.011	405.375
2724.264	410.04167
2726.516	419.375
2728.766	402.375
2731.015	415.70833
2733.262	406.04167
2735.508	406.375
2737.753	409.04167
2739.996	400.04167
2742.237	381.70833
2744.477	407.70833
2746.716	403.04167
2748.953	387.70833
2751.189	394.375
2753.423	393.04167
2755.656	379.04167
2757.887	375.70833
2760.117	379.04167
2762.346	368.70833
2764.573	360.375
2766.798	381.70833
2769.022	376.70833
2771.245	382.04167
2773.467	381.70833
2775.686	386.70833
2777.905	381.375
2780.122	396.70833
2782.337	402.375
2784.552	391.70833
2786.764	397.04167
2788.976	405.375
2791.186	397.04167
2793.394	404.375
2795.601	415.04167
2797.807	426.375
2800.011	428.70833
2802.214	430.375
2804.415	436.04167
2806.615	433.04167
2808.814	436.70833
2811.011	448.70833
2813.206	446.375
2815.401	463.04167
2817.594	470.375
2819.785	479.375
2821.975	475.70833
2824.164	480.70833
2826.351	500.70833
2828.537	511.04167
2830.722	519.70833
2832.905	526.04167
2835.086	560.70833
2837.267	588.04167
2839.445	598.375
2841.623	620.04167
2843.799	632.70833
2845.974	684.04167
2848.147	711.04167
2850.319	734.04167
2852.489	755.70833
2854.659	772.70833
2856.826	780.04167
2858.993	821.70833
2861.158	799.70833
2863.321	805.375
2865.483	816.375
2867.644	819.04167
2869.804	805.375
2871.962	816.04167
2874.118	812.04167
2876.274	807.70833
2878.428	806.375
2880.58	808.04167
2882.731	785.04167
2884.881	797.375
2887.03	814.04167
2889.177	812.375
2891.322	826.70833
2893.467	815.375
2895.61	819.04167
2897.751	832.70833
2899.892	828.70833
2902.03	840.04167
2904.168	850.04167
2906.304	844.70833
2908.439	863.70833
2910.572	858.70833
2912.704	868.04167
2914.835	882.04167
2916.965	864.04167
2919.093	872.04167
2921.219	844.375
2923.345	860.70833
2925.469	834.04167
2927.591	835.70833
2929.712	796.375
2931.832	791.70833
2933.951	788.04167
2936.068	774.375
2938.184	748.04167
2940.299	720.04167
2942.412	713.70833
2944.524	668.04167
2946.634	665.70833
2948.744	619.70833
2950.851	637.04167
2952.958	585.04167
2955.063	586.70833
2957.167	575.70833
2959.269	543.04167
2961.371	563.04167
2963.471	523.04167
2965.569	526.375
2967.666	502.04167
2969.762	485.70833
2971.857	483.375
2973.95	472.70833
2976.042	462.70833
2978.133	442.70833
2980.222	441.375
2982.31	416.375
2984.396	398.375
2986.482	404.70833
2988.566	386.04167
2990.648	380.70833
2992.73	377.375
2994.81	364.04167
2996.889	372.70833
2998.966	361.70833
3001.042	371.375
3003.117	358.375
3005.191	353.04167
3007.263	352.70833
3009.334	336.04167
3011.403	344.70833
3013.472	329.375
3015.539	332.375
3017.604	336.70833
3019.669	310.70833
3021.732	310.375
3023.794	314.70833
3025.854	293.70833
3027.914	304.04167
3029.971	311.04167
3032.028	291.70833
3034.083	307.04167
3036.137	290.70833
3038.19	276.04167
3040.242	267.04167
3042.292	262.04167
3044.341	278.70833
3046.388	277.375
3048.435	254.375
3050.48	276.375
3052.524	268.70833
3054.566	247.70833
3056.607	260.04167
3058.647	247.375
3060.686	235.375
3062.723	237.70833
3064.759	227.375
3066.794	-1.29167
3068.828	3.04167
3070.86	3.375
