-0.839	454.875
3.438	542.875
7.711	162.20833
11.981	59.20833
16.247	41.875
20.509	49.20833
24.768	46.20833
29.024	55.20833
33.276	45.54167
37.524	51.20833
41.769	47.20833
46.01	30.20833
50.247	47.54167
54.481	64.20833
58.712	63.875
62.939	47.20833
67.162	63.20833
71.382	57.54167
75.599	42.875
79.812	63.875
84.021	82.54167
88.227	61.54167
92.429	60.20833
96.628	52.875
100.823	70.54167
105.015	76.54167
109.204	67.875
113.388	76.875
117.57	74.875
121.748	81.875
125.922	81.875
130.093	97.875
134.261	98.875
138.425	92.54167
142.585	133.875
146.742	133.20833
150.896	159.20833
155.046	191.54167
159.193	304.20833
163.336	505.20833
167.476	952.54167
171.613	1704.54167
175.746	2827.20833
179.875	4137.54167
184.002	5393.20833
188.124	6205.54167
192.244	6446.875
196.36	6398.20833
200.472	6166.875
204.581	5977.875
208.687	5781.20833
212.79	5700.54167
216.889	5638.20833
220.984	5629.20833
225.077	5624.875
229.165	5576.54167
233.251	5572.875
237.333	5527.20833
241.412	5463.54167
245.487	5375.875
249.559	5316.20833
253.628	5246.20833
257.694	5248.54167
261.756	5174.875
265.814	5090.875
269.87	4975.20833
273.922	4808.54167
277.97	4731.54167
282.016	4723.54167
286.058	4750.54167
290.097	4889.54167
294.132	4937.875
298.164	4909.54167
302.193	4689.875
306.219	4341.20833
310.241	3970.875
314.26	3662.875
318.276	3422.20833
322.288	3261.875
326.297	3085.54167
330.303	3005.875
334.305	2912.875
338.305	2878.20833
342.301	2850.54167
346.294	2822.20833
350.283	2796.875
354.269	2761.20833
358.252	2766.20833
362.232	2746.54167
366.209	2715.54167
370.182	2683.20833
374.152	2683.54167
378.119	2683.20833
382.083	2679.54167
386.043	2680.20833
390	2646.54167
393.954	2662.875
397.905	2640.875
401.852	2629.20833
405.797	2635.20833
409.738	2601.20833
413.676	2620.54167
417.61	2595.54167
421.542	2578.54167
425.47	2578.875
429.396	2535.875
433.318	2529.20833
437.236	2530.20833
441.152	2564.875
445.065	2504.20833
448.974	2492.875
452.88	2464.875
456.783	2465.54167
460.683	2441.54167
464.58	2447.20833
468.473	2438.20833
472.364	2453.54167
476.251	2462.54167
480.135	2491.20833
484.016	2529.875
487.894	2530.875
491.769	2566.875
495.641	2578.54167
499.509	2588.20833
503.375	2590.875
507.237	2586.875
511.096	2590.54167
514.952	2694.20833
518.805	2806.20833
522.655	2840.54167
526.502	2703.20833
530.346	2554.875
534.187	2533.875
538.024	2537.54167
541.859	2568.54167
545.69	2573.20833
549.519	2556.875
553.344	2526.20833
557.166	2489.875
560.985	2469.54167
564.802	2433.54167
568.615	2387.20833
572.425	2347.20833
576.232	2344.20833
580.036	2354.54167
583.836	2338.20833
587.634	2373.875
591.429	2362.875
595.221	2415.20833
599.01	2441.875
602.796	2452.20833
606.578	2465.875
610.358	2449.20833
614.135	2427.20833
617.909	2447.875
621.679	2382.54167
625.447	2401.54167
629.212	2419.54167
632.973	2406.54167
636.732	2384.875
640.488	2409.20833
644.241	2378.20833
647.991	2360.54167
651.737	2380.20833
655.481	2358.875
659.222	2351.20833
662.96	2341.54167
666.695	2390.54167
670.427	2392.20833
674.156	2410.54167
677.882	2374.20833
681.605	2384.875
685.325	2355.20833
689.043	2359.54167
692.757	2335.54167
696.468	2342.54167
700.177	2335.875
703.882	2321.875
707.585	2324.20833
711.284	2299.875
714.981	2321.875
718.675	2319.875
722.366	2326.54167
726.054	2293.20833
729.739	2294.20833
733.421	2315.54167
737.1	2292.54167
740.777	2319.54167
744.45	2325.875
748.121	2347.20833
751.789	2394.20833
755.453	2388.54167
759.115	2400.20833
762.774	2389.20833
766.431	2416.20833
770.084	2457.54167
773.734	2460.875
777.382	2486.54167
781.027	2494.54167
784.669	2527.875
788.308	2536.20833
791.944	2563.54167
795.577	2566.875
799.208	2568.875
802.835	2599.20833
806.46	2608.20833
810.082	2612.875
813.701	2603.875
817.317	2650.54167
820.931	2638.54167
824.542	2636.875
828.149	2617.20833
831.754	2584.20833
835.357	2593.54167
838.956	2597.54167
842.553	2583.20833
846.146	2585.20833
849.737	2568.20833
853.326	2553.54167
856.911	2549.875
860.493	2583.875
864.073	2600.20833
867.65	2627.54167
871.225	2665.20833
874.796	2667.20833
878.365	2689.20833
881.931	2686.54167
885.494	2729.875
889.054	2734.875
892.612	2781.20833
896.166	2761.875
899.719	2766.54167
903.268	2692.20833
906.814	2665.54167
910.358	2620.54167
913.899	2582.20833
917.438	2579.20833
920.973	2568.54167
924.506	2599.875
928.036	2629.875
931.564	2684.20833
935.088	2710.20833
938.61	2716.54167
942.129	2760.54167
945.646	2794.54167
949.16	2858.54167
952.671	2888.20833
956.179	2893.54167
959.685	2828.54167
963.188	2850.875
966.688	2793.875
970.185	2703.54167
973.68	2674.20833
977.173	2625.875
980.662	2583.875
984.149	2595.875
987.633	2576.20833
991.114	2630.54167
994.593	2668.875
998.069	2731.875
1001.542	2831.20833
1005.013	2777.54167
1008.481	2604.20833
1011.947	2574.20833
1015.409	2554.20833
1018.869	2560.20833
1022.327	2568.20833
1025.782	2567.54167
1029.234	2569.54167
1032.683	2529.875
1036.13	2446.20833
1039.574	2370.875
1043.016	2298.20833
1046.455	2258.875
1049.891	2239.54167
1053.325	2244.54167
1056.756	2238.54167
1060.184	2246.20833
1063.61	2263.54167
1067.033	2258.875
1070.454	2282.54167
1073.872	2287.20833
1077.287	2278.875
1080.7	2300.875
1084.11	2272.54167
1087.517	2279.875
1090.922	2245.54167
1094.325	2227.20833
1097.724	2213.20833
1101.122	2205.54167
1104.516	2202.54167
1107.908	2207.875
1111.298	2249.54167
1114.684	2272.54167
1118.069	2293.54167
1121.45	2300.875
1124.83	2317.20833
1128.206	2357.875
1131.58	2370.875
1134.951	2427.54167
1138.32	2519.875
1141.687	2588.20833
1145.05	2640.875
1148.412	2628.54167
1151.77	2626.54167
1155.126	2612.875
1158.48	2587.875
1161.831	2613.20833
1165.18	2629.54167
1168.525	2643.20833
1171.869	2682.875
1175.21	2720.875
1178.548	2700.20833
1181.884	2725.54167
1185.217	2759.875
1188.548	2838.875
1191.877	2881.875
1195.202	2954.54167
1198.526	3010.875
1201.846	3028.54167
1205.165	3036.20833
1208.48	3035.20833
1211.794	3010.875
1215.104	3033.54167
1218.413	3026.875
1221.719	3026.20833
1225.022	2981.875
1228.323	2959.20833
1231.621	2911.54167
1234.917	2882.875
1238.21	2935.54167
1241.501	2906.54167
1244.79	2869.875
1248.076	2890.875
1251.359	2913.875
1254.64	2994.54167
1257.919	2992.20833
1261.195	3040.54167
1264.468	3104.54167
1267.74	3119.20833
1271.008	3126.54167
1274.275	3124.54167
1277.538	3098.20833
1280.8	3090.54167
1284.059	3106.875
1287.315	3142.875
1290.569	3135.20833
1293.821	3181.875
1297.07	3181.54167
1300.317	3208.54167
1303.562	3185.20833
1306.803	3158.54167
1310.043	3155.875
1313.28	3117.875
1316.515	3103.875
1319.747	3108.20833
1322.977	3084.875
1326.204	3055.20833
1329.429	3000.54167
1332.652	3012.20833
1335.872	2990.875
1339.09	2952.20833
1342.306	2916.54167
1345.519	2850.54167
1348.729	2830.875
1351.938	2821.20833
1355.144	2782.54167
1358.347	2728.20833
1361.548	2748.875
1364.747	2728.875
1367.944	2713.875
1371.138	2719.54167
1374.329	2731.54167
1377.518	2746.20833
1380.705	2760.875
1383.89	2755.20833
1387.072	2667.875
1390.252	2557.54167
1393.429	2485.875
1396.605	2433.20833
1399.777	2378.20833
1402.948	2358.54167
1406.116	2352.54167
1409.282	2336.20833
1412.445	2361.54167
1415.606	2389.20833
1418.765	2428.54167
1421.921	2449.875
1425.075	2478.875
1428.227	2556.20833
1431.376	2664.54167
1434.524	2726.20833
1437.668	2816.20833
1440.811	2840.875
1443.951	2868.20833
1447.089	2886.875
1450.224	2865.875
1453.357	2853.875
1456.488	2814.20833
1459.617	2752.54167
1462.743	2711.875
1465.867	2620.875
1468.989	2599.875
1472.108	2549.875
1475.225	2504.875
1478.34	2470.54167
1481.453	2478.54167
1484.563	2462.20833
1487.671	2512.875
1490.776	2550.20833
1493.88	2594.875
1496.981	2608.54167
1500.08	2655.54167
1503.176	2687.54167
1506.271	2720.20833
1509.363	2758.875
1512.452	2757.875
1515.54	2810.54167
1518.625	2827.875
1521.708	2905.54167
1524.789	2985.20833
1527.867	3091.54167
1530.944	3244.20833
1534.018	3397.20833
1537.089	3537.875
1540.159	3571.54167
1543.226	3580.20833
1546.291	3501.875
1549.354	3438.875
1552.415	3370.54167
1555.473	3290.54167
1558.529	3229.875
1561.583	3170.875
1564.634	3166.54167
1567.684	3187.20833
1570.731	3182.54167
1573.776	3201.54167
1576.819	3239.875
1579.859	3294.20833
1582.898	3324.875
1585.934	3318.54167
1588.968	3342.54167
1591.999	3331.875
1595.029	3324.20833
1598.056	3375.20833
1601.081	3411.20833
1604.104	3368.20833
1607.125	3365.54167
1610.144	3306.54167
1613.16	3216.875
1616.174	3137.54167
1619.186	3073.875
1622.196	2998.875
1625.203	2921.20833
1628.209	2858.54167
1631.212	2852.875
1634.213	2829.54167
1637.212	2808.54167
1640.209	2770.20833
1643.203	2711.20833
1646.196	2623.875
1649.186	2530.875
1652.174	2444.54167
1655.16	2386.20833
1658.144	2321.875
1661.125	2221.875
1664.105	2140.54167
1667.082	2033.875
1670.057	1932.54167
1673.03	1821.54167
1676.001	1707.54167
1678.97	1618.54167
1681.937	1499.20833
1684.901	1425.20833
1687.863	1366.54167
1690.824	1304.54167
1693.782	1306.20833
1696.738	1242.54167
1699.692	1218.875
1702.643	1190.54167
1705.593	1182.20833
1708.54	1177.54167
1711.486	1157.54167
1714.429	1134.54167
1717.37	1118.54167
1720.309	1099.54167
1723.246	1102.875
1726.181	1082.875
1729.113	1084.54167
1732.044	1071.875
1734.972	1072.875
1737.899	1056.20833
1740.823	1057.875
1743.745	1021.54167
1746.665	1021.54167
1749.583	994.875
1752.499	998.20833
1755.413	985.20833
1758.325	952.54167
1761.235	958.20833
1764.142	946.54167
1767.048	931.20833
1769.951	924.54167
1772.852	923.20833
1775.752	924.20833
1778.649	916.20833
1781.544	918.20833
1784.437	893.20833
1787.328	903.875
1790.217	898.875
1793.104	862.875
1795.989	884.875
1798.872	865.54167
1801.753	883.54167
1804.631	878.875
1807.508	887.54167
1810.383	875.20833
1813.255	868.54167
1816.126	879.20833
1818.994	870.875
1821.861	854.875
1824.725	856.54167
1827.587	859.875
1830.448	839.20833
1833.306	834.875
1836.162	846.875
1839.017	829.20833
1841.869	824.54167
1844.719	830.875
1847.567	799.875
1850.414	812.875
1853.258	822.20833
1856.1	825.20833
1858.94	830.875
1861.778	808.54167
1864.614	816.20833
1867.448	824.875
1870.28	803.875
1873.111	832.875
1875.939	807.54167
1878.765	827.54167
1881.589	806.54167
1884.411	814.54167
1887.231	802.54167
1890.049	804.54167
1892.865	805.875
1895.68	777.875
1898.492	796.20833
1901.302	802.20833
1904.11	786.54167
1906.916	779.20833
1909.721	784.54167
1912.523	791.875
1915.323	780.875
1918.122	762.20833
1920.918	782.875
1923.712	760.20833
1926.505	775.54167
1929.295	765.54167
1932.084	767.54167
1934.87	775.875
1937.655	762.875
1940.438	762.20833
1943.218	764.54167
1945.997	782.54167
1948.774	781.875
1951.549	780.20833
1954.322	759.20833
1957.093	761.20833
1959.862	762.875
1962.629	758.20833
1965.394	746.875
1968.157	745.20833
1970.918	740.875
1973.678	729.875
1976.435	750.875
1979.19	740.54167
1981.944	736.875
1984.696	742.875
1987.445	725.20833
1990.193	726.54167
1992.939	740.54167
1995.683	731.875
1998.425	708.54167
2001.165	748.20833
2003.903	729.875
2006.639	726.20833
2009.374	745.20833
2012.106	741.20833
2014.837	721.54167
2017.566	730.20833
2020.292	735.875
2023.017	733.54167
2025.74	728.875
2028.461	720.54167
2031.18	734.875
2033.898	719.54167
2036.613	719.20833
2039.327	726.54167
2042.038	701.875
2044.748	717.20833
2047.456	714.875
2050.162	708.875
2052.866	718.54167
2055.568	726.875
2058.268	700.875
2060.967	722.875
2063.663	706.54167
2066.358	708.20833
2069.051	707.20833
2071.742	708.875
2074.431	699.875
2077.118	707.20833
2079.804	697.20833
2082.487	715.54167
2085.169	714.54167
2087.849	740.20833
2090.527	710.875
2093.203	722.875
2095.877	724.54167
2098.55	720.54167
2101.22	729.20833
2103.889	743.875
2106.556	741.54167
2109.221	759.20833
2111.884	776.54167
2114.546	823.20833
2117.205	847.875
2119.863	909.20833
2122.519	952.875
2125.173	995.54167
2127.825	1038.54167
2130.475	1046.875
2133.124	1004.875
2135.771	975.54167
2138.416	926.20833
2141.059	885.20833
2143.7	861.20833
2146.339	823.54167
2148.977	765.875
2151.613	774.54167
2154.247	765.54167
2156.879	748.875
2159.51	730.20833
2162.138	716.20833
2164.765	716.54167
2167.39	700.875
2170.013	724.875
2172.634	722.54167
2175.254	706.20833
2177.872	740.875
2180.488	692.54167
2183.102	700.875
2185.714	686.20833
2188.325	680.20833
2190.934	699.20833
2193.541	686.20833
2196.146	675.875
2198.75	670.20833
2201.351	675.875
2203.951	665.20833
2206.549	679.54167
2209.146	677.54167
2211.74	673.875
2214.333	673.20833
2216.924	651.875
2219.514	671.20833
2222.101	653.875
2224.687	680.54167
2227.271	654.875
2229.853	650.875
2232.433	652.875
2235.012	666.20833
2237.589	672.875
2240.164	682.54167
2242.738	653.54167
2245.309	645.54167
2247.879	671.875
2250.448	674.20833
2253.014	660.20833
2255.579	641.20833
2258.142	648.20833
2260.703	641.54167
2263.262	640.875
2265.82	642.20833
2268.376	640.20833
2270.93	621.54167
2273.483	641.20833
2276.033	645.875
2278.583	637.54167
2281.13	640.54167
2283.675	632.875
2286.219	636.20833
2288.761	640.20833
2291.302	649.54167
2293.841	652.54167
2296.377	632.20833
2298.913	637.20833
2301.446	645.54167
2303.978	644.20833
2306.508	633.54167
2309.037	643.20833
2311.563	645.20833
2314.088	644.54167
2316.612	619.875
2319.133	642.54167
2321.653	645.875
2324.171	631.875
2326.688	653.20833
2329.202	640.54167
2331.715	635.54167
2334.227	633.20833
2336.736	641.54167
2339.244	641.20833
2341.751	636.20833
2344.255	645.875
2346.758	637.20833
2349.259	616.54167
2351.759	629.20833
2354.257	630.875
2356.753	630.20833
2359.247	636.875
2361.74	651.54167
2364.231	653.20833
2366.721	647.20833
2369.209	642.20833
2371.695	654.875
2374.179	642.875
2376.662	638.54167
2379.143	665.54167
2381.622	655.54167
2384.1	654.54167
2386.576	637.20833
2389.051	665.54167
2391.524	676.20833
2393.995	664.54167
2396.464	652.20833
2398.932	650.875
2401.398	653.875
2403.863	662.54167
2406.325	663.875
2408.787	656.20833
2411.246	660.54167
2413.704	649.20833
2416.16	659.875
2418.615	658.20833
2421.068	670.54167
2423.519	672.54167
2425.969	667.875
2428.417	678.54167
2430.863	694.875
2433.308	681.875
2435.751	679.20833
2438.193	678.54167
2440.633	677.875
2443.071	681.20833
2445.508	666.875
2447.943	673.54167
2450.376	677.54167
2452.808	675.20833
2455.238	673.875
2457.667	716.54167
2460.093	684.54167
2462.519	683.20833
2464.942	692.875
2467.365	688.875
2469.785	689.20833
2472.204	688.54167
2474.621	689.875
2477.037	720.20833
2479.451	685.875
2481.863	687.20833
2484.274	686.54167
2486.683	702.875
2489.091	700.875
2491.497	702.875
2493.901	706.875
2496.304	697.875
2498.705	711.54167
2501.105	694.875
2503.503	730.875
2505.899	701.875
2508.294	722.54167
2510.687	712.20833
2513.079	721.20833
2515.469	702.54167
2517.858	711.875
2520.245	717.20833
2522.63	711.875
2525.014	701.20833
2527.396	705.875
2529.776	695.54167
2532.156	728.20833
2534.533	720.20833
2536.909	715.20833
2539.283	703.875
2541.656	725.54167
2544.027	746.875
2546.397	729.875
2548.765	731.875
2551.131	732.20833
2553.496	733.875
2555.86	754.875
2558.221	729.20833
2560.582	738.54167
2562.94	729.875
2565.298	745.54167
2567.653	752.54167
2570.007	729.54167
2572.36	746.875
2574.711	745.54167
2577.06	773.54167
2579.408	756.875
2581.754	758.875
2584.099	753.20833
2586.442	757.875
2588.784	768.54167
2591.124	775.875
2593.463	770.875
2595.8	760.54167
2598.135	764.54167
2600.469	770.20833
2602.802	771.875
2605.133	777.54167
2607.462	768.54167
2609.79	763.54167
2612.116	787.54167
2614.441	787.875
2616.764	788.54167
2619.086	772.875
2621.406	780.20833
2623.725	804.20833
2626.042	791.54167
2628.358	795.875
2630.672	802.54167
2632.985	828.54167
2635.296	810.54167
2637.606	802.875
2639.914	800.875
2642.22	815.20833
2644.525	815.875
2646.829	835.20833
2649.131	836.54167
2651.432	834.875
2653.731	828.20833
2656.028	846.54167
2658.324	864.20833
2660.619	845.875
2662.912	837.875
2665.204	837.54167
2667.494	856.875
2669.782	839.20833
2672.07	861.875
2674.355	855.20833
2676.639	851.20833
2678.922	844.875
2681.203	855.875
2683.483	851.54167
2685.761	850.875
2688.038	874.54167
2690.313	879.875
2692.587	875.54167
2694.859	877.20833
2697.13	884.54167
2699.399	886.54167
2701.667	901.20833
2703.933	893.20833
2706.198	890.875
2708.461	897.20833
2710.723	912.54167
2712.984	926.54167
2715.243	914.20833
2717.5	907.875
2719.757	930.20833
2722.011	934.54167
2724.264	950.20833
2726.516	941.875
2728.766	943.875
2731.015	959.875
2733.262	965.54167
2735.508	955.875
2737.753	965.875
2739.996	939.20833
2742.237	926.20833
2744.477	951.875
2746.716	959.875
2748.953	942.875
2751.189	951.54167
2753.423	941.20833
2755.656	935.20833
2757.887	933.875
2760.117	937.54167
2762.346	936.20833
2764.573	937.875
2766.798	958.54167
2769.022	955.20833
2771.245	949.875
2773.467	950.20833
2775.686	963.875
2777.905	969.54167
2780.122	972.20833
2782.337	971.54167
2784.552	980.54167
2786.764	965.54167
2788.976	986.875
2791.186	991.54167
2793.394	1005.54167
2795.601	1017.875
2797.807	1038.20833
2800.011	1035.54167
2802.214	1026.875
2804.415	1039.54167
2806.615	1056.20833
2808.814	1042.875
2811.011	1047.875
2813.206	1049.875
2815.401	1068.54167
2817.594	1075.875
2819.785	1076.875
2821.975	1058.875
2824.164	1073.875
2826.351	1096.875
2828.537	1100.20833
2830.722	1112.20833
2832.905	1106.20833
2835.086	1138.20833
2837.267	1164.54167
2839.445	1177.875
2841.623	1197.54167
2843.799	1214.54167
2845.974	1235.875
2848.147	1262.20833
2850.319	1307.875
2852.489	1328.54167
2854.659	1329.875
2856.826	1347.20833
2858.993	1372.20833
2861.158	1353.875
2863.321	1360.54167
2865.483	1375.20833
2867.644	1384.20833
2869.804	1375.54167
2871.962	1377.20833
2874.118	1360.875
2876.274	1364.875
2878.428	1354.54167
2880.58	1357.54167
2882.731	1334.20833
2884.881	1349.875
2887.03	1368.20833
2889.177	1345.875
2891.322	1369.875
2893.467	1370.54167
2895.61	1368.20833
2897.751	1392.20833
2899.892	1397.54167
2902.03	1401.875
2904.168	1396.875
2906.304	1414.20833
2908.439	1438.54167
2910.572	1430.54167
2912.704	1430.54167
2914.835	1442.20833
2916.965	1431.20833
2919.093	1443.54167
2921.219	1417.875
2923.345	1447.54167
2925.469	1404.20833
2927.591	1419.54167
2929.712	1384.54167
2931.832	1385.875
2933.951	1370.875
2936.068	1337.875
2938.184	1343.875
2940.299	1317.20833
2942.412	1307.20833
2944.524	1287.20833
2946.634	1277.54167
2948.744	1231.54167
2950.851	1273.54167
2952.958	1250.54167
2955.063	1227.54167
2957.167	1241.875
2959.269	1223.875
2961.371	1246.20833
2963.471	1218.875
2965.569	1227.20833
2967.666	1201.54167
2969.762	1191.54167
2971.857	1182.875
2973.95	1184.54167
2976.042	1168.20833
2978.133	1144.875
2980.222	1127.20833
2982.31	1112.54167
2984.396	1100.20833
2986.482	1101.54167
2988.566	1090.20833
2990.648	1079.54167
2992.73	1085.20833
2994.81	1072.20833
2996.889	1070.875
2998.966	1086.20833
3001.042	1077.54167
3003.117	1091.54167
3005.191	1076.875
3007.263	1081.20833
3009.334	1061.20833
3011.403	1075.20833
3013.472	1044.20833
3015.539	1052.20833
3017.604	1045.20833
3019.669	997.54167
3021.732	1030.20833
3023.794	1008.20833
3025.854	996.875
3027.914	1004.20833
3029.971	1018.875
3032.028	1005.20833
3034.083	993.54167
3036.137	988.54167
3038.19	951.875
3040.242	937.20833
3042.292	922.875
3044.341	911.54167
3046.388	921.54167
3048.435	886.875
3050.48	909.875
3052.524	908.20833
3054.566	884.54167
3056.607	884.875
3058.647	871.20833
3060.686	848.54167
3062.723	826.54167
3064.759	786.20833
3066.794	0.875
3068.828	1.54167
3070.86	2.20833
