-0.839	678.29167
3.438	784.625
7.711	222.625
11.981	73.29167
16.247	50.95833
20.509	52.29167
24.768	51.95833
29.024	53.95833
33.276	49.95833
37.524	50.29167
41.769	51.29167
46.01	38.95833
50.247	49.625
54.481	63.625
58.712	64.625
62.939	46.625
67.162	66.29167
71.382	58.625
75.599	46.95833
79.812	60.95833
84.021	83.625
88.227	61.95833
92.429	62.625
96.628	57.29167
100.823	71.625
105.015	76.95833
109.204	67.95833
113.388	79.29167
117.57	76.95833
121.748	89.625
125.922	84.95833
130.093	105.29167
134.261	102.95833
138.425	100.29167
142.585	141.29167
146.742	138.29167
150.896	166.29167
155.046	209.29167
159.193	330.29167
163.336	547.29167
167.476	1031.95833
171.613	1890.29167
175.746	3150.625
179.875	4724.29167
184.002	6162.625
188.124	7234.625
192.244	7601.95833
196.36	7529.625
200.472	7324.95833
204.581	7138.625
208.687	6971.625
212.79	6842.29167
216.889	6836.625
220.984	6841.29167
225.077	6841.95833
229.165	6837.95833
233.251	6856.95833
237.333	6829.625
241.412	6719.29167
245.487	6667.29167
249.559	6584.29167
253.628	6549.29167
257.694	6476.29167
261.756	6406.95833
265.814	6281.29167
269.87	6092.95833
273.922	5893.95833
277.97	5765.625
282.016	5690.95833
286.058	5737.29167
290.097	5847.95833
294.132	5889.95833
298.164	5862.29167
302.193	5586.29167
306.219	5195.29167
310.241	4798.29167
314.26	4423.95833
318.276	4141.95833
322.288	3950.625
326.297	3784.95833
330.303	3675.625
334.305	3600.625
338.305	3570.95833
342.301	3483.625
346.294	3489.625
350.283	3459.29167
354.269	3428.95833
358.252	3423.95833
362.232	3406.625
366.209	3401.95833
370.182	3362.29167
374.152	3332.625
378.119	3354.95833
382.083	3355.95833
386.043	3368.95833
390	3347.29167
393.954	3341.29167
397.905	3329.95833
401.852	3318.95833
405.797	3268.95833
409.738	3257.29167
413.676	3255.625
417.61	3271.625
421.542	3259.29167
425.47	3196.95833
429.396	3195.95833
433.318	3178.625
437.236	3148.625
441.152	3197.29167
445.065	3112.95833
448.974	3142.29167
452.88	3084.95833
456.783	3117.95833
460.683	3094.625
464.58	3091.29167
468.473	3089.29167
472.364	3103.95833
476.251	3134.29167
480.135	3127.625
484.016	3190.625
487.894	3219.29167
491.769	3225.625
495.641	3247.95833
499.509	3260.95833
503.375	3257.625
507.237	3240.95833
511.096	3220.29167
514.952	3248.29167
518.805	3265.625
522.655	3256.95833
526.502	3217.29167
530.346	3180.625
534.187	3189.29167
538.024	3192.95833
541.859	3233.625
545.69	3250.625
549.519	3236.95833
553.344	3201.95833
557.166	3131.95833
560.985	3120.625
564.802	3046.625
568.615	3009.95833
572.425	2994.95833
576.232	2980.625
580.036	2946.625
583.836	2967.625
587.634	2968.29167
591.429	2980.29167
595.221	3084.625
599.01	3079.29167
602.796	3126.625
606.578	3130.625
610.358	3138.29167
614.135	3094.29167
617.909	3079.625
621.679	3057.95833
625.447	3010.95833
629.212	3026.625
632.973	3030.95833
636.732	3039.625
640.488	3035.95833
644.241	3009.95833
647.991	3009.95833
651.737	3029.95833
655.481	2991.95833
659.222	2992.95833
662.96	2980.625
666.695	2998.95833
670.427	3030.95833
674.156	3050.29167
677.882	3004.95833
681.605	3030.95833
685.325	2985.625
689.043	2983.625
692.757	2962.625
696.468	2959.625
700.177	2958.625
703.882	2946.625
707.585	2925.95833
711.284	2894.625
714.981	2906.29167
718.675	2912.29167
722.366	2955.625
726.054	2906.29167
729.739	2912.95833
733.421	2914.625
737.1	2904.625
740.777	2927.625
744.45	2923.95833
748.121	2949.625
751.789	3011.625
755.453	2998.95833
759.115	3036.95833
762.774	3041.29167
766.431	3063.29167
770.084	3081.95833
773.734	3088.625
777.382	3149.95833
781.027	3167.625
784.669	3179.29167
788.308	3188.29167
791.944	3203.95833
795.577	3222.95833
799.208	3244.625
802.835	3248.625
806.46	3295.29167
810.082	3278.95833
813.701	3326.625
817.317	3316.29167
820.931	3316.95833
824.542	3341.95833
828.149	3290.625
831.754	3242.625
835.357	3244.625
838.956	3271.95833
842.553	3260.625
846.146	3233.95833
849.737	3203.95833
853.326	3191.29167
856.911	3195.95833
860.493	3216.95833
864.073	3274.95833
867.65	3282.29167
871.225	3313.95833
874.796	3325.29167
878.365	3336.625
881.931	3343.625
885.494	3404.625
889.054	3419.625
892.612	3453.625
896.166	3452.95833
899.719	3420.625
903.268	3362.29167
906.814	3325.625
910.358	3247.625
913.899	3235.29167
917.438	3215.625
920.973	3198.29167
924.506	3227.625
928.036	3280.625
931.564	3320.95833
935.088	3378.625
938.61	3394.95833
942.129	3425.95833
945.646	3474.625
949.16	3540.29167
952.671	3598.625
956.179	3577.29167
959.685	3526.625
963.188	3531.625
966.688	3497.29167
970.185	3423.29167
973.68	3347.625
977.173	3295.29167
980.662	3261.29167
984.149	3259.625
987.633	3265.625
991.114	3299.625
994.593	3339.95833
998.069	3446.95833
1001.542	3528.29167
1005.013	3455.625
1008.481	3315.625
1011.947	3233.625
1015.409	3223.95833
1018.869	3207.95833
1022.327	3205.29167
1025.782	3198.625
1029.234	3200.95833
1032.683	3157.625
1036.13	3060.625
1039.574	2956.95833
1043.016	2867.29167
1046.455	2820.95833
1049.891	2799.95833
1053.325	2796.625
1056.756	2796.625
1060.184	2827.625
1063.61	2814.95833
1067.033	2837.29167
1070.454	2834.29167
1073.872	2888.29167
1077.287	2880.29167
1080.7	2869.29167
1084.11	2860.625
1087.517	2850.625
1090.922	2783.29167
1094.325	2768.95833
1097.724	2763.625
1101.122	2726.625
1104.516	2730.95833
1107.908	2759.95833
1111.298	2793.95833
1114.684	2822.95833
1118.069	2866.625
1121.45	2891.95833
1124.83	2862.625
1128.206	2890.625
1131.58	2942.625
1134.951	3009.625
1138.32	3091.95833
1141.687	3204.29167
1145.05	3286.625
1148.412	3283.29167
1151.77	3279.625
1155.126	3257.95833
1158.48	3220.95833
1161.831	3226.95833
1165.18	3237.625
1168.525	3294.29167
1171.869	3310.625
1175.21	3310.625
1178.548	3383.29167
1181.884	3389.29167
1185.217	3423.95833
1188.548	3528.625
1191.877	3541.29167
1195.202	3646.625
1198.526	3712.625
1201.846	3757.95833
1205.165	3747.29167
1208.48	3756.95833
1211.794	3708.29167
1215.104	3757.625
1218.413	3758.95833
1221.719	3739.29167
1225.022	3711.29167
1228.323	3640.625
1231.621	3610.625
1234.917	3590.29167
1238.21	3611.95833
1241.501	3583.29167
1244.79	3594.29167
1248.076	3594.625
1251.359	3645.29167
1254.64	3722.95833
1257.919	3729.95833
1261.195	3769.29167
1264.468	3852.29167
1267.74	3877.625
1271.008	3889.625
1274.275	3885.29167
1277.538	3838.625
1280.8	3842.625
1284.059	3826.95833
1287.315	3850.625
1290.569	3894.625
1293.821	3898.625
1297.07	3930.29167
1300.317	3943.29167
1303.562	3901.29167
1306.803	3909.29167
1310.043	3860.29167
1313.28	3836.95833
1316.515	3800.625
1319.747	3823.29167
1322.977	3797.95833
1326.204	3779.95833
1329.429	3741.29167
1332.652	3727.95833
1335.872	3688.625
1339.09	3639.29167
1342.306	3612.625
1345.519	3581.29167
1348.729	3514.29167
1351.938	3512.29167
1355.144	3474.95833
1358.347	3416.625
1361.548	3377.625
1364.747	3411.29167
1367.944	3360.95833
1371.138	3395.95833
1374.329	3392.95833
1377.518	3445.625
1380.705	3477.95833
1383.89	3453.625
1387.072	3337.625
1390.252	3207.95833
1393.429	3085.625
1396.605	3000.29167
1399.777	2914.625
1402.948	2900.29167
1406.116	2914.95833
1409.282	2896.625
1412.445	2922.95833
1415.606	2930.625
1418.765	2955.625
1421.921	2990.95833
1425.075	3029.29167
1428.227	3136.95833
1431.376	3237.29167
1434.524	3359.29167
1437.668	3435.625
1440.811	3475.625
1443.951	3525.95833
1447.089	3527.29167
1450.224	3516.29167
1453.357	3490.29167
1456.488	3430.29167
1459.617	3406.29167
1462.743	3317.95833
1465.867	3241.29167
1468.989	3208.95833
1472.108	3161.95833
1475.225	3077.95833
1478.34	3061.29167
1481.453	3059.29167
1484.563	3054.29167
1487.671	3078.29167
1490.776	3126.29167
1493.88	3182.625
1496.981	3244.625
1500.08	3272.625
1503.176	3322.95833
1506.271	3361.95833
1509.363	3418.625
1512.452	3441.625
1515.54	3478.625
1518.625	3541.29167
1521.708	3613.95833
1524.789	3715.625
1527.867	3861.29167
1530.944	4057.625
1534.018	4242.95833
1537.089	4402.29167
1540.159	4469.625
1543.226	4448.95833
1546.291	4384.29167
1549.354	4275.625
1552.415	4182.625
1555.473	4131.625
1558.529	4005.625
1561.583	3971.29167
1564.634	3944.625
1567.684	3930.625
1570.731	3935.625
1573.776	3979.95833
1576.819	4053.95833
1579.859	4029.29167
1582.898	4075.29167
1585.934	4122.29167
1588.968	4148.95833
1591.999	4147.95833
1595.029	4125.625
1598.056	4186.95833
1601.081	4157.625
1604.104	4155.29167
1607.125	4146.95833
1610.144	4044.29167
1613.16	3966.95833
1616.174	3877.29167
1619.186	3806.625
1622.196	3702.95833
1625.203	3618.625
1628.209	3556.625
1631.212	3556.625
1634.213	3546.29167
1637.212	3582.95833
1640.209	3494.95833
1643.203	3429.29167
1646.196	3302.29167
1649.186	3192.625
1652.174	3079.95833
1655.16	2955.95833
1658.144	2869.95833
1661.125	2729.625
1664.105	2639.95833
1667.082	2498.95833
1670.057	2390.29167
1673.03	2246.29167
1676.001	2088.95833
1678.97	1975.95833
1681.937	1834.95833
1684.901	1733.625
1687.863	1691.625
1690.824	1599.95833
1693.782	1581.95833
1696.738	1521.29167
1699.692	1490.625
1702.643	1446.29167
1705.593	1420.625
1708.54	1421.625
1711.486	1403.29167
1714.429	1379.29167
1717.37	1354.95833
1720.309	1336.95833
1723.246	1333.29167
1726.181	1306.95833
1729.113	1310.625
1732.044	1299.95833
1734.972	1276.95833
1737.899	1268.95833
1740.823	1283.95833
1743.745	1240.625
1746.665	1229.95833
1749.583	1209.29167
1752.499	1185.29167
1755.413	1181.95833
1758.325	1140.29167
1761.235	1152.95833
1764.142	1137.29167
1767.048	1121.29167
1769.951	1111.29167
1772.852	1116.95833
1775.752	1115.95833
1778.649	1092.29167
1781.544	1104.95833
1784.437	1072.625
1787.328	1083.95833
1790.217	1056.625
1793.104	1053.625
1795.989	1042.95833
1798.872	1034.29167
1801.753	1059.95833
1804.631	1044.29167
1807.508	1035.625
1810.383	1053.625
1813.255	1040.29167
1816.126	1037.29167
1818.994	1023.95833
1821.861	1025.95833
1824.725	1020.95833
1827.587	1003.29167
1830.448	998.95833
1833.306	966.625
1836.162	979.95833
1839.017	977.625
1841.869	968.625
1844.719	975.625
1847.567	948.95833
1850.414	949.29167
1853.258	951.625
1856.1	952.95833
1858.94	964.95833
1861.778	935.29167
1864.614	937.29167
1867.448	948.625
1870.28	939.625
1873.111	969.29167
1875.939	951.625
1878.765	951.625
1881.589	946.625
1884.411	934.95833
1887.231	939.95833
1890.049	917.95833
1892.865	929.29167
1895.68	915.95833
1898.492	928.29167
1901.302	903.29167
1904.11	906.95833
1906.916	893.625
1909.721	883.625
1912.523	907.625
1915.323	878.29167
1918.122	886.29167
1920.918	898.95833
1923.712	881.95833
1926.505	867.95833
1929.295	854.625
1932.084	874.625
1934.87	886.625
1937.655	879.95833
1940.438	870.29167
1943.218	879.625
1945.997	872.625
1948.774	873.625
1951.549	878.625
1954.322	865.625
1957.093	864.625
1959.862	858.29167
1962.629	849.625
1965.394	839.29167
1968.157	839.29167
1970.918	826.95833
1973.678	826.95833
1976.435	832.625
1979.19	826.29167
1981.944	805.625
1984.696	817.29167
1987.445	810.625
1990.193	816.95833
1992.939	832.95833
1995.683	805.29167
1998.425	792.29167
2001.165	824.95833
2003.903	788.29167
2006.639	792.29167
2009.374	810.29167
2012.106	791.625
2014.837	793.29167
2017.566	800.29167
2020.292	792.29167
2023.017	794.29167
2025.74	785.29167
2028.461	768.29167
2031.18	786.29167
2033.898	775.625
2036.613	771.29167
2039.327	774.625
2042.038	765.29167
2044.748	759.95833
2047.456	765.625
2050.162	746.95833
2052.866	754.29167
2055.568	762.625
2058.268	750.625
2060.967	753.29167
2063.663	742.29167
2066.358	741.29167
2069.051	739.625
2071.742	745.95833
2074.431	749.625
2077.118	735.95833
2079.804	732.625
2082.487	727.29167
2085.169	744.625
2087.849	764.29167
2090.527	714.95833
2093.203	745.95833
2095.877	755.29167
2098.55	750.625
2101.22	760.95833
2103.889	761.95833
2106.556	763.95833
2109.221	798.625
2111.884	816.29167
2114.546	844.625
2117.205	893.95833
2119.863	988.29167
2122.519	1037.625
2125.173	1101.625
2127.825	1162.29167
2130.475	1172.95833
2133.124	1120.95833
2135.771	1069.625
2138.416	1034.95833
2141.059	956.625
2143.7	919.625
2146.339	869.625
2148.977	816.29167
2151.613	809.625
2154.247	779.29167
2156.879	760.625
2159.51	735.29167
2162.138	723.625
2164.765	718.29167
2167.39	695.95833
2170.013	722.95833
2172.634	717.625
2175.254	690.625
2177.872	718.625
2180.488	673.625
2183.102	680.95833
2185.714	676.625
2188.325	655.625
2190.934	665.29167
2193.541	671.625
2196.146	650.625
2198.75	633.625
2201.351	630.95833
2203.951	630.625
2206.549	641.29167
2209.146	633.625
2211.74	612.95833
2214.333	633.95833
2216.924	608.95833
2219.514	624.625
2222.101	613.625
2224.687	630.29167
2227.271	620.625
2229.853	595.95833
2232.433	591.625
2235.012	599.625
2237.589	602.29167
2240.164	620.29167
2242.738	600.625
2245.309	594.29167
2247.879	602.95833
2250.448	595.95833
2253.014	583.29167
2255.579	566.625
2258.142	564.625
2260.703	560.625
2263.262	562.29167
2265.82	560.29167
2268.376	554.625
2270.93	548.95833
2273.483	551.29167
2276.033	559.95833
2278.583	549.95833
2281.13	543.29167
2283.675	540.29167
2286.219	543.29167
2288.761	538.625
2291.302	537.29167
2293.841	538.95833
2296.377	524.29167
2298.913	535.625
2301.446	543.95833
2303.978	536.29167
2306.508	521.95833
2309.037	530.29167
2311.563	530.625
2314.088	528.95833
2316.612	502.95833
2319.133	513.29167
2321.653	507.29167
2324.171	509.625
2326.688	520.95833
2329.202	509.29167
2331.715	502.625
2334.227	501.95833
2336.736	509.625
2339.244	499.95833
2341.751	495.625
2344.255	507.29167
2346.758	498.29167
2349.259	486.625
2351.759	499.95833
2354.257	486.29167
2356.753	479.29167
2359.247	486.29167
2361.74	496.29167
2364.231	493.29167
2366.721	489.625
2369.209	474.29167
2371.695	490.29167
2374.179	478.29167
2376.662	476.29167
2379.143	491.95833
2381.622	470.29167
2384.1	483.625
2386.576	478.95833
2389.051	491.625
2391.524	488.29167
2393.995	471.625
2396.464	460.95833
2398.932	466.625
2401.398	462.29167
2403.863	472.625
2406.325	459.95833
2408.787	467.95833
2411.246	464.95833
2413.704	456.625
2416.16	455.29167
2418.615	455.29167
2421.068	469.625
2423.519	465.29167
2425.969	450.95833
2428.417	456.29167
2430.863	471.95833
2433.308	459.625
2435.751	461.95833
2438.193	445.95833
2440.633	452.625
2443.071	463.625
2445.508	448.95833
2447.943	435.95833
2450.376	436.29167
2452.808	447.29167
2455.238	436.95833
2457.667	474.625
2460.093	442.29167
2462.519	434.95833
2464.942	442.29167
2467.365	442.95833
2469.785	443.95833
2472.204	431.95833
2474.621	434.95833
2477.037	454.29167
2479.451	417.625
2481.863	419.95833
2484.274	425.95833
2486.683	430.95833
2489.091	431.29167
2491.497	428.29167
2493.901	433.95833
2496.304	428.95833
2498.705	421.625
2501.105	422.95833
2503.503	446.95833
2505.899	406.625
2508.294	440.95833
2510.687	424.95833
2513.079	421.625
2515.469	415.29167
2517.858	417.29167
2520.245	434.29167
2522.63	414.625
2525.014	414.625
2527.396	408.625
2529.776	398.95833
2532.156	415.95833
2534.533	407.29167
2536.909	402.29167
2539.283	397.29167
2541.656	399.625
2544.027	422.95833
2546.397	409.95833
2548.765	397.95833
2551.131	403.625
2553.496	407.95833
2555.86	415.625
2558.221	406.625
2560.582	403.625
2562.94	391.95833
2565.298	398.95833
2567.653	416.625
2570.007	392.95833
2572.36	404.95833
2574.711	389.625
2577.06	411.625
2579.408	405.625
2581.754	402.29167
2584.099	400.29167
2586.442	394.29167
2588.784	394.95833
2591.124	394.625
2593.463	395.95833
2595.8	405.29167
2598.135	385.29167
2600.469	379.29167
2602.802	391.95833
2605.133	402.625
2607.462	384.29167
2609.79	380.625
2612.116	392.29167
2614.441	403.95833
2616.764	388.29167
2619.086	398.95833
2621.406	384.29167
2623.725	411.29167
2626.042	397.29167
2628.358	386.29167
2630.672	386.95833
2632.985	397.95833
2635.296	395.625
2637.606	393.29167
2639.914	374.95833
2642.22	393.29167
2644.525	385.95833
2646.829	391.625
2649.131	408.95833
2651.432	413.95833
2653.731	391.625
2656.028	408.29167
2658.324	401.95833
2660.619	387.625
2662.912	398.95833
2665.204	375.625
2667.494	403.29167
2669.782	382.95833
2672.07	400.625
2674.355	407.29167
2676.639	394.29167
2678.922	390.95833
2681.203	394.625
2683.483	401.29167
2685.761	393.625
2688.038	399.625
2690.313	408.625
2692.587	403.29167
2694.859	386.29167
2697.13	401.95833
2699.399	411.625
2701.667	415.95833
2703.933	406.29167
2706.198	418.95833
2708.461	419.29167
2710.723	415.29167
2712.984	416.29167
2715.243	416.95833
2717.5	410.625
2719.757	424.625
2722.011	422.625
2724.264	428.625
2726.516	442.95833
2728.766	417.95833
2731.015	422.95833
2733.262	424.625
2735.508	427.625
2737.753	433.95833
2739.996	406.625
2742.237	401.95833
2744.477	418.625
2746.716	418.29167
2748.953	413.29167
2751.189	420.625
2753.423	407.625
2755.656	397.625
2757.887	402.29167
2760.117	389.95833
2762.346	396.29167
2764.573	385.625
2766.798	407.29167
2769.022	399.95833
2771.245	404.625
2773.467	396.29167
2775.686	405.95833
2777.905	406.29167
2780.122	405.95833
2782.337	418.625
2784.552	408.29167
2786.764	412.29167
2788.976	419.95833
2791.186	429.95833
2793.394	431.95833
2795.601	434.29167
2797.807	446.29167
2800.011	448.95833
2802.214	450.95833
2804.415	450.625
2806.615	445.29167
2808.814	456.29167
2811.011	460.625
2813.206	461.95833
2815.401	478.29167
2817.594	484.29167
2819.785	486.95833
2821.975	474.95833
2824.164	488.95833
2826.351	501.625
2828.537	520.625
2830.722	522.95833
2832.905	529.29167
2835.086	565.95833
2837.267	579.625
2839.445	584.625
2841.623	610.29167
2843.799	628.625
2845.974	655.95833
2848.147	688.625
2850.319	705.29167
2852.489	730.95833
2854.659	746.625
2856.826	759.29167
2858.993	790.29167
2861.158	769.95833
2863.321	771.625
2865.483	778.625
2867.644	789.29167
2869.804	782.29167
2871.962	775.95833
2874.118	789.29167
2876.274	775.95833
2878.428	777.29167
2880.58	775.625
2882.731	772.95833
2884.881	768.95833
2887.03	773.95833
2889.177	783.95833
2891.322	792.95833
2893.467	782.29167
2895.61	790.29167
2897.751	815.625
2899.892	801.95833
2902.03	795.625
2904.168	795.95833
2906.304	808.95833
2908.439	824.29167
2910.572	807.29167
2912.704	828.29167
2914.835	827.625
2916.965	833.625
2919.093	834.625
2921.219	801.95833
2923.345	826.29167
2925.469	802.29167
2927.591	809.29167
2929.712	761.625
2931.832	764.625
2933.951	744.625
2936.068	747.29167
2938.184	722.29167
2940.299	701.625
2942.412	701.95833
2944.524	657.95833
2946.634	651.29167
2948.744	602.29167
2950.851	639.625
2952.958	598.625
2955.063	597.625
2957.167	589.29167
2959.269	555.625
2961.371	585.625
2963.471	539.625
2965.569	555.95833
2967.666	523.625
2969.762	530.95833
2971.857	505.29167
2973.95	490.625
2976.042	489.29167
2978.133	467.29167
2980.222	468.625
2982.31	452.29167
2984.396	429.95833
2986.482	434.625
2988.566	422.625
2990.648	425.625
2992.73	414.95833
2994.81	397.625
2996.889	410.95833
2998.966	402.29167
3001.042	405.625
3003.117	398.625
3005.191	396.95833
3007.263	393.95833
3009.334	382.29167
3011.403	385.95833
3013.472	377.625
3015.539	378.29167
3017.604	386.625
3019.669	342.95833
3021.732	345.29167
3023.794	349.625
3025.854	352.29167
3027.914	346.625
3029.971	357.29167
3032.028	341.29167
3034.083	342.95833
3036.137	339.95833
3038.19	331.95833
3040.242	313.625
3042.292	311.29167
3044.341	309.95833
3046.388	324.625
3048.435	300.95833
3050.48	322.29167
3052.524	312.625
3054.566	301.95833
3056.607	311.95833
3058.647	299.95833
3060.686	290.625
3062.723	274.625
3064.759	260.95833
3066.794	-2.04167
3068.828	2.95833
3070.86	3.625
