-0.839	585.125
3.438	715.45833
7.711	210.125
11.981	66.45833
16.247	45.45833
20.509	52.125
24.768	49.79167
29.024	59.79167
33.276	42.45833
37.524	50.45833
41.769	52.79167
46.01	34.45833
50.247	47.79167
54.481	60.79167
58.712	63.79167
62.939	49.79167
67.162	68.45833
71.382	59.45833
75.599	47.125
79.812	59.79167
84.021	83.79167
88.227	68.125
92.429	63.45833
96.628	57.125
100.823	74.45833
105.015	80.125
109.204	69.45833
113.388	79.79167
117.57	84.45833
121.748	92.125
125.922	82.125
130.093	105.45833
134.261	102.45833
138.425	104.125
142.585	145.79167
146.742	144.125
150.896	178.45833
155.046	220.45833
159.193	337.45833
163.336	585.125
167.476	1098.125
171.613	1986.45833
175.746	3308.125
179.875	4906.79167
184.002	6425.79167
188.124	7469.125
192.244	7760.45833
196.36	7702.79167
200.472	7493.45833
204.581	7322.125
208.687	7085.79167
212.79	7030.45833
216.889	7029.125
220.984	7041.125
225.077	7072.125
229.165	7056.125
233.251	7036.45833
237.333	7016.79167
241.412	6938.79167
245.487	6868.45833
249.559	6727.45833
253.628	6738.79167
257.694	6656.45833
261.756	6594.79167
265.814	6469.79167
269.87	6277.79167
273.922	6054.45833
277.97	5963.125
282.016	5934.79167
286.058	5937.45833
290.097	6086.125
294.132	6153.79167
298.164	6064.125
302.193	5809.125
306.219	5367.125
310.241	4933.45833
314.26	4545.45833
318.276	4227.79167
322.288	4033.79167
326.297	3838.45833
330.303	3721.45833
334.305	3609.125
338.305	3556.79167
342.301	3495.125
346.294	3496.125
350.283	3465.79167
354.269	3420.45833
358.252	3392.45833
362.232	3390.125
366.209	3376.125
370.182	3323.125
374.152	3324.125
378.119	3341.125
382.083	3338.125
386.043	3337.125
390	3309.79167
393.954	3300.125
397.905	3280.125
401.852	3265.125
405.797	3213.125
409.738	3242.45833
413.676	3225.79167
417.61	3186.45833
421.542	3193.45833
425.47	3166.125
429.396	3140.45833
433.318	3133.45833
437.236	3139.125
441.152	3131.125
445.065	3089.45833
448.974	3073.45833
452.88	3040.45833
456.783	3015.79167
460.683	3026.79167
464.58	3010.45833
468.473	3005.45833
472.364	3028.45833
476.251	3045.79167
480.135	3070.45833
484.016	3107.45833
487.894	3131.45833
491.769	3132.125
495.641	3140.79167
499.509	3149.45833
503.375	3167.45833
507.237	3163.79167
511.096	3133.79167
514.952	3121.125
518.805	3123.125
522.655	3108.79167
526.502	3108.45833
530.346	3116.125
534.187	3127.79167
538.024	3130.79167
541.859	3148.79167
545.69	3189.79167
549.519	3144.79167
553.344	3161.79167
557.166	3096.45833
560.985	3033.45833
564.802	3021.125
568.615	2964.45833
572.425	2891.79167
576.232	2888.79167
580.036	2892.125
583.836	2881.125
587.634	2910.125
591.429	2944.79167
595.221	2957.45833
599.01	2992.125
602.796	3036.45833
606.578	3065.125
610.358	3055.125
614.135	3026.45833
617.909	3007.79167
621.679	2982.45833
625.447	2966.45833
629.212	2963.45833
632.973	2963.125
636.732	2946.45833
640.488	2945.79167
644.241	2931.45833
647.991	2917.125
651.737	2940.79167
655.481	2910.125
659.222	2914.79167
662.96	2909.125
666.695	2932.79167
670.427	2950.79167
674.156	2977.45833
677.882	2940.79167
681.605	2912.79167
685.325	2886.45833
689.043	2876.45833
692.757	2877.79167
696.468	2869.45833
700.177	2856.79167
703.882	2864.79167
707.585	2843.45833
711.284	2833.125
714.981	2825.45833
718.675	2828.45833
722.366	2852.79167
726.054	2823.45833
729.739	2833.45833
733.421	2837.45833
737.1	2831.125
740.777	2863.45833
744.45	2889.45833
748.121	2878.45833
751.789	2954.125
755.453	2968.79167
759.115	2962.79167
762.774	2968.45833
766.431	2991.45833
770.084	3043.45833
773.734	3051.45833
777.382	3105.79167
781.027	3135.79167
784.669	3138.79167
788.308	3152.45833
791.944	3176.125
795.577	3169.45833
799.208	3197.79167
802.835	3217.79167
806.46	3213.125
810.082	3251.45833
813.701	3238.125
817.317	3289.125
820.931	3279.125
824.542	3249.79167
828.149	3256.125
831.754	3234.45833
835.357	3211.125
838.956	3234.125
842.553	3221.125
846.146	3204.79167
849.737	3161.79167
853.326	3193.79167
856.911	3192.125
860.493	3245.45833
864.073	3262.45833
867.65	3289.45833
871.225	3329.125
874.796	3345.45833
878.365	3379.79167
881.931	3378.45833
885.494	3436.45833
889.054	3461.45833
892.612	3489.79167
896.166	3483.45833
899.719	3470.45833
903.268	3370.45833
906.814	3334.125
910.358	3306.45833
913.899	3283.45833
917.438	3265.45833
920.973	3268.79167
924.506	3293.79167
928.036	3346.125
931.564	3378.45833
935.088	3395.125
938.61	3424.79167
942.129	3464.79167
945.646	3537.79167
949.16	3592.125
952.671	3648.125
956.179	3640.79167
959.685	3585.79167
963.188	3564.125
966.688	3535.79167
970.185	3430.125
973.68	3377.125
977.173	3300.45833
980.662	3275.125
984.149	3232.79167
987.633	3242.125
991.114	3323.125
994.593	3360.45833
998.069	3446.125
1001.542	3531.125
1005.013	3469.79167
1008.481	3316.45833
1011.947	3245.79167
1015.409	3233.125
1018.869	3236.45833
1022.327	3241.45833
1025.782	3222.45833
1029.234	3212.45833
1032.683	3158.79167
1036.13	3065.125
1039.574	2955.45833
1043.016	2873.45833
1046.455	2819.79167
1049.891	2805.79167
1053.325	2782.79167
1056.756	2806.125
1060.184	2806.79167
1063.61	2839.125
1067.033	2842.79167
1070.454	2849.45833
1073.872	2895.79167
1077.287	2882.79167
1080.7	2859.45833
1084.11	2863.125
1087.517	2832.45833
1090.922	2790.45833
1094.325	2797.45833
1097.724	2772.45833
1101.122	2769.45833
1104.516	2777.125
1107.908	2764.125
1111.298	2814.79167
1114.684	2842.79167
1118.069	2879.45833
1121.45	2904.45833
1124.83	2920.125
1128.206	2964.125
1131.58	2997.125
1134.951	3064.125
1138.32	3189.79167
1141.687	3298.125
1145.05	3351.79167
1148.412	3353.45833
1151.77	3328.125
1155.126	3330.79167
1158.48	3290.125
1161.831	3334.79167
1165.18	3348.79167
1168.525	3409.125
1171.869	3415.45833
1175.21	3450.125
1178.548	3482.45833
1181.884	3538.45833
1185.217	3574.125
1188.548	3664.125
1191.877	3712.125
1195.202	3830.45833
1198.526	3936.79167
1201.846	3909.45833
1205.165	3935.125
1208.48	3903.79167
1211.794	3876.79167
1215.104	3868.45833
1218.413	3905.125
1221.719	3860.125
1225.022	3827.45833
1228.323	3773.79167
1231.621	3733.125
1234.917	3719.125
1238.21	3710.125
1241.501	3691.125
1244.79	3693.45833
1248.076	3721.45833
1251.359	3743.79167
1254.64	3793.125
1257.919	3844.79167
1261.195	3899.45833
1264.468	3950.125
1267.74	3994.79167
1271.008	4030.125
1274.275	4009.79167
1277.538	3995.79167
1280.8	3984.125
1284.059	3956.125
1287.315	4000.45833
1290.569	4016.79167
1293.821	4055.125
1297.07	4069.79167
1300.317	4066.125
1303.562	4073.79167
1306.803	4060.125
1310.043	4022.79167
1313.28	4019.45833
1316.515	3951.79167
1319.747	3949.79167
1322.977	3948.125
1326.204	3870.79167
1329.429	3822.45833
1332.652	3828.45833
1335.872	3792.45833
1339.09	3743.45833
1342.306	3686.125
1345.519	3634.45833
1348.729	3585.45833
1351.938	3584.45833
1355.144	3511.45833
1358.347	3477.45833
1361.548	3444.45833
1364.747	3455.79167
1367.944	3449.125
1371.138	3458.79167
1374.329	3468.45833
1377.518	3525.125
1380.705	3539.45833
1383.89	3499.45833
1387.072	3395.45833
1390.252	3274.125
1393.429	3153.79167
1396.605	3066.125
1399.777	3000.125
1402.948	2939.45833
1406.116	2937.79167
1409.282	2958.79167
1412.445	2974.45833
1415.606	2992.45833
1418.765	3033.45833
1421.921	3104.45833
1425.075	3154.79167
1428.227	3260.125
1431.376	3355.79167
1434.524	3455.79167
1437.668	3541.79167
1440.811	3587.45833
1443.951	3643.125
1447.089	3644.125
1450.224	3644.125
1453.357	3646.45833
1456.488	3568.125
1459.617	3527.45833
1462.743	3484.79167
1465.867	3369.125
1468.989	3347.79167
1472.108	3295.125
1475.225	3239.45833
1478.34	3173.45833
1481.453	3175.79167
1484.563	3197.45833
1487.671	3253.79167
1490.776	3290.125
1493.88	3351.45833
1496.981	3413.79167
1500.08	3465.45833
1503.176	3505.79167
1506.271	3553.79167
1509.363	3574.45833
1512.452	3621.45833
1515.54	3684.125
1518.625	3724.45833
1521.708	3777.125
1524.789	3906.79167
1527.867	4075.125
1530.944	4250.125
1534.018	4458.125
1537.089	4619.45833
1540.159	4702.125
1543.226	4666.125
1546.291	4599.79167
1549.354	4477.125
1552.415	4409.45833
1555.473	4293.125
1558.529	4241.45833
1561.583	4197.79167
1564.634	4163.45833
1567.684	4152.45833
1570.731	4158.79167
1573.776	4212.45833
1576.819	4283.125
1579.859	4333.79167
1582.898	4399.79167
1585.934	4429.45833
1588.968	4432.79167
1591.999	4443.45833
1595.029	4453.125
1598.056	4449.45833
1601.081	4479.125
1604.104	4481.79167
1607.125	4439.79167
1610.144	4339.125
1613.16	4229.45833
1616.174	4120.125
1619.186	4028.125
1622.196	3876.125
1625.203	3808.79167
1628.209	3745.125
1631.212	3658.125
1634.213	3654.45833
1637.212	3637.79167
1640.209	3576.79167
1643.203	3468.125
1646.196	3366.125
1649.186	3254.79167
1652.174	3140.45833
1655.16	3019.79167
1658.144	2924.125
1661.125	2775.45833
1664.105	2652.79167
1667.082	2570.79167
1670.057	2422.79167
1673.03	2260.45833
1676.001	2131.79167
1678.97	2012.79167
1681.937	1882.45833
1684.901	1781.79167
1687.863	1696.79167
1690.824	1635.45833
1693.782	1596.79167
1696.738	1535.79167
1699.692	1500.79167
1702.643	1463.125
1705.593	1447.45833
1708.54	1433.79167
1711.486	1422.125
1714.429	1377.79167
1717.37	1380.45833
1720.309	1344.45833
1723.246	1332.45833
1726.181	1328.125
1729.113	1325.79167
1732.044	1298.79167
1734.972	1299.125
1737.899	1291.79167
1740.823	1278.79167
1743.745	1238.125
1746.665	1230.45833
1749.583	1232.45833
1752.499	1184.45833
1755.413	1191.125
1758.325	1166.79167
1761.235	1154.79167
1764.142	1141.125
1767.048	1113.125
1769.951	1113.45833
1772.852	1101.45833
1775.752	1090.79167
1778.649	1092.125
1781.544	1117.125
1784.437	1083.79167
1787.328	1078.125
1790.217	1065.45833
1793.104	1042.79167
1795.989	1050.45833
1798.872	1045.125
1801.753	1060.45833
1804.631	1032.45833
1807.508	1046.79167
1810.383	1033.125
1813.255	1027.125
1816.126	1027.45833
1818.994	1024.45833
1821.861	1008.125
1824.725	1014.79167
1827.587	1007.79167
1830.448	1002.79167
1833.306	969.45833
1836.162	985.79167
1839.017	968.79167
1841.869	977.45833
1844.719	974.125
1847.567	957.79167
1850.414	954.79167
1853.258	949.125
1856.1	967.79167
1858.94	962.45833
1861.778	945.125
1864.614	948.45833
1867.448	948.125
1870.28	933.45833
1873.111	955.45833
1875.939	936.45833
1878.765	957.45833
1881.589	944.125
1884.411	930.125
1887.231	932.79167
1890.049	927.125
1892.865	923.125
1895.68	907.125
1898.492	911.125
1901.302	910.79167
1904.11	917.125
1906.916	904.45833
1909.721	901.125
1912.523	905.79167
1915.323	889.79167
1918.122	887.79167
1920.918	894.79167
1923.712	886.125
1926.505	872.45833
1929.295	865.79167
1932.084	892.45833
1934.87	892.45833
1937.655	869.45833
1940.438	866.125
1943.218	873.45833
1945.997	879.79167
1948.774	872.45833
1951.549	867.125
1954.322	858.45833
1957.093	855.79167
1959.862	850.79167
1962.629	853.125
1965.394	849.125
1968.157	839.125
1970.918	845.125
1973.678	828.125
1976.435	840.79167
1979.19	829.125
1981.944	834.125
1984.696	827.125
1987.445	809.45833
1990.193	818.45833
1992.939	828.45833
1995.683	810.79167
1998.425	791.79167
2001.165	832.125
2003.903	801.79167
2006.639	800.45833
2009.374	810.125
2012.106	818.45833
2014.837	791.79167
2017.566	801.45833
2020.292	797.45833
2023.017	796.79167
2025.74	787.79167
2028.461	791.45833
2031.18	772.125
2033.898	773.79167
2036.613	779.45833
2039.327	784.125
2042.038	772.79167
2044.748	768.45833
2047.456	784.45833
2050.162	765.45833
2052.866	768.125
2055.568	772.45833
2058.268	769.125
2060.967	764.45833
2063.663	745.79167
2066.358	755.45833
2069.051	741.79167
2071.742	762.125
2074.431	760.79167
2077.118	756.79167
2079.804	724.45833
2082.487	754.79167
2085.169	755.45833
2087.849	780.45833
2090.527	743.79167
2093.203	757.79167
2095.877	761.79167
2098.55	758.125
2101.22	770.45833
2103.889	783.45833
2106.556	787.125
2109.221	804.125
2111.884	821.125
2114.546	900.125
2117.205	954.125
2119.863	1038.79167
2122.519	1098.45833
2125.173	1163.45833
2127.825	1239.79167
2130.475	1237.79167
2133.124	1193.125
2135.771	1148.79167
2138.416	1095.125
2141.059	1018.45833
2143.7	967.125
2146.339	913.45833
2148.977	850.125
2151.613	837.79167
2154.247	803.125
2156.879	789.79167
2159.51	765.79167
2162.138	759.79167
2164.765	750.45833
2167.39	718.79167
2170.013	737.79167
2172.634	729.45833
2175.254	718.79167
2177.872	731.79167
2180.488	687.125
2183.102	712.79167
2185.714	695.45833
2188.325	667.45833
2190.934	669.125
2193.541	679.45833
2196.146	676.45833
2198.75	665.125
2201.351	660.45833
2203.951	651.79167
2206.549	655.45833
2209.146	654.125
2211.74	649.79167
2214.333	648.79167
2216.924	629.45833
2219.514	623.125
2222.101	623.45833
2224.687	640.79167
2227.271	621.79167
2229.853	611.125
2232.433	604.45833
2235.012	629.125
2237.589	619.125
2240.164	628.125
2242.738	603.79167
2245.309	611.45833
2247.879	610.125
2250.448	616.125
2253.014	593.45833
2255.579	578.125
2258.142	580.45833
2260.703	566.79167
2263.262	570.125
2265.82	566.125
2268.376	566.79167
2270.93	543.125
2273.483	558.45833
2276.033	561.45833
2278.583	550.125
2281.13	553.45833
2283.675	542.79167
2286.219	539.79167
2288.761	551.125
2291.302	545.45833
2293.841	547.79167
2296.377	517.79167
2298.913	533.125
2301.446	541.45833
2303.978	536.125
2306.508	523.45833
2309.037	533.45833
2311.563	528.45833
2314.088	526.79167
2316.612	516.45833
2319.133	524.125
2321.653	520.79167
2324.171	505.79167
2326.688	525.45833
2329.202	513.79167
2331.715	516.45833
2334.227	498.79167
2336.736	508.79167
2339.244	514.125
2341.751	493.79167
2344.255	515.79167
2346.758	505.79167
2349.259	492.125
2351.759	505.125
2354.257	491.125
2356.753	479.79167
2359.247	483.79167
2361.74	492.79167
2364.231	499.79167
2366.721	490.125
2369.209	481.125
2371.695	497.79167
2374.179	482.45833
2376.662	468.79167
2379.143	497.125
2381.622	472.45833
2384.1	493.125
2386.576	477.45833
2389.051	491.79167
2391.524	493.45833
2393.995	484.79167
2396.464	455.79167
2398.932	471.79167
2401.398	471.45833
2403.863	475.45833
2406.325	459.79167
2408.787	472.125
2411.246	460.125
2413.704	463.125
2416.16	458.79167
2418.615	452.125
2421.068	467.45833
2423.519	469.79167
2425.969	449.45833
2428.417	455.45833
2430.863	469.45833
2433.308	455.79167
2435.751	449.125
2438.193	453.79167
2440.633	458.45833
2443.071	453.79167
2445.508	445.45833
2447.943	443.79167
2450.376	442.79167
2452.808	439.125
2455.238	436.79167
2457.667	463.125
2460.093	447.79167
2462.519	431.45833
2464.942	436.79167
2467.365	444.125
2469.785	451.125
2472.204	435.79167
2474.621	431.125
2477.037	441.45833
2479.451	427.125
2481.863	420.125
2484.274	421.45833
2486.683	429.45833
2489.091	422.45833
2491.497	423.125
2493.901	433.45833
2496.304	417.79167
2498.705	426.79167
2501.105	415.79167
2503.503	446.45833
2505.899	400.79167
2508.294	426.79167
2510.687	405.79167
2513.079	415.79167
2515.469	412.125
2517.858	413.79167
2520.245	423.45833
2522.63	413.125
2525.014	409.125
2527.396	403.79167
2529.776	389.79167
2532.156	416.125
2534.533	400.125
2536.909	393.79167
2539.283	391.79167
2541.656	390.125
2544.027	405.79167
2546.397	396.125
2548.765	391.125
2551.131	390.45833
2553.496	391.79167
2555.86	398.125
2558.221	395.45833
2560.582	389.125
2562.94	383.79167
2565.298	395.79167
2567.653	415.79167
2570.007	380.79167
2572.36	403.45833
2574.711	381.125
2577.06	400.125
2579.408	390.45833
2581.754	381.125
2584.099	390.125
2586.442	380.125
2588.784	387.79167
2591.124	383.125
2593.463	382.79167
2595.8	387.45833
2598.135	371.79167
2600.469	373.79167
2602.802	391.125
2605.133	392.79167
2607.462	370.45833
2609.79	371.125
2612.116	377.79167
2614.441	385.45833
2616.764	382.79167
2619.086	376.79167
2621.406	372.79167
2623.725	381.45833
2626.042	385.45833
2628.358	364.125
2630.672	365.79167
2632.985	384.79167
2635.296	387.45833
2637.606	381.79167
2639.914	365.45833
2642.22	373.45833
2644.525	374.125
2646.829	383.79167
2649.131	384.45833
2651.432	383.45833
2653.731	380.125
2656.028	386.79167
2658.324	387.79167
2660.619	368.45833
2662.912	387.79167
2665.204	368.125
2667.494	374.45833
2669.782	375.125
2672.07	379.125
2674.355	386.45833
2676.639	380.79167
2678.922	370.79167
2681.203	371.125
2683.483	371.79167
2685.761	370.125
2688.038	383.125
2690.313	395.125
2692.587	387.45833
2694.859	383.79167
2697.13	387.45833
2699.399	396.125
2701.667	393.125
2703.933	389.125
2706.198	395.125
2708.461	394.79167
2710.723	407.79167
2712.984	400.45833
2715.243	400.125
2717.5	391.125
2719.757	416.45833
2722.011	405.45833
2724.264	418.45833
2726.516	417.125
2728.766	409.45833
2731.015	406.45833
2733.262	414.45833
2735.508	407.125
2737.753	405.125
2739.996	396.79167
2742.237	386.125
2744.477	411.79167
2746.716	392.79167
2748.953	386.79167
2751.189	392.79167
2753.423	384.45833
2755.656	380.79167
2757.887	390.45833
2760.117	378.125
2762.346	371.45833
2764.573	365.79167
2766.798	370.125
2769.022	379.45833
2771.245	385.125
2773.467	372.45833
2775.686	389.45833
2777.905	386.45833
2780.122	391.45833
2782.337	401.125
2784.552	392.45833
2786.764	394.79167
2788.976	401.79167
2791.186	396.79167
2793.394	407.79167
2795.601	411.125
2797.807	427.79167
2800.011	420.45833
2802.214	439.79167
2804.415	440.79167
2806.615	434.125
2808.814	441.125
2811.011	446.45833
2813.206	440.79167
2815.401	472.125
2817.594	468.45833
2819.785	480.125
2821.975	481.79167
2824.164	476.79167
2826.351	489.45833
2828.537	509.125
2830.722	530.45833
2832.905	527.125
2835.086	552.79167
2837.267	576.125
2839.445	598.125
2841.623	613.125
2843.799	641.125
2845.974	681.79167
2848.147	709.45833
2850.319	729.45833
2852.489	763.79167
2854.659	772.125
2856.826	785.79167
2858.993	818.125
2861.158	794.125
2863.321	798.45833
2865.483	819.45833
2867.644	815.45833
2869.804	816.79167
2871.962	799.125
2874.118	818.125
2876.274	800.45833
2878.428	804.125
2880.58	790.125
2882.731	794.45833
2884.881	804.79167
2887.03	805.79167
2889.177	816.45833
2891.322	812.125
2893.467	815.45833
2895.61	815.45833
2897.751	842.45833
2899.892	824.45833
2902.03	831.79167
2904.168	854.125
2906.304	844.79167
2908.439	875.45833
2910.572	861.79167
2912.704	861.125
2914.835	865.125
2916.965	867.79167
2919.093	873.79167
2921.219	842.45833
2923.345	859.45833
2925.469	824.45833
2927.591	843.45833
2929.712	792.45833
2931.832	792.125
2933.951	779.79167
2936.068	775.125
2938.184	754.79167
2940.299	722.125
2942.412	702.45833
2944.524	672.79167
2946.634	663.45833
2948.744	597.79167
2950.851	638.79167
2952.958	588.45833
2955.063	589.125
2957.167	575.79167
2959.269	538.45833
2961.371	577.125
2963.471	520.45833
2965.569	530.79167
2967.666	495.125
2969.762	492.45833
2971.857	479.79167
2973.95	464.45833
2976.042	464.79167
2978.133	440.45833
2980.222	437.79167
2982.31	418.79167
2984.396	399.45833
2986.482	400.79167
2988.566	394.125
2990.648	386.125
2992.73	377.45833
2994.81	365.45833
2996.889	371.79167
2998.966	368.125
3001.042	363.125
3003.117	352.45833
3005.191	354.79167
3007.263	356.79167
3009.334	340.45833
3011.403	339.125
3013.472	337.79167
3015.539	335.125
3017.604	336.125
3019.669	303.45833
3021.732	313.79167
3023.794	309.79167
3025.854	296.125
3027.914	302.79167
3029.971	306.125
3032.028	300.125
3034.083	296.79167
3036.137	300.125
3038.19	281.125
3040.242	274.125
3042.292	264.125
3044.341	271.125
3046.388	283.45833
3048.435	259.125
3050.48	278.45833
3052.524	258.79167
3054.566	252.79167
3056.607	262.45833
3058.647	253.79167
3060.686	237.45833
3062.723	233.45833
3064.759	220.79167
3066.794	-0.875
3068.828	1.79167
3070.86	3.125
