-0.839	443.125
3.438	521.125
7.711	160.79167
11.981	61.79167
16.247	42.45833
20.509	48.125
24.768	45.79167
29.024	50.45833
33.276	44.125
37.524	50.45833
41.769	46.125
46.01	30.125
50.247	45.125
54.481	55.45833
58.712	62.79167
62.939	47.79167
67.162	65.45833
71.382	54.45833
75.599	45.125
79.812	63.45833
84.021	76.45833
88.227	59.45833
92.429	59.125
96.628	52.79167
100.823	67.79167
105.015	74.79167
109.204	65.125
113.388	71.45833
117.57	77.125
121.748	79.79167
125.922	73.79167
130.093	95.125
134.261	95.45833
138.425	97.45833
142.585	137.125
146.742	127.79167
150.896	153.79167
155.046	195.125
159.193	297.45833
163.336	513.79167
167.476	936.125
171.613	1711.125
175.746	2848.45833
179.875	4199.45833
184.002	5426.125
188.124	6259.125
192.244	6462.79167
196.36	6403.45833
200.472	6149.45833
204.581	5920.125
208.687	5762.125
212.79	5639.125
216.889	5606.125
220.984	5568.125
225.077	5567.45833
229.165	5535.125
233.251	5509.45833
237.333	5468.79167
241.412	5409.45833
245.487	5313.125
249.559	5255.125
253.628	5214.45833
257.694	5144.45833
261.756	5110.79167
265.814	5028.45833
269.87	4878.125
273.922	4726.45833
277.97	4659.79167
282.016	4661.79167
286.058	4718.45833
290.097	4810.125
294.132	4902.125
298.164	4848.45833
302.193	4618.125
306.219	4283.125
310.241	3927.125
314.26	3619.79167
318.276	3366.125
322.288	3203.79167
326.297	3048.125
330.303	2951.79167
334.305	2896.79167
338.305	2840.45833
342.301	2774.45833
346.294	2752.125
350.283	2758.45833
354.269	2725.79167
358.252	2690.125
362.232	2669.79167
366.209	2665.79167
370.182	2628.79167
374.152	2609.45833
378.119	2610.125
382.083	2609.45833
386.043	2635.45833
390	2601.79167
393.954	2618.45833
397.905	2579.79167
401.852	2574.45833
405.797	2564.125
409.738	2549.79167
413.676	2554.79167
417.61	2549.125
421.542	2538.125
425.47	2496.125
429.396	2494.79167
433.318	2488.125
437.236	2458.79167
441.152	2498.125
445.065	2414.79167
448.974	2433.79167
452.88	2408.79167
456.783	2407.125
460.683	2368.45833
464.58	2380.125
468.473	2412.79167
472.364	2393.45833
476.251	2392.125
480.135	2432.125
484.016	2469.125
487.894	2486.45833
491.769	2499.79167
495.641	2503.79167
499.509	2506.45833
503.375	2534.45833
507.237	2527.125
511.096	2524.45833
514.952	2613.79167
518.805	2733.45833
522.655	2787.125
526.502	2621.125
530.346	2503.125
534.187	2486.125
538.024	2470.125
541.859	2486.45833
545.69	2507.79167
549.519	2489.125
553.344	2493.79167
557.166	2450.79167
560.985	2404.125
564.802	2364.79167
568.615	2309.45833
572.425	2300.79167
576.232	2308.79167
580.036	2288.45833
583.836	2318.45833
587.634	2304.45833
591.429	2316.45833
595.221	2366.79167
599.01	2404.45833
602.796	2414.125
606.578	2411.125
610.358	2410.45833
614.135	2397.125
617.909	2374.79167
621.679	2360.45833
625.447	2350.125
629.212	2342.125
632.973	2338.79167
636.732	2354.125
640.488	2345.125
644.241	2310.79167
647.991	2332.79167
651.737	2316.79167
655.481	2291.125
659.222	2305.45833
662.96	2304.125
666.695	2328.125
670.427	2330.125
674.156	2353.79167
677.882	2341.79167
681.605	2313.45833
685.325	2300.45833
689.043	2321.79167
692.757	2267.45833
696.468	2284.125
700.177	2299.79167
703.882	2253.79167
707.585	2256.125
711.284	2250.45833
714.981	2253.79167
718.675	2257.45833
722.366	2292.45833
726.054	2249.125
729.739	2247.79167
733.421	2253.79167
737.1	2241.79167
740.777	2254.125
744.45	2284.125
748.121	2303.125
751.789	2336.45833
755.453	2322.79167
759.115	2321.45833
762.774	2366.79167
766.431	2364.45833
770.084	2407.125
773.734	2384.45833
777.382	2434.125
781.027	2461.79167
784.669	2446.45833
788.308	2477.125
791.944	2506.45833
795.577	2498.125
799.208	2533.79167
802.835	2565.45833
806.46	2556.125
810.082	2567.45833
813.701	2576.79167
817.317	2580.45833
820.931	2591.79167
824.542	2588.45833
828.149	2558.79167
831.754	2552.125
835.357	2526.79167
838.956	2553.45833
842.553	2540.45833
846.146	2526.125
849.737	2503.79167
853.326	2503.125
856.911	2512.45833
860.493	2561.79167
864.073	2558.45833
867.65	2588.125
871.225	2615.125
874.796	2632.45833
878.365	2626.79167
881.931	2645.45833
885.494	2679.125
889.054	2688.125
892.612	2716.125
896.166	2714.45833
899.719	2711.125
903.268	2668.125
906.814	2633.125
910.358	2588.79167
913.899	2556.45833
917.438	2542.125
920.973	2539.79167
924.506	2554.125
928.036	2606.125
931.564	2618.45833
935.088	2659.45833
938.61	2657.125
942.129	2684.45833
945.646	2749.45833
949.16	2828.45833
952.671	2862.125
956.179	2838.79167
959.685	2820.45833
963.188	2769.125
966.688	2735.79167
970.185	2676.79167
973.68	2622.45833
977.173	2598.79167
980.662	2559.45833
984.149	2563.79167
987.633	2549.125
991.114	2584.125
994.593	2637.79167
998.069	2716.125
1001.542	2787.45833
1005.013	2727.45833
1008.481	2590.125
1011.947	2532.45833
1015.409	2543.79167
1018.869	2535.79167
1022.327	2536.79167
1025.782	2516.79167
1029.234	2523.45833
1032.683	2479.79167
1036.13	2428.125
1039.574	2339.125
1043.016	2264.125
1046.455	2225.45833
1049.891	2190.125
1053.325	2191.45833
1056.756	2197.45833
1060.184	2210.125
1063.61	2223.79167
1067.033	2247.79167
1070.454	2241.45833
1073.872	2279.45833
1077.287	2259.125
1080.7	2274.79167
1084.11	2264.125
1087.517	2233.125
1090.922	2206.79167
1094.325	2200.45833
1097.724	2170.45833
1101.122	2178.79167
1104.516	2184.45833
1107.908	2153.45833
1111.298	2214.125
1114.684	2224.79167
1118.069	2273.79167
1121.45	2291.45833
1124.83	2264.125
1128.206	2323.79167
1131.58	2358.79167
1134.951	2429.45833
1138.32	2481.45833
1141.687	2576.125
1145.05	2623.45833
1148.412	2615.79167
1151.77	2596.79167
1155.126	2568.79167
1158.48	2551.79167
1161.831	2577.45833
1165.18	2588.45833
1168.525	2620.125
1171.869	2647.125
1175.21	2658.45833
1178.548	2692.125
1181.884	2707.79167
1185.217	2711.125
1188.548	2805.79167
1191.877	2884.79167
1195.202	2929.45833
1198.526	3012.125
1201.846	3019.125
1205.165	3015.45833
1208.48	3017.79167
1211.794	2967.125
1215.104	3016.125
1218.413	2989.45833
1221.719	3000.125
1225.022	2971.125
1228.323	2905.79167
1231.621	2910.45833
1234.917	2856.125
1238.21	2892.125
1241.501	2859.125
1244.79	2866.45833
1248.076	2888.79167
1251.359	2891.125
1254.64	2936.79167
1257.919	2957.125
1261.195	3018.125
1264.468	3062.125
1267.74	3097.125
1271.008	3117.125
1274.275	3087.79167
1277.538	3079.45833
1280.8	3083.45833
1284.059	3057.45833
1287.315	3120.79167
1290.569	3133.125
1293.821	3120.45833
1297.07	3183.45833
1300.317	3178.125
1303.562	3170.125
1306.803	3132.125
1310.043	3108.45833
1313.28	3102.125
1316.515	3096.45833
1319.747	3093.79167
1322.977	3053.45833
1326.204	3017.45833
1329.429	2983.45833
1332.652	2990.125
1335.872	2951.125
1339.09	2935.45833
1342.306	2873.125
1345.519	2854.125
1348.729	2786.79167
1351.938	2807.125
1355.144	2767.45833
1358.347	2718.125
1361.548	2696.125
1364.747	2701.125
1367.944	2660.45833
1371.138	2708.79167
1374.329	2707.45833
1377.518	2747.79167
1380.705	2734.79167
1383.89	2729.79167
1387.072	2659.79167
1390.252	2558.79167
1393.429	2466.125
1396.605	2409.125
1399.777	2340.45833
1402.948	2327.79167
1406.116	2338.45833
1409.282	2340.125
1412.445	2338.79167
1415.606	2357.45833
1418.765	2390.79167
1421.921	2424.125
1425.075	2470.125
1428.227	2544.79167
1431.376	2622.45833
1434.524	2725.79167
1437.668	2787.45833
1440.811	2825.79167
1443.951	2843.79167
1447.089	2851.45833
1450.224	2852.79167
1453.357	2819.79167
1456.488	2766.125
1459.617	2751.79167
1462.743	2690.79167
1465.867	2618.45833
1468.989	2585.45833
1472.108	2531.79167
1475.225	2506.79167
1478.34	2448.45833
1481.453	2439.125
1484.563	2436.45833
1487.671	2498.125
1490.776	2509.79167
1493.88	2566.45833
1496.981	2588.125
1500.08	2638.79167
1503.176	2664.79167
1506.271	2678.125
1509.363	2734.45833
1512.452	2768.45833
1515.54	2801.125
1518.625	2814.45833
1521.708	2895.125
1524.789	2980.125
1527.867	3084.79167
1530.944	3255.79167
1534.018	3367.79167
1537.089	3514.79167
1540.159	3555.79167
1543.226	3566.125
1546.291	3514.125
1549.354	3443.79167
1552.415	3362.125
1555.473	3262.45833
1558.529	3217.125
1561.583	3176.125
1564.634	3158.45833
1567.684	3151.79167
1570.731	3173.45833
1573.776	3181.45833
1576.819	3240.45833
1579.859	3263.79167
1582.898	3261.45833
1585.934	3328.79167
1588.968	3341.125
1591.999	3310.79167
1595.029	3334.125
1598.056	3358.125
1601.081	3400.45833
1604.104	3379.79167
1607.125	3348.125
1610.144	3290.79167
1613.16	3191.125
1616.174	3126.45833
1619.186	3066.125
1622.196	2979.45833
1625.203	2906.79167
1628.209	2846.45833
1631.212	2816.45833
1634.213	2800.125
1637.212	2787.45833
1640.209	2740.125
1643.203	2681.45833
1646.196	2588.45833
1649.186	2514.125
1652.174	2428.79167
1655.16	2372.125
1658.144	2309.125
1661.125	2191.45833
1664.105	2132.125
1667.082	2031.79167
1670.057	1918.125
1673.03	1807.45833
1676.001	1699.125
1678.97	1594.125
1681.937	1481.125
1684.901	1423.79167
1687.863	1365.45833
1690.824	1297.79167
1693.782	1290.79167
1696.738	1230.125
1699.692	1217.125
1702.643	1177.125
1705.593	1156.79167
1708.54	1162.45833
1711.486	1157.45833
1714.429	1111.79167
1717.37	1111.45833
1720.309	1068.45833
1723.246	1093.45833
1726.181	1073.45833
1729.113	1070.79167
1732.044	1054.79167
1734.972	1055.125
1737.899	1058.125
1740.823	1041.45833
1743.745	998.79167
1746.665	1007.45833
1749.583	988.125
1752.499	978.125
1755.413	968.45833
1758.325	942.79167
1761.235	938.45833
1764.142	928.125
1767.048	912.45833
1769.951	920.79167
1772.852	907.125
1775.752	905.45833
1778.649	908.125
1781.544	918.79167
1784.437	880.45833
1787.328	890.45833
1790.217	871.79167
1793.104	850.125
1795.989	863.45833
1798.872	860.79167
1801.753	871.125
1804.631	870.125
1807.508	879.45833
1810.383	862.45833
1813.255	849.79167
1816.126	856.125
1818.994	846.125
1821.861	835.125
1824.725	859.45833
1827.587	840.125
1830.448	829.125
1833.306	822.45833
1836.162	829.125
1839.017	812.79167
1841.869	812.45833
1844.719	813.79167
1847.567	813.125
1850.414	788.45833
1853.258	808.125
1856.1	814.79167
1858.94	811.79167
1861.778	801.125
1864.614	796.125
1867.448	803.45833
1870.28	787.79167
1873.111	822.125
1875.939	804.45833
1878.765	818.79167
1881.589	803.79167
1884.411	795.125
1887.231	800.45833
1890.049	798.125
1892.865	793.45833
1895.68	787.45833
1898.492	800.125
1901.302	776.79167
1904.11	781.79167
1906.916	774.125
1909.721	754.125
1912.523	780.125
1915.323	761.125
1918.122	759.45833
1920.918	775.125
1923.712	768.45833
1926.505	764.125
1929.295	756.79167
1932.084	761.45833
1934.87	754.45833
1937.655	759.125
1940.438	756.79167
1943.218	753.125
1945.997	761.125
1948.774	774.45833
1951.549	772.79167
1954.322	764.79167
1957.093	761.79167
1959.862	748.79167
1962.629	741.79167
1965.394	743.79167
1968.157	734.45833
1970.918	727.125
1973.678	725.45833
1976.435	738.125
1979.19	735.79167
1981.944	722.125
1984.696	710.79167
1987.445	711.79167
1990.193	721.79167
1992.939	743.79167
1995.683	719.79167
1998.425	709.45833
2001.165	744.79167
2003.903	717.125
2006.639	731.125
2009.374	718.125
2012.106	733.45833
2014.837	701.79167
2017.566	721.79167
2020.292	722.45833
2023.017	716.125
2025.74	714.45833
2028.461	718.79167
2031.18	710.79167
2033.898	705.45833
2036.613	704.125
2039.327	713.45833
2042.038	703.125
2044.748	694.45833
2047.456	703.125
2050.162	693.125
2052.866	693.45833
2055.568	715.79167
2058.268	694.79167
2060.967	708.79167
2063.663	684.79167
2066.358	695.45833
2069.051	692.45833
2071.742	701.125
2074.431	709.79167
2077.118	702.45833
2079.804	697.125
2082.487	702.79167
2085.169	696.79167
2087.849	712.125
2090.527	686.125
2093.203	709.125
2095.877	716.45833
2098.55	715.45833
2101.22	714.79167
2103.889	728.79167
2106.556	721.79167
2109.221	756.125
2111.884	753.45833
2114.546	815.125
2117.205	855.125
2119.863	902.125
2122.519	939.45833
2125.173	1000.125
2127.825	1043.45833
2130.475	1038.79167
2133.124	986.45833
2135.771	960.45833
2138.416	929.125
2141.059	862.125
2143.7	848.79167
2146.339	801.125
2148.977	762.79167
2151.613	765.79167
2154.247	748.125
2156.879	748.45833
2159.51	713.45833
2162.138	713.79167
2164.765	717.79167
2167.39	701.45833
2170.013	716.45833
2172.634	702.79167
2175.254	699.79167
2177.872	732.45833
2180.488	677.79167
2183.102	696.45833
2185.714	687.125
2188.325	661.79167
2190.934	681.45833
2193.541	686.79167
2196.146	668.79167
2198.75	676.125
2201.351	663.45833
2203.951	647.45833
2206.549	677.45833
2209.146	667.125
2211.74	653.79167
2214.333	662.45833
2216.924	651.79167
2219.514	660.125
2222.101	654.45833
2224.687	658.45833
2227.271	656.45833
2229.853	645.79167
2232.433	646.79167
2235.012	668.79167
2237.589	651.45833
2240.164	680.79167
2242.738	651.45833
2245.309	651.125
2247.879	659.125
2250.448	661.45833
2253.014	640.79167
2255.579	627.45833
2258.142	637.79167
2260.703	633.125
2263.262	641.45833
2265.82	631.125
2268.376	635.125
2270.93	622.45833
2273.483	633.45833
2276.033	637.45833
2278.583	639.45833
2281.13	622.45833
2283.675	621.79167
2286.219	621.45833
2288.761	634.45833
2291.302	629.45833
2293.841	642.79167
2296.377	619.45833
2298.913	620.79167
2301.446	653.45833
2303.978	631.125
2306.508	621.125
2309.037	624.45833
2311.563	620.125
2314.088	645.125
2316.612	620.125
2319.133	633.45833
2321.653	635.125
2324.171	614.79167
2326.688	640.79167
2329.202	637.79167
2331.715	636.45833
2334.227	627.79167
2336.736	638.45833
2339.244	636.45833
2341.751	623.45833
2344.255	643.45833
2346.758	642.125
2349.259	630.125
2351.759	634.79167
2354.257	632.125
2356.753	621.79167
2359.247	635.79167
2361.74	636.79167
2364.231	627.125
2366.721	635.79167
2369.209	634.125
2371.695	637.125
2374.179	633.79167
2376.662	623.45833
2379.143	649.79167
2381.622	622.45833
2384.1	637.45833
2386.576	644.45833
2389.051	649.45833
2391.524	662.79167
2393.995	649.45833
2396.464	642.79167
2398.932	636.45833
2401.398	641.45833
2403.863	654.45833
2406.325	641.45833
2408.787	650.45833
2411.246	647.125
2413.704	638.45833
2416.16	643.45833
2418.615	653.45833
2421.068	665.79167
2423.519	667.79167
2425.969	653.45833
2428.417	664.79167
2430.863	679.79167
2433.308	668.79167
2435.751	664.125
2438.193	665.125
2440.633	671.79167
2443.071	670.125
2445.508	663.45833
2447.943	655.79167
2450.376	655.79167
2452.808	666.125
2455.238	670.125
2457.667	704.79167
2460.093	673.125
2462.519	664.79167
2464.942	682.125
2467.365	669.79167
2469.785	691.79167
2472.204	683.45833
2474.621	678.125
2477.037	703.45833
2479.451	656.45833
2481.863	665.45833
2484.274	683.125
2486.683	681.125
2489.091	679.125
2491.497	683.45833
2493.901	701.45833
2496.304	695.79167
2498.705	700.79167
2501.105	682.79167
2503.503	705.125
2505.899	687.45833
2508.294	717.79167
2510.687	703.45833
2513.079	692.79167
2515.469	699.45833
2517.858	697.79167
2520.245	709.45833
2522.63	697.45833
2525.014	695.125
2527.396	697.125
2529.776	695.79167
2532.156	726.45833
2534.533	707.79167
2536.909	704.79167
2539.283	697.79167
2541.656	710.45833
2544.027	735.125
2546.397	721.45833
2548.765	709.79167
2551.131	721.45833
2553.496	724.125
2555.86	722.125
2558.221	719.79167
2560.582	723.79167
2562.94	714.45833
2565.298	734.79167
2567.653	740.45833
2570.007	724.45833
2572.36	740.45833
2574.711	736.45833
2577.06	752.45833
2579.408	749.125
2581.754	744.125
2584.099	763.125
2586.442	746.125
2588.784	760.45833
2591.124	771.125
2593.463	762.45833
2595.8	753.79167
2598.135	747.125
2600.469	762.79167
2602.802	763.125
2605.133	773.45833
2607.462	755.125
2609.79	746.125
2612.116	773.79167
2614.441	783.125
2616.764	768.125
2619.086	781.79167
2621.406	769.79167
2623.725	790.79167
2626.042	790.79167
2628.358	774.125
2630.672	779.79167
2632.985	795.79167
2635.296	788.79167
2637.606	798.125
2639.914	781.125
2642.22	798.79167
2644.525	808.45833
2646.829	810.125
2649.131	812.79167
2651.432	835.45833
2653.731	824.79167
2656.028	838.45833
2658.324	848.125
2660.619	830.125
2662.912	851.45833
2665.204	821.79167
2667.494	841.79167
2669.782	836.125
2672.07	842.79167
2674.355	851.45833
2676.639	845.125
2678.922	835.45833
2681.203	843.45833
2683.483	836.125
2685.761	838.125
2688.038	859.45833
2690.313	870.79167
2692.587	855.45833
2694.859	851.125
2697.13	856.45833
2699.399	868.79167
2701.667	884.125
2703.933	873.79167
2706.198	889.45833
2708.461	883.45833
2710.723	902.79167
2712.984	888.125
2715.243	906.45833
2717.5	903.45833
2719.757	912.125
2722.011	903.125
2724.264	922.79167
2726.516	933.125
2728.766	919.79167
2731.015	928.125
2733.262	932.45833
2735.508	941.125
2737.753	945.79167
2739.996	914.125
2742.237	929.45833
2744.477	941.79167
2746.716	946.79167
2748.953	917.125
2751.189	941.125
2753.423	936.125
2755.656	918.125
2757.887	912.125
2760.117	925.45833
2762.346	909.45833
2764.573	915.45833
2766.798	925.79167
2769.022	928.79167
2771.245	932.79167
2773.467	940.45833
2775.686	946.45833
2777.905	941.79167
2780.122	952.79167
2782.337	960.45833
2784.552	974.125
2786.764	968.125
2788.976	971.79167
2791.186	977.79167
2793.394	984.79167
2795.601	992.79167
2797.807	1001.79167
2800.011	1019.125
2802.214	1023.79167
2804.415	1009.125
2806.615	1024.45833
2808.814	1023.45833
2811.011	1027.79167
2813.206	1030.125
2815.401	1050.45833
2817.594	1042.125
2819.785	1040.125
2821.975	1055.125
2824.164	1051.79167
2826.351	1074.45833
2828.537	1085.45833
2830.722	1102.45833
2832.905	1107.45833
2835.086	1124.79167
2837.267	1153.125
2839.445	1174.125
2841.623	1171.125
2843.799	1207.45833
2845.974	1222.79167
2848.147	1260.45833
2850.319	1289.79167
2852.489	1306.79167
2854.659	1318.79167
2856.826	1328.125
2858.993	1371.79167
2861.158	1343.125
2863.321	1354.79167
2865.483	1371.125
2867.644	1365.45833
2869.804	1357.45833
2871.962	1343.79167
2874.118	1348.45833
2876.274	1348.79167
2878.428	1355.125
2880.58	1334.125
2882.731	1335.45833
2884.881	1352.79167
2887.03	1348.125
2889.177	1350.79167
2891.322	1353.45833
2893.467	1365.79167
2895.61	1355.79167
2897.751	1392.79167
2899.892	1373.125
2902.03	1375.125
2904.168	1386.45833
2906.304	1402.125
2908.439	1408.125
2910.572	1405.79167
2912.704	1440.45833
2914.835	1427.45833
2916.965	1431.125
2919.093	1433.45833
2921.219	1415.125
2923.345	1428.79167
2925.469	1416.79167
2927.591	1410.125
2929.712	1367.125
2931.832	1380.125
2933.951	1356.45833
2936.068	1330.45833
2938.184	1340.79167
2940.299	1305.79167
2942.412	1291.125
2944.524	1277.45833
2946.634	1261.79167
2948.744	1225.125
2950.851	1248.45833
2952.958	1222.125
2955.063	1229.125
2957.167	1222.125
2959.269	1185.125
2961.371	1218.45833
2963.471	1201.79167
2965.569	1206.45833
2967.666	1188.125
2969.762	1179.45833
2971.857	1171.45833
2973.95	1151.125
2976.042	1149.125
2978.133	1139.45833
2980.222	1108.125
2982.31	1103.125
2984.396	1072.45833
2986.482	1072.45833
2988.566	1071.125
2990.648	1071.45833
2992.73	1052.125
2994.81	1054.45833
2996.889	1067.125
2998.966	1058.79167
3001.042	1082.125
3003.117	1061.125
3005.191	1067.125
3007.263	1053.45833
3009.334	1046.125
3011.403	1046.79167
3013.472	1032.79167
3015.539	1020.125
3017.604	1029.79167
3019.669	985.79167
3021.732	994.45833
3023.794	997.79167
3025.854	978.45833
3027.914	994.125
3029.971	998.79167
3032.028	990.79167
3034.083	972.79167
3036.137	979.125
3038.19	947.79167
3040.242	929.79167
3042.292	903.79167
3044.341	906.45833
3046.388	907.79167
3048.435	882.125
3050.48	897.125
3052.524	885.79167
3054.566	872.45833
3056.607	894.125
3058.647	864.79167
3060.686	837.45833
3062.723	800.45833
3064.759	780.125
3066.794	0.45833
3068.828	1.45833
3070.86	1.45833
