-0.839	474.5
3.438	535.83333
7.711	160.5
11.981	56.5
16.247	44.83333
20.509	50.16667
24.768	44.5
29.024	52.16667
33.276	43.16667
37.524	48.16667
41.769	46.5
46.01	31.83333
50.247	45.5
54.481	54.83333
58.712	56.83333
62.939	45.5
67.162	59.16667
71.382	51.83333
75.599	42.5
79.812	57.5
84.021	76.5
88.227	54.5
92.429	55.5
96.628	48.83333
100.823	66.83333
105.015	70.83333
109.204	62.16667
113.388	69.83333
117.57	74.16667
121.748	81.5
125.922	72.16667
130.093	89.5
134.261	86.5
138.425	88.5
142.585	126.5
146.742	117.83333
150.896	142.16667
155.046	177.5
159.193	282.5
163.336	489.83333
167.476	871.5
171.613	1608.16667
175.746	2642.5
179.875	3867.16667
184.002	5012.83333
188.124	5728.5
192.244	5944.16667
196.36	5816.83333
200.472	5599.16667
204.581	5360.16667
208.687	5162.5
212.79	5044.83333
216.889	4966.16667
220.984	4913.16667
225.077	4897.5
229.165	4840.83333
233.251	4775.5
237.333	4732.16667
241.412	4625.5
245.487	4583.5
249.559	4481.16667
253.628	4468.5
257.694	4411.16667
261.756	4395.5
265.814	4298.83333
269.87	4197.16667
273.922	4070.16667
277.97	4008.16667
282.016	3996.16667
286.058	4003.83333
290.097	4121.16667
294.132	4151.83333
298.164	4156.83333
302.193	3975.5
306.219	3688.16667
310.241	3411.5
314.26	3122.83333
318.276	2912.5
322.288	2776.16667
326.297	2651.5
330.303	2545.16667
334.305	2473.16667
338.305	2456.16667
342.301	2408.83333
346.294	2382.83333
350.283	2360.83333
354.269	2333.5
358.252	2333.83333
362.232	2326.83333
366.209	2283.16667
370.182	2275.16667
374.152	2264.16667
378.119	2273.16667
382.083	2253.83333
386.043	2276.83333
390	2233.16667
393.954	2257.5
397.905	2225.16667
401.852	2226.16667
405.797	2194.16667
409.738	2192.83333
413.676	2187.5
417.61	2192.5
421.542	2186.83333
425.47	2147.16667
429.396	2148.16667
433.318	2140.5
437.236	2128.16667
441.152	2163.5
445.065	2100.83333
448.974	2098.5
452.88	2072.16667
456.783	2063.16667
460.683	2044.16667
464.58	2048.83333
468.473	2053.16667
472.364	2072.5
476.251	2053.5
480.135	2094.5
484.016	2138.16667
487.894	2146.83333
491.769	2146.83333
495.641	2150.83333
499.509	2155.16667
503.375	2157.83333
507.237	2183.16667
511.096	2189.16667
514.952	2301.16667
518.805	2422.16667
522.655	2467.5
526.502	2300.5
530.346	2170.5
534.187	2144.83333
538.024	2134.83333
541.859	2153.5
545.69	2190.16667
549.519	2158.16667
553.344	2151.16667
557.166	2094.16667
560.985	2078.16667
564.802	2037.83333
568.615	2030.16667
572.425	1973.5
576.232	1977.16667
580.036	1990.16667
583.836	1998.5
587.634	1988.83333
591.429	1999.16667
595.221	2054.16667
599.01	2037.83333
602.796	2069.16667
606.578	2074.83333
610.358	2081.16667
614.135	2054.5
617.909	2041.5
621.679	2040.5
625.447	2023.16667
629.212	2018.5
632.973	2030.5
636.732	2008.83333
640.488	2010.5
644.241	1979.16667
647.991	1968.83333
651.737	2011.5
655.481	1980.83333
659.222	1984.83333
662.96	1980.83333
666.695	2034.83333
670.427	2010.83333
674.156	2043.16667
677.882	2032.5
681.605	2023.83333
685.325	1989.83333
689.043	1978.83333
692.757	1967.5
696.468	1965.5
700.177	1960.83333
703.882	1945.5
707.585	1948.16667
711.284	1949.83333
714.981	1937.83333
718.675	1951.83333
722.366	1949.83333
726.054	1931.5
729.739	1932.5
733.421	1971.5
737.1	1964.5
740.777	1967.16667
744.45	1974.5
748.121	1978.83333
751.789	2026.16667
755.453	2016.5
759.115	2022.16667
762.774	2046.5
766.431	2044.16667
770.084	2083.16667
773.734	2076.5
777.382	2123.16667
781.027	2140.16667
784.669	2154.83333
788.308	2144.16667
791.944	2166.83333
795.577	2185.83333
799.208	2205.16667
802.835	2223.16667
806.46	2216.83333
810.082	2245.5
813.701	2246.83333
817.317	2262.5
820.931	2267.5
824.542	2250.5
828.149	2222.5
831.754	2194.16667
835.357	2192.5
838.956	2208.5
842.553	2198.5
846.146	2173.83333
849.737	2163.16667
853.326	2177.16667
856.911	2170.83333
860.493	2198.83333
864.073	2204.5
867.65	2220.5
871.225	2260.5
874.796	2268.5
878.365	2282.5
881.931	2311.5
885.494	2332.5
889.054	2357.5
892.612	2382.5
896.166	2377.16667
899.719	2378.16667
903.268	2335.16667
906.814	2274.16667
910.358	2230.16667
913.899	2204.16667
917.438	2214.5
920.973	2180.16667
924.506	2227.83333
928.036	2259.5
931.564	2292.16667
935.088	2326.5
938.61	2349.83333
942.129	2372.5
945.646	2417.83333
949.16	2458.83333
952.671	2499.16667
956.179	2508.16667
959.685	2469.83333
963.188	2471.83333
966.688	2453.5
970.185	2373.83333
973.68	2326.83333
977.173	2282.83333
980.662	2231.83333
984.149	2229.83333
987.633	2209.5
991.114	2250.16667
994.593	2285.83333
998.069	2346.5
1001.542	2418.5
1005.013	2376.83333
1008.481	2248.83333
1011.947	2194.5
1015.409	2209.16667
1018.869	2215.5
1022.327	2226.5
1025.782	2182.83333
1029.234	2212.5
1032.683	2183.16667
1036.13	2114.16667
1039.574	2033.5
1043.016	1984.83333
1046.455	1932.16667
1049.891	1932.5
1053.325	1921.5
1056.756	1921.16667
1060.184	1930.83333
1063.61	1923.16667
1067.033	1948.83333
1070.454	1954.16667
1073.872	1990.16667
1077.287	1981.5
1080.7	1987.5
1084.11	1976.16667
1087.517	1969.5
1090.922	1931.83333
1094.325	1928.83333
1097.724	1898.16667
1101.122	1914.16667
1104.516	1902.5
1107.908	1897.5
1111.298	1950.83333
1114.684	1966.5
1118.069	1995.16667
1121.45	2007.83333
1124.83	1999.83333
1128.206	2012.83333
1131.58	2049.83333
1134.951	2106.16667
1138.32	2174.5
1141.687	2257.16667
1145.05	2290.83333
1148.412	2286.16667
1151.77	2271.16667
1155.126	2244.5
1158.48	2251.5
1161.831	2245.5
1165.18	2224.5
1168.525	2270.83333
1171.869	2313.5
1175.21	2323.5
1178.548	2367.16667
1181.884	2391.5
1185.217	2410.16667
1188.548	2480.83333
1191.877	2531.83333
1195.202	2625.16667
1198.526	2667.16667
1201.846	2727.16667
1205.165	2694.5
1208.48	2685.83333
1211.794	2682.83333
1215.104	2683.5
1218.413	2709.83333
1221.719	2695.5
1225.022	2688.83333
1228.323	2619.5
1231.621	2605.83333
1234.917	2543.5
1238.21	2578.83333
1241.501	2545.16667
1244.79	2534.83333
1248.076	2521.16667
1251.359	2558.83333
1254.64	2605.83333
1257.919	2621.83333
1261.195	2658.5
1264.468	2711.16667
1267.74	2732.16667
1271.008	2734.16667
1274.275	2741.83333
1277.538	2706.83333
1280.8	2706.5
1284.059	2719.16667
1287.315	2756.16667
1290.569	2787.5
1293.821	2812.83333
1297.07	2832.83333
1300.317	2856.83333
1303.562	2836.5
1306.803	2832.83333
1310.043	2805.83333
1313.28	2808.16667
1316.515	2787.5
1319.747	2777.83333
1322.977	2763.83333
1326.204	2726.16667
1329.429	2711.83333
1332.652	2696.16667
1335.872	2682.83333
1339.09	2619.16667
1342.306	2585.83333
1345.519	2552.83333
1348.729	2533.16667
1351.938	2541.16667
1355.144	2499.83333
1358.347	2454.83333
1361.548	2449.5
1364.747	2426.5
1367.944	2400.5
1371.138	2412.83333
1374.329	2437.5
1377.518	2433.5
1380.705	2454.16667
1383.89	2430.5
1387.072	2360.5
1390.252	2275.5
1393.429	2205.83333
1396.605	2142.16667
1399.777	2103.83333
1402.948	2098.16667
1406.116	2073.83333
1409.282	2094.83333
1412.445	2074.16667
1415.606	2112.83333
1418.765	2165.16667
1421.921	2172.83333
1425.075	2220.16667
1428.227	2275.5
1431.376	2371.16667
1434.524	2454.16667
1437.668	2525.5
1440.811	2557.5
1443.951	2586.5
1447.089	2602.5
1450.224	2587.16667
1453.357	2548.83333
1456.488	2524.83333
1459.617	2479.16667
1462.743	2438.16667
1465.867	2359.5
1468.989	2328.5
1472.108	2292.16667
1475.225	2238.5
1478.34	2204.16667
1481.453	2193.83333
1484.563	2215.83333
1487.671	2238.83333
1490.776	2267.83333
1493.88	2315.16667
1496.981	2332.16667
1500.08	2354.16667
1503.176	2410.5
1506.271	2419.83333
1509.363	2456.83333
1512.452	2474.16667
1515.54	2489.16667
1518.625	2539.5
1521.708	2567.5
1524.789	2644.16667
1527.867	2723.16667
1530.944	2859.5
1534.018	2992.16667
1537.089	3081.16667
1540.159	3146.5
1543.226	3117.16667
1546.291	3066.16667
1549.354	3034.16667
1552.415	2953.83333
1555.473	2884.5
1558.529	2842.83333
1561.583	2801.5
1564.634	2799.16667
1567.684	2823.5
1570.731	2840.5
1573.776	2856.83333
1576.819	2906.16667
1579.859	2941.16667
1582.898	2989.83333
1585.934	3030.5
1588.968	3036.16667
1591.999	3028.16667
1595.029	3036.83333
1598.056	3049.5
1601.081	3101.5
1604.104	3086.5
1607.125	3064.5
1610.144	3010.83333
1613.16	2921.83333
1616.174	2851.5
1619.186	2780.83333
1622.196	2723.16667
1625.203	2638.83333
1628.209	2598.5
1631.212	2561.5
1634.213	2575.5
1637.212	2570.5
1640.209	2546.16667
1643.203	2471.83333
1646.196	2422.83333
1649.186	2342.83333
1652.174	2252.83333
1655.16	2195.5
1658.144	2111.16667
1661.125	2024.5
1664.105	1925.16667
1667.082	1829.83333
1670.057	1760.83333
1673.03	1643.5
1676.001	1531.16667
1678.97	1447.5
1681.937	1351.5
1684.901	1270.5
1687.863	1238.83333
1690.824	1184.83333
1693.782	1168.83333
1696.738	1124.16667
1699.692	1094.16667
1702.643	1050.5
1705.593	1045.5
1708.54	1040.83333
1711.486	1041.83333
1714.429	1023.16667
1717.37	1016.16667
1720.309	982.16667
1723.246	989.83333
1726.181	971.83333
1729.113	982.83333
1732.044	973.83333
1734.972	943.16667
1737.899	955.83333
1740.823	950.5
1743.745	927.83333
1746.665	905.83333
1749.583	891.16667
1752.499	885.16667
1755.413	882.5
1758.325	864.83333
1761.235	851.83333
1764.142	835.83333
1767.048	827.83333
1769.951	827.5
1772.852	835.16667
1775.752	828.16667
1778.649	826.16667
1781.544	825.83333
1784.437	800.5
1787.328	814.83333
1790.217	804.16667
1793.104	786.83333
1795.989	786.83333
1798.872	783.16667
1801.753	797.5
1804.631	787.5
1807.508	801.5
1810.383	777.83333
1813.255	776.16667
1816.126	782.16667
1818.994	767.16667
1821.861	771.16667
1824.725	775.16667
1827.587	762.16667
1830.448	750.83333
1833.306	743.16667
1836.162	759.16667
1839.017	752.83333
1841.869	738.16667
1844.719	746.16667
1847.567	729.5
1850.414	728.5
1853.258	737.5
1856.1	748.5
1858.94	754.83333
1861.778	741.16667
1864.614	732.5
1867.448	727.16667
1870.28	712.83333
1873.111	746.83333
1875.939	723.16667
1878.765	754.83333
1881.589	725.83333
1884.411	726.16667
1887.231	737.83333
1890.049	733.16667
1892.865	739.16667
1895.68	719.5
1898.492	715.5
1901.302	711.16667
1904.11	714.83333
1906.916	715.5
1909.721	698.5
1912.523	714.5
1915.323	688.5
1918.122	696.5
1920.918	701.83333
1923.712	707.5
1926.505	694.16667
1929.295	685.16667
1932.084	706.5
1934.87	696.5
1937.655	691.83333
1940.438	695.83333
1943.218	699.5
1945.997	685.16667
1948.774	700.83333
1951.549	707.5
1954.322	689.83333
1957.093	698.83333
1959.862	682.5
1962.629	687.16667
1965.394	688.83333
1968.157	672.5
1970.918	680.5
1973.678	660.16667
1976.435	685.16667
1979.19	674.16667
1981.944	666.5
1984.696	672.5
1987.445	665.83333
1990.193	663.83333
1992.939	677.5
1995.683	660.16667
1998.425	641.5
2001.165	685.5
2003.903	662.16667
2006.639	658.5
2009.374	668.5
2012.106	664.16667
2014.837	644.83333
2017.566	670.5
2020.292	665.83333
2023.017	662.83333
2025.74	648.83333
2028.461	648.5
2031.18	660.16667
2033.898	648.83333
2036.613	659.5
2039.327	655.16667
2042.038	649.16667
2044.748	652.5
2047.456	655.16667
2050.162	636.16667
2052.866	643.83333
2055.568	657.5
2058.268	644.5
2060.967	647.5
2063.663	634.5
2066.358	640.16667
2069.051	642.16667
2071.742	654.16667
2074.431	654.5
2077.118	640.5
2079.804	632.5
2082.487	642.83333
2085.169	659.83333
2087.849	673.5
2090.527	638.5
2093.203	649.83333
2095.877	662.5
2098.55	659.5
2101.22	671.5
2103.889	674.5
2106.556	667.16667
2109.221	689.5
2111.884	689.5
2114.546	734.83333
2117.205	761.83333
2119.863	816.83333
2122.519	842.16667
2125.173	897.83333
2127.825	933.16667
2130.475	936.5
2133.124	888.5
2135.771	862.83333
2138.416	843.5
2141.059	799.16667
2143.7	773.5
2146.339	726.83333
2148.977	696.16667
2151.613	699.83333
2154.247	674.83333
2156.879	667.83333
2159.51	665.83333
2162.138	642.83333
2164.765	658.5
2167.39	638.5
2170.013	654.16667
2172.634	652.16667
2175.254	636.83333
2177.872	672.5
2180.488	632.83333
2183.102	632.83333
2185.714	621.16667
2188.325	616.16667
2190.934	629.16667
2193.541	639.5
2196.146	623.5
2198.75	620.16667
2201.351	617.16667
2203.951	606.5
2206.549	621.16667
2209.146	605.83333
2211.74	610.5
2214.333	617.5
2216.924	598.83333
2219.514	622.83333
2222.101	608.83333
2224.687	618.5
2227.271	618.5
2229.853	596.5
2232.433	605.5
2235.012	617.5
2237.589	619.16667
2240.164	626.83333
2242.738	612.16667
2245.309	602.5
2247.879	614.83333
2250.448	608.5
2253.014	598.5
2255.579	584.5
2258.142	595.83333
2260.703	591.16667
2263.262	590.83333
2265.82	591.5
2268.376	594.5
2270.93	580.83333
2273.483	585.83333
2276.033	586.16667
2278.583	595.16667
2281.13	580.83333
2283.675	573.5
2286.219	584.16667
2288.761	584.16667
2291.302	587.16667
2293.841	598.5
2296.377	583.5
2298.913	586.83333
2301.446	599.16667
2303.978	593.83333
2306.508	585.5
2309.037	593.16667
2311.563	586.5
2314.088	596.5
2316.612	580.83333
2319.133	600.83333
2321.653	588.5
2324.171	585.83333
2326.688	597.5
2329.202	585.83333
2331.715	592.5
2334.227	589.16667
2336.736	600.83333
2339.244	592.83333
2341.751	579.83333
2344.255	599.16667
2346.758	587.83333
2349.259	584.16667
2351.759	583.83333
2354.257	580.5
2356.753	577.16667
2359.247	595.5
2361.74	597.83333
2364.231	594.16667
2366.721	594.5
2369.209	590.5
2371.695	599.5
2374.179	586.16667
2376.662	586.83333
2379.143	611.16667
2381.622	607.5
2384.1	597.16667
2386.576	599.83333
2389.051	620.5
2391.524	607.83333
2393.995	610.83333
2396.464	604.5
2398.932	598.16667
2401.398	593.5
2403.863	598.83333
2406.325	595.16667
2408.787	608.16667
2411.246	610.16667
2413.704	604.16667
2416.16	614.83333
2418.615	606.5
2421.068	627.83333
2423.519	619.16667
2425.969	614.16667
2428.417	619.16667
2430.863	639.5
2433.308	631.83333
2435.751	624.83333
2438.193	619.5
2440.633	628.83333
2443.071	630.83333
2445.508	622.5
2447.943	624.16667
2450.376	614.83333
2452.808	625.16667
2455.238	628.16667
2457.667	654.5
2460.093	628.83333
2462.519	618.16667
2464.942	631.5
2467.365	637.5
2469.785	633.16667
2472.204	631.83333
2474.621	638.16667
2477.037	658.16667
2479.451	622.16667
2481.863	618.16667
2484.274	641.16667
2486.683	638.5
2489.091	642.83333
2491.497	648.5
2493.901	645.16667
2496.304	646.83333
2498.705	654.5
2501.105	649.83333
2503.503	672.5
2505.899	637.16667
2508.294	664.5
2510.687	659.83333
2513.079	658.16667
2515.469	653.16667
2517.858	653.83333
2520.245	674.16667
2522.63	655.16667
2525.014	651.83333
2527.396	652.5
2529.776	653.5
2532.156	671.16667
2534.533	658.83333
2536.909	653.83333
2539.283	654.16667
2541.656	662.5
2544.027	688.83333
2546.397	672.83333
2548.765	673.5
2551.131	674.83333
2553.496	685.16667
2555.86	694.5
2558.221	676.5
2560.582	680.16667
2562.94	673.16667
2565.298	686.16667
2567.653	709.16667
2570.007	678.83333
2572.36	700.16667
2574.711	686.5
2577.06	714.16667
2579.408	708.5
2581.754	700.5
2584.099	709.16667
2586.442	713.16667
2588.784	710.5
2591.124	703.83333
2593.463	708.5
2595.8	710.83333
2598.135	696.5
2600.469	713.16667
2602.802	707.5
2605.133	733.5
2607.462	703.16667
2609.79	696.5
2612.116	713.83333
2614.441	716.83333
2616.764	726.5
2619.086	716.16667
2621.406	714.5
2623.725	749.83333
2626.042	742.5
2628.358	728.83333
2630.672	736.83333
2632.985	749.16667
2635.296	749.16667
2637.606	742.5
2639.914	740.16667
2642.22	747.83333
2644.525	755.16667
2646.829	758.16667
2649.131	782.83333
2651.432	770.5
2653.731	775.16667
2656.028	770.16667
2658.324	794.5
2660.619	772.83333
2662.912	787.83333
2665.204	772.83333
2667.494	781.83333
2669.782	784.5
2672.07	791.83333
2674.355	793.83333
2676.639	787.5
2678.922	786.83333
2681.203	788.5
2683.483	801.16667
2685.761	791.5
2688.038	795.5
2690.313	822.83333
2692.587	812.83333
2694.859	806.83333
2697.13	808.83333
2699.399	817.5
2701.667	829.5
2703.933	818.5
2706.198	835.83333
2708.461	853.83333
2710.723	851.16667
2712.984	843.5
2715.243	859.16667
2717.5	852.5
2719.757	862.16667
2722.011	845.16667
2724.264	865.5
2726.516	890.16667
2728.766	861.5
2731.015	865.16667
2733.262	882.16667
2735.508	883.83333
2737.753	873.16667
2739.996	862.5
2742.237	871.83333
2744.477	881.83333
2746.716	886.16667
2748.953	871.5
2751.189	880.5
2753.423	879.5
2755.656	859.83333
2757.887	867.83333
2760.117	880.16667
2762.346	867.83333
2764.573	849.16667
2766.798	863.5
2769.022	880.5
2771.245	883.5
2773.467	885.83333
2775.686	883.83333
2777.905	886.16667
2780.122	889.16667
2782.337	905.83333
2784.552	909.16667
2786.764	907.5
2788.976	908.16667
2791.186	915.5
2793.394	911.83333
2795.601	931.16667
2797.807	944.83333
2800.011	952.83333
2802.214	947.5
2804.415	967.16667
2806.615	955.5
2808.814	959.5
2811.011	959.16667
2813.206	954.83333
2815.401	983.83333
2817.594	980.16667
2819.785	988.5
2821.975	992.16667
2824.164	985.5
2826.351	1012.16667
2828.537	1030.16667
2830.722	1036.5
2832.905	1032.83333
2835.086	1075.16667
2837.267	1102.5
2839.445	1100.5
2841.623	1123.16667
2843.799	1140.5
2845.974	1167.83333
2848.147	1199.83333
2850.319	1225.83333
2852.489	1249.5
2854.659	1248.16667
2856.826	1259.16667
2858.993	1300.83333
2861.158	1276.83333
2863.321	1284.83333
2865.483	1298.5
2867.644	1315.16667
2869.804	1285.83333
2871.962	1298.5
2874.118	1287.5
2876.274	1296.5
2878.428	1278.16667
2880.58	1281.83333
2882.731	1283.83333
2884.881	1278.83333
2887.03	1293.5
2889.177	1280.83333
2891.322	1286.83333
2893.467	1276.83333
2895.61	1286.5
2897.751	1313.83333
2899.892	1294.83333
2902.03	1313.5
2904.168	1325.16667
2906.304	1316.5
2908.439	1357.5
2910.572	1336.16667
2912.704	1348.5
2914.835	1339.5
2916.965	1347.5
2919.093	1353.83333
2921.219	1342.16667
2923.345	1356.83333
2925.469	1345.83333
2927.591	1328.5
2929.712	1300.16667
2931.832	1317.5
2933.951	1290.5
2936.068	1268.83333
2938.184	1264.16667
2940.299	1258.16667
2942.412	1255.16667
2944.524	1198.5
2946.634	1206.5
2948.744	1161.16667
2950.851	1199.83333
2952.958	1160.5
2955.063	1167.83333
2957.167	1145.5
2959.269	1128.5
2961.371	1155.5
2963.471	1134.16667
2965.569	1137.16667
2967.666	1129.5
2969.762	1126.16667
2971.857	1116.5
2973.95	1100.83333
2976.042	1088.83333
2978.133	1069.16667
2980.222	1059.83333
2982.31	1022.16667
2984.396	1017.83333
2986.482	1020.16667
2988.566	1016.83333
2990.648	1013.16667
2992.73	990.83333
2994.81	980.83333
2996.889	1018.5
2998.966	1000.5
3001.042	1016.5
3003.117	999.5
3005.191	995.16667
3007.263	999.83333
3009.334	987.83333
3011.403	1000.16667
3013.472	974.5
3015.539	967.16667
3017.604	969.5
3019.669	944.16667
3021.732	923.83333
3023.794	941.5
3025.854	936.16667
3027.914	927.83333
3029.971	944.83333
3032.028	922.16667
3034.083	924.5
3036.137	907.16667
3038.19	899.83333
3040.242	873.16667
3042.292	861.5
3044.341	850.83333
3046.388	858.83333
3048.435	834.16667
3050.48	848.83333
3052.524	837.83333
3054.566	820.83333
3056.607	826.5
3058.647	806.16667
3060.686	785.16667
3062.723	762.16667
3064.759	742.83333
3066.794	0.83333
3068.828	3.5
3070.86	1.5
