-0.839	426.45833
3.438	436.45833
7.711	124.79167
11.981	54.45833
16.247	45.125
20.509	48.125
24.768	49.125
29.024	46.45833
33.276	44.125
37.524	51.45833
41.769	41.79167
46.01	37.79167
50.247	54.125
54.481	66.45833
58.712	66.45833
62.939	50.125
67.162	60.79167
71.382	58.45833
75.599	49.45833
79.812	68.125
84.021	81.125
88.227	64.45833
92.429	67.79167
96.628	53.45833
100.823	68.45833
105.015	79.45833
109.204	81.79167
113.388	85.79167
117.57	78.79167
121.748	96.125
125.922	86.79167
130.093	105.125
134.261	114.45833
138.425	113.79167
142.585	155.45833
146.742	157.125
150.896	191.45833
155.046	239.125
159.193	385.79167
163.336	662.45833
167.476	1223.125
171.613	2261.125
175.746	3796.79167
179.875	5624.79167
184.002	7320.125
188.124	8474.125
192.244	8792.79167
196.36	8705.79167
200.472	8434.45833
204.581	8207.125
208.687	8016.45833
212.79	7964.45833
216.889	7982.45833
220.984	8061.79167
225.077	8168.125
229.165	8291.125
233.251	8379.79167
237.333	8475.125
241.412	8498.45833
245.487	8416.45833
249.559	8413.125
253.628	8296.45833
257.694	8257.45833
261.756	8136.45833
265.814	7925.79167
269.87	7720.79167
273.922	7438.45833
277.97	7213.125
282.016	7012.79167
286.058	6876.79167
290.097	6813.45833
294.132	6773.125
298.164	6649.45833
302.193	6320.45833
306.219	5854.79167
310.241	5304.45833
314.26	4844.79167
318.276	4432.79167
322.288	4133.79167
326.297	3898.45833
330.303	3739.79167
334.305	3634.79167
338.305	3522.79167
342.301	3481.45833
346.294	3449.45833
350.283	3395.125
354.269	3397.45833
358.252	3367.125
362.232	3324.45833
366.209	3294.125
370.182	3287.45833
374.152	3259.79167
378.119	3265.45833
382.083	3236.45833
386.043	3259.45833
390	3214.125
393.954	3213.125
397.905	3160.79167
401.852	3170.79167
405.797	3117.45833
409.738	3060.79167
413.676	3035.125
417.61	3022.125
421.542	2980.45833
425.47	2925.79167
429.396	2908.79167
433.318	2891.79167
437.236	2858.79167
441.152	2905.125
445.065	2842.45833
448.974	2800.45833
452.88	2812.125
456.783	2778.45833
460.683	2760.45833
464.58	2780.45833
468.473	2756.125
472.364	2780.79167
476.251	2787.79167
480.135	2793.79167
484.016	2827.79167
487.894	2833.79167
491.769	2845.125
495.641	2843.45833
499.509	2851.79167
503.375	2844.45833
507.237	2819.79167
511.096	2821.45833
514.952	2828.125
518.805	2819.79167
522.655	2832.45833
526.502	2805.45833
530.346	2821.79167
534.187	2819.125
538.024	2806.79167
541.859	2845.125
545.69	2864.125
549.519	2827.79167
553.344	2825.125
557.166	2740.79167
560.985	2728.45833
564.802	2700.45833
568.615	2668.45833
572.425	2627.45833
576.232	2624.125
580.036	2606.45833
583.836	2613.45833
587.634	2616.45833
591.429	2602.125
595.221	2686.79167
599.01	2728.79167
602.796	2729.125
606.578	2741.125
610.358	2772.45833
614.135	2738.79167
617.909	2722.125
621.679	2730.79167
625.447	2704.79167
629.212	2727.125
632.973	2717.79167
636.732	2696.45833
640.488	2717.45833
644.241	2678.45833
647.991	2672.79167
651.737	2703.45833
655.481	2692.79167
659.222	2700.45833
662.96	2699.125
666.695	2711.79167
670.427	2721.79167
674.156	2716.125
677.882	2740.45833
681.605	2716.125
685.325	2662.125
689.043	2685.79167
692.757	2662.125
696.468	2681.79167
700.177	2676.45833
703.882	2648.45833
707.585	2652.79167
711.284	2669.125
714.981	2690.79167
718.675	2680.45833
722.366	2701.79167
726.054	2665.45833
729.739	2674.79167
733.421	2678.125
737.1	2678.79167
740.777	2714.79167
744.45	2714.125
748.121	2741.45833
751.789	2768.79167
755.453	2770.125
759.115	2779.125
762.774	2849.79167
766.431	2851.79167
770.084	2877.79167
773.734	2928.45833
777.382	2980.79167
781.027	3012.45833
784.669	3009.45833
788.308	3037.79167
791.944	3075.79167
795.577	3070.125
799.208	3124.125
802.835	3108.79167
806.46	3181.125
810.082	3205.45833
813.701	3220.125
817.317	3254.125
820.931	3242.45833
824.542	3235.125
828.149	3201.79167
831.754	3162.79167
835.357	3141.45833
838.956	3134.45833
842.553	3110.45833
846.146	3108.79167
849.737	3081.79167
853.326	3097.79167
856.911	3107.125
860.493	3139.79167
864.073	3165.125
867.65	3221.45833
871.225	3281.79167
874.796	3251.125
878.365	3267.79167
881.931	3288.79167
885.494	3322.79167
889.054	3301.125
892.612	3300.125
896.166	3259.79167
899.719	3253.125
903.268	3227.125
906.814	3215.45833
910.358	3215.45833
913.899	3188.125
917.438	3200.79167
920.973	3195.45833
924.506	3239.79167
928.036	3260.45833
931.564	3321.45833
935.088	3338.79167
938.61	3367.45833
942.129	3404.79167
945.646	3492.45833
949.16	3569.125
952.671	3638.125
956.179	3695.45833
959.685	3668.45833
963.188	3663.79167
966.688	3618.45833
970.185	3511.125
973.68	3415.125
977.173	3379.79167
980.662	3367.79167
984.149	3389.45833
987.633	3374.45833
991.114	3416.125
994.593	3529.125
998.069	3628.45833
1001.542	3763.79167
1005.013	3657.79167
1008.481	3454.79167
1011.947	3429.79167
1015.409	3395.45833
1018.869	3403.45833
1022.327	3389.79167
1025.782	3372.45833
1029.234	3374.79167
1032.683	3334.45833
1036.13	3217.45833
1039.574	3093.79167
1043.016	3034.79167
1046.455	2946.45833
1049.891	2939.79167
1053.325	2931.79167
1056.756	2933.125
1060.184	2971.45833
1063.61	2965.125
1067.033	2989.45833
1070.454	3004.125
1073.872	3038.45833
1077.287	3009.79167
1080.7	3039.125
1084.11	3043.45833
1087.517	3018.125
1090.922	2973.79167
1094.325	2939.79167
1097.724	2919.45833
1101.122	2906.125
1104.516	2912.45833
1107.908	2904.125
1111.298	2950.79167
1114.684	3017.125
1118.069	3050.125
1121.45	3069.45833
1124.83	3034.79167
1128.206	3052.45833
1131.58	3082.45833
1134.951	3177.79167
1138.32	3308.45833
1141.687	3452.45833
1145.05	3498.79167
1148.412	3555.125
1151.77	3571.79167
1155.126	3542.45833
1158.48	3523.45833
1161.831	3572.45833
1165.18	3573.79167
1168.525	3627.45833
1171.869	3700.125
1175.21	3700.45833
1178.548	3765.45833
1181.884	3813.125
1185.217	3824.79167
1188.548	3908.125
1191.877	3960.79167
1195.202	4091.45833
1198.526	4132.125
1201.846	4125.125
1205.165	4144.125
1208.48	4094.45833
1211.794	4081.79167
1215.104	4084.79167
1218.413	4105.45833
1221.719	4066.79167
1225.022	4024.125
1228.323	3976.125
1231.621	3971.79167
1234.917	3957.79167
1238.21	3995.45833
1241.501	3975.45833
1244.79	3977.45833
1248.076	3967.125
1251.359	4011.79167
1254.64	4070.125
1257.919	4120.45833
1261.195	4203.125
1264.468	4249.79167
1267.74	4345.79167
1271.008	4329.45833
1274.275	4314.79167
1277.538	4303.45833
1280.8	4288.79167
1284.059	4282.125
1287.315	4326.79167
1290.569	4328.79167
1293.821	4355.79167
1297.07	4362.79167
1300.317	4381.45833
1303.562	4374.45833
1306.803	4368.125
1310.043	4319.45833
1313.28	4274.125
1316.515	4224.45833
1319.747	4202.125
1322.977	4146.45833
1326.204	4062.79167
1329.429	4033.125
1332.652	3978.125
1335.872	3991.45833
1339.09	3946.125
1342.306	3971.125
1345.519	3928.45833
1348.729	3901.79167
1351.938	3890.125
1355.144	3813.125
1358.347	3793.45833
1361.548	3747.125
1364.747	3777.125
1367.944	3750.45833
1371.138	3769.79167
1374.329	3793.45833
1377.518	3872.125
1380.705	3891.125
1383.89	3851.125
1387.072	3743.45833
1390.252	3593.45833
1393.429	3498.125
1396.605	3373.125
1399.777	3272.79167
1402.948	3258.125
1406.116	3218.125
1409.282	3220.79167
1412.445	3233.79167
1415.606	3259.79167
1418.765	3292.125
1421.921	3366.125
1425.075	3444.45833
1428.227	3571.45833
1431.376	3754.125
1434.524	3893.125
1437.668	4000.45833
1440.811	4025.79167
1443.951	4063.45833
1447.089	4060.45833
1450.224	4089.45833
1453.357	4062.125
1456.488	3991.45833
1459.617	3946.125
1462.743	3888.125
1465.867	3807.125
1468.989	3755.45833
1472.108	3732.45833
1475.225	3651.45833
1478.34	3629.125
1481.453	3606.79167
1484.563	3633.79167
1487.671	3676.45833
1490.776	3715.79167
1493.88	3788.79167
1496.981	3872.79167
1500.08	3960.45833
1503.176	4013.45833
1506.271	4095.45833
1509.363	4134.45833
1512.452	4206.125
1515.54	4302.125
1518.625	4383.125
1521.708	4592.79167
1524.789	4829.125
1527.867	5123.79167
1530.944	5421.45833
1534.018	5659.45833
1537.089	5789.125
1540.159	5728.79167
1543.226	5564.125
1546.291	5349.125
1549.354	5193.79167
1552.415	5009.125
1555.473	4881.79167
1558.529	4772.125
1561.583	4746.45833
1564.634	4720.79167
1567.684	4705.79167
1570.731	4716.125
1573.776	4771.79167
1576.819	4856.125
1579.859	4890.79167
1582.898	4953.125
1585.934	5015.79167
1588.968	5008.125
1591.999	4972.125
1595.029	5007.45833
1598.056	5012.45833
1601.081	5032.125
1604.104	5022.45833
1607.125	4965.125
1610.144	4851.45833
1613.16	4756.125
1616.174	4633.79167
1619.186	4535.79167
1622.196	4427.79167
1625.203	4348.79167
1628.209	4259.125
1631.212	4233.125
1634.213	4224.125
1637.212	4196.79167
1640.209	4142.79167
1643.203	4048.79167
1646.196	3911.125
1649.186	3756.125
1652.174	3641.79167
1655.16	3531.45833
1658.144	3433.45833
1661.125	3249.45833
1664.105	3070.125
1667.082	2950.125
1670.057	2774.79167
1673.03	2608.45833
1676.001	2404.125
1678.97	2263.45833
1681.937	2144.45833
1684.901	2017.79167
1687.863	1958.45833
1690.824	1876.125
1693.782	1831.125
1696.738	1770.45833
1699.692	1731.79167
1702.643	1689.79167
1705.593	1670.125
1708.54	1638.79167
1711.486	1629.79167
1714.429	1584.45833
1717.37	1586.79167
1720.309	1549.45833
1723.246	1553.45833
1726.181	1509.79167
1729.113	1528.125
1732.044	1503.79167
1734.972	1494.125
1737.899	1475.125
1740.823	1483.45833
1743.745	1481.79167
1746.665	1420.45833
1749.583	1396.125
1752.499	1378.125
1755.413	1385.79167
1758.325	1335.125
1761.235	1326.79167
1764.142	1301.125
1767.048	1291.45833
1769.951	1299.45833
1772.852	1274.79167
1775.752	1278.79167
1778.649	1275.45833
1781.544	1265.125
1784.437	1228.125
1787.328	1242.45833
1790.217	1247.125
1793.104	1212.79167
1795.989	1207.45833
1798.872	1202.79167
1801.753	1232.125
1804.631	1222.45833
1807.508	1204.79167
1810.383	1198.79167
1813.255	1204.45833
1816.126	1190.125
1818.994	1186.79167
1821.861	1175.125
1824.725	1175.79167
1827.587	1179.45833
1830.448	1163.79167
1833.306	1122.125
1836.162	1162.125
1839.017	1141.79167
1841.869	1145.45833
1844.719	1127.125
1847.567	1126.45833
1850.414	1113.125
1853.258	1111.125
1856.1	1124.45833
1858.94	1131.45833
1861.778	1117.45833
1864.614	1108.79167
1867.448	1121.45833
1870.28	1094.125
1873.111	1123.45833
1875.939	1114.79167
1878.765	1122.79167
1881.589	1106.45833
1884.411	1094.125
1887.231	1121.125
1890.049	1094.45833
1892.865	1093.45833
1895.68	1076.45833
1898.492	1084.45833
1901.302	1084.125
1904.11	1083.79167
1906.916	1053.79167
1909.721	1061.45833
1912.523	1061.45833
1915.323	1042.79167
1918.122	1044.125
1920.918	1067.125
1923.712	1045.79167
1926.505	1056.125
1929.295	1040.45833
1932.084	1052.79167
1934.87	1041.45833
1937.655	1028.125
1940.438	1027.45833
1943.218	1032.45833
1945.997	1028.79167
1948.774	1054.79167
1951.549	1042.45833
1954.322	1035.79167
1957.093	1029.125
1959.862	1036.125
1962.629	1030.79167
1965.394	1006.79167
1968.157	995.45833
1970.918	1013.45833
1973.678	999.45833
1976.435	1000.79167
1979.19	997.45833
1981.944	984.79167
1984.696	987.45833
1987.445	970.79167
1990.193	977.125
1992.939	994.125
1995.683	998.125
1998.425	958.125
2001.165	992.125
2003.903	961.45833
2006.639	973.79167
2009.374	972.79167
2012.106	982.79167
2014.837	952.45833
2017.566	964.79167
2020.292	974.125
2023.017	965.125
2025.74	947.125
2028.461	940.45833
2031.18	961.79167
2033.898	940.45833
2036.613	951.79167
2039.327	964.45833
2042.038	938.79167
2044.748	930.79167
2047.456	950.45833
2050.162	924.45833
2052.866	937.79167
2055.568	941.125
2058.268	930.125
2060.967	935.79167
2063.663	911.125
2066.358	928.125
2069.051	915.79167
2071.742	936.125
2074.431	924.79167
2077.118	925.79167
2079.804	915.79167
2082.487	920.79167
2085.169	926.79167
2087.849	950.125
2090.527	926.125
2093.203	943.45833
2095.877	937.45833
2098.55	942.125
2101.22	958.79167
2103.889	962.79167
2106.556	950.45833
2109.221	987.125
2111.884	998.45833
2114.546	1055.45833
2117.205	1105.45833
2119.863	1204.125
2122.519	1257.79167
2125.173	1368.45833
2127.825	1449.79167
2130.475	1482.125
2133.124	1471.79167
2135.771	1445.45833
2138.416	1389.125
2141.059	1313.45833
2143.7	1260.79167
2146.339	1183.125
2148.977	1125.125
2151.613	1115.125
2154.247	1055.79167
2156.879	1049.45833
2159.51	1032.79167
2162.138	1025.125
2164.765	1010.45833
2167.39	1000.125
2170.013	1017.125
2172.634	1021.125
2175.254	1001.125
2177.872	1020.125
2180.488	982.45833
2183.102	993.125
2185.714	962.125
2188.325	931.125
2190.934	944.125
2193.541	922.125
2196.146	918.45833
2198.75	885.79167
2201.351	884.79167
2203.951	864.45833
2206.549	869.79167
2209.146	861.79167
2211.74	857.79167
2214.333	841.45833
2216.924	823.125
2219.514	829.125
2222.101	821.79167
2224.687	825.125
2227.271	808.79167
2229.853	811.125
2232.433	798.125
2235.012	811.125
2237.589	812.45833
2240.164	812.125
2242.738	796.79167
2245.309	786.125
2247.879	786.125
2250.448	791.45833
2253.014	772.45833
2255.579	750.79167
2258.142	749.45833
2260.703	735.125
2263.262	752.79167
2265.82	739.45833
2268.376	745.79167
2270.93	729.45833
2273.483	717.125
2276.033	732.125
2278.583	713.45833
2281.13	715.125
2283.675	707.79167
2286.219	709.45833
2288.761	692.79167
2291.302	711.125
2293.841	711.45833
2296.377	697.125
2298.913	691.125
2301.446	700.79167
2303.978	693.45833
2306.508	686.79167
2309.037	684.125
2311.563	685.79167
2314.088	699.45833
2316.612	675.125
2319.133	690.79167
2321.653	673.79167
2324.171	665.125
2326.688	680.79167
2329.202	665.125
2331.715	660.125
2334.227	666.125
2336.736	654.79167
2339.244	647.125
2341.751	642.125
2344.255	668.125
2346.758	651.79167
2349.259	640.79167
2351.759	650.79167
2354.257	628.45833
2356.753	639.125
2359.247	643.125
2361.74	643.45833
2364.231	630.125
2366.721	644.79167
2369.209	627.125
2371.695	626.45833
2374.179	619.45833
2376.662	627.79167
2379.143	638.125
2381.622	628.45833
2384.1	625.79167
2386.576	622.79167
2389.051	631.125
2391.524	638.79167
2393.995	620.79167
2396.464	618.125
2398.932	610.79167
2401.398	612.79167
2403.863	613.45833
2406.325	607.79167
2408.787	602.79167
2411.246	606.45833
2413.704	595.125
2416.16	592.125
2418.615	608.125
2421.068	611.79167
2423.519	592.125
2425.969	602.79167
2428.417	605.45833
2430.863	621.125
2433.308	606.79167
2435.751	605.79167
2438.193	596.45833
2440.633	601.45833
2443.071	601.79167
2445.508	585.125
2447.943	593.125
2450.376	576.125
2452.808	588.79167
2455.238	572.45833
2457.667	605.125
2460.093	574.79167
2462.519	569.45833
2464.942	572.45833
2467.365	583.125
2469.785	573.45833
2472.204	574.45833
2474.621	560.79167
2477.037	584.125
2479.451	558.45833
2481.863	553.125
2484.274	545.45833
2486.683	573.45833
2489.091	572.79167
2491.497	567.45833
2493.901	560.79167
2496.304	557.125
2498.705	556.45833
2501.105	555.125
2503.503	580.45833
2505.899	542.125
2508.294	567.125
2510.687	551.79167
2513.079	544.79167
2515.469	544.79167
2517.858	537.45833
2520.245	551.79167
2522.63	547.79167
2525.014	534.79167
2527.396	535.45833
2529.776	532.125
2532.156	546.125
2534.533	529.125
2536.909	525.125
2539.283	513.79167
2541.656	523.125
2544.027	555.45833
2546.397	534.45833
2548.765	524.79167
2551.131	529.45833
2553.496	533.125
2555.86	537.125
2558.221	535.45833
2560.582	521.79167
2562.94	512.125
2565.298	518.125
2567.653	535.125
2570.007	512.125
2572.36	532.125
2574.711	522.79167
2577.06	535.79167
2579.408	518.125
2581.754	525.45833
2584.099	513.45833
2586.442	516.125
2588.784	517.79167
2591.124	519.79167
2593.463	507.79167
2595.8	513.45833
2598.135	505.45833
2600.469	512.125
2602.802	527.125
2605.133	527.45833
2607.462	506.79167
2609.79	500.79167
2612.116	495.45833
2614.441	510.45833
2616.764	512.125
2619.086	504.79167
2621.406	499.45833
2623.725	512.79167
2626.042	511.125
2628.358	505.45833
2630.672	503.79167
2632.985	512.125
2635.296	509.45833
2637.606	511.45833
2639.914	502.125
2642.22	513.125
2644.525	495.45833
2646.829	512.125
2649.131	521.125
2651.432	516.125
2653.731	507.45833
2656.028	522.45833
2658.324	518.45833
2660.619	507.125
2662.912	518.125
2665.204	498.79167
2667.494	518.79167
2669.782	498.79167
2672.07	524.125
2674.355	524.125
2676.639	505.45833
2678.922	504.125
2681.203	525.125
2683.483	495.125
2685.761	505.79167
2688.038	518.125
2690.313	521.125
2692.587	521.79167
2694.859	504.79167
2697.13	503.45833
2699.399	512.125
2701.667	530.79167
2703.933	535.79167
2706.198	526.79167
2708.461	541.45833
2710.723	541.79167
2712.984	541.125
2715.243	545.125
2717.5	550.125
2719.757	559.125
2722.011	542.79167
2724.264	557.79167
2726.516	568.125
2728.766	557.45833
2731.015	553.45833
2733.262	545.125
2735.508	550.79167
2737.753	547.125
2739.996	528.45833
2742.237	523.125
2744.477	549.79167
2746.716	543.45833
2748.953	534.125
2751.189	531.79167
2753.423	534.79167
2755.656	510.125
2757.887	506.45833
2760.117	501.45833
2762.346	511.79167
2764.573	509.125
2766.798	494.45833
2769.022	513.79167
2771.245	507.79167
2773.467	530.125
2775.686	518.79167
2777.905	525.45833
2780.122	525.79167
2782.337	533.125
2784.552	528.79167
2786.764	538.45833
2788.976	542.125
2791.186	546.45833
2793.394	548.45833
2795.601	565.125
2797.807	566.45833
2800.011	567.125
2802.214	579.125
2804.415	592.79167
2806.615	594.125
2808.814	600.45833
2811.011	606.79167
2813.206	609.45833
2815.401	626.79167
2817.594	643.79167
2819.785	659.125
2821.975	638.79167
2824.164	657.125
2826.351	677.79167
2828.537	697.125
2830.722	717.125
2832.905	724.45833
2835.086	761.125
2837.267	794.45833
2839.445	837.125
2841.623	879.45833
2843.799	924.79167
2845.974	961.45833
2848.147	1001.125
2850.319	1034.125
2852.489	1074.125
2854.659	1083.45833
2856.826	1119.125
2858.993	1138.45833
2861.158	1122.125
2863.321	1122.79167
2865.483	1148.45833
2867.644	1144.79167
2869.804	1158.125
2871.962	1138.45833
2874.118	1147.45833
2876.274	1131.125
2878.428	1127.45833
2880.58	1127.125
2882.731	1106.45833
2884.881	1107.79167
2887.03	1129.79167
2889.177	1115.125
2891.322	1143.125
2893.467	1139.125
2895.61	1139.45833
2897.751	1164.79167
2899.892	1161.45833
2902.03	1178.45833
2904.168	1191.125
2906.304	1188.45833
2908.439	1206.79167
2910.572	1194.125
2912.704	1194.125
2914.835	1205.125
2916.965	1207.79167
2919.093	1212.125
2921.219	1156.125
2923.345	1186.45833
2925.469	1167.45833
2927.591	1147.79167
2929.712	1114.79167
2931.832	1099.79167
2933.951	1073.45833
2936.068	1047.79167
2938.184	1013.45833
2940.299	970.125
2942.412	946.125
2944.524	904.125
2946.634	885.79167
2948.744	822.125
2950.851	826.125
2952.958	784.45833
2955.063	764.79167
2957.167	753.45833
2959.269	725.125
2961.371	728.79167
2963.471	675.79167
2965.569	679.79167
2967.666	640.125
2969.762	623.125
2971.857	606.45833
2973.95	576.79167
2976.042	577.79167
2978.133	556.125
2980.222	547.125
2982.31	508.79167
2984.396	501.45833
2986.482	504.125
2988.566	502.79167
2990.648	487.79167
2992.73	483.79167
2994.81	463.45833
2996.889	460.125
2998.966	452.45833
3001.042	461.45833
3003.117	442.79167
3005.191	442.79167
3007.263	441.45833
3009.334	431.79167
3011.403	427.79167
3013.472	398.79167
3015.539	410.79167
3017.604	417.45833
3019.669	382.79167
3021.732	385.79167
3023.794	384.125
3025.854	367.79167
3027.914	366.125
3029.971	379.125
3032.028	368.125
3034.083	359.125
3036.137	361.45833
3038.19	344.45833
3040.242	336.45833
3042.292	328.125
3044.341	331.45833
3046.388	348.79167
3048.435	310.45833
3050.48	336.45833
3052.524	321.79167
3054.566	311.125
3056.607	314.125
3058.647	308.125
3060.686	296.125
3062.723	289.45833
3064.759	278.79167
3066.794	-0.20833
3068.828	-1.20833
3070.86	-2.54167
