-0.839	412.625
3.438	434.625
7.711	117.29167
11.981	56.95833
16.247	46.29167
20.509	47.95833
24.768	47.95833
29.024	50.29167
33.276	47.29167
37.524	50.95833
41.769	43.29167
46.01	37.29167
50.247	55.29167
54.481	65.625
58.712	72.625
62.939	52.29167
67.162	66.29167
71.382	57.625
75.599	50.29167
79.812	67.29167
84.021	86.625
88.227	63.625
92.429	70.625
96.628	54.95833
100.823	75.95833
105.015	81.625
109.204	84.95833
113.388	82.625
117.57	81.95833
121.748	94.625
125.922	88.625
130.093	109.95833
134.261	119.95833
138.425	108.625
142.585	154.95833
146.742	156.29167
150.896	185.95833
155.046	234.29167
159.193	378.29167
163.336	642.625
167.476	1204.95833
171.613	2202.29167
175.746	3667.625
179.875	5440.95833
184.002	7059.29167
188.124	8265.625
192.244	8580.29167
196.36	8576.95833
200.472	8389.625
204.581	8243.95833
208.687	8126.95833
212.79	8121.95833
216.889	8168.29167
220.984	8349.625
225.077	8494.95833
229.165	8677.625
233.251	8812.95833
237.333	8937.95833
241.412	8971.625
245.487	8984.29167
249.559	8895.625
253.628	8805.95833
257.694	8684.29167
261.756	8585.29167
265.814	8389.95833
269.87	8103.95833
273.922	7845.625
277.97	7587.29167
282.016	7356.29167
286.058	7106.625
290.097	7017.29167
294.132	6914.625
298.164	6795.625
302.193	6512.95833
306.219	6065.95833
310.241	5529.95833
314.26	5037.29167
318.276	4655.625
322.288	4362.625
326.297	4123.95833
330.303	3967.625
334.305	3843.95833
338.305	3809.625
342.301	3750.95833
346.294	3732.29167
350.283	3671.29167
354.269	3648.95833
358.252	3627.95833
362.232	3610.95833
366.209	3589.625
370.182	3555.95833
374.152	3533.29167
378.119	3546.95833
382.083	3534.95833
386.043	3561.95833
390	3531.95833
393.954	3493.95833
397.905	3443.95833
401.852	3425.29167
405.797	3356.625
409.738	3325.625
413.676	3295.95833
417.61	3247.29167
421.542	3253.95833
425.47	3195.95833
429.396	3161.29167
433.318	3136.29167
437.236	3126.29167
441.152	3120.625
445.065	3053.625
448.974	3053.29167
452.88	3021.625
456.783	3020.29167
460.683	3011.29167
464.58	3007.625
468.473	3024.29167
472.364	3009.95833
476.251	3016.95833
480.135	3046.625
484.016	3087.29167
487.894	3101.29167
491.769	3098.29167
495.641	3121.625
499.509	3100.95833
503.375	3117.29167
507.237	3088.29167
511.096	3076.625
514.952	3060.95833
518.805	3090.29167
522.655	3070.29167
526.502	3036.625
530.346	3057.29167
534.187	3061.29167
538.024	3022.95833
541.859	3037.29167
545.69	3054.29167
549.519	3040.625
553.344	3026.625
557.166	2989.95833
560.985	2975.95833
564.802	2923.29167
568.615	2881.29167
572.425	2859.625
576.232	2822.29167
580.036	2818.625
583.836	2846.29167
587.634	2848.95833
591.429	2813.625
595.221	2884.625
599.01	2903.29167
602.796	2916.29167
606.578	2957.29167
610.358	2979.95833
614.135	2933.95833
617.909	2956.29167
621.679	2916.625
625.447	2930.95833
629.212	2940.29167
632.973	2906.29167
636.732	2897.29167
640.488	2917.625
644.241	2884.29167
647.991	2880.29167
651.737	2911.95833
655.481	2868.625
659.222	2912.95833
662.96	2907.95833
666.695	2897.625
670.427	2904.625
674.156	2930.29167
677.882	2903.625
681.605	2905.95833
685.325	2881.625
689.043	2900.625
692.757	2862.95833
696.468	2891.95833
700.177	2888.29167
703.882	2893.95833
707.585	2857.95833
711.284	2874.95833
714.981	2900.625
718.675	2875.95833
722.366	2908.95833
726.054	2880.625
729.739	2888.29167
733.421	2895.29167
737.1	2857.625
740.777	2919.29167
744.45	2935.29167
748.121	2948.29167
751.789	3003.625
755.453	3017.95833
759.115	3019.625
762.774	3057.29167
766.431	3080.625
770.084	3115.29167
773.734	3133.625
777.382	3186.95833
781.027	3211.95833
784.669	3227.95833
788.308	3232.625
791.944	3265.95833
795.577	3292.625
799.208	3360.95833
802.835	3374.625
806.46	3383.29167
810.082	3433.29167
813.701	3455.95833
817.317	3494.625
820.931	3466.29167
824.542	3478.95833
828.149	3432.625
831.754	3411.29167
835.357	3376.625
838.956	3381.95833
842.553	3372.625
846.146	3372.625
849.737	3326.29167
853.326	3337.95833
856.911	3343.625
860.493	3410.625
864.073	3449.625
867.65	3486.95833
871.225	3531.29167
874.796	3538.95833
878.365	3533.625
881.931	3572.625
885.494	3568.625
889.054	3579.95833
892.612	3600.29167
896.166	3558.625
899.719	3512.95833
903.268	3493.95833
906.814	3476.95833
910.358	3468.29167
913.899	3444.95833
917.438	3494.29167
920.973	3466.625
924.506	3485.95833
928.036	3546.625
931.564	3585.625
935.088	3630.95833
938.61	3611.95833
942.129	3639.29167
945.646	3690.625
949.16	3803.29167
952.671	3848.29167
956.179	3939.95833
959.685	3909.29167
963.188	3902.95833
966.688	3854.625
970.185	3760.625
973.68	3690.625
977.173	3657.625
980.662	3669.29167
984.149	3655.29167
987.633	3676.29167
991.114	3747.29167
994.593	3848.29167
998.069	3967.625
1001.542	4073.625
1005.013	3980.95833
1008.481	3779.29167
1011.947	3709.29167
1015.409	3687.95833
1018.869	3687.95833
1022.327	3684.29167
1025.782	3650.95833
1029.234	3680.95833
1032.683	3628.95833
1036.13	3467.95833
1039.574	3352.95833
1043.016	3275.625
1046.455	3218.29167
1049.891	3176.95833
1053.325	3150.29167
1056.756	3184.625
1060.184	3199.29167
1063.61	3190.625
1067.033	3212.625
1070.454	3200.29167
1073.872	3237.625
1077.287	3247.95833
1080.7	3232.29167
1084.11	3261.95833
1087.517	3228.29167
1090.922	3201.29167
1094.325	3165.29167
1097.724	3128.29167
1101.122	3109.29167
1104.516	3108.29167
1107.908	3123.29167
1111.298	3162.29167
1114.684	3237.95833
1118.069	3260.29167
1121.45	3281.95833
1124.83	3282.625
1128.206	3329.95833
1131.58	3337.625
1134.951	3417.625
1138.32	3523.29167
1141.687	3678.625
1145.05	3794.95833
1148.412	3836.29167
1151.77	3832.95833
1155.126	3824.95833
1158.48	3827.625
1161.831	3862.95833
1165.18	3899.29167
1168.525	3982.95833
1171.869	3998.625
1175.21	4055.625
1178.548	4090.625
1181.884	4139.95833
1185.217	4174.95833
1188.548	4246.625
1191.877	4264.625
1195.202	4346.625
1198.526	4409.95833
1201.846	4423.95833
1205.165	4382.29167
1208.48	4352.95833
1211.794	4348.95833
1215.104	4363.29167
1218.413	4346.625
1221.719	4314.95833
1225.022	4276.29167
1228.323	4232.29167
1231.621	4253.29167
1234.917	4234.625
1238.21	4243.95833
1241.501	4241.625
1244.79	4261.625
1248.076	4258.625
1251.359	4270.95833
1254.64	4381.625
1257.919	4355.29167
1261.195	4463.625
1264.468	4519.625
1267.74	4628.625
1271.008	4615.95833
1274.275	4587.95833
1277.538	4561.95833
1280.8	4538.625
1284.059	4548.625
1287.315	4596.95833
1290.569	4572.95833
1293.821	4624.29167
1297.07	4657.29167
1300.317	4662.95833
1303.562	4631.29167
1306.803	4585.95833
1310.043	4559.95833
1313.28	4510.29167
1316.515	4444.29167
1319.747	4436.625
1322.977	4361.625
1326.204	4321.29167
1329.429	4247.95833
1332.652	4217.625
1335.872	4238.625
1339.09	4206.29167
1342.306	4205.625
1345.519	4205.29167
1348.729	4160.625
1351.938	4157.625
1355.144	4118.625
1358.347	4036.625
1361.548	4046.625
1364.747	4051.29167
1367.944	4045.625
1371.138	4081.29167
1374.329	4092.95833
1377.518	4101.625
1380.705	4174.29167
1383.89	4145.625
1387.072	3998.625
1390.252	3857.95833
1393.429	3733.95833
1396.605	3638.29167
1399.777	3510.29167
1402.948	3481.95833
1406.116	3450.625
1409.282	3455.625
1412.445	3454.625
1415.606	3500.625
1418.765	3530.29167
1421.921	3581.95833
1425.075	3697.95833
1428.227	3803.29167
1431.376	3944.95833
1434.524	4118.29167
1437.668	4205.625
1440.811	4246.29167
1443.951	4287.29167
1447.089	4288.625
1450.224	4285.95833
1453.357	4260.625
1456.488	4235.29167
1459.617	4148.625
1462.743	4116.95833
1465.867	4046.95833
1468.989	4020.95833
1472.108	3936.29167
1475.225	3893.625
1478.34	3858.29167
1481.453	3853.29167
1484.563	3857.95833
1487.671	3894.95833
1490.776	3962.625
1493.88	4054.29167
1496.981	4128.95833
1500.08	4215.625
1503.176	4276.95833
1506.271	4364.95833
1509.363	4425.95833
1512.452	4487.95833
1515.54	4583.95833
1518.625	4685.625
1521.708	4904.625
1524.789	5199.95833
1527.867	5523.625
1530.944	5841.29167
1534.018	6104.95833
1537.089	6223.625
1540.159	6143.95833
1543.226	5984.29167
1546.291	5740.625
1549.354	5557.29167
1552.415	5392.95833
1555.473	5268.625
1558.529	5171.29167
1561.583	5132.29167
1564.634	5089.95833
1567.684	5096.95833
1570.731	5085.625
1573.776	5155.625
1576.819	5200.625
1579.859	5275.625
1582.898	5326.29167
1585.934	5344.625
1588.968	5364.625
1591.999	5349.625
1595.029	5335.29167
1598.056	5351.95833
1601.081	5387.29167
1604.104	5345.95833
1607.125	5276.95833
1610.144	5170.625
1613.16	5117.95833
1616.174	4965.625
1619.186	4873.95833
1622.196	4789.29167
1625.203	4660.95833
1628.209	4622.29167
1631.212	4586.29167
1634.213	4558.29167
1637.212	4533.29167
1640.209	4456.625
1643.203	4347.95833
1646.196	4196.625
1649.186	4037.625
1652.174	3905.625
1655.16	3748.625
1658.144	3633.29167
1661.125	3467.625
1664.105	3311.625
1667.082	3127.95833
1670.057	2953.625
1673.03	2764.29167
1676.001	2597.95833
1678.97	2426.95833
1681.937	2275.95833
1684.901	2156.95833
1687.863	2084.29167
1690.824	1996.95833
1693.782	1953.95833
1696.738	1883.29167
1699.692	1844.29167
1702.643	1809.95833
1705.593	1781.625
1708.54	1768.95833
1711.486	1739.29167
1714.429	1713.625
1717.37	1695.29167
1720.309	1659.625
1723.246	1664.29167
1726.181	1631.29167
1729.113	1646.29167
1732.044	1610.95833
1734.972	1587.29167
1737.899	1572.29167
1740.823	1580.29167
1743.745	1577.29167
1746.665	1523.95833
1749.583	1503.625
1752.499	1488.29167
1755.413	1468.95833
1758.325	1416.29167
1761.235	1433.95833
1764.142	1401.29167
1767.048	1397.625
1769.951	1374.29167
1772.852	1372.95833
1775.752	1359.625
1778.649	1357.625
1781.544	1367.29167
1784.437	1308.95833
1787.328	1344.29167
1790.217	1332.95833
1793.104	1298.29167
1795.989	1310.95833
1798.872	1293.29167
1801.753	1309.29167
1804.631	1320.29167
1807.508	1300.29167
1810.383	1285.625
1813.255	1291.29167
1816.126	1291.625
1818.994	1277.625
1821.861	1260.625
1824.725	1249.29167
1827.587	1245.29167
1830.448	1249.95833
1833.306	1210.95833
1836.162	1235.95833
1839.017	1227.29167
1841.869	1213.29167
1844.719	1206.29167
1847.567	1192.625
1850.414	1211.625
1853.258	1203.95833
1856.1	1209.29167
1858.94	1212.625
1861.778	1203.625
1864.614	1195.95833
1867.448	1205.625
1870.28	1183.625
1873.111	1213.625
1875.939	1205.95833
1878.765	1213.625
1881.589	1205.29167
1884.411	1168.95833
1887.231	1201.29167
1890.049	1184.625
1892.865	1166.625
1895.68	1146.95833
1898.492	1149.625
1901.302	1152.625
1904.11	1149.29167
1906.916	1132.625
1909.721	1136.95833
1912.523	1144.95833
1915.323	1126.625
1918.122	1123.95833
1920.918	1129.29167
1923.712	1116.625
1926.505	1126.95833
1929.295	1102.625
1932.084	1110.625
1934.87	1116.625
1937.655	1099.95833
1940.438	1098.625
1943.218	1092.29167
1945.997	1101.95833
1948.774	1123.625
1951.549	1106.95833
1954.322	1101.625
1957.093	1107.625
1959.862	1091.95833
1962.629	1080.625
1965.394	1088.95833
1968.157	1068.29167
1970.918	1084.625
1973.678	1076.29167
1976.435	1087.625
1979.19	1061.95833
1981.944	1045.29167
1984.696	1059.625
1987.445	1050.95833
1990.193	1052.625
1992.939	1076.29167
1995.683	1066.625
1998.425	1025.95833
2001.165	1063.29167
2003.903	1035.29167
2006.639	1032.29167
2009.374	1039.625
2012.106	1031.95833
2014.837	1013.625
2017.566	1022.625
2020.292	1034.29167
2023.017	1039.29167
2025.74	1013.625
2028.461	1021.29167
2031.18	1017.95833
2033.898	1015.625
2036.613	1008.29167
2039.327	1022.95833
2042.038	997.625
2044.748	1010.625
2047.456	1003.95833
2050.162	989.29167
2052.866	995.29167
2055.568	993.29167
2058.268	989.625
2060.967	991.29167
2063.663	978.95833
2066.358	992.625
2069.051	973.29167
2071.742	977.625
2074.431	989.625
2077.118	989.29167
2079.804	957.95833
2082.487	978.95833
2085.169	987.95833
2087.849	1002.625
2090.527	982.625
2093.203	1013.625
2095.877	1000.95833
2098.55	1009.29167
2101.22	1018.29167
2103.889	1015.95833
2106.556	1014.95833
2109.221	1057.29167
2111.884	1068.29167
2114.546	1143.625
2117.205	1187.625
2119.863	1306.625
2122.519	1377.29167
2125.173	1479.95833
2127.825	1589.625
2130.475	1637.29167
2133.124	1602.29167
2135.771	1546.625
2138.416	1499.95833
2141.059	1409.29167
2143.7	1353.625
2146.339	1280.29167
2148.977	1208.29167
2151.613	1196.29167
2154.247	1142.29167
2156.879	1141.95833
2159.51	1112.95833
2162.138	1104.29167
2164.765	1124.95833
2167.39	1109.95833
2170.013	1131.29167
2172.634	1113.625
2175.254	1117.95833
2177.872	1141.29167
2180.488	1100.95833
2183.102	1107.29167
2185.714	1078.29167
2188.325	1050.95833
2190.934	1053.625
2193.541	1031.95833
2196.146	1009.29167
2198.75	987.625
2201.351	978.95833
2203.951	957.625
2206.549	950.625
2209.146	933.95833
2211.74	918.625
2214.333	920.625
2216.924	889.29167
2219.514	904.625
2222.101	878.29167
2224.687	897.29167
2227.271	874.29167
2229.853	869.29167
2232.433	850.29167
2235.012	872.625
2237.589	880.95833
2240.164	866.95833
2242.738	854.95833
2245.309	848.95833
2247.879	846.625
2250.448	833.29167
2253.014	818.95833
2255.579	809.625
2258.142	800.29167
2260.703	798.95833
2263.262	789.625
2265.82	787.625
2268.376	791.625
2270.93	770.95833
2273.483	770.95833
2276.033	771.625
2278.583	757.29167
2281.13	749.95833
2283.675	741.29167
2286.219	747.95833
2288.761	747.95833
2291.302	752.625
2293.841	742.29167
2296.377	724.625
2298.913	726.95833
2301.446	745.625
2303.978	730.625
2306.508	712.29167
2309.037	723.625
2311.563	724.29167
2314.088	728.625
2316.612	707.29167
2319.133	710.625
2321.653	710.625
2324.171	695.95833
2326.688	707.95833
2329.202	690.625
2331.715	700.625
2334.227	688.29167
2336.736	700.29167
2339.244	674.29167
2341.751	666.29167
2344.255	685.95833
2346.758	679.625
2349.259	682.625
2351.759	672.625
2354.257	677.29167
2356.753	674.29167
2359.247	664.95833
2361.74	684.29167
2364.231	661.29167
2366.721	678.29167
2369.209	652.95833
2371.695	656.29167
2374.179	659.29167
2376.662	657.625
2379.143	675.95833
2381.622	657.625
2384.1	654.95833
2386.576	645.29167
2389.051	666.29167
2391.524	662.95833
2393.995	661.95833
2396.464	638.95833
2398.932	632.29167
2401.398	643.29167
2403.863	633.95833
2406.325	636.29167
2408.787	631.625
2411.246	639.95833
2413.704	645.95833
2416.16	622.29167
2418.615	638.625
2421.068	631.29167
2423.519	629.29167
2425.969	611.29167
2428.417	626.29167
2430.863	642.95833
2433.308	632.625
2435.751	611.95833
2438.193	614.625
2440.633	627.625
2443.071	627.29167
2445.508	601.95833
2447.943	610.29167
2450.376	602.95833
2452.808	614.29167
2455.238	596.95833
2457.667	634.29167
2460.093	603.29167
2462.519	592.625
2464.942	595.95833
2467.365	606.29167
2469.785	603.29167
2472.204	586.29167
2474.621	590.95833
2477.037	605.29167
2479.451	573.29167
2481.863	576.29167
2484.274	571.29167
2486.683	583.625
2489.091	594.625
2491.497	581.625
2493.901	576.95833
2496.304	577.29167
2498.705	573.29167
2501.105	574.29167
2503.503	608.29167
2505.899	561.29167
2508.294	591.29167
2510.687	562.625
2513.079	560.625
2515.469	559.29167
2517.858	554.29167
2520.245	571.625
2522.63	564.29167
2525.014	558.625
2527.396	552.625
2529.776	557.625
2532.156	561.29167
2534.533	540.29167
2536.909	548.29167
2539.283	537.625
2541.656	546.625
2544.027	570.625
2546.397	560.95833
2548.765	543.625
2551.131	534.95833
2553.496	538.29167
2555.86	555.29167
2558.221	542.95833
2560.582	543.625
2562.94	536.29167
2565.298	530.625
2567.653	555.625
2570.007	526.95833
2572.36	548.29167
2574.711	539.95833
2577.06	554.29167
2579.408	527.29167
2581.754	545.29167
2584.099	537.625
2586.442	523.625
2588.784	538.29167
2591.124	533.29167
2593.463	524.95833
2595.8	533.625
2598.135	512.29167
2600.469	519.95833
2602.802	534.95833
2605.133	539.95833
2607.462	520.625
2609.79	506.29167
2612.116	522.95833
2614.441	525.29167
2616.764	521.625
2619.086	521.95833
2621.406	508.625
2623.725	536.625
2626.042	520.29167
2628.358	520.95833
2630.672	511.29167
2632.985	527.95833
2635.296	512.95833
2637.606	526.29167
2639.914	513.95833
2642.22	516.625
2644.525	509.95833
2646.829	513.95833
2649.131	533.29167
2651.432	528.625
2653.731	511.95833
2656.028	520.95833
2658.324	523.29167
2660.619	504.625
2662.912	530.29167
2665.204	515.625
2667.494	532.95833
2669.782	506.95833
2672.07	519.95833
2674.355	531.95833
2676.639	519.29167
2678.922	516.625
2681.203	530.29167
2683.483	507.29167
2685.761	502.95833
2688.038	516.29167
2690.313	530.29167
2692.587	520.95833
2694.859	522.95833
2697.13	520.625
2699.399	524.95833
2701.667	536.29167
2703.933	548.95833
2706.198	532.95833
2708.461	547.95833
2710.723	552.29167
2712.984	541.625
2715.243	545.29167
2717.5	538.29167
2719.757	574.625
2722.011	546.95833
2724.264	563.29167
2726.516	566.95833
2728.766	553.95833
2731.015	556.29167
2733.262	554.29167
2735.508	549.95833
2737.753	547.29167
2739.996	538.95833
2742.237	529.625
2744.477	541.625
2746.716	547.29167
2748.953	532.625
2751.189	532.625
2753.423	518.29167
2755.656	513.29167
2757.887	509.625
2760.117	509.95833
2762.346	514.29167
2764.573	501.95833
2766.798	510.29167
2769.022	509.29167
2771.245	510.29167
2773.467	513.95833
2775.686	514.95833
2777.905	526.625
2780.122	529.95833
2782.337	525.625
2784.552	513.95833
2786.764	538.29167
2788.976	531.29167
2791.186	538.29167
2793.394	542.95833
2795.601	552.95833
2797.807	574.29167
2800.011	567.95833
2802.214	576.29167
2804.415	578.95833
2806.615	595.625
2808.814	594.95833
2811.011	602.95833
2813.206	603.625
2815.401	622.29167
2817.594	626.95833
2819.785	636.625
2821.975	627.625
2824.164	646.625
2826.351	675.29167
2828.537	690.625
2830.722	720.29167
2832.905	720.29167
2835.086	757.29167
2837.267	794.625
2839.445	827.95833
2841.623	855.29167
2843.799	895.95833
2845.974	949.625
2848.147	984.95833
2850.319	1003.625
2852.489	1042.625
2854.659	1062.625
2856.826	1084.625
2858.993	1103.625
2861.158	1094.95833
2863.321	1105.625
2865.483	1137.29167
2867.644	1117.625
2869.804	1115.625
2871.962	1115.95833
2874.118	1115.625
2876.274	1093.29167
2878.428	1090.625
2880.58	1096.95833
2882.731	1102.95833
2884.881	1098.95833
2887.03	1084.29167
2889.177	1091.95833
2891.322	1126.625
2893.467	1122.625
2895.61	1114.95833
2897.751	1136.625
2899.892	1119.95833
2902.03	1148.95833
2904.168	1154.95833
2906.304	1152.95833
2908.439	1184.95833
2910.572	1175.625
2912.704	1171.29167
2914.835	1185.95833
2916.965	1185.625
2919.093	1185.29167
2921.219	1160.29167
2923.345	1156.29167
2925.469	1142.625
2927.591	1132.625
2929.712	1084.95833
2931.832	1087.625
2933.951	1052.29167
2936.068	1022.29167
2938.184	984.95833
2940.299	950.95833
2942.412	927.95833
2944.524	879.625
2946.634	853.29167
2948.744	815.29167
2950.851	825.95833
2952.958	776.625
2955.063	752.29167
2957.167	740.29167
2959.269	700.29167
2961.371	708.29167
2963.471	660.29167
2965.569	666.625
2967.666	626.95833
2969.762	604.625
2971.857	589.625
2973.95	568.625
2976.042	567.625
2978.133	546.95833
2980.222	532.29167
2982.31	511.625
2984.396	497.29167
2986.482	494.95833
2988.566	496.625
2990.648	473.625
2992.73	465.625
2994.81	449.29167
2996.889	458.625
2998.966	445.95833
3001.042	442.95833
3003.117	441.95833
3005.191	437.625
3007.263	425.29167
3009.334	421.625
3011.403	417.29167
3013.472	399.625
3015.539	399.95833
3017.604	413.625
3019.669	370.29167
3021.732	363.95833
3023.794	378.625
3025.854	369.95833
3027.914	355.95833
3029.971	373.95833
3032.028	364.95833
3034.083	358.29167
3036.137	358.625
3038.19	339.29167
3040.242	328.625
3042.292	326.625
3044.341	314.95833
3046.388	332.29167
3048.435	307.625
3050.48	324.95833
3052.524	318.625
3054.566	296.95833
3056.607	311.95833
3058.647	306.29167
3060.686	287.625
3062.723	284.625
3064.759	271.29167
3066.794	1.625
3068.828	-3.375
3070.86	-0.70833
