-0.839	422.375
3.438	434.375
7.711	122.70833
11.981	57.04167
16.247	47.375
20.509	44.04167
24.768	42.70833
29.024	51.70833
33.276	46.04167
37.524	50.70833
41.769	46.04167
46.01	40.70833
50.247	58.375
54.481	65.70833
58.712	65.70833
62.939	52.04167
67.162	62.70833
71.382	60.04167
75.599	56.375
79.812	67.04167
84.021	82.04167
88.227	64.375
92.429	71.04167
96.628	50.04167
100.823	68.70833
105.015	85.04167
109.204	84.04167
113.388	85.375
117.57	83.70833
121.748	103.04167
125.922	90.04167
130.093	104.04167
134.261	122.375
138.425	108.04167
142.585	154.04167
146.742	155.70833
150.896	189.04167
155.046	238.70833
159.193	385.375
163.336	660.04167
167.476	1244.70833
171.613	2273.04167
175.746	3772.70833
179.875	5563.375
184.002	7312.70833
188.124	8444.04167
192.244	8814.375
196.36	8732.04167
200.472	8443.04167
204.581	8229.70833
208.687	8059.70833
212.79	7966.70833
216.889	7995.375
220.984	8102.70833
225.077	8233.70833
229.165	8323.04167
233.251	8445.375
237.333	8498.70833
241.412	8529.375
245.487	8491.70833
249.559	8423.70833
253.628	8330.04167
257.694	8248.70833
261.756	8175.375
265.814	7989.375
269.87	7717.04167
273.922	7484.04167
277.97	7223.70833
282.016	6981.375
286.058	6898.70833
290.097	6787.04167
294.132	6788.04167
298.164	6672.70833
302.193	6367.375
306.219	5893.375
310.241	5354.375
314.26	4855.70833
318.276	4455.04167
322.288	4171.04167
326.297	3951.04167
330.303	3769.04167
334.305	3673.375
338.305	3598.04167
342.301	3520.04167
346.294	3485.04167
350.283	3441.70833
354.269	3413.04167
358.252	3404.04167
362.232	3359.375
366.209	3345.70833
370.182	3297.375
374.152	3303.04167
378.119	3300.04167
382.083	3275.70833
386.043	3324.70833
390	3265.70833
393.954	3233.375
397.905	3212.04167
401.852	3188.04167
405.797	3147.375
409.738	3118.04167
413.676	3063.70833
417.61	3052.375
421.542	3012.70833
425.47	2985.04167
429.396	2922.375
433.318	2907.04167
437.236	2914.70833
441.152	2922.375
445.065	2882.70833
448.974	2872.70833
452.88	2837.70833
456.783	2814.70833
460.683	2804.70833
464.58	2817.70833
468.473	2802.375
472.364	2822.04167
476.251	2821.70833
480.135	2838.375
484.016	2845.70833
487.894	2861.375
491.769	2883.04167
495.641	2882.375
499.509	2891.375
503.375	2893.04167
507.237	2871.04167
511.096	2867.375
514.952	2868.375
518.805	2861.70833
522.655	2866.375
526.502	2836.70833
530.346	2837.04167
534.187	2876.375
538.024	2860.04167
541.859	2849.70833
545.69	2887.70833
549.519	2844.375
553.344	2850.70833
557.166	2792.04167
560.985	2767.70833
564.802	2739.04167
568.615	2705.04167
572.425	2665.375
576.232	2639.04167
580.036	2631.375
583.836	2647.375
587.634	2645.70833
591.429	2656.375
595.221	2703.375
599.01	2721.04167
602.796	2773.04167
606.578	2774.70833
610.358	2804.375
614.135	2780.70833
617.909	2775.70833
621.679	2773.70833
625.447	2726.70833
629.212	2747.04167
632.973	2749.04167
636.732	2737.375
640.488	2739.375
644.241	2729.375
647.991	2689.04167
651.737	2709.04167
655.481	2740.70833
659.222	2751.375
662.96	2754.375
666.695	2763.70833
670.427	2754.70833
674.156	2763.70833
677.882	2733.70833
681.605	2755.375
685.325	2723.375
689.043	2710.70833
692.757	2697.70833
696.468	2715.375
700.177	2731.70833
703.882	2708.70833
707.585	2705.04167
711.284	2707.375
714.981	2704.375
718.675	2740.375
722.366	2726.70833
726.054	2690.04167
729.739	2727.04167
733.421	2709.70833
737.1	2710.04167
740.777	2735.70833
744.45	2749.70833
748.121	2760.375
751.789	2812.04167
755.453	2803.70833
759.115	2845.70833
762.774	2838.04167
766.431	2873.375
770.084	2909.375
773.734	2949.04167
777.382	3006.04167
781.027	3025.70833
784.669	3031.04167
788.308	3061.375
791.944	3084.04167
795.577	3116.375
799.208	3137.04167
802.835	3153.70833
806.46	3192.70833
810.082	3246.375
813.701	3254.04167
817.317	3294.375
820.931	3286.70833
824.542	3287.70833
828.149	3253.04167
831.754	3169.70833
835.357	3172.04167
838.956	3175.04167
842.553	3160.04167
846.146	3133.70833
849.737	3094.04167
853.326	3121.70833
856.911	3146.04167
860.493	3169.04167
864.073	3207.70833
867.65	3242.04167
871.225	3263.375
874.796	3296.375
878.365	3286.04167
881.931	3308.04167
885.494	3332.375
889.054	3318.04167
892.612	3331.70833
896.166	3312.375
899.719	3266.70833
903.268	3224.70833
906.814	3230.04167
910.358	3210.70833
913.899	3177.375
917.438	3211.04167
920.973	3216.375
924.506	3251.04167
928.036	3316.375
931.564	3328.375
935.088	3376.375
938.61	3400.04167
942.129	3402.04167
945.646	3486.70833
949.16	3573.70833
952.671	3681.04167
956.179	3714.04167
959.685	3675.70833
963.188	3708.375
966.688	3644.375
970.185	3535.375
973.68	3450.04167
977.173	3410.70833
980.662	3383.70833
984.149	3418.375
987.633	3397.04167
991.114	3464.04167
994.593	3558.04167
998.069	3668.70833
1001.542	3799.70833
1005.013	3699.04167
1008.481	3467.04167
1011.947	3438.70833
1015.409	3418.70833
1018.869	3423.70833
1022.327	3423.375
1025.782	3386.04167
1029.234	3391.04167
1032.683	3344.375
1036.13	3234.04167
1039.574	3125.70833
1043.016	3053.70833
1046.455	2998.04167
1049.891	2956.04167
1053.325	2966.375
1056.756	2960.70833
1060.184	3004.375
1063.61	3008.375
1067.033	3015.04167
1070.454	3033.70833
1073.872	3044.70833
1077.287	3053.04167
1080.7	3077.375
1084.11	3066.70833
1087.517	3044.375
1090.922	3003.70833
1094.325	2971.70833
1097.724	2940.04167
1101.122	2932.70833
1104.516	2918.04167
1107.908	2950.375
1111.298	2977.04167
1114.684	3021.04167
1118.069	3053.70833
1121.45	3065.70833
1124.83	3051.70833
1128.206	3101.70833
1131.58	3109.70833
1134.951	3218.04167
1138.32	3323.375
1141.687	3436.375
1145.05	3555.04167
1148.412	3571.04167
1151.77	3539.375
1155.126	3575.375
1158.48	3545.04167
1161.831	3574.04167
1165.18	3587.04167
1168.525	3620.375
1171.869	3672.375
1175.21	3716.04167
1178.548	3762.70833
1181.884	3798.70833
1185.217	3848.375
1188.548	3923.70833
1191.877	3962.70833
1195.202	4070.04167
1198.526	4101.04167
1201.846	4152.70833
1205.165	4124.375
1208.48	4128.70833
1211.794	4069.375
1215.104	4098.375
1218.413	4100.04167
1221.719	4070.375
1225.022	4042.375
1228.323	4024.375
1231.621	4010.70833
1234.917	3966.375
1238.21	4013.04167
1241.501	4002.04167
1244.79	3997.04167
1248.076	3978.04167
1251.359	4012.375
1254.64	4087.375
1257.919	4103.70833
1261.195	4157.04167
1264.468	4265.04167
1267.74	4332.375
1271.008	4321.70833
1274.275	4326.04167
1277.538	4281.375
1280.8	4292.04167
1284.059	4280.04167
1287.315	4330.04167
1290.569	4360.375
1293.821	4372.70833
1297.07	4393.70833
1300.317	4433.04167
1303.562	4403.375
1306.803	4374.375
1310.043	4312.04167
1313.28	4289.70833
1316.515	4235.375
1319.747	4206.375
1322.977	4135.375
1326.204	4078.04167
1329.429	4008.04167
1332.652	3998.04167
1335.872	4019.70833
1339.09	3982.04167
1342.306	3989.70833
1345.519	3958.04167
1348.729	3905.70833
1351.938	3917.04167
1355.144	3860.70833
1358.347	3793.04167
1361.548	3791.375
1364.747	3827.70833
1367.944	3807.375
1371.138	3826.375
1374.329	3827.70833
1377.518	3852.04167
1380.705	3913.70833
1383.89	3905.04167
1387.072	3801.04167
1390.252	3638.04167
1393.429	3517.04167
1396.605	3411.04167
1399.777	3278.375
1402.948	3266.375
1406.116	3241.375
1409.282	3259.04167
1412.445	3250.70833
1415.606	3278.70833
1418.765	3308.70833
1421.921	3419.04167
1425.075	3467.70833
1428.227	3627.70833
1431.376	3787.04167
1434.524	3902.04167
1437.668	3991.70833
1440.811	4060.04167
1443.951	4090.04167
1447.089	4073.70833
1450.224	4084.04167
1453.357	4052.70833
1456.488	4038.04167
1459.617	3938.375
1462.743	3919.70833
1465.867	3806.375
1468.989	3799.04167
1472.108	3735.70833
1475.225	3652.375
1478.34	3627.70833
1481.453	3612.04167
1484.563	3614.375
1487.671	3653.04167
1490.776	3717.04167
1493.88	3800.70833
1496.981	3896.04167
1500.08	3959.70833
1503.176	4047.70833
1506.271	4081.375
1509.363	4154.375
1512.452	4214.04167
1515.54	4269.04167
1518.625	4389.70833
1521.708	4566.375
1524.789	4806.70833
1527.867	5075.70833
1530.944	5409.70833
1534.018	5654.04167
1537.089	5768.04167
1540.159	5692.375
1543.226	5554.04167
1546.291	5357.70833
1549.354	5169.04167
1552.415	4985.375
1555.473	4870.04167
1558.529	4778.70833
1561.583	4702.375
1564.634	4667.04167
1567.684	4714.70833
1570.731	4730.375
1573.776	4772.375
1576.819	4857.04167
1579.859	4874.70833
1582.898	4967.04167
1585.934	4969.04167
1588.968	4997.70833
1591.999	4971.70833
1595.029	4987.70833
1598.056	5032.375
1601.081	5013.70833
1604.104	4968.375
1607.125	4933.04167
1610.144	4844.04167
1613.16	4739.04167
1616.174	4652.04167
1619.186	4563.375
1622.196	4448.70833
1625.203	4362.04167
1628.209	4303.70833
1631.212	4299.375
1634.213	4229.04167
1637.212	4256.375
1640.209	4181.04167
1643.203	4094.70833
1646.196	3982.70833
1649.186	3796.70833
1652.174	3664.70833
1655.16	3590.70833
1658.144	3465.04167
1661.125	3296.04167
1664.105	3123.375
1667.082	2961.70833
1670.057	2809.04167
1673.03	2625.70833
1676.001	2454.375
1678.97	2309.375
1681.937	2149.04167
1684.901	2052.375
1687.863	1965.375
1690.824	1895.375
1693.782	1856.04167
1696.738	1791.04167
1699.692	1747.375
1702.643	1709.375
1705.593	1685.04167
1708.54	1667.70833
1711.486	1646.04167
1714.429	1613.04167
1717.37	1611.70833
1720.309	1570.04167
1723.246	1585.70833
1726.181	1534.04167
1729.113	1540.70833
1732.044	1520.70833
1734.972	1506.375
1737.899	1506.70833
1740.823	1482.70833
1743.745	1500.04167
1746.665	1425.04167
1749.583	1406.375
1752.499	1411.70833
1755.413	1375.04167
1758.325	1346.375
1761.235	1360.70833
1764.142	1304.70833
1767.048	1313.04167
1769.951	1299.70833
1772.852	1287.375
1775.752	1285.70833
1778.649	1278.04167
1781.544	1287.375
1784.437	1266.375
1787.328	1264.375
1790.217	1247.04167
1793.104	1241.04167
1795.989	1219.375
1798.872	1217.70833
1801.753	1252.04167
1804.631	1238.04167
1807.508	1230.375
1810.383	1226.04167
1813.255	1216.375
1816.126	1205.70833
1818.994	1193.70833
1821.861	1195.04167
1824.725	1188.375
1827.587	1188.04167
1830.448	1183.04167
1833.306	1148.04167
1836.162	1170.70833
1839.017	1148.70833
1841.869	1165.70833
1844.719	1155.04167
1847.567	1136.70833
1850.414	1125.375
1853.258	1132.375
1856.1	1142.375
1858.94	1143.04167
1861.778	1140.70833
1864.614	1135.375
1867.448	1134.375
1870.28	1115.375
1873.111	1144.375
1875.939	1125.70833
1878.765	1136.375
1881.589	1122.375
1884.411	1112.375
1887.231	1119.70833
1890.049	1107.04167
1892.865	1102.375
1895.68	1092.04167
1898.492	1098.04167
1901.302	1090.04167
1904.11	1097.375
1906.916	1064.375
1909.721	1066.04167
1912.523	1065.70833
1915.323	1056.70833
1918.122	1064.70833
1920.918	1062.04167
1923.712	1045.375
1926.505	1055.70833
1929.295	1046.04167
1932.084	1062.70833
1934.87	1073.70833
1937.655	1056.375
1940.438	1048.04167
1943.218	1048.04167
1945.997	1041.375
1948.774	1056.375
1951.549	1063.375
1954.322	1036.04167
1957.093	1051.04167
1959.862	1042.375
1962.629	1040.70833
1965.394	1031.375
1968.157	998.375
1970.918	1019.04167
1973.678	1013.04167
1976.435	1027.375
1979.19	996.375
1981.944	999.375
1984.696	1005.04167
1987.445	987.375
1990.193	1001.04167
1992.939	1006.70833
1995.683	997.04167
1998.425	975.04167
2001.165	1014.375
2003.903	988.04167
2006.639	984.70833
2009.374	988.04167
2012.106	993.70833
2014.837	956.70833
2017.566	995.70833
2020.292	984.375
2023.017	976.375
2025.74	979.04167
2028.461	973.04167
2031.18	981.70833
2033.898	947.70833
2036.613	965.375
2039.327	972.70833
2042.038	944.375
2044.748	952.04167
2047.456	957.70833
2050.162	931.375
2052.866	932.375
2055.568	956.04167
2058.268	935.70833
2060.967	951.70833
2063.663	916.70833
2066.358	933.70833
2069.051	920.70833
2071.742	918.04167
2074.431	941.04167
2077.118	935.04167
2079.804	918.70833
2082.487	931.70833
2085.169	943.04167
2087.849	954.375
2090.527	931.04167
2093.203	940.04167
2095.877	951.04167
2098.55	947.375
2101.22	952.70833
2103.889	964.04167
2106.556	970.70833
2109.221	989.70833
2111.884	999.70833
2114.546	1040.70833
2117.205	1115.04167
2119.863	1199.04167
2122.519	1264.70833
2125.173	1349.04167
2127.825	1435.70833
2130.475	1482.375
2133.124	1461.375
2135.771	1427.375
2138.416	1377.04167
2141.059	1298.04167
2143.7	1264.04167
2146.339	1166.04167
2148.977	1119.04167
2151.613	1110.04167
2154.247	1060.04167
2156.879	1053.70833
2159.51	1040.70833
2162.138	1022.04167
2164.765	1013.04167
2167.39	1002.375
2170.013	1022.375
2172.634	1019.70833
2175.254	1010.04167
2177.872	1024.04167
2180.488	990.04167
2183.102	989.70833
2185.714	977.70833
2188.325	950.04167
2190.934	956.04167
2193.541	939.04167
2196.146	908.04167
2198.75	896.375
2201.351	893.04167
2203.951	868.70833
2206.549	885.375
2209.146	857.375
2211.74	839.375
2214.333	857.375
2216.924	835.70833
2219.514	843.70833
2222.101	817.70833
2224.687	833.375
2227.271	830.04167
2229.853	815.375
2232.433	796.04167
2235.012	825.04167
2237.589	820.70833
2240.164	820.04167
2242.738	809.70833
2245.309	790.375
2247.879	801.70833
2250.448	807.375
2253.014	770.70833
2255.579	757.70833
2258.142	759.375
2260.703	747.375
2263.262	745.04167
2265.82	744.70833
2268.376	743.04167
2270.93	726.70833
2273.483	723.375
2276.033	741.70833
2278.583	728.375
2281.13	723.375
2283.675	698.04167
2286.219	719.04167
2288.761	701.70833
2291.302	730.04167
2293.841	713.375
2296.377	688.375
2298.913	695.70833
2301.446	706.04167
2303.978	699.70833
2306.508	685.70833
2309.037	693.04167
2311.563	690.04167
2314.088	695.70833
2316.612	676.375
2319.133	694.04167
2321.653	679.70833
2324.171	670.04167
2326.688	689.70833
2329.202	664.70833
2331.715	672.375
2334.227	670.375
2336.736	652.70833
2339.244	660.04167
2341.751	650.70833
2344.255	665.70833
2346.758	657.375
2349.259	649.70833
2351.759	655.375
2354.257	648.04167
2356.753	634.70833
2359.247	650.04167
2361.74	655.375
2364.231	643.70833
2366.721	649.375
2369.209	625.04167
2371.695	638.375
2374.179	632.04167
2376.662	632.375
2379.143	643.375
2381.622	627.04167
2384.1	638.70833
2386.576	620.70833
2389.051	647.375
2391.524	636.375
2393.995	630.375
2396.464	618.70833
2398.932	618.70833
2401.398	614.04167
2403.863	612.04167
2406.325	606.70833
2408.787	608.04167
2411.246	613.375
2413.704	607.70833
2416.16	604.04167
2418.615	605.70833
2421.068	600.375
2423.519	608.70833
2425.969	608.04167
2428.417	609.70833
2430.863	620.70833
2433.308	611.04167
2435.751	610.375
2438.193	587.04167
2440.633	601.04167
2443.071	593.04167
2445.508	588.375
2447.943	588.375
2450.376	575.70833
2452.808	591.04167
2455.238	576.70833
2457.667	600.70833
2460.093	583.04167
2462.519	578.70833
2464.942	577.70833
2467.365	587.70833
2469.785	579.04167
2472.204	575.04167
2474.621	563.04167
2477.037	601.375
2479.451	559.375
2481.863	560.04167
2484.274	554.70833
2486.683	566.375
2489.091	574.04167
2491.497	579.375
2493.901	567.375
2496.304	562.375
2498.705	575.04167
2501.105	560.70833
2503.503	575.04167
2505.899	561.375
2508.294	575.70833
2510.687	536.375
2513.079	542.04167
2515.469	544.70833
2517.858	544.375
2520.245	559.70833
2522.63	553.04167
2525.014	541.04167
2527.396	533.375
2529.776	535.04167
2532.156	542.70833
2534.533	531.375
2536.909	536.70833
2539.283	524.70833
2541.656	535.375
2544.027	549.04167
2546.397	531.04167
2548.765	528.04167
2551.131	533.375
2553.496	524.04167
2555.86	530.375
2558.221	530.70833
2560.582	527.70833
2562.94	509.375
2565.298	521.70833
2567.653	542.04167
2570.007	515.70833
2572.36	530.04167
2574.711	511.70833
2577.06	533.70833
2579.408	522.70833
2581.754	523.04167
2584.099	518.375
2586.442	521.04167
2588.784	527.04167
2591.124	529.04167
2593.463	511.70833
2595.8	512.04167
2598.135	500.375
2600.469	511.04167
2602.802	523.04167
2605.133	529.375
2607.462	506.70833
2609.79	496.375
2612.116	508.04167
2614.441	508.04167
2616.764	514.70833
2619.086	505.375
2621.406	502.70833
2623.725	518.375
2626.042	510.70833
2628.358	512.70833
2630.672	505.70833
2632.985	525.70833
2635.296	517.375
2637.606	508.375
2639.914	502.70833
2642.22	512.375
2644.525	511.375
2646.829	512.70833
2649.131	510.04167
2651.432	518.375
2653.731	501.375
2656.028	525.04167
2658.324	518.04167
2660.619	494.70833
2662.912	517.04167
2665.204	497.375
2667.494	524.375
2669.782	513.70833
2672.07	515.375
2674.355	533.375
2676.639	508.04167
2678.922	509.04167
2681.203	525.375
2683.483	504.70833
2685.761	499.04167
2688.038	520.04167
2690.313	523.04167
2692.587	508.70833
2694.859	507.04167
2697.13	509.70833
2699.399	522.375
2701.667	541.04167
2703.933	528.04167
2706.198	540.04167
2708.461	542.375
2710.723	533.375
2712.984	539.375
2715.243	543.04167
2717.5	544.04167
2719.757	558.04167
2722.011	543.04167
2724.264	557.04167
2726.516	576.70833
2728.766	556.375
2731.015	562.70833
2733.262	552.04167
2735.508	544.70833
2737.753	544.04167
2739.996	531.04167
2742.237	523.70833
2744.477	541.04167
2746.716	528.375
2748.953	521.04167
2751.189	539.04167
2753.423	518.70833
2755.656	515.70833
2757.887	510.375
2760.117	518.04167
2762.346	510.04167
2764.573	503.04167
2766.798	496.375
2769.022	510.04167
2771.245	512.375
2773.467	520.375
2775.686	518.70833
2777.905	527.04167
2780.122	532.375
2782.337	533.70833
2784.552	522.04167
2786.764	539.70833
2788.976	542.04167
2791.186	553.375
2793.394	536.375
2795.601	555.04167
2797.807	572.04167
2800.011	566.375
2802.214	583.375
2804.415	576.70833
2806.615	585.375
2808.814	590.375
2811.011	608.375
2813.206	613.04167
2815.401	622.375
2817.594	630.70833
2819.785	637.04167
2821.975	634.375
2824.164	654.375
2826.351	683.375
2828.537	698.375
2830.722	719.375
2832.905	722.04167
2835.086	756.375
2837.267	813.70833
2839.445	837.70833
2841.623	865.70833
2843.799	912.375
2845.974	960.375
2848.147	993.375
2850.319	1039.375
2852.489	1074.70833
2854.659	1077.04167
2856.826	1100.70833
2858.993	1128.04167
2861.158	1118.04167
2863.321	1121.375
2865.483	1145.70833
2867.644	1151.04167
2869.804	1145.375
2871.962	1116.04167
2874.118	1129.70833
2876.274	1131.70833
2878.428	1122.70833
2880.58	1113.375
2882.731	1115.04167
2884.881	1111.04167
2887.03	1116.04167
2889.177	1110.375
2891.322	1149.70833
2893.467	1121.375
2895.61	1141.70833
2897.751	1157.70833
2899.892	1158.04167
2902.03	1167.70833
2904.168	1177.04167
2906.304	1188.375
2908.439	1208.70833
2910.572	1183.70833
2912.704	1217.70833
2914.835	1204.375
2916.965	1199.70833
2919.093	1210.70833
2921.219	1154.04167
2923.345	1192.375
2925.469	1153.375
2927.591	1158.04167
2929.712	1116.70833
2931.832	1109.70833
2933.951	1080.375
2936.068	1049.04167
2938.184	1012.70833
2940.299	973.04167
2942.412	941.375
2944.524	904.375
2946.634	871.04167
2948.744	834.70833
2950.851	834.70833
2952.958	789.375
2955.063	765.375
2957.167	751.70833
2959.269	714.04167
2961.371	729.70833
2963.471	673.375
2965.569	673.70833
2967.666	641.375
2969.762	614.70833
2971.857	607.04167
2973.95	576.375
2976.042	582.04167
2978.133	556.70833
2980.222	540.70833
2982.31	519.04167
2984.396	495.04167
2986.482	502.375
2988.566	500.375
2990.648	478.70833
2992.73	478.375
2994.81	460.04167
2996.889	463.70833
2998.966	448.70833
3001.042	456.375
3003.117	449.70833
3005.191	447.375
3007.263	431.04167
3009.334	433.04167
3011.403	424.04167
3013.472	404.04167
3015.539	400.70833
3017.604	414.70833
3019.669	382.375
3021.732	381.04167
3023.794	386.04167
3025.854	371.70833
3027.914	367.70833
3029.971	379.375
3032.028	359.04167
3034.083	367.70833
3036.137	364.04167
3038.19	335.04167
3040.242	346.04167
3042.292	325.70833
3044.341	337.375
3046.388	344.375
3048.435	314.04167
3050.48	331.70833
3052.524	330.70833
3054.566	303.04167
3056.607	328.04167
3058.647	303.375
3060.686	288.04167
3062.723	283.375
3064.759	274.04167
3066.794	-0.29167
3068.828	0.375
3070.86	-1.95833
