-0.839	415.83333
3.438	443.16667
7.711	118.83333
11.981	57.16667
16.247	45.83333
20.509	44.83333
24.768	44.83333
29.024	49.83333
33.276	46.83333
37.524	51.83333
41.769	42.83333
46.01	40.5
50.247	54.5
54.481	65.16667
58.712	70.83333
62.939	51.5
67.162	63.83333
71.382	62.16667
75.599	51.16667
79.812	65.5
84.021	84.16667
88.227	62.5
92.429	65.5
96.628	50.5
100.823	69.5
105.015	79.16667
109.204	80.16667
113.388	84.5
117.57	79.83333
121.748	100.5
125.922	87.16667
130.093	110.16667
134.261	114.5
138.425	110.5
142.585	159.5
146.742	157.5
150.896	191.16667
155.046	234.16667
159.193	374.83333
163.336	646.5
167.476	1196.83333
171.613	2202.16667
175.746	3653.83333
179.875	5466.16667
184.002	7098.83333
188.124	8222.83333
192.244	8611.83333
196.36	8525.5
200.472	8368.83333
204.581	8181.5
208.687	8045.16667
212.79	8024.16667
216.889	8085.5
220.984	8226.5
225.077	8431.5
229.165	8582.5
233.251	8683.83333
237.333	8798.16667
241.412	8855.16667
245.487	8851.83333
249.559	8718.5
253.628	8634.83333
257.694	8541.5
261.756	8421.83333
265.814	8217.16667
269.87	7973.83333
273.922	7682.5
277.97	7404.83333
282.016	7189.83333
286.058	7026.5
290.097	6922.83333
294.132	6850.5
298.164	6712.83333
302.193	6362.16667
306.219	5893.5
310.241	5370.16667
314.26	4888.16667
318.276	4486.16667
322.288	4234.16667
326.297	4016.5
330.303	3856.5
334.305	3732.16667
338.305	3639.16667
342.301	3573.83333
346.294	3531.16667
350.283	3544.83333
354.269	3496.83333
358.252	3449.83333
362.232	3442.5
366.209	3419.83333
370.182	3367.5
374.152	3383.5
378.119	3375.16667
382.083	3356.83333
386.043	3348.83333
390	3325.5
393.954	3302.5
397.905	3270.83333
401.852	3253.83333
405.797	3193.5
409.738	3158.83333
413.676	3133.83333
417.61	3094.5
421.542	3045.83333
425.47	3028.83333
429.396	2984.16667
433.318	2977.5
437.236	2975.5
441.152	2970.16667
445.065	2898.83333
448.974	2891.5
452.88	2883.83333
456.783	2845.5
460.683	2839.16667
464.58	2849.83333
468.473	2845.5
472.364	2847.83333
476.251	2898.83333
480.135	2877.5
484.016	2904.16667
487.894	2933.83333
491.769	2930.5
495.641	2965.83333
499.509	2948.83333
503.375	2948.5
507.237	2945.16667
511.096	2925.16667
514.952	2920.16667
518.805	2918.83333
522.655	2924.83333
526.502	2875.16667
530.346	2900.83333
534.187	2914.16667
538.024	2882.16667
541.859	2895.16667
545.69	2918.5
549.519	2900.16667
553.344	2889.5
557.166	2846.5
560.985	2806.83333
564.802	2770.5
568.615	2746.16667
572.425	2714.83333
576.232	2693.83333
580.036	2699.83333
583.836	2687.83333
587.634	2696.5
591.429	2693.16667
595.221	2761.83333
599.01	2746.16667
602.796	2777.83333
606.578	2804.83333
610.358	2817.16667
614.135	2808.16667
617.909	2801.16667
621.679	2798.83333
625.447	2771.83333
629.212	2794.16667
632.973	2797.5
636.732	2784.16667
640.488	2771.5
644.241	2742.5
647.991	2742.83333
651.737	2754.83333
655.481	2734.83333
659.222	2746.83333
662.96	2748.83333
666.695	2757.83333
670.427	2769.83333
674.156	2778.83333
677.882	2776.83333
681.605	2756.16667
685.325	2748.16667
689.043	2741.16667
692.757	2699.16667
696.468	2698.83333
700.177	2755.83333
703.882	2727.83333
707.585	2735.5
711.284	2738.16667
714.981	2755.16667
718.675	2735.5
722.366	2736.83333
726.054	2759.16667
729.739	2757.83333
733.421	2740.83333
737.1	2732.16667
740.777	2806.16667
744.45	2771.16667
748.121	2811.83333
751.789	2878.83333
755.453	2851.5
759.115	2875.5
762.774	2923.83333
766.431	2969.5
770.084	2995.16667
773.734	3012.5
777.382	3076.16667
781.027	3074.5
784.669	3112.16667
788.308	3150.83333
791.944	3155.5
795.577	3196.83333
799.208	3201.83333
802.835	3226.16667
806.46	3250.83333
810.082	3274.16667
813.701	3317.83333
817.317	3371.83333
820.931	3357.5
824.542	3371.16667
828.149	3302.83333
831.754	3283.5
835.357	3252.83333
838.956	3291.83333
842.553	3262.83333
846.146	3241.83333
849.737	3239.16667
853.326	3275.16667
856.911	3304.16667
860.493	3344.83333
864.073	3335.16667
867.65	3405.5
871.225	3425.16667
874.796	3434.83333
878.365	3456.5
881.931	3505.5
885.494	3522.83333
889.054	3515.5
892.612	3512.83333
896.166	3485.5
899.719	3456.83333
903.268	3421.16667
906.814	3407.16667
910.358	3410.16667
913.899	3376.16667
917.438	3389.16667
920.973	3357.83333
924.506	3399.5
928.036	3454.5
931.564	3472.5
935.088	3510.83333
938.61	3510.16667
942.129	3556.5
945.646	3628.16667
949.16	3698.5
952.671	3792.16667
956.179	3827.83333
959.685	3791.5
963.188	3786.5
966.688	3729.83333
970.185	3649.5
973.68	3588.16667
977.173	3541.83333
980.662	3526.5
984.149	3536.83333
987.633	3581.16667
991.114	3621.83333
994.593	3724.5
998.069	3858.5
1001.542	3993.5
1005.013	3902.83333
1008.481	3671.16667
1011.947	3623.5
1015.409	3598.16667
1018.869	3616.5
1022.327	3586.5
1025.782	3550.16667
1029.234	3556.16667
1032.683	3498.5
1036.13	3369.5
1039.574	3236.16667
1043.016	3167.5
1046.455	3108.83333
1049.891	3045.16667
1053.325	3073.16667
1056.756	3071.5
1060.184	3092.16667
1063.61	3112.5
1067.033	3119.83333
1070.454	3114.5
1073.872	3142.83333
1077.287	3153.83333
1080.7	3156.5
1084.11	3140.16667
1087.517	3108.83333
1090.922	3078.83333
1094.325	3084.5
1097.724	3035.16667
1101.122	3018.83333
1104.516	3035.16667
1107.908	3056.16667
1111.298	3092.83333
1114.684	3131.5
1118.069	3165.16667
1121.45	3210.16667
1124.83	3208.16667
1128.206	3238.16667
1131.58	3261.83333
1134.951	3372.5
1138.32	3472.83333
1141.687	3609.5
1145.05	3763.16667
1148.412	3775.83333
1151.77	3786.5
1155.126	3787.83333
1158.48	3821.5
1161.831	3848.5
1165.18	3865.83333
1168.525	3945.5
1171.869	3998.16667
1175.21	4035.83333
1178.548	4070.5
1181.884	4120.5
1185.217	4136.16667
1188.548	4212.5
1191.877	4262.16667
1195.202	4306.83333
1198.526	4370.16667
1201.846	4362.83333
1205.165	4351.16667
1208.48	4320.16667
1211.794	4291.16667
1215.104	4288.16667
1218.413	4286.16667
1221.719	4248.5
1225.022	4197.16667
1228.323	4204.5
1231.621	4201.83333
1234.917	4163.83333
1238.21	4190.83333
1241.501	4185.83333
1244.79	4175.5
1248.076	4200.83333
1251.359	4222.16667
1254.64	4340.16667
1257.919	4318.16667
1261.195	4387.16667
1264.468	4495.16667
1267.74	4561.5
1271.008	4570.5
1274.275	4576.83333
1277.538	4519.83333
1280.8	4465.5
1284.059	4498.16667
1287.315	4510.16667
1290.569	4542.83333
1293.821	4547.16667
1297.07	4597.83333
1300.317	4600.83333
1303.562	4596.83333
1306.803	4529.16667
1310.043	4507.5
1313.28	4452.5
1316.515	4407.83333
1319.747	4351.83333
1322.977	4305.16667
1326.204	4239.83333
1329.429	4191.16667
1332.652	4138.83333
1335.872	4148.5
1339.09	4099.83333
1342.306	4112.16667
1345.519	4077.16667
1348.729	4074.5
1351.938	4041.83333
1355.144	3991.83333
1358.347	3938.83333
1361.548	3906.83333
1364.747	3942.5
1367.944	3902.83333
1371.138	3925.5
1374.329	3946.16667
1377.518	4005.16667
1380.705	4018.5
1383.89	4019.16667
1387.072	3883.83333
1390.252	3772.16667
1393.429	3622.83333
1396.605	3525.16667
1399.777	3448.16667
1402.948	3383.16667
1406.116	3375.16667
1409.282	3384.83333
1412.445	3344.16667
1415.606	3414.5
1418.765	3464.5
1421.921	3518.5
1425.075	3611.5
1428.227	3707.16667
1431.376	3912.16667
1434.524	4035.5
1437.668	4115.16667
1440.811	4170.16667
1443.951	4199.5
1447.089	4209.83333
1450.224	4201.5
1453.357	4178.16667
1456.488	4153.83333
1459.617	4126.83333
1462.743	4072.16667
1465.867	3955.16667
1468.989	3946.16667
1472.108	3899.83333
1475.225	3830.5
1478.34	3819.16667
1481.453	3807.16667
1484.563	3807.83333
1487.671	3861.5
1490.776	3961.83333
1493.88	4041.5
1496.981	4138.83333
1500.08	4224.16667
1503.176	4307.83333
1506.271	4378.83333
1509.363	4451.83333
1512.452	4512.16667
1515.54	4596.16667
1518.625	4704.5
1521.708	4933.16667
1524.789	5208.83333
1527.867	5542.83333
1530.944	5902.5
1534.018	6154.83333
1537.089	6265.5
1540.159	6208.83333
1543.226	6017.16667
1546.291	5829.5
1549.354	5638.5
1552.415	5462.83333
1555.473	5325.16667
1558.529	5253.83333
1561.583	5179.83333
1564.634	5124.16667
1567.684	5118.83333
1570.731	5158.5
1573.776	5172.16667
1576.819	5243.83333
1579.859	5311.16667
1582.898	5396.16667
1585.934	5418.5
1588.968	5416.16667
1591.999	5425.83333
1595.029	5399.5
1598.056	5391.83333
1601.081	5429.83333
1604.104	5359.16667
1607.125	5332.5
1610.144	5231.83333
1613.16	5072.16667
1616.174	4959.83333
1619.186	4839.16667
1622.196	4705.5
1625.203	4595.16667
1628.209	4542.16667
1631.212	4472.5
1634.213	4377.16667
1637.212	4378.5
1640.209	4297.16667
1643.203	4147.16667
1646.196	4009.16667
1649.186	3876.16667
1652.174	3703.5
1655.16	3606.16667
1658.144	3469.5
1661.125	3293.5
1664.105	3132.16667
1667.082	2990.83333
1670.057	2812.5
1673.03	2664.5
1676.001	2497.16667
1678.97	2334.5
1681.937	2181.83333
1684.901	2091.5
1687.863	2010.5
1690.824	1923.16667
1693.782	1902.16667
1696.738	1852.16667
1699.692	1796.5
1702.643	1737.83333
1705.593	1714.16667
1708.54	1711.5
1711.486	1693.16667
1714.429	1637.5
1717.37	1630.16667
1720.309	1631.83333
1723.246	1604.16667
1726.181	1559.5
1729.113	1565.16667
1732.044	1548.5
1734.972	1550.16667
1737.899	1527.83333
1740.823	1504.5
1743.745	1518.83333
1746.665	1474.83333
1749.583	1454.16667
1752.499	1427.83333
1755.413	1397.16667
1758.325	1371.83333
1761.235	1363.5
1764.142	1331.83333
1767.048	1314.5
1769.951	1320.83333
1772.852	1322.16667
1775.752	1292.16667
1778.649	1304.16667
1781.544	1284.5
1784.437	1264.5
1787.328	1272.16667
1790.217	1269.16667
1793.104	1256.5
1795.989	1239.16667
1798.872	1241.16667
1801.753	1237.83333
1804.631	1244.5
1807.508	1260.5
1810.383	1234.83333
1813.255	1220.5
1816.126	1225.83333
1818.994	1217.83333
1821.861	1218.5
1824.725	1205.83333
1827.587	1204.16667
1830.448	1191.83333
1833.306	1164.83333
1836.162	1169.5
1839.017	1170.5
1841.869	1167.5
1844.719	1143.5
1847.567	1150.16667
1850.414	1140.16667
1853.258	1142.16667
1856.1	1157.5
1858.94	1155.16667
1861.778	1151.5
1864.614	1130.83333
1867.448	1136.5
1870.28	1131.83333
1873.111	1155.16667
1875.939	1148.16667
1878.765	1148.5
1881.589	1128.16667
1884.411	1124.83333
1887.231	1110.16667
1890.049	1128.16667
1892.865	1129.16667
1895.68	1098.16667
1898.492	1102.5
1901.302	1090.16667
1904.11	1105.16667
1906.916	1084.5
1909.721	1087.5
1912.523	1082.83333
1915.323	1066.16667
1918.122	1073.16667
1920.918	1074.16667
1923.712	1070.5
1926.505	1072.16667
1929.295	1048.5
1932.084	1056.83333
1934.87	1065.16667
1937.655	1047.5
1940.438	1052.5
1943.218	1061.83333
1945.997	1056.16667
1948.774	1061.5
1951.549	1069.83333
1954.322	1038.83333
1957.093	1056.16667
1959.862	1055.83333
1962.629	1041.5
1965.394	1034.16667
1968.157	1024.5
1970.918	1033.5
1973.678	1023.5
1976.435	1020.16667
1979.19	1022.83333
1981.944	1014.5
1984.696	1019.5
1987.445	1006.83333
1990.193	992.16667
1992.939	1017.83333
1995.683	1009.5
1998.425	978.83333
2001.165	1008.83333
2003.903	994.5
2006.639	990.16667
2009.374	988.83333
2012.106	1008.16667
2014.837	962.5
2017.566	1004.5
2020.292	998.5
2023.017	984.16667
2025.74	971.83333
2028.461	979.83333
2031.18	983.5
2033.898	960.5
2036.613	975.83333
2039.327	980.5
2042.038	955.5
2044.748	962.83333
2047.456	969.83333
2050.162	940.83333
2052.866	954.5
2055.568	971.5
2058.268	948.16667
2060.967	960.83333
2063.663	932.83333
2066.358	938.16667
2069.051	942.83333
2071.742	937.5
2074.431	954.5
2077.118	948.5
2079.804	925.83333
2082.487	936.83333
2085.169	951.5
2087.849	979.16667
2090.527	962.83333
2093.203	973.16667
2095.877	971.16667
2098.55	960.83333
2101.22	983.83333
2103.889	986.16667
2106.556	993.5
2109.221	1027.16667
2111.884	1043.16667
2114.546	1114.5
2117.205	1214.5
2119.863	1309.16667
2122.519	1408.16667
2125.173	1486.83333
2127.825	1618.83333
2130.475	1657.16667
2133.124	1653.5
2135.771	1595.16667
2138.416	1533.5
2141.059	1424.5
2143.7	1384.83333
2146.339	1286.83333
2148.977	1212.5
2151.613	1175.83333
2154.247	1148.16667
2156.879	1127.83333
2159.51	1108.5
2162.138	1080.16667
2164.765	1079.16667
2167.39	1080.83333
2170.013	1099.16667
2172.634	1090.5
2175.254	1089.16667
2177.872	1106.5
2180.488	1057.5
2183.102	1061.83333
2185.714	1053.16667
2188.325	1014.5
2190.934	1013.83333
2193.541	1004.16667
2196.146	975.16667
2198.75	954.83333
2201.351	934.83333
2203.951	917.83333
2206.549	922.83333
2209.146	903.16667
2211.74	903.5
2214.333	911.5
2216.924	859.16667
2219.514	865.5
2222.101	863.5
2224.687	871.16667
2227.271	850.16667
2229.853	832.5
2232.433	822.83333
2235.012	845.16667
2237.589	840.16667
2240.164	843.5
2242.738	823.83333
2245.309	814.5
2247.879	810.83333
2250.448	821.83333
2253.014	783.16667
2255.579	768.5
2258.142	769.83333
2260.703	760.16667
2263.262	763.83333
2265.82	750.83333
2268.376	763.83333
2270.93	754.5
2273.483	741.83333
2276.033	724.5
2278.583	731.5
2281.13	731.16667
2283.675	722.83333
2286.219	722.5
2288.761	725.5
2291.302	725.5
2293.841	723.5
2296.377	704.16667
2298.913	707.83333
2301.446	720.16667
2303.978	707.5
2306.508	699.5
2309.037	705.16667
2311.563	702.16667
2314.088	709.5
2316.612	675.5
2319.133	698.16667
2321.653	691.83333
2324.171	675.83333
2326.688	695.5
2329.202	670.16667
2331.715	684.83333
2334.227	676.5
2336.736	673.16667
2339.244	667.83333
2341.751	656.16667
2344.255	670.5
2346.758	665.5
2349.259	647.83333
2351.759	653.5
2354.257	654.16667
2356.753	647.16667
2359.247	649.5
2361.74	659.5
2364.231	641.83333
2366.721	656.83333
2369.209	641.83333
2371.695	632.83333
2374.179	640.83333
2376.662	636.5
2379.143	654.16667
2381.622	637.16667
2384.1	629.16667
2386.576	636.16667
2389.051	644.83333
2391.524	641.83333
2393.995	643.16667
2396.464	626.83333
2398.932	620.16667
2401.398	628.5
2403.863	610.16667
2406.325	623.16667
2408.787	623.5
2411.246	610.16667
2413.704	614.16667
2416.16	611.16667
2418.615	618.5
2421.068	611.16667
2423.519	628.83333
2425.969	609.16667
2428.417	615.83333
2430.863	635.83333
2433.308	612.5
2435.751	608.5
2438.193	603.16667
2440.633	598.83333
2443.071	606.16667
2445.508	587.83333
2447.943	597.16667
2450.376	591.16667
2452.808	585.83333
2455.238	589.16667
2457.667	613.16667
2460.093	592.83333
2462.519	568.5
2464.942	578.5
2467.365	585.5
2469.785	578.16667
2472.204	589.5
2474.621	575.83333
2477.037	584.5
2479.451	558.16667
2481.863	564.16667
2484.274	566.16667
2486.683	574.16667
2489.091	578.5
2491.497	566.83333
2493.901	563.16667
2496.304	562.83333
2498.705	568.83333
2501.105	559.16667
2503.503	585.83333
2505.899	563.16667
2508.294	576.16667
2510.687	559.5
2513.079	550.16667
2515.469	541.16667
2517.858	543.83333
2520.245	569.5
2522.63	551.16667
2525.014	546.83333
2527.396	548.16667
2529.776	545.16667
2532.156	540.16667
2534.533	545.83333
2536.909	537.5
2539.283	521.16667
2541.656	535.16667
2544.027	554.16667
2546.397	545.83333
2548.765	535.5
2551.131	537.83333
2553.496	527.16667
2555.86	549.5
2558.221	538.5
2560.582	541.5
2562.94	522.5
2565.298	535.5
2567.653	546.16667
2570.007	511.16667
2572.36	539.83333
2574.711	527.16667
2577.06	541.16667
2579.408	526.5
2581.754	523.16667
2584.099	530.16667
2586.442	516.16667
2588.784	521.16667
2591.124	524.5
2593.463	517.5
2595.8	518.5
2598.135	512.16667
2600.469	514.83333
2602.802	530.5
2605.133	528.5
2607.462	501.5
2609.79	511.16667
2612.116	516.83333
2614.441	510.16667
2616.764	514.83333
2619.086	507.5
2621.406	499.5
2623.725	515.16667
2626.042	511.5
2628.358	498.16667
2630.672	511.16667
2632.985	508.83333
2635.296	508.83333
2637.606	516.5
2639.914	491.83333
2642.22	516.83333
2644.525	509.83333
2646.829	513.16667
2649.131	527.5
2651.432	524.16667
2653.731	516.5
2656.028	515.16667
2658.324	518.83333
2660.619	509.5
2662.912	520.83333
2665.204	511.83333
2667.494	523.83333
2669.782	501.16667
2672.07	521.83333
2674.355	529.16667
2676.639	523.16667
2678.922	521.5
2681.203	523.5
2683.483	508.16667
2685.761	508.16667
2688.038	509.16667
2690.313	526.5
2692.587	514.83333
2694.859	520.16667
2697.13	510.5
2699.399	518.83333
2701.667	531.16667
2703.933	533.83333
2706.198	540.16667
2708.461	537.16667
2710.723	548.83333
2712.984	550.83333
2715.243	553.83333
2717.5	547.83333
2719.757	560.16667
2722.011	545.5
2724.264	559.5
2726.516	565.16667
2728.766	549.16667
2731.015	556.83333
2733.262	556.16667
2735.508	540.16667
2737.753	551.16667
2739.996	531.83333
2742.237	524.16667
2744.477	546.16667
2746.716	547.83333
2748.953	528.5
2751.189	540.16667
2753.423	525.83333
2755.656	520.5
2757.887	510.83333
2760.117	522.83333
2762.346	508.83333
2764.573	506.16667
2766.798	518.5
2769.022	512.83333
2771.245	521.5
2773.467	512.83333
2775.686	512.16667
2777.905	521.16667
2780.122	525.83333
2782.337	532.83333
2784.552	527.16667
2786.764	539.83333
2788.976	543.16667
2791.186	553.16667
2793.394	545.16667
2795.601	560.5
2797.807	568.5
2800.011	584.5
2802.214	595.16667
2804.415	585.83333
2806.615	588.16667
2808.814	604.5
2811.011	608.83333
2813.206	616.16667
2815.401	630.16667
2817.594	635.83333
2819.785	644.5
2821.975	642.5
2824.164	661.83333
2826.351	672.16667
2828.537	694.83333
2830.722	727.83333
2832.905	721.16667
2835.086	763.83333
2837.267	802.83333
2839.445	833.5
2841.623	855.16667
2843.799	901.5
2845.974	947.5
2848.147	985.5
2850.319	1018.5
2852.489	1062.16667
2854.659	1062.16667
2856.826	1100.16667
2858.993	1114.5
2861.158	1110.83333
2863.321	1095.83333
2865.483	1130.16667
2867.644	1121.16667
2869.804	1109.5
2871.962	1110.5
2874.118	1122.83333
2876.274	1097.16667
2878.428	1094.5
2880.58	1098.83333
2882.731	1099.16667
2884.881	1102.5
2887.03	1106.5
2889.177	1102.16667
2891.322	1122.83333
2893.467	1121.16667
2895.61	1120.83333
2897.751	1145.83333
2899.892	1128.5
2902.03	1164.5
2904.168	1169.5
2906.304	1160.83333
2908.439	1191.5
2910.572	1162.83333
2912.704	1194.5
2914.835	1176.83333
2916.965	1182.16667
2919.093	1187.83333
2921.219	1153.5
2923.345	1160.16667
2925.469	1145.16667
2927.591	1121.5
2929.712	1081.16667
2931.832	1078.16667
2933.951	1045.16667
2936.068	1019.16667
2938.184	990.16667
2940.299	955.83333
2942.412	940.16667
2944.524	879.83333
2946.634	861.83333
2948.744	803.16667
2950.851	819.5
2952.958	762.5
2955.063	737.16667
2957.167	729.83333
2959.269	694.83333
2961.371	710.5
2963.471	662.83333
2965.569	664.5
2967.666	615.5
2969.762	617.16667
2971.857	595.83333
2973.95	575.16667
2976.042	565.83333
2978.133	551.16667
2980.222	535.16667
2982.31	513.16667
2984.396	486.5
2986.482	483.16667
2988.566	492.16667
2990.648	467.5
2992.73	473.16667
2994.81	454.16667
2996.889	459.16667
2998.966	457.83333
3001.042	456.16667
3003.117	443.83333
3005.191	438.83333
3007.263	427.5
3009.334	415.5
3011.403	415.16667
3013.472	397.5
3015.539	409.5
3017.604	405.5
3019.669	371.16667
3021.732	373.5
3023.794	379.16667
3025.854	359.16667
3027.914	363.83333
3029.971	367.5
3032.028	359.83333
3034.083	367.5
3036.137	351.83333
3038.19	340.16667
3040.242	328.83333
3042.292	319.16667
3044.341	326.16667
3046.388	337.5
3048.435	306.5
3050.48	333.83333
3052.524	318.5
3054.566	294.83333
3056.607	314.5
3058.647	300.83333
3060.686	285.5
3062.723	278.16667
3064.759	267.5
3066.794	0.5
3068.828	-1.16667
3070.86	-3.5
