-0.839	413.75
3.438	433.08333
7.711	120.75
11.981	53.75
16.247	49.08333
20.509	45.08333
24.768	49.41667
29.024	46.75
33.276	45.75
37.524	52.41667
41.769	46.75
46.01	39.41667
50.247	56.75
54.481	63.41667
58.712	68.75
62.939	54.75
67.162	63.75
71.382	58.41667
75.599	54.08333
79.812	68.75
84.021	86.41667
88.227	67.41667
92.429	65.75
96.628	53.75
100.823	71.08333
105.015	83.75
109.204	82.08333
113.388	79.41667
117.57	77.41667
121.748	96.08333
125.922	93.75
130.093	114.41667
134.261	118.75
138.425	114.08333
142.585	155.75
146.742	159.08333
150.896	183.75
155.046	229.41667
159.193	377.75
163.336	653.41667
167.476	1196.41667
171.613	2189.75
175.746	3658.08333
179.875	5450.08333
184.002	7120.75
188.124	8197.75
192.244	8590.75
196.36	8502.41667
200.472	8320.41667
204.581	8142.08333
208.687	8043.75
212.79	8018.41667
216.889	8107.75
220.984	8266.41667
225.077	8392.41667
229.165	8573.75
233.251	8706.08333
237.333	8827.41667
241.412	8867.75
245.487	8858.08333
249.559	8769.08333
253.628	8648.08333
257.694	8558.08333
261.756	8447.41667
265.814	8234.41667
269.87	7936.41667
273.922	7681.08333
277.97	7395.41667
282.016	7173.08333
286.058	6993.41667
290.097	6900.08333
294.132	6855.08333
298.164	6705.08333
302.193	6365.41667
306.219	5924.08333
310.241	5423.75
314.26	4912.08333
318.276	4489.75
322.288	4242.41667
326.297	3998.08333
330.303	3867.75
334.305	3725.75
338.305	3648.75
342.301	3621.41667
346.294	3547.41667
350.283	3546.08333
354.269	3487.41667
358.252	3482.08333
362.232	3451.75
366.209	3438.75
370.182	3400.75
374.152	3373.41667
378.119	3385.75
382.083	3390.08333
386.043	3399.75
390	3334.75
393.954	3332.08333
397.905	3267.08333
401.852	3247.75
405.797	3191.75
409.738	3164.08333
413.676	3165.75
417.61	3110.75
421.542	3057.41667
425.47	3034.75
429.396	3025.41667
433.318	2998.08333
437.236	2983.08333
441.152	2975.08333
445.065	2920.75
448.974	2929.08333
452.88	2882.08333
456.783	2891.75
460.683	2863.41667
464.58	2888.75
468.473	2870.41667
472.364	2893.75
476.251	2906.08333
480.135	2878.08333
484.016	2913.75
487.894	2968.41667
491.769	2947.41667
495.641	2951.08333
499.509	2952.41667
503.375	2962.75
507.237	2953.75
511.096	2927.75
514.952	2927.08333
518.805	2939.75
522.655	2931.08333
526.502	2911.08333
530.346	2917.75
534.187	2914.08333
538.024	2911.41667
541.859	2923.08333
545.69	2951.75
549.519	2911.75
553.344	2887.75
557.166	2865.41667
560.985	2841.41667
564.802	2786.08333
568.615	2758.75
572.425	2724.41667
576.232	2712.41667
580.036	2694.41667
583.836	2706.41667
587.634	2709.08333
591.429	2684.75
595.221	2760.75
599.01	2769.75
602.796	2807.75
606.578	2820.41667
610.358	2837.08333
614.135	2804.75
617.909	2809.75
621.679	2804.41667
625.447	2782.08333
629.212	2786.41667
632.973	2811.75
636.732	2796.41667
640.488	2803.08333
644.241	2754.08333
647.991	2767.41667
651.737	2756.75
655.481	2736.08333
659.222	2785.75
662.96	2759.75
666.695	2763.41667
670.427	2766.41667
674.156	2787.08333
677.882	2760.08333
681.605	2764.75
685.325	2741.75
689.043	2747.08333
692.757	2746.41667
696.468	2768.41667
700.177	2757.08333
703.882	2752.08333
707.585	2734.41667
711.284	2754.08333
714.981	2748.41667
718.675	2772.75
722.366	2766.08333
726.054	2728.75
729.739	2755.41667
733.421	2743.75
737.1	2765.41667
740.777	2802.08333
744.45	2802.08333
748.121	2829.08333
751.789	2872.75
755.453	2867.41667
759.115	2899.75
762.774	2922.08333
766.431	2974.75
770.084	2974.08333
773.734	3026.08333
777.382	3089.41667
781.027	3129.08333
784.669	3126.75
788.308	3119.08333
791.944	3192.08333
795.577	3198.41667
799.208	3222.41667
802.835	3234.08333
806.46	3288.41667
810.082	3307.75
813.701	3289.75
817.317	3353.41667
820.931	3348.41667
824.542	3356.75
828.149	3323.41667
831.754	3301.75
835.357	3292.08333
838.956	3295.75
842.553	3257.08333
846.146	3257.41667
849.737	3234.75
853.326	3254.41667
856.911	3300.08333
860.493	3351.75
864.073	3357.08333
867.65	3403.41667
871.225	3435.08333
874.796	3426.75
878.365	3463.08333
881.931	3473.41667
885.494	3500.41667
889.054	3539.41667
892.612	3496.08333
896.166	3499.75
899.719	3473.41667
903.268	3418.41667
906.814	3388.75
910.358	3400.41667
913.899	3370.41667
917.438	3388.08333
920.973	3354.75
924.506	3411.41667
928.036	3459.08333
931.564	3494.08333
935.088	3512.08333
938.61	3506.75
942.129	3545.41667
945.646	3616.08333
949.16	3713.75
952.671	3785.75
956.179	3849.75
959.685	3811.75
963.188	3797.08333
966.688	3733.41667
970.185	3627.75
973.68	3575.41667
977.173	3564.75
980.662	3529.08333
984.149	3530.75
987.633	3593.41667
991.114	3636.08333
994.593	3762.08333
998.069	3871.08333
1001.542	4000.08333
1005.013	3911.41667
1008.481	3698.08333
1011.947	3586.41667
1015.409	3624.41667
1018.869	3631.41667
1022.327	3598.41667
1025.782	3560.41667
1029.234	3567.08333
1032.683	3532.08333
1036.13	3375.08333
1039.574	3266.41667
1043.016	3154.08333
1046.455	3114.41667
1049.891	3066.08333
1053.325	3068.08333
1056.756	3077.75
1060.184	3105.41667
1063.61	3122.75
1067.033	3122.75
1070.454	3103.41667
1073.872	3176.08333
1077.287	3142.41667
1080.7	3152.41667
1084.11	3151.08333
1087.517	3153.75
1090.922	3091.75
1094.325	3066.75
1097.724	3040.41667
1101.122	3028.41667
1104.516	3030.41667
1107.908	3036.75
1111.298	3077.08333
1114.684	3129.41667
1118.069	3179.41667
1121.45	3192.08333
1124.83	3207.41667
1128.206	3229.75
1131.58	3270.08333
1134.951	3360.75
1138.32	3490.08333
1141.687	3643.08333
1145.05	3714.41667
1148.412	3779.41667
1151.77	3775.75
1155.126	3777.41667
1158.48	3782.75
1161.831	3811.08333
1165.18	3860.08333
1168.525	3928.75
1171.869	3992.75
1175.21	3989.75
1178.548	4067.75
1181.884	4105.41667
1185.217	4116.75
1188.548	4196.08333
1191.877	4234.75
1195.202	4321.75
1198.526	4357.41667
1201.846	4332.41667
1205.165	4342.75
1208.48	4292.41667
1211.794	4293.75
1215.104	4274.41667
1218.413	4269.08333
1221.719	4244.41667
1225.022	4221.08333
1228.323	4188.08333
1231.621	4191.41667
1234.917	4170.41667
1238.21	4195.75
1241.501	4186.75
1244.79	4214.08333
1248.076	4197.08333
1251.359	4218.75
1254.64	4302.08333
1257.919	4330.75
1261.195	4404.41667
1264.468	4487.08333
1267.74	4537.41667
1271.008	4541.08333
1274.275	4521.41667
1277.538	4487.41667
1280.8	4457.41667
1284.059	4470.41667
1287.315	4527.75
1290.569	4527.41667
1293.821	4580.41667
1297.07	4545.41667
1300.317	4608.08333
1303.562	4600.75
1306.803	4529.41667
1310.043	4489.41667
1313.28	4459.08333
1316.515	4411.75
1319.747	4348.75
1322.977	4317.75
1326.204	4243.41667
1329.429	4161.08333
1332.652	4158.75
1335.872	4124.75
1339.09	4107.08333
1342.306	4109.41667
1345.519	4086.08333
1348.729	4090.75
1351.938	4045.75
1355.144	3979.41667
1358.347	3903.08333
1361.548	3945.75
1364.747	3944.08333
1367.944	3927.41667
1371.138	3966.08333
1374.329	3978.08333
1377.518	4009.75
1380.705	4054.41667
1383.89	4016.41667
1387.072	3915.41667
1390.252	3769.75
1393.429	3654.08333
1396.605	3527.41667
1399.777	3453.41667
1402.948	3387.08333
1406.116	3374.41667
1409.282	3376.75
1412.445	3377.75
1415.606	3397.41667
1418.765	3437.08333
1421.921	3512.41667
1425.075	3587.75
1428.227	3723.41667
1431.376	3920.41667
1434.524	4046.41667
1437.668	4131.75
1440.811	4162.75
1443.951	4209.75
1447.089	4206.08333
1450.224	4194.75
1453.357	4181.08333
1456.488	4169.75
1459.617	4125.41667
1462.743	4067.41667
1465.867	4002.08333
1468.989	3945.75
1472.108	3908.41667
1475.225	3855.75
1478.34	3807.08333
1481.453	3793.41667
1484.563	3823.08333
1487.671	3881.75
1490.776	3938.08333
1493.88	4016.41667
1496.981	4144.41667
1500.08	4249.75
1503.176	4282.41667
1506.271	4355.41667
1509.363	4453.75
1512.452	4508.08333
1515.54	4584.08333
1518.625	4695.08333
1521.708	4922.75
1524.789	5195.75
1527.867	5509.08333
1530.944	5867.41667
1534.018	6152.08333
1537.089	6265.75
1540.159	6210.41667
1543.226	6043.41667
1546.291	5804.08333
1549.354	5622.75
1552.415	5457.75
1555.473	5287.08333
1558.529	5160.41667
1561.583	5165.08333
1564.634	5094.75
1567.684	5098.08333
1570.731	5111.41667
1573.776	5155.75
1576.819	5208.41667
1579.859	5295.08333
1582.898	5364.08333
1585.934	5394.75
1588.968	5396.75
1591.999	5385.08333
1595.029	5378.08333
1598.056	5356.08333
1601.081	5406.08333
1604.104	5369.75
1607.125	5290.08333
1610.144	5197.75
1613.16	5055.08333
1616.174	4941.75
1619.186	4820.75
1622.196	4749.41667
1625.203	4593.41667
1628.209	4547.75
1631.212	4487.08333
1634.213	4444.75
1637.212	4376.08333
1640.209	4330.75
1643.203	4196.75
1646.196	4063.41667
1649.186	3881.08333
1652.174	3753.08333
1655.16	3629.41667
1658.144	3506.41667
1661.125	3306.75
1664.105	3155.75
1667.082	3000.41667
1670.057	2843.41667
1673.03	2690.08333
1676.001	2498.08333
1678.97	2345.75
1681.937	2207.75
1684.901	2093.08333
1687.863	2028.08333
1690.824	1939.41667
1693.782	1910.41667
1696.738	1823.75
1699.692	1800.41667
1702.643	1750.08333
1705.593	1723.08333
1708.54	1703.75
1711.486	1696.75
1714.429	1666.41667
1717.37	1640.75
1720.309	1618.08333
1723.246	1626.08333
1726.181	1579.08333
1729.113	1578.08333
1732.044	1559.08333
1734.972	1552.41667
1737.899	1547.75
1740.823	1523.41667
1743.745	1508.41667
1746.665	1474.08333
1749.583	1439.75
1752.499	1419.08333
1755.413	1422.08333
1758.325	1358.41667
1761.235	1377.41667
1764.142	1336.08333
1767.048	1336.75
1769.951	1321.75
1772.852	1328.08333
1775.752	1310.08333
1778.649	1311.75
1781.544	1294.41667
1784.437	1273.41667
1787.328	1280.41667
1790.217	1291.08333
1793.104	1244.41667
1795.989	1249.08333
1798.872	1235.75
1801.753	1267.08333
1804.631	1248.75
1807.508	1254.41667
1810.383	1244.75
1813.255	1226.75
1816.126	1230.41667
1818.994	1226.41667
1821.861	1214.08333
1824.725	1221.41667
1827.587	1197.75
1830.448	1194.75
1833.306	1179.75
1836.162	1189.08333
1839.017	1165.41667
1841.869	1170.41667
1844.719	1171.41667
1847.567	1148.41667
1850.414	1154.41667
1853.258	1146.41667
1856.1	1166.75
1858.94	1164.08333
1861.778	1151.75
1864.614	1144.08333
1867.448	1155.41667
1870.28	1129.75
1873.111	1155.08333
1875.939	1150.41667
1878.765	1164.75
1881.589	1133.75
1884.411	1122.75
1887.231	1133.75
1890.049	1126.75
1892.865	1124.08333
1895.68	1123.08333
1898.492	1112.41667
1901.302	1101.41667
1904.11	1111.08333
1906.916	1089.08333
1909.721	1066.08333
1912.523	1106.75
1915.323	1076.08333
1918.122	1074.41667
1920.918	1073.75
1923.712	1062.08333
1926.505	1068.75
1929.295	1056.08333
1932.084	1090.08333
1934.87	1072.41667
1937.655	1065.41667
1940.438	1056.08333
1943.218	1062.41667
1945.997	1066.08333
1948.774	1072.08333
1951.549	1066.41667
1954.322	1051.08333
1957.093	1054.08333
1959.862	1043.41667
1962.629	1066.75
1965.394	1041.41667
1968.157	1021.41667
1970.918	1042.08333
1973.678	1015.41667
1976.435	1034.41667
1979.19	1029.41667
1981.944	1011.75
1984.696	1021.08333
1987.445	1010.08333
1990.193	1015.41667
1992.939	1035.75
1995.683	1009.75
1998.425	972.75
2001.165	1078.08333
2003.903	1171.75
2006.639	991.08333
2009.374	1006.75
2012.106	999.75
2014.837	968.41667
2017.566	1000.75
2020.292	999.41667
2023.017	988.41667
2025.74	981.41667
2028.461	966.41667
2031.18	981.08333
2033.898	973.41667
2036.613	988.08333
2039.327	981.08333
2042.038	960.41667
2044.748	968.08333
2047.456	970.08333
2050.162	958.41667
2052.866	939.41667
2055.568	966.75
2058.268	953.41667
2060.967	961.41667
2063.663	937.08333
2066.358	944.08333
2069.051	929.75
2071.742	946.41667
2074.431	961.41667
2077.118	933.75
2079.804	956.41667
2082.487	945.08333
2085.169	952.75
2087.849	960.08333
2090.527	951.75
2093.203	976.08333
2095.877	981.08333
2098.55	971.75
2101.22	992.41667
2103.889	985.08333
2106.556	1004.41667
2109.221	1033.41667
2111.884	1058.75
2114.546	1124.75
2117.205	1189.75
2119.863	1306.75
2122.519	1392.08333
2125.173	1496.41667
2127.825	1605.08333
2130.475	1658.41667
2133.124	1633.41667
2135.771	1575.08333
2138.416	1517.41667
2141.059	1432.41667
2143.7	1358.75
2146.339	1267.08333
2148.977	1202.08333
2151.613	1194.08333
2154.247	1138.08333
2156.879	1130.41667
2159.51	1112.41667
2162.138	1085.08333
2164.765	1095.75
2167.39	1078.75
2170.013	1103.08333
2172.634	1094.41667
2175.254	1086.08333
2177.872	1115.75
2180.488	1072.75
2183.102	1077.75
2185.714	1049.75
2188.325	1032.41667
2190.934	1027.75
2193.541	1015.41667
2196.146	978.41667
2198.75	968.75
2201.351	942.08333
2203.951	920.75
2206.549	916.41667
2209.146	904.41667
2211.74	889.75
2214.333	899.08333
2216.924	878.75
2219.514	878.75
2222.101	854.08333
2224.687	855.75
2227.271	838.75
2229.853	838.75
2232.433	828.75
2235.012	846.75
2237.589	844.08333
2240.164	846.75
2242.738	836.08333
2245.309	807.75
2247.879	808.08333
2250.448	823.08333
2253.014	793.08333
2255.579	785.08333
2258.142	785.75
2260.703	764.75
2263.262	761.75
2265.82	755.75
2268.376	767.41667
2270.93	751.08333
2273.483	737.75
2276.033	736.75
2278.583	742.08333
2281.13	725.75
2283.675	721.08333
2286.219	715.08333
2288.761	721.08333
2291.302	734.75
2293.841	733.41667
2296.377	711.08333
2298.913	706.41667
2301.446	727.08333
2303.978	713.08333
2306.508	703.08333
2309.037	697.08333
2311.563	707.75
2314.088	699.75
2316.612	679.75
2319.133	701.41667
2321.653	692.08333
2324.171	673.08333
2326.688	693.75
2329.202	682.75
2331.715	694.75
2334.227	682.41667
2336.736	677.41667
2339.244	669.08333
2341.751	667.75
2344.255	664.41667
2346.758	669.75
2349.259	653.75
2351.759	654.41667
2354.257	650.75
2356.753	655.41667
2359.247	657.75
2361.74	663.08333
2364.231	645.08333
2366.721	656.08333
2369.209	646.41667
2371.695	645.41667
2374.179	625.41667
2376.662	644.41667
2379.143	651.08333
2381.622	636.75
2384.1	639.75
2386.576	630.75
2389.051	655.75
2391.524	645.41667
2393.995	647.75
2396.464	630.41667
2398.932	624.41667
2401.398	627.08333
2403.863	621.41667
2406.325	613.08333
2408.787	614.41667
2411.246	624.75
2413.704	620.75
2416.16	612.41667
2418.615	612.41667
2421.068	621.08333
2423.519	615.75
2425.969	608.41667
2428.417	617.41667
2430.863	633.41667
2433.308	615.08333
2435.751	611.75
2438.193	595.41667
2440.633	606.75
2443.071	613.41667
2445.508	593.75
2447.943	590.75
2450.376	582.08333
2452.808	596.08333
2455.238	573.75
2457.667	619.75
2460.093	592.41667
2462.519	577.75
2464.942	592.41667
2467.365	592.41667
2469.785	576.41667
2472.204	577.75
2474.621	573.41667
2477.037	587.75
2479.451	570.41667
2481.863	567.41667
2484.274	565.75
2486.683	573.08333
2489.091	578.75
2491.497	571.75
2493.901	566.41667
2496.304	565.41667
2498.705	570.75
2501.105	564.41667
2503.503	588.08333
2505.899	559.08333
2508.294	579.41667
2510.687	559.08333
2513.079	546.41667
2515.469	539.08333
2517.858	557.41667
2520.245	562.08333
2522.63	546.41667
2525.014	548.75
2527.396	544.08333
2529.776	547.08333
2532.156	553.75
2534.533	526.08333
2536.909	532.41667
2539.283	529.08333
2541.656	535.75
2544.027	554.08333
2546.397	543.75
2548.765	532.75
2551.131	530.41667
2553.496	534.75
2555.86	534.41667
2558.221	535.41667
2560.582	521.75
2562.94	520.75
2565.298	527.41667
2567.653	546.41667
2570.007	524.08333
2572.36	529.75
2574.711	530.08333
2577.06	540.08333
2579.408	525.08333
2581.754	523.75
2584.099	523.41667
2586.442	520.75
2588.784	519.41667
2591.124	530.41667
2593.463	522.08333
2595.8	517.08333
2598.135	512.75
2600.469	519.75
2602.802	526.08333
2605.133	517.75
2607.462	505.41667
2609.79	513.75
2612.116	515.41667
2614.441	510.08333
2616.764	511.75
2619.086	508.41667
2621.406	506.75
2623.725	519.08333
2626.042	518.08333
2628.358	506.08333
2630.672	510.08333
2632.985	524.75
2635.296	516.41667
2637.606	505.08333
2639.914	504.75
2642.22	508.75
2644.525	506.08333
2646.829	522.75
2649.131	520.41667
2651.432	528.08333
2653.731	517.41667
2656.028	523.08333
2658.324	507.75
2660.619	513.75
2662.912	534.41667
2665.204	509.41667
2667.494	523.75
2669.782	508.08333
2672.07	517.08333
2674.355	516.75
2676.639	510.08333
2678.922	504.75
2681.203	524.08333
2683.483	508.41667
2685.761	505.41667
2688.038	515.41667
2690.313	531.08333
2692.587	523.75
2694.859	517.75
2697.13	518.08333
2699.399	524.41667
2701.667	542.08333
2703.933	534.75
2706.198	529.75
2708.461	539.08333
2710.723	539.75
2712.984	536.08333
2715.243	556.41667
2717.5	541.08333
2719.757	564.75
2722.011	556.75
2724.264	559.08333
2726.516	565.08333
2728.766	552.08333
2731.015	556.75
2733.262	559.08333
2735.508	555.75
2737.753	552.75
2739.996	523.41667
2742.237	529.41667
2744.477	540.75
2746.716	540.41667
2748.953	539.75
2751.189	531.08333
2753.423	521.41667
2755.656	517.08333
2757.887	513.08333
2760.117	510.75
2762.346	509.41667
2764.573	499.75
2766.798	501.41667
2769.022	516.41667
2771.245	511.08333
2773.467	514.08333
2775.686	517.75
2777.905	528.08333
2780.122	527.08333
2782.337	524.08333
2784.552	527.75
2786.764	541.41667
2788.976	537.08333
2791.186	558.41667
2793.394	542.08333
2795.601	555.41667
2797.807	564.75
2800.011	569.08333
2802.214	577.08333
2804.415	587.41667
2806.615	591.41667
2808.814	602.41667
2811.011	594.08333
2813.206	595.41667
2815.401	628.41667
2817.594	634.41667
2819.785	640.08333
2821.975	640.75
2824.164	655.41667
2826.351	680.75
2828.537	696.41667
2830.722	719.08333
2832.905	725.08333
2835.086	757.41667
2837.267	794.75
2839.445	828.75
2841.623	841.08333
2843.799	912.08333
2845.974	941.41667
2848.147	984.08333
2850.319	1011.41667
2852.489	1048.75
2854.659	1066.08333
2856.826	1092.75
2858.993	1113.08333
2861.158	1093.75
2863.321	1095.41667
2865.483	1133.75
2867.644	1120.08333
2869.804	1115.08333
2871.962	1106.75
2874.118	1111.08333
2876.274	1119.41667
2878.428	1085.08333
2880.58	1098.41667
2882.731	1092.75
2884.881	1094.08333
2887.03	1082.08333
2889.177	1102.41667
2891.322	1111.41667
2893.467	1102.41667
2895.61	1116.75
2897.751	1144.75
2899.892	1136.75
2902.03	1132.08333
2904.168	1158.08333
2906.304	1158.41667
2908.439	1188.41667
2910.572	1138.75
2912.704	1175.75
2914.835	1190.75
2916.965	1174.41667
2919.093	1181.08333
2921.219	1147.08333
2923.345	1159.75
2925.469	1128.08333
2927.591	1127.75
2929.712	1081.75
2931.832	1074.75
2933.951	1051.75
2936.068	1024.41667
2938.184	987.08333
2940.299	952.75
2942.412	933.41667
2944.524	895.08333
2946.634	880.41667
2948.744	804.75
2950.851	813.41667
2952.958	761.41667
2955.063	766.41667
2957.167	741.75
2959.269	704.41667
2961.371	705.08333
2963.471	651.75
2965.569	678.75
2967.666	624.75
2969.762	620.75
2971.857	593.08333
2973.95	569.41667
2976.042	572.41667
2978.133	551.75
2980.222	523.75
2982.31	501.41667
2984.396	492.41667
2986.482	490.08333
2988.566	483.41667
2990.648	464.75
2992.73	463.08333
2994.81	449.41667
2996.889	453.75
2998.966	450.08333
3001.042	451.75
3003.117	441.75
3005.191	436.08333
3007.263	423.75
3009.334	423.41667
3011.403	415.75
3013.472	385.41667
3015.539	400.41667
3017.604	405.75
3019.669	369.41667
3021.732	381.75
3023.794	380.08333
3025.854	362.08333
3027.914	355.75
3029.971	360.75
3032.028	365.75
3034.083	358.41667
3036.137	348.75
3038.19	332.08333
3040.242	334.41667
3042.292	319.41667
3044.341	319.08333
3046.388	335.08333
3048.435	309.75
3050.48	334.41667
3052.524	320.41667
3054.566	295.41667
3056.607	315.75
3058.647	308.08333
3060.686	287.41667
3062.723	279.75
3064.759	272.08333
3066.794	1.41667
3068.828	-1.58333
3070.86	-0.58333
