-0.839	426.70833
3.438	449.04167
7.711	122.70833
11.981	55.04167
16.247	44.70833
20.509	46.375
24.768	48.04167
29.024	51.04167
33.276	45.70833
37.524	52.375
41.769	42.04167
46.01	37.375
50.247	52.375
54.481	66.375
58.712	66.70833
62.939	51.375
67.162	63.70833
71.382	62.04167
75.599	49.04167
79.812	65.70833
84.021	80.70833
88.227	61.04167
92.429	68.375
96.628	51.70833
100.823	72.375
105.015	81.70833
109.204	82.70833
113.388	82.70833
117.57	81.70833
121.748	92.04167
125.922	89.04167
130.093	109.04167
134.261	110.70833
138.425	113.70833
142.585	153.375
146.742	162.04167
150.896	188.70833
155.046	239.375
159.193	394.70833
163.336	659.70833
167.476	1235.70833
171.613	2262.375
175.746	3789.375
179.875	5673.375
184.002	7298.375
188.124	8455.04167
192.244	8862.70833
196.36	8791.04167
200.472	8511.375
204.581	8238.70833
208.687	8053.375
212.79	7926.04167
216.889	8012.04167
220.984	8079.375
225.077	8194.70833
229.165	8316.70833
233.251	8404.70833
237.333	8494.70833
241.412	8526.375
245.487	8503.375
249.559	8413.70833
253.628	8322.375
257.694	8239.04167
261.756	8123.375
265.814	7948.375
269.87	7711.04167
273.922	7441.70833
277.97	7216.04167
282.016	7004.04167
286.058	6925.70833
290.097	6837.375
294.132	6810.70833
298.164	6708.04167
302.193	6368.70833
306.219	5869.70833
310.241	5319.70833
314.26	4827.04167
318.276	4459.375
322.288	4139.70833
326.297	3930.70833
330.303	3741.70833
334.305	3636.375
338.305	3534.70833
342.301	3475.375
346.294	3451.04167
350.283	3404.70833
354.269	3360.04167
358.252	3345.70833
362.232	3314.375
366.209	3285.04167
370.182	3259.04167
374.152	3246.04167
378.119	3234.04167
382.083	3216.04167
386.043	3234.04167
390	3183.04167
393.954	3151.375
397.905	3119.04167
401.852	3113.04167
405.797	3072.375
409.738	3036.375
413.676	2996.70833
417.61	2986.04167
421.542	2956.70833
425.47	2927.70833
429.396	2891.375
433.318	2873.375
437.236	2886.375
441.152	2886.375
445.065	2816.375
448.974	2824.375
452.88	2763.04167
456.783	2750.04167
460.683	2725.04167
464.58	2738.70833
468.473	2757.375
472.364	2745.04167
476.251	2763.04167
480.135	2770.375
484.016	2794.70833
487.894	2800.375
491.769	2810.375
495.641	2813.70833
499.509	2826.04167
503.375	2811.375
507.237	2801.04167
511.096	2802.375
514.952	2804.70833
518.805	2795.70833
522.655	2814.04167
526.502	2784.04167
530.346	2779.70833
534.187	2779.70833
538.024	2801.375
541.859	2821.70833
545.69	2836.04167
549.519	2808.70833
553.344	2818.04167
557.166	2752.375
560.985	2717.04167
564.802	2700.70833
568.615	2638.04167
572.425	2606.04167
576.232	2588.70833
580.036	2572.375
583.836	2605.04167
587.634	2600.70833
591.429	2594.375
595.221	2669.375
599.01	2690.70833
602.796	2705.04167
606.578	2742.04167
610.358	2744.04167
614.135	2713.04167
617.909	2690.04167
621.679	2706.70833
625.447	2688.04167
629.212	2694.04167
632.973	2698.70833
636.732	2707.04167
640.488	2698.70833
644.241	2637.70833
647.991	2651.04167
651.737	2689.375
655.481	2645.375
659.222	2669.70833
662.96	2665.375
666.695	2670.70833
670.427	2693.375
674.156	2695.375
677.882	2714.375
681.605	2683.04167
685.325	2643.70833
689.043	2682.375
692.757	2643.04167
696.468	2663.375
700.177	2646.04167
703.882	2643.70833
707.585	2649.04167
711.284	2651.70833
714.981	2656.375
718.675	2662.70833
722.366	2656.04167
726.054	2667.04167
729.739	2665.70833
733.421	2642.70833
737.1	2647.04167
740.777	2692.04167
744.45	2686.04167
748.121	2731.04167
751.789	2789.70833
755.453	2776.375
759.115	2775.70833
762.774	2811.04167
766.431	2829.70833
770.084	2854.70833
773.734	2879.375
777.382	2958.375
781.027	2973.04167
784.669	2996.375
788.308	3041.04167
791.944	3057.375
795.577	3082.375
799.208	3113.04167
802.835	3138.04167
806.46	3166.375
810.082	3188.70833
813.701	3200.375
817.317	3228.375
820.931	3213.04167
824.542	3212.375
828.149	3181.375
831.754	3143.04167
835.357	3124.04167
838.956	3131.04167
842.553	3123.375
846.146	3101.375
849.737	3101.04167
853.326	3115.70833
856.911	3146.70833
860.493	3162.375
864.073	3189.375
867.65	3247.70833
871.225	3280.70833
874.796	3274.375
878.365	3282.04167
881.931	3299.70833
885.494	3338.70833
889.054	3335.04167
892.612	3324.70833
896.166	3310.70833
899.719	3253.70833
903.268	3234.04167
906.814	3230.375
910.358	3182.04167
913.899	3187.70833
917.438	3192.70833
920.973	3209.375
924.506	3225.375
928.036	3286.04167
931.564	3326.375
935.088	3358.04167
938.61	3371.70833
942.129	3397.04167
945.646	3483.375
949.16	3566.375
952.671	3656.04167
956.179	3703.375
959.685	3660.04167
963.188	3671.375
966.688	3589.04167
970.185	3505.70833
973.68	3418.70833
977.173	3398.375
980.662	3356.70833
984.149	3381.04167
987.633	3339.375
991.114	3415.375
994.593	3515.04167
998.069	3631.70833
1001.542	3760.375
1005.013	3639.375
1008.481	3469.04167
1011.947	3426.375
1015.409	3405.375
1018.869	3409.375
1022.327	3383.70833
1025.782	3390.375
1029.234	3349.70833
1032.683	3299.04167
1036.13	3200.375
1039.574	3083.70833
1043.016	3008.375
1046.455	2963.04167
1049.891	2921.04167
1053.325	2923.70833
1056.756	2953.70833
1060.184	2933.70833
1063.61	2955.375
1067.033	3005.04167
1070.454	2994.04167
1073.872	3035.375
1077.287	3013.04167
1080.7	3037.70833
1084.11	3016.70833
1087.517	3017.70833
1090.922	2966.04167
1094.325	2945.375
1097.724	2921.375
1101.122	2930.04167
1104.516	2909.70833
1107.908	2929.375
1111.298	2957.375
1114.684	3005.70833
1118.069	3040.04167
1121.45	3084.70833
1124.83	3044.04167
1128.206	3076.04167
1131.58	3154.04167
1134.951	3210.375
1138.32	3342.04167
1141.687	3464.70833
1145.05	3578.04167
1148.412	3570.70833
1151.77	3582.04167
1155.126	3570.375
1158.48	3572.375
1161.831	3609.375
1165.18	3601.375
1168.525	3686.04167
1171.869	3746.70833
1175.21	3777.375
1178.548	3792.70833
1181.884	3857.04167
1185.217	3888.04167
1188.548	3939.70833
1191.877	4040.375
1195.202	4105.375
1198.526	4171.375
1201.846	4172.70833
1205.165	4169.70833
1208.48	4124.375
1211.794	4133.375
1215.104	4129.70833
1218.413	4103.375
1221.719	4094.04167
1225.022	4087.375
1228.323	4033.375
1231.621	4004.04167
1234.917	3997.04167
1238.21	4048.375
1241.501	3993.375
1244.79	3982.04167
1248.076	4003.375
1251.359	4037.04167
1254.64	4129.04167
1257.919	4137.04167
1261.195	4207.375
1264.468	4288.375
1267.74	4355.70833
1271.008	4375.70833
1274.275	4359.04167
1277.538	4328.375
1280.8	4300.375
1284.059	4321.04167
1287.315	4335.04167
1290.569	4374.70833
1293.821	4405.04167
1297.07	4419.375
1300.317	4439.70833
1303.562	4424.70833
1306.803	4359.04167
1310.043	4343.375
1313.28	4291.70833
1316.515	4242.04167
1319.747	4217.375
1322.977	4152.70833
1326.204	4089.04167
1329.429	4015.04167
1332.652	3990.375
1335.872	3980.375
1339.09	3956.375
1342.306	3935.375
1345.519	3928.375
1348.729	3909.04167
1351.938	3857.375
1355.144	3806.70833
1358.347	3761.70833
1361.548	3764.04167
1364.747	3767.04167
1367.944	3772.04167
1371.138	3765.375
1374.329	3784.70833
1377.518	3844.375
1380.705	3899.70833
1383.89	3854.04167
1387.072	3761.375
1390.252	3650.04167
1393.429	3493.04167
1396.605	3374.70833
1399.777	3307.70833
1402.948	3267.70833
1406.116	3242.375
1409.282	3237.70833
1412.445	3250.70833
1415.606	3287.375
1418.765	3299.70833
1421.921	3410.70833
1425.075	3471.04167
1428.227	3601.375
1431.376	3779.04167
1434.524	3887.70833
1437.668	4016.375
1440.811	4028.04167
1443.951	4044.70833
1447.089	4085.04167
1450.224	4074.04167
1453.357	4050.375
1456.488	4023.70833
1459.617	3957.04167
1462.743	3875.04167
1465.867	3812.70833
1468.989	3794.04167
1472.108	3740.70833
1475.225	3662.375
1478.34	3623.375
1481.453	3635.375
1484.563	3626.70833
1487.671	3694.04167
1490.776	3767.70833
1493.88	3861.375
1496.981	3934.70833
1500.08	3996.04167
1503.176	4074.70833
1506.271	4151.70833
1509.363	4224.04167
1512.452	4259.375
1515.54	4359.375
1518.625	4453.04167
1521.708	4643.70833
1524.789	4861.70833
1527.867	5181.70833
1530.944	5491.70833
1534.018	5720.04167
1537.089	5866.04167
1540.159	5797.04167
1543.226	5625.375
1546.291	5423.04167
1549.354	5284.70833
1552.415	5097.04167
1555.473	4951.04167
1558.529	4891.70833
1561.583	4803.04167
1564.634	4785.375
1567.684	4794.375
1570.731	4795.04167
1573.776	4867.375
1576.819	4911.70833
1579.859	4974.04167
1582.898	5031.375
1585.934	5083.70833
1588.968	5103.04167
1591.999	5063.04167
1595.029	5062.375
1598.056	5119.04167
1601.081	5097.70833
1604.104	5083.375
1607.125	5026.375
1610.144	4885.04167
1613.16	4785.375
1616.174	4699.375
1619.186	4540.04167
1622.196	4439.04167
1625.203	4343.70833
1628.209	4270.375
1631.212	4211.70833
1634.213	4189.375
1637.212	4182.04167
1640.209	4088.70833
1643.203	3989.04167
1646.196	3850.70833
1649.186	3705.375
1652.174	3576.04167
1655.16	3484.04167
1658.144	3375.04167
1661.125	3189.375
1664.105	3030.375
1667.082	2887.375
1670.057	2751.04167
1673.03	2581.375
1676.001	2426.70833
1678.97	2255.04167
1681.937	2148.375
1684.901	2022.375
1687.863	1952.70833
1690.824	1876.375
1693.782	1832.375
1696.738	1771.04167
1699.692	1723.04167
1702.643	1685.375
1705.593	1669.04167
1708.54	1644.70833
1711.486	1634.375
1714.429	1599.70833
1717.37	1581.70833
1720.309	1547.375
1723.246	1562.04167
1726.181	1522.04167
1729.113	1520.70833
1732.044	1497.70833
1734.972	1482.04167
1737.899	1480.375
1740.823	1462.375
1743.745	1459.375
1746.665	1417.375
1749.583	1400.04167
1752.499	1369.04167
1755.413	1360.375
1758.325	1321.04167
1761.235	1317.04167
1764.142	1281.70833
1767.048	1275.375
1769.951	1274.70833
1772.852	1263.04167
1775.752	1264.70833
1778.649	1255.04167
1781.544	1256.375
1784.437	1226.04167
1787.328	1239.70833
1790.217	1232.70833
1793.104	1213.04167
1795.989	1197.70833
1798.872	1187.375
1801.753	1218.04167
1804.631	1200.375
1807.508	1211.70833
1810.383	1202.375
1813.255	1182.70833
1816.126	1195.375
1818.994	1175.375
1821.861	1168.04167
1824.725	1161.70833
1827.587	1168.375
1830.448	1159.70833
1833.306	1116.04167
1836.162	1134.375
1839.017	1127.70833
1841.869	1124.375
1844.719	1119.70833
1847.567	1104.04167
1850.414	1109.375
1853.258	1110.375
1856.1	1118.04167
1858.94	1119.70833
1861.778	1103.375
1864.614	1096.04167
1867.448	1110.04167
1870.28	1096.70833
1873.111	1118.04167
1875.939	1109.70833
1878.765	1139.375
1881.589	1088.70833
1884.411	1095.375
1887.231	1093.70833
1890.049	1096.04167
1892.865	1090.70833
1895.68	1063.375
1898.492	1065.04167
1901.302	1072.375
1904.11	1070.375
1906.916	1058.375
1909.721	1041.04167
1912.523	1066.375
1915.323	1044.375
1918.122	1039.04167
1920.918	1049.04167
1923.712	1033.375
1926.505	1040.04167
1929.295	1028.70833
1932.084	1035.04167
1934.87	1034.375
1937.655	1034.70833
1940.438	1019.04167
1943.218	1030.375
1945.997	1037.375
1948.774	1029.70833
1951.549	1035.375
1954.322	1023.04167
1957.093	1037.70833
1959.862	1023.70833
1962.629	1015.375
1965.394	1014.375
1968.157	991.04167
1970.918	997.70833
1973.678	984.375
1976.435	996.375
1979.19	997.375
1981.944	986.375
1984.696	979.375
1987.445	987.375
1990.193	987.375
1992.939	989.70833
1995.683	977.70833
1998.425	953.04167
2001.165	995.70833
2003.903	963.04167
2006.639	966.04167
2009.374	966.70833
2012.106	969.375
2014.837	943.04167
2017.566	969.04167
2020.292	970.04167
2023.017	963.70833
2025.74	965.70833
2028.461	958.375
2031.18	953.70833
2033.898	939.375
2036.613	949.04167
2039.327	955.04167
2042.038	936.04167
2044.748	937.375
2047.456	940.04167
2050.162	917.375
2052.866	922.04167
2055.568	942.04167
2058.268	921.04167
2060.967	932.70833
2063.663	910.375
2066.358	923.375
2069.051	911.04167
2071.742	921.70833
2074.431	922.70833
2077.118	919.70833
2079.804	912.70833
2082.487	908.04167
2085.169	930.375
2087.849	933.70833
2090.527	918.04167
2093.203	945.04167
2095.877	925.375
2098.55	935.70833
2101.22	946.375
2103.889	956.375
2106.556	952.70833
2109.221	989.04167
2111.884	1013.70833
2114.546	1060.04167
2117.205	1125.70833
2119.863	1218.70833
2122.519	1290.04167
2125.173	1400.04167
2127.825	1496.04167
2130.475	1511.04167
2133.124	1514.375
2135.771	1467.70833
2138.416	1420.70833
2141.059	1333.70833
2143.7	1280.375
2146.339	1193.70833
2148.977	1143.375
2151.613	1123.70833
2154.247	1090.04167
2156.879	1065.70833
2159.51	1056.70833
2162.138	1019.70833
2164.765	1026.70833
2167.39	998.70833
2170.013	1029.70833
2172.634	1015.04167
2175.254	1001.375
2177.872	1018.70833
2180.488	967.375
2183.102	990.70833
2185.714	980.375
2188.325	935.04167
2190.934	935.04167
2193.541	928.70833
2196.146	908.375
2198.75	889.70833
2201.351	885.70833
2203.951	857.375
2206.549	880.70833
2209.146	846.70833
2211.74	858.375
2214.333	839.04167
2216.924	823.375
2219.514	825.04167
2222.101	822.375
2224.687	830.04167
2227.271	822.375
2229.853	811.04167
2232.433	782.04167
2235.012	822.375
2237.589	816.70833
2240.164	818.375
2242.738	803.375
2245.309	794.375
2247.879	800.375
2250.448	794.375
2253.014	764.70833
2255.579	755.375
2258.142	757.375
2260.703	736.04167
2263.262	732.04167
2265.82	737.04167
2268.376	745.375
2270.93	721.70833
2273.483	724.70833
2276.033	725.70833
2278.583	721.70833
2281.13	717.375
2283.675	699.375
2286.219	702.375
2288.761	718.375
2291.302	717.04167
2293.841	699.375
2296.377	690.04167
2298.913	685.04167
2301.446	699.04167
2303.978	689.375
2306.508	687.04167
2309.037	687.04167
2311.563	691.70833
2314.088	688.375
2316.612	668.04167
2319.133	679.04167
2321.653	669.70833
2324.171	662.04167
2326.688	687.375
2329.202	662.375
2331.715	664.375
2334.227	661.70833
2336.736	658.70833
2339.244	656.04167
2341.751	646.375
2344.255	660.70833
2346.758	647.375
2349.259	650.70833
2351.759	648.375
2354.257	640.04167
2356.753	636.70833
2359.247	648.04167
2361.74	651.04167
2364.231	642.04167
2366.721	645.375
2369.209	641.375
2371.695	631.70833
2374.179	631.375
2376.662	633.375
2379.143	644.04167
2381.622	622.70833
2384.1	634.70833
2386.576	611.375
2389.051	637.04167
2391.524	634.375
2393.995	631.04167
2396.464	619.375
2398.932	612.70833
2401.398	613.70833
2403.863	616.70833
2406.325	610.04167
2408.787	616.70833
2411.246	614.70833
2413.704	606.04167
2416.16	612.70833
2418.615	605.375
2421.068	609.375
2423.519	625.375
2425.969	605.04167
2428.417	605.04167
2430.863	622.70833
2433.308	611.70833
2435.751	607.04167
2438.193	600.70833
2440.633	596.70833
2443.071	597.04167
2445.508	582.70833
2447.943	586.375
2450.376	584.04167
2452.808	589.70833
2455.238	586.70833
2457.667	606.04167
2460.093	577.70833
2462.519	565.375
2464.942	582.04167
2467.365	584.70833
2469.785	575.70833
2472.204	578.70833
2474.621	562.70833
2477.037	592.375
2479.451	566.04167
2481.863	546.375
2484.274	555.04167
2486.683	571.375
2489.091	573.70833
2491.497	565.70833
2493.901	571.70833
2496.304	551.375
2498.705	559.70833
2501.105	552.04167
2503.503	572.70833
2505.899	556.04167
2508.294	571.70833
2510.687	544.70833
2513.079	545.70833
2515.469	542.375
2517.858	545.70833
2520.245	562.70833
2522.63	529.375
2525.014	541.04167
2527.396	541.375
2529.776	535.70833
2532.156	544.375
2534.533	526.375
2536.909	536.04167
2539.283	522.04167
2541.656	530.70833
2544.027	545.70833
2546.397	536.04167
2548.765	532.04167
2551.131	529.375
2553.496	528.375
2555.86	554.375
2558.221	542.375
2560.582	538.04167
2562.94	523.04167
2565.298	526.04167
2567.653	540.375
2570.007	517.375
2572.36	527.375
2574.711	521.375
2577.06	537.375
2579.408	520.04167
2581.754	527.375
2584.099	528.04167
2586.442	508.375
2588.784	525.70833
2591.124	527.70833
2593.463	518.375
2595.8	516.70833
2598.135	508.04167
2600.469	517.70833
2602.802	525.04167
2605.133	527.375
2607.462	510.375
2609.79	500.70833
2612.116	508.70833
2614.441	509.375
2616.764	521.04167
2619.086	513.04167
2621.406	504.70833
2623.725	522.04167
2626.042	505.04167
2628.358	513.375
2630.672	500.04167
2632.985	516.04167
2635.296	519.70833
2637.606	518.375
2639.914	504.375
2642.22	500.70833
2644.525	503.04167
2646.829	517.04167
2649.131	524.375
2651.432	520.04167
2653.731	511.70833
2656.028	529.70833
2658.324	508.04167
2660.619	511.375
2662.912	521.70833
2665.204	501.04167
2667.494	536.70833
2669.782	499.375
2672.07	519.375
2674.355	526.04167
2676.639	510.70833
2678.922	505.375
2681.203	521.70833
2683.483	513.70833
2685.761	509.375
2688.038	527.375
2690.313	530.70833
2692.587	518.375
2694.859	516.70833
2697.13	525.375
2699.399	523.04167
2701.667	538.70833
2703.933	545.04167
2706.198	525.70833
2708.461	542.375
2710.723	544.375
2712.984	544.04167
2715.243	554.70833
2717.5	540.04167
2719.757	561.04167
2722.011	549.375
2724.264	569.04167
2726.516	576.04167
2728.766	568.04167
2731.015	562.375
2733.262	553.375
2735.508	557.70833
2737.753	556.375
2739.996	539.04167
2742.237	533.70833
2744.477	550.375
2746.716	556.375
2748.953	535.375
2751.189	536.04167
2753.423	523.70833
2755.656	521.70833
2757.887	519.04167
2760.117	523.04167
2762.346	509.375
2764.573	509.375
2766.798	500.04167
2769.022	522.04167
2771.245	524.375
2773.467	528.375
2775.686	527.04167
2777.905	529.375
2780.122	537.70833
2782.337	524.375
2784.552	525.04167
2786.764	552.04167
2788.976	545.04167
2791.186	565.375
2793.394	556.375
2795.601	565.04167
2797.807	575.04167
2800.011	588.70833
2802.214	603.04167
2804.415	590.70833
2806.615	598.70833
2808.814	630.70833
2811.011	623.04167
2813.206	620.70833
2815.401	640.04167
2817.594	655.04167
2819.785	662.375
2821.975	655.04167
2824.164	688.70833
2826.351	689.375
2828.537	709.04167
2830.722	735.04167
2832.905	734.375
2835.086	778.375
2837.267	828.375
2839.445	856.70833
2841.623	878.70833
2843.799	941.70833
2845.974	980.04167
2848.147	1020.04167
2850.319	1055.375
2852.489	1093.04167
2854.659	1093.375
2856.826	1135.70833
2858.993	1151.04167
2861.158	1136.70833
2863.321	1135.375
2865.483	1160.70833
2867.644	1172.375
2869.804	1163.375
2871.962	1152.70833
2874.118	1145.04167
2876.274	1146.375
2878.428	1138.04167
2880.58	1154.70833
2882.731	1123.375
2884.881	1137.04167
2887.03	1138.70833
2889.177	1127.04167
2891.322	1150.375
2893.467	1148.04167
2895.61	1149.04167
2897.751	1173.04167
2899.892	1159.04167
2902.03	1162.04167
2904.168	1193.375
2906.304	1196.70833
2908.439	1223.04167
2910.572	1196.375
2912.704	1209.375
2914.835	1213.375
2916.965	1209.70833
2919.093	1223.04167
2921.219	1179.70833
2923.345	1191.70833
2925.469	1182.70833
2927.591	1170.04167
2929.712	1122.70833
2931.832	1118.375
2933.951	1087.04167
2936.068	1049.375
2938.184	1017.375
2940.299	980.04167
2942.412	948.375
2944.524	922.70833
2946.634	882.70833
2948.744	824.04167
2950.851	845.375
2952.958	788.70833
2955.063	768.70833
2957.167	761.70833
2959.269	721.375
2961.371	724.70833
2963.471	682.04167
2965.569	688.04167
2967.666	649.70833
2969.762	641.70833
2971.857	610.04167
2973.95	587.04167
2976.042	587.04167
2978.133	561.375
2980.222	548.04167
2982.31	523.70833
2984.396	498.04167
2986.482	500.70833
2988.566	496.70833
2990.648	478.375
2992.73	482.375
2994.81	460.375
2996.889	459.375
2998.966	456.70833
3001.042	472.375
3003.117	453.04167
3005.191	455.70833
3007.263	447.04167
3009.334	427.04167
3011.403	427.04167
3013.472	403.70833
3015.539	419.70833
3017.604	423.70833
3019.669	382.70833
3021.732	388.04167
3023.794	396.04167
3025.854	365.70833
3027.914	381.04167
3029.971	384.70833
3032.028	368.375
3034.083	377.04167
3036.137	364.375
3038.19	348.04167
3040.242	341.70833
3042.292	335.04167
3044.341	344.375
3046.388	345.04167
3048.435	320.04167
3050.48	332.04167
3052.524	327.70833
3054.566	309.70833
3056.607	318.375
3058.647	309.70833
3060.686	299.375
3062.723	291.04167
3064.759	277.375
3066.794	-0.95833
3068.828	-1.625
3070.86	-0.29167
