-0.839	443.95833
3.438	453.95833
7.711	119.29167
11.981	56.625
16.247	42.95833
20.509	45.95833
24.768	45.29167
29.024	44.95833
33.276	44.95833
37.524	61.29167
41.769	37.95833
46.01	36.29167
50.247	51.95833
54.481	62.95833
58.712	66.29167
62.939	46.95833
67.162	61.625
71.382	57.95833
75.599	50.29167
79.812	65.95833
84.021	85.625
88.227	58.95833
92.429	64.625
96.628	54.625
100.823	71.29167
105.015	79.95833
109.204	78.95833
113.388	80.95833
117.57	77.29167
121.748	93.29167
125.922	88.29167
130.093	105.625
134.261	116.95833
138.425	108.29167
142.585	149.29167
146.742	147.625
150.896	178.625
155.046	228.625
159.193	362.95833
163.336	624.95833
167.476	1168.29167
171.613	2142.625
175.746	3568.625
179.875	5318.625
184.002	6808.625
188.124	7887.625
192.244	8172.95833
196.36	8121.625
200.472	7874.95833
204.581	7653.625
208.687	7462.29167
212.79	7455.625
216.889	7456.625
220.984	7561.29167
225.077	7647.95833
229.165	7775.29167
233.251	7885.95833
237.333	7994.29167
241.412	7973.625
245.487	7945.29167
249.559	7889.625
253.628	7802.625
257.694	7687.29167
261.756	7600.95833
265.814	7406.95833
269.87	7199.29167
273.922	6879.29167
277.97	6665.625
282.016	6457.29167
286.058	6290.95833
290.097	6197.625
294.132	6097.29167
298.164	5992.29167
302.193	5714.95833
306.219	5305.625
310.241	4795.29167
314.26	4356.625
318.276	4000.625
322.288	3732.625
326.297	3530.625
330.303	3398.29167
334.305	3289.95833
338.305	3217.95833
342.301	3161.625
346.294	3111.29167
350.283	3088.29167
354.269	3060.625
358.252	3036.95833
362.232	3009.625
366.209	2997.625
370.182	2966.95833
374.152	2946.95833
378.119	2954.95833
382.083	2928.29167
386.043	2948.625
390	2907.29167
393.954	2895.29167
397.905	2872.95833
401.852	2856.29167
405.797	2816.95833
409.738	2775.95833
413.676	2751.625
417.61	2712.625
421.542	2681.29167
425.47	2657.625
429.396	2635.625
433.318	2608.625
437.236	2602.95833
441.152	2621.29167
445.065	2552.29167
448.974	2573.29167
452.88	2522.95833
456.783	2526.29167
460.683	2509.95833
464.58	2504.625
468.473	2506.29167
472.364	2503.29167
476.251	2511.29167
480.135	2527.95833
484.016	2555.625
487.894	2565.29167
491.769	2582.29167
495.641	2583.625
499.509	2589.625
503.375	2584.625
507.237	2569.625
511.096	2552.95833
514.952	2576.625
518.805	2605.29167
522.655	2608.29167
526.502	2561.29167
530.346	2525.95833
534.187	2544.29167
538.024	2533.29167
541.859	2536.625
545.69	2557.29167
549.519	2547.95833
553.344	2521.625
557.166	2501.625
560.985	2458.95833
564.802	2425.95833
568.615	2402.625
572.425	2369.625
576.232	2354.95833
580.036	2347.29167
583.836	2354.625
587.634	2352.29167
591.429	2349.625
595.221	2390.625
599.01	2421.95833
602.796	2432.95833
606.578	2465.29167
610.358	2477.29167
614.135	2452.625
617.909	2474.625
621.679	2443.625
625.447	2429.625
629.212	2443.625
632.973	2446.29167
636.732	2415.29167
640.488	2434.95833
644.241	2407.625
647.991	2408.625
651.737	2442.29167
655.481	2411.29167
659.222	2431.29167
662.96	2412.95833
666.695	2432.625
670.427	2421.95833
674.156	2446.625
677.882	2459.29167
681.605	2442.625
685.325	2397.29167
689.043	2409.625
692.757	2403.625
696.468	2430.29167
700.177	2419.95833
703.882	2409.625
707.585	2407.95833
711.284	2400.625
714.981	2393.95833
718.675	2417.29167
722.366	2428.625
726.054	2400.29167
729.739	2400.95833
733.421	2395.29167
737.1	2426.29167
740.777	2449.625
744.45	2446.29167
748.121	2454.625
751.789	2525.29167
755.453	2512.29167
759.115	2517.29167
762.774	2558.29167
766.431	2550.625
770.084	2602.625
773.734	2629.29167
777.382	2654.29167
781.027	2689.95833
784.669	2741.29167
788.308	2716.625
791.944	2760.29167
795.577	2782.29167
799.208	2794.625
802.835	2834.625
806.46	2848.95833
810.082	2869.95833
813.701	2888.625
817.317	2917.29167
820.931	2913.95833
824.542	2935.95833
828.149	2897.29167
831.754	2847.29167
835.357	2828.29167
838.956	2845.29167
842.553	2806.625
846.146	2803.29167
849.737	2778.625
853.326	2807.29167
856.911	2827.29167
860.493	2872.29167
864.073	2873.625
867.65	2924.95833
871.225	2955.95833
874.796	2963.625
878.365	2946.625
881.931	2967.625
885.494	3016.29167
889.054	3006.95833
892.612	3007.95833
896.166	2975.29167
899.719	2943.29167
903.268	2920.95833
906.814	2909.95833
910.358	2906.625
913.899	2875.625
917.438	2887.95833
920.973	2869.29167
924.506	2902.29167
928.036	2957.625
931.564	2978.625
935.088	3024.29167
938.61	3014.29167
942.129	3025.29167
945.646	3105.625
949.16	3209.625
952.671	3270.29167
956.179	3292.625
959.685	3261.625
963.188	3285.625
966.688	3220.625
970.185	3138.95833
973.68	3103.95833
977.173	3061.29167
980.662	3029.625
984.149	3071.29167
987.633	3097.625
991.114	3129.625
994.593	3213.29167
998.069	3317.625
1001.542	3445.29167
1005.013	3352.95833
1008.481	3159.95833
1011.947	3093.625
1015.409	3065.29167
1018.869	3098.95833
1022.327	3085.625
1025.782	3060.29167
1029.234	3063.625
1032.683	3023.29167
1036.13	2924.29167
1039.574	2812.29167
1043.016	2770.625
1046.455	2688.29167
1049.891	2649.625
1053.325	2661.29167
1056.756	2652.625
1060.184	2665.95833
1063.61	2690.625
1067.033	2686.625
1070.454	2684.29167
1073.872	2731.95833
1077.287	2717.625
1080.7	2727.95833
1084.11	2728.95833
1087.517	2695.95833
1090.922	2690.625
1094.325	2612.625
1097.724	2626.625
1101.122	2612.95833
1104.516	2611.95833
1107.908	2616.29167
1111.298	2678.29167
1114.684	2703.625
1118.069	2721.625
1121.45	2736.625
1124.83	2731.29167
1128.206	2732.29167
1131.58	2785.95833
1134.951	2840.29167
1138.32	2963.625
1141.687	3053.625
1145.05	3160.95833
1148.412	3215.29167
1151.77	3181.625
1155.126	3186.29167
1158.48	3187.95833
1161.831	3226.625
1165.18	3231.95833
1168.525	3277.29167
1171.869	3351.625
1175.21	3359.29167
1178.548	3398.95833
1181.884	3452.95833
1185.217	3482.95833
1188.548	3520.95833
1191.877	3564.625
1195.202	3639.29167
1198.526	3685.29167
1201.846	3698.625
1205.165	3671.29167
1208.48	3645.625
1211.794	3632.95833
1215.104	3631.95833
1218.413	3606.95833
1221.719	3594.625
1225.022	3593.625
1228.323	3585.29167
1231.621	3559.29167
1234.917	3536.29167
1238.21	3560.29167
1241.501	3540.29167
1244.79	3532.625
1248.076	3543.625
1251.359	3599.95833
1254.64	3651.29167
1257.919	3701.29167
1261.195	3733.625
1264.468	3800.29167
1267.74	3854.625
1271.008	3886.95833
1274.275	3843.625
1277.538	3835.625
1280.8	3810.625
1284.059	3775.95833
1287.315	3828.29167
1290.569	3846.625
1293.821	3880.29167
1297.07	3886.29167
1300.317	3888.625
1303.562	3921.625
1306.803	3860.625
1310.043	3831.29167
1313.28	3798.29167
1316.515	3740.95833
1319.747	3711.95833
1322.977	3665.625
1326.204	3607.625
1329.429	3560.29167
1332.652	3553.625
1335.872	3549.29167
1339.09	3555.29167
1342.306	3522.625
1345.519	3497.29167
1348.729	3492.95833
1351.938	3505.95833
1355.144	3399.95833
1358.347	3345.95833
1361.548	3347.95833
1364.747	3367.29167
1367.944	3361.625
1371.138	3375.95833
1374.329	3393.625
1377.518	3439.625
1380.705	3463.95833
1383.89	3447.95833
1387.072	3354.95833
1390.252	3249.95833
1393.429	3141.625
1396.605	3043.29167
1399.777	2920.29167
1402.948	2918.625
1406.116	2884.625
1409.282	2874.29167
1412.445	2872.95833
1415.606	2906.95833
1418.765	2926.29167
1421.921	3002.29167
1425.075	3078.29167
1428.227	3167.95833
1431.376	3340.625
1434.524	3488.625
1437.668	3556.625
1440.811	3576.95833
1443.951	3630.625
1447.089	3611.29167
1450.224	3572.95833
1453.357	3603.625
1456.488	3537.95833
1459.617	3524.625
1462.743	3471.625
1465.867	3393.95833
1468.989	3380.29167
1472.108	3302.29167
1475.225	3274.95833
1478.34	3240.29167
1481.453	3201.95833
1484.563	3235.95833
1487.671	3270.29167
1490.776	3317.625
1493.88	3365.625
1496.981	3457.625
1500.08	3542.29167
1503.176	3594.29167
1506.271	3653.29167
1509.363	3722.95833
1512.452	3762.625
1515.54	3859.625
1518.625	3973.95833
1521.708	4130.625
1524.789	4360.29167
1527.867	4655.29167
1530.944	4932.95833
1534.018	5175.95833
1537.089	5275.625
1540.159	5223.29167
1543.226	5061.29167
1546.291	4880.29167
1549.354	4721.625
1552.415	4542.95833
1555.473	4425.95833
1558.529	4366.625
1561.583	4307.29167
1564.634	4276.95833
1567.684	4264.95833
1570.731	4263.29167
1573.776	4323.625
1576.819	4361.625
1579.859	4417.625
1582.898	4473.625
1585.934	4537.625
1588.968	4534.625
1591.999	4485.29167
1595.029	4498.29167
1598.056	4525.29167
1601.081	4523.625
1604.104	4486.29167
1607.125	4444.29167
1610.144	4354.95833
1613.16	4262.625
1616.174	4140.95833
1619.186	4075.29167
1622.196	3950.625
1625.203	3867.625
1628.209	3813.29167
1631.212	3808.95833
1634.213	3766.95833
1637.212	3749.29167
1640.209	3683.95833
1643.203	3603.625
1646.196	3483.29167
1649.186	3355.95833
1652.174	3259.625
1655.16	3139.625
1658.144	3043.625
1661.125	2915.625
1664.105	2753.29167
1667.082	2654.95833
1670.057	2490.29167
1673.03	2326.29167
1676.001	2184.29167
1678.97	2029.29167
1681.937	1925.95833
1684.901	1811.95833
1687.863	1750.95833
1690.824	1667.625
1693.782	1641.95833
1696.738	1570.29167
1699.692	1545.625
1702.643	1519.95833
1705.593	1507.625
1708.54	1467.95833
1711.486	1467.29167
1714.429	1421.625
1717.37	1422.95833
1720.309	1395.95833
1723.246	1390.29167
1726.181	1369.95833
1729.113	1374.29167
1732.044	1361.625
1734.972	1342.95833
1737.899	1330.625
1740.823	1306.95833
1743.745	1302.95833
1746.665	1258.95833
1749.583	1251.29167
1752.499	1239.95833
1755.413	1221.95833
1758.325	1192.29167
1761.235	1190.29167
1764.142	1157.625
1767.048	1166.29167
1769.951	1150.95833
1772.852	1125.625
1775.752	1126.625
1778.649	1129.29167
1781.544	1129.625
1784.437	1103.95833
1787.328	1114.625
1790.217	1099.95833
1793.104	1071.625
1795.989	1078.95833
1798.872	1083.29167
1801.753	1091.29167
1804.631	1091.29167
1807.508	1082.95833
1810.383	1068.95833
1813.255	1064.29167
1816.126	1060.95833
1818.994	1059.29167
1821.861	1055.29167
1824.725	1032.95833
1827.587	1040.95833
1830.448	1034.625
1833.306	1016.95833
1836.162	1038.29167
1839.017	1011.29167
1841.869	1016.95833
1844.719	1013.29167
1847.567	1005.95833
1850.414	991.95833
1853.258	987.29167
1856.1	991.95833
1858.94	1023.95833
1861.778	999.95833
1864.614	992.95833
1867.448	1000.95833
1870.28	980.29167
1873.111	1017.29167
1875.939	980.95833
1878.765	1003.625
1881.589	983.625
1884.411	971.29167
1887.231	986.625
1890.049	983.625
1892.865	977.29167
1895.68	968.29167
1898.492	967.29167
1901.302	962.625
1904.11	955.95833
1906.916	940.625
1909.721	944.95833
1912.523	944.29167
1915.323	943.29167
1918.122	936.95833
1920.918	943.95833
1923.712	946.625
1926.505	936.625
1929.295	917.29167
1932.084	933.95833
1934.87	942.625
1937.655	912.95833
1940.438	921.29167
1943.218	909.625
1945.997	925.625
1948.774	938.95833
1951.549	923.625
1954.322	921.625
1957.093	924.95833
1959.862	903.29167
1962.629	902.95833
1965.394	898.625
1968.157	896.625
1970.918	903.95833
1973.678	888.29167
1976.435	906.29167
1979.19	891.29167
1981.944	884.95833
1984.696	875.95833
1987.445	882.95833
1990.193	885.95833
1992.939	900.29167
1995.683	876.625
1998.425	854.95833
2001.165	888.95833
2003.903	872.625
2006.639	854.625
2009.374	860.625
2012.106	873.625
2014.837	836.625
2017.566	861.625
2020.292	862.95833
2023.017	861.625
2025.74	853.29167
2028.461	841.625
2031.18	855.29167
2033.898	836.625
2036.613	857.29167
2039.327	847.95833
2042.038	834.95833
2044.748	842.625
2047.456	851.29167
2050.162	826.95833
2052.866	825.625
2055.568	840.625
2058.268	817.95833
2060.967	825.95833
2063.663	813.625
2066.358	822.29167
2069.051	815.625
2071.742	833.29167
2074.431	817.625
2077.118	822.625
2079.804	817.95833
2082.487	826.95833
2085.169	835.95833
2087.849	833.95833
2090.527	819.95833
2093.203	833.29167
2095.877	829.29167
2098.55	844.29167
2101.22	848.95833
2103.889	851.29167
2106.556	860.625
2109.221	865.29167
2111.884	877.29167
2114.546	926.29167
2117.205	975.625
2119.863	1062.625
2122.519	1117.29167
2125.173	1200.29167
2127.825	1296.29167
2130.475	1316.625
2133.124	1323.29167
2135.771	1266.95833
2138.416	1250.29167
2141.059	1176.95833
2143.7	1123.95833
2146.339	1044.95833
2148.977	1018.95833
2151.613	999.95833
2154.247	962.625
2156.879	943.95833
2159.51	929.29167
2162.138	920.29167
2164.765	926.625
2167.39	909.625
2170.013	929.95833
2172.634	923.95833
2175.254	921.95833
2177.872	942.29167
2180.488	900.29167
2183.102	908.29167
2185.714	886.625
2188.325	863.625
2190.934	864.625
2193.541	862.625
2196.146	837.625
2198.75	811.95833
2201.351	800.95833
2203.951	775.29167
2206.549	796.625
2209.146	770.29167
2211.74	763.625
2214.333	769.625
2216.924	741.95833
2219.514	750.95833
2222.101	738.625
2224.687	755.95833
2227.271	735.95833
2229.853	726.625
2232.433	726.29167
2235.012	736.625
2237.589	735.95833
2240.164	735.95833
2242.738	719.95833
2245.309	708.625
2247.879	720.95833
2250.448	710.95833
2253.014	697.95833
2255.579	672.29167
2258.142	679.29167
2260.703	666.625
2263.262	668.29167
2265.82	670.625
2268.376	675.625
2270.93	658.625
2273.483	655.625
2276.033	655.95833
2278.583	646.625
2281.13	652.29167
2283.675	631.95833
2286.219	638.625
2288.761	637.625
2291.302	640.29167
2293.841	645.29167
2296.377	622.29167
2298.913	624.625
2301.446	640.29167
2303.978	627.29167
2306.508	618.625
2309.037	624.625
2311.563	634.625
2314.088	631.625
2316.612	600.625
2319.133	620.95833
2321.653	614.29167
2324.171	607.625
2326.688	604.95833
2329.202	601.95833
2331.715	603.95833
2334.227	597.29167
2336.736	596.95833
2339.244	587.625
2341.751	593.29167
2344.255	593.95833
2346.758	590.29167
2349.259	584.29167
2351.759	586.625
2354.257	574.29167
2356.753	580.625
2359.247	580.625
2361.74	586.95833
2364.231	579.29167
2366.721	588.29167
2369.209	565.95833
2371.695	578.95833
2374.179	573.29167
2376.662	574.625
2379.143	579.625
2381.622	570.625
2384.1	568.95833
2386.576	563.29167
2389.051	581.29167
2391.524	586.29167
2393.995	578.625
2396.464	564.29167
2398.932	554.625
2401.398	569.29167
2403.863	554.95833
2406.325	552.95833
2408.787	553.625
2411.246	549.29167
2413.704	561.625
2416.16	557.95833
2418.615	553.95833
2421.068	564.625
2423.519	557.95833
2425.969	548.29167
2428.417	560.625
2430.863	572.29167
2433.308	559.95833
2435.751	552.29167
2438.193	544.29167
2440.633	556.625
2443.071	550.625
2445.508	533.95833
2447.943	541.95833
2450.376	532.625
2452.808	532.95833
2455.238	536.95833
2457.667	561.625
2460.093	536.625
2462.519	524.29167
2464.942	528.625
2467.365	536.95833
2469.785	534.95833
2472.204	522.29167
2474.621	523.625
2477.037	546.95833
2479.451	509.29167
2481.863	515.29167
2484.274	514.625
2486.683	522.95833
2489.091	521.29167
2491.497	521.95833
2493.901	520.29167
2496.304	513.625
2498.705	528.625
2501.105	513.95833
2503.503	545.95833
2505.899	510.95833
2508.294	542.625
2510.687	508.95833
2513.079	508.29167
2515.469	498.95833
2517.858	506.625
2520.245	518.29167
2522.63	504.625
2525.014	500.95833
2527.396	499.625
2529.776	502.29167
2532.156	507.95833
2534.533	499.95833
2536.909	494.95833
2539.283	487.625
2541.656	488.625
2544.027	511.95833
2546.397	509.625
2548.765	497.29167
2551.131	499.625
2553.496	496.625
2555.86	505.95833
2558.221	498.95833
2560.582	495.29167
2562.94	474.625
2565.298	485.625
2567.653	499.29167
2570.007	471.625
2572.36	483.29167
2574.711	485.95833
2577.06	504.29167
2579.408	489.95833
2581.754	487.95833
2584.099	492.29167
2586.442	484.29167
2588.784	493.625
2591.124	494.95833
2593.463	488.29167
2595.8	480.29167
2598.135	475.29167
2600.469	478.29167
2602.802	488.29167
2605.133	492.95833
2607.462	476.29167
2609.79	477.625
2612.116	490.95833
2614.441	486.625
2616.764	475.95833
2619.086	474.29167
2621.406	479.95833
2623.725	493.29167
2626.042	484.95833
2628.358	473.95833
2630.672	483.625
2632.985	490.625
2635.296	489.29167
2637.606	479.95833
2639.914	476.95833
2642.22	491.95833
2644.525	469.625
2646.829	482.625
2649.131	497.95833
2651.432	488.95833
2653.731	486.29167
2656.028	505.625
2658.324	490.95833
2660.619	479.625
2662.912	504.29167
2665.204	479.29167
2667.494	491.95833
2669.782	482.625
2672.07	491.625
2674.355	505.625
2676.639	493.29167
2678.922	475.29167
2681.203	497.29167
2683.483	475.625
2685.761	482.95833
2688.038	492.95833
2690.313	506.29167
2692.587	488.95833
2694.859	483.625
2697.13	498.625
2699.399	493.625
2701.667	507.95833
2703.933	515.29167
2706.198	516.625
2708.461	519.95833
2710.723	526.29167
2712.984	516.625
2715.243	526.29167
2717.5	509.95833
2719.757	531.95833
2722.011	520.29167
2724.264	539.625
2726.516	550.625
2728.766	534.29167
2731.015	532.29167
2733.262	525.95833
2735.508	523.95833
2737.753	530.625
2739.996	507.29167
2742.237	507.95833
2744.477	518.29167
2746.716	515.29167
2748.953	519.29167
2751.189	516.625
2753.423	501.29167
2755.656	502.29167
2757.887	493.95833
2760.117	496.29167
2762.346	493.95833
2764.573	492.625
2766.798	488.95833
2769.022	490.625
2771.245	500.29167
2773.467	492.29167
2775.686	499.95833
2777.905	504.95833
2780.122	504.29167
2782.337	510.95833
2784.552	498.29167
2786.764	516.625
2788.976	513.95833
2791.186	529.29167
2793.394	521.29167
2795.601	546.95833
2797.807	541.95833
2800.011	552.625
2802.214	564.29167
2804.415	571.29167
2806.615	556.29167
2808.814	568.95833
2811.011	577.95833
2813.206	568.625
2815.401	591.95833
2817.594	607.29167
2819.785	614.625
2821.975	604.95833
2824.164	619.29167
2826.351	642.95833
2828.537	660.95833
2830.722	669.95833
2832.905	687.625
2835.086	712.625
2837.267	742.95833
2839.445	772.29167
2841.623	798.95833
2843.799	843.95833
2845.974	870.95833
2848.147	912.625
2850.319	945.95833
2852.489	981.95833
2854.659	978.625
2856.826	997.29167
2858.993	1032.95833
2861.158	1021.625
2863.321	1010.625
2865.483	1043.95833
2867.644	1034.95833
2869.804	1023.625
2871.962	1030.95833
2874.118	1021.95833
2876.274	1027.95833
2878.428	1012.95833
2880.58	1008.625
2882.731	1013.625
2884.881	1014.95833
2887.03	1013.625
2889.177	1020.625
2891.322	1039.625
2893.467	1030.95833
2895.61	1037.95833
2897.751	1063.29167
2899.892	1048.625
2902.03	1065.29167
2904.168	1080.95833
2906.304	1077.625
2908.439	1108.625
2910.572	1071.625
2912.704	1091.625
2914.835	1104.95833
2916.965	1088.95833
2919.093	1099.95833
2921.219	1063.29167
2923.345	1083.95833
2925.469	1055.29167
2927.591	1054.29167
2929.712	1009.95833
2931.832	1008.95833
2933.951	985.95833
2936.068	967.29167
2938.184	930.29167
2940.299	900.29167
2942.412	872.625
2944.524	824.625
2946.634	824.29167
2948.744	756.625
2950.851	782.95833
2952.958	733.625
2955.063	730.29167
2957.167	708.29167
2959.269	671.95833
2961.371	700.29167
2963.471	644.95833
2965.569	655.95833
2967.666	623.625
2969.762	612.95833
2971.857	585.29167
2973.95	566.95833
2976.042	569.625
2978.133	549.625
2980.222	538.29167
2982.31	518.625
2984.396	497.95833
2986.482	496.625
2988.566	504.95833
2990.648	478.95833
2992.73	477.95833
2994.81	464.29167
2996.889	472.29167
2998.966	469.29167
3001.042	462.29167
3003.117	457.95833
3005.191	453.95833
3007.263	446.95833
3009.334	446.29167
3011.403	442.29167
3013.472	418.95833
3015.539	426.625
3017.604	443.29167
3019.669	392.95833
3021.732	405.29167
3023.794	409.29167
3025.854	388.29167
3027.914	387.95833
3029.971	400.29167
3032.028	387.95833
3034.083	389.95833
3036.137	384.625
3038.19	365.29167
3040.242	360.29167
3042.292	353.95833
3044.341	354.625
3046.388	363.29167
3048.435	334.625
3050.48	355.29167
3052.524	349.95833
3054.566	324.95833
3056.607	331.625
3058.647	334.95833
3060.686	312.95833
3062.723	308.625
3064.759	292.95833
3066.794	-0.375
3068.828	-0.70833
3070.86	-3.04167
