-0.839	300.41667
3.438	317.75
7.711	101.08333
11.981	53.08333
16.247	43.75
20.509	43.08333
24.768	48.41667
29.024	50.41667
33.276	45.75
37.524	52.75
41.769	44.75
46.01	40.41667
50.247	51.08333
54.481	58.75
58.712	68.75
62.939	50.41667
67.162	60.08333
71.382	61.75
75.599	49.08333
79.812	64.08333
84.021	85.08333
88.227	63.41667
92.429	64.75
96.628	51.08333
100.823	69.08333
105.015	77.41667
109.204	80.41667
113.388	80.41667
117.57	77.41667
121.748	97.08333
125.922	85.75
130.093	106.08333
134.261	117.75
138.425	108.08333
142.585	150.75
146.742	150.08333
150.896	176.08333
155.046	212.08333
159.193	346.41667
163.336	597.08333
167.476	1074.75
171.613	1986.75
175.746	3302.08333
179.875	4940.41667
184.002	6488.41667
188.124	7593.08333
192.244	7982.75
196.36	8014.75
200.472	7905.75
204.581	7791.75
208.687	7703.75
212.79	7771.75
216.889	7876.75
220.984	8105.75
225.077	8308.75
229.165	8481.41667
233.251	8753.08333
237.333	8868.75
241.412	8930.41667
245.487	8982.75
249.559	8901.08333
253.628	8819.41667
257.694	8765.08333
261.756	8678.08333
265.814	8468.41667
269.87	8152.75
273.922	7850.75
277.97	7603.08333
282.016	7352.75
286.058	7186.41667
290.097	7084.41667
294.132	7004.41667
298.164	6871.41667
302.193	6525.08333
306.219	6076.41667
310.241	5500.08333
314.26	4960.41667
318.276	4541.75
322.288	4255.08333
326.297	4000.41667
330.303	3823.75
334.305	3722.41667
338.305	3658.75
342.301	3551.08333
346.294	3531.08333
350.283	3505.08333
354.269	3456.75
358.252	3435.41667
362.232	3409.75
366.209	3395.08333
370.182	3344.08333
374.152	3343.41667
378.119	3351.08333
382.083	3350.75
386.043	3364.75
390	3297.41667
393.954	3295.08333
397.905	3253.75
401.852	3225.08333
405.797	3188.08333
409.738	3180.08333
413.676	3140.41667
417.61	3104.41667
421.542	3044.41667
425.47	3025.08333
429.396	3009.75
433.318	2976.41667
437.236	2961.08333
441.152	2983.41667
445.065	2885.75
448.974	2907.75
452.88	2868.75
456.783	2867.08333
460.683	2853.08333
464.58	2869.08333
468.473	2872.75
472.364	2865.75
476.251	2878.41667
480.135	2882.41667
484.016	2910.41667
487.894	2922.08333
491.769	2946.75
495.641	2920.75
499.509	2939.08333
503.375	2917.75
507.237	2927.41667
511.096	2913.08333
514.952	2892.75
518.805	2883.75
522.655	2880.75
526.502	2869.41667
530.346	2888.41667
534.187	2912.41667
538.024	2883.08333
541.859	2887.08333
545.69	2903.08333
549.519	2896.75
553.344	2867.08333
557.166	2826.41667
560.985	2823.75
564.802	2772.41667
568.615	2728.41667
572.425	2709.08333
576.232	2691.08333
580.036	2683.41667
583.836	2700.41667
587.634	2698.75
591.429	2690.41667
595.221	2743.41667
599.01	2752.75
602.796	2777.41667
606.578	2809.75
610.358	2814.75
614.135	2781.75
617.909	2796.41667
621.679	2785.08333
625.447	2755.08333
629.212	2786.41667
632.973	2791.41667
636.732	2786.08333
640.488	2776.41667
644.241	2736.08333
647.991	2739.41667
651.737	2747.08333
655.481	2747.75
659.222	2732.75
662.96	2712.75
666.695	2748.75
670.427	2753.41667
674.156	2764.75
677.882	2773.75
681.605	2754.75
685.325	2735.41667
689.043	2749.08333
692.757	2733.41667
696.468	2756.08333
700.177	2740.75
703.882	2717.08333
707.585	2719.08333
711.284	2728.41667
714.981	2733.75
718.675	2757.75
722.366	2777.08333
726.054	2757.75
729.739	2739.75
733.421	2766.75
737.1	2751.75
740.777	2765.75
744.45	2765.08333
748.121	2787.08333
751.789	2848.75
755.453	2855.41667
759.115	2872.08333
762.774	2892.41667
766.431	2944.41667
770.084	2949.41667
773.734	2960.08333
777.382	3016.41667
781.027	3050.08333
784.669	3059.08333
788.308	3094.75
791.944	3111.75
795.577	3139.08333
799.208	3179.75
802.835	3185.08333
806.46	3232.75
810.082	3268.08333
813.701	3296.41667
817.317	3316.75
820.931	3316.75
824.542	3318.75
828.149	3293.75
831.754	3247.41667
835.357	3224.08333
838.956	3223.08333
842.553	3196.41667
846.146	3178.75
849.737	3159.08333
853.326	3190.75
856.911	3186.08333
860.493	3253.08333
864.073	3256.75
867.65	3337.75
871.225	3358.41667
874.796	3336.08333
878.365	3364.08333
881.931	3405.75
885.494	3390.08333
889.054	3395.41667
892.612	3393.41667
896.166	3392.08333
899.719	3337.75
903.268	3299.41667
906.814	3283.75
910.358	3270.75
913.899	3261.75
917.438	3263.75
920.973	3241.08333
924.506	3290.75
928.036	3325.41667
931.564	3373.75
935.088	3398.75
938.61	3400.41667
942.129	3399.08333
945.646	3520.75
949.16	3597.75
952.671	3698.75
956.179	3741.41667
959.685	3705.08333
963.188	3677.08333
966.688	3623.41667
970.185	3522.75
973.68	3465.08333
977.173	3455.41667
980.662	3421.41667
984.149	3431.08333
987.633	3458.41667
991.114	3480.41667
994.593	3614.41667
998.069	3712.41667
1001.542	3861.41667
1005.013	3773.08333
1008.481	3578.08333
1011.947	3515.41667
1015.409	3485.08333
1018.869	3517.08333
1022.327	3477.41667
1025.782	3476.75
1029.234	3461.08333
1032.683	3399.75
1036.13	3301.41667
1039.574	3181.75
1043.016	3094.08333
1046.455	3056.08333
1049.891	2992.41667
1053.325	3022.75
1056.756	3004.41667
1060.184	3019.08333
1063.61	3045.41667
1067.033	3057.41667
1070.454	3074.08333
1073.872	3097.41667
1077.287	3085.08333
1080.7	3106.41667
1084.11	3118.08333
1087.517	3069.75
1090.922	3063.08333
1094.325	3024.75
1097.724	2977.08333
1101.122	2949.41667
1104.516	2975.08333
1107.908	2979.41667
1111.298	3018.75
1114.684	3085.41667
1118.069	3109.75
1121.45	3134.41667
1124.83	3121.75
1128.206	3131.41667
1131.58	3160.08333
1134.951	3255.08333
1138.32	3357.41667
1141.687	3496.41667
1145.05	3571.08333
1148.412	3627.08333
1151.77	3618.75
1155.126	3612.08333
1158.48	3607.75
1161.831	3629.41667
1165.18	3681.41667
1168.525	3743.41667
1171.869	3773.08333
1175.21	3827.08333
1178.548	3857.41667
1181.884	3888.75
1185.217	3924.08333
1188.548	3973.08333
1191.877	4044.75
1195.202	4113.75
1198.526	4187.75
1201.846	4190.75
1205.165	4183.75
1208.48	4118.41667
1211.794	4147.08333
1215.104	4132.75
1218.413	4153.08333
1221.719	4106.08333
1225.022	4070.08333
1228.323	4050.41667
1231.621	4057.41667
1234.917	4059.41667
1238.21	4045.08333
1241.501	4035.75
1244.79	4069.08333
1248.076	4038.08333
1251.359	4086.08333
1254.64	4149.41667
1257.919	4160.75
1261.195	4233.75
1264.468	4271.08333
1267.74	4357.41667
1271.008	4351.41667
1274.275	4370.08333
1277.538	4299.08333
1280.8	4294.08333
1284.059	4281.08333
1287.315	4347.41667
1290.569	4358.08333
1293.821	4401.08333
1297.07	4407.41667
1300.317	4434.75
1303.562	4430.41667
1306.803	4379.75
1310.043	4342.08333
1313.28	4315.75
1316.515	4281.75
1319.747	4225.75
1322.977	4181.75
1326.204	4095.41667
1329.429	4036.41667
1332.652	4000.41667
1335.872	4003.41667
1339.09	3966.41667
1342.306	3960.41667
1345.519	3955.75
1348.729	3917.75
1351.938	3910.08333
1355.144	3829.08333
1358.347	3781.08333
1361.548	3782.08333
1364.747	3785.75
1367.944	3759.75
1371.138	3826.41667
1374.329	3837.41667
1377.518	3909.08333
1380.705	4150.75
1383.89	4028.08333
1387.072	3783.41667
1390.252	3643.08333
1393.429	3532.75
1396.605	3417.41667
1399.777	3313.75
1402.948	3278.75
1406.116	3267.08333
1409.282	3259.75
1412.445	3271.41667
1415.606	3309.41667
1418.765	3343.08333
1421.921	3410.08333
1425.075	3493.75
1428.227	3604.41667
1431.376	3787.75
1434.524	3904.08333
1437.668	4006.75
1440.811	4050.75
1443.951	4079.41667
1447.089	4087.41667
1450.224	4047.08333
1453.357	4018.75
1456.488	4013.41667
1459.617	3969.75
1462.743	3890.41667
1465.867	3836.75
1468.989	3790.75
1472.108	3726.41667
1475.225	3674.08333
1478.34	3636.08333
1481.453	3600.08333
1484.563	3613.41667
1487.671	3639.08333
1490.776	3737.41667
1493.88	3774.75
1496.981	3864.41667
1500.08	3920.41667
1503.176	4009.08333
1506.271	4086.75
1509.363	4157.08333
1512.452	4200.08333
1515.54	4276.08333
1518.625	4389.41667
1521.708	4606.08333
1524.789	4866.75
1527.867	5160.08333
1530.944	5495.75
1534.018	5729.08333
1537.089	5807.08333
1540.159	5762.75
1543.226	5574.41667
1546.291	5349.08333
1549.354	5172.75
1552.415	5028.41667
1555.473	4915.75
1558.529	4801.08333
1561.583	4755.75
1564.634	4717.08333
1567.684	4722.41667
1570.731	4736.41667
1573.776	4775.75
1576.819	4797.75
1579.859	4868.41667
1582.898	4937.08333
1585.934	4945.41667
1588.968	4966.75
1591.999	4976.41667
1595.029	4995.41667
1598.056	5031.41667
1601.081	4983.41667
1604.104	4984.75
1607.125	4925.41667
1610.144	4823.41667
1613.16	4716.08333
1616.174	4628.08333
1619.186	4510.75
1622.196	4400.41667
1625.203	4293.41667
1628.209	4230.08333
1631.212	4192.08333
1634.213	4153.08333
1637.212	4095.08333
1640.209	4034.75
1643.203	3950.41667
1646.196	3811.41667
1649.186	3666.08333
1652.174	3557.41667
1655.16	3448.08333
1658.144	3331.75
1661.125	3203.41667
1664.105	3024.41667
1667.082	2898.08333
1670.057	2737.41667
1673.03	2548.08333
1676.001	2407.75
1678.97	2256.08333
1681.937	2135.08333
1684.901	2004.41667
1687.863	1917.08333
1690.824	1870.75
1693.782	1824.75
1696.738	1760.75
1699.692	1715.75
1702.643	1678.08333
1705.593	1656.75
1708.54	1652.08333
1711.486	1634.41667
1714.429	1591.41667
1717.37	1578.41667
1720.309	1550.08333
1723.246	1560.75
1726.181	1517.75
1729.113	1532.75
1732.044	1493.41667
1734.972	1481.08333
1737.899	1469.75
1740.823	1458.08333
1743.745	1453.08333
1746.665	1403.75
1749.583	1385.75
1752.499	1378.75
1755.413	1350.75
1758.325	1328.75
1761.235	1313.41667
1764.142	1292.75
1767.048	1291.75
1769.951	1266.08333
1772.852	1270.08333
1775.752	1272.08333
1778.649	1277.08333
1781.544	1244.08333
1784.437	1227.41667
1787.328	1230.75
1790.217	1216.41667
1793.104	1198.41667
1795.989	1193.75
1798.872	1182.08333
1801.753	1207.41667
1804.631	1200.41667
1807.508	1205.08333
1810.383	1192.41667
1813.255	1186.41667
1816.126	1191.75
1818.994	1154.41667
1821.861	1165.41667
1824.725	1147.41667
1827.587	1147.41667
1830.448	1150.41667
1833.306	1123.75
1836.162	1131.08333
1839.017	1121.75
1841.869	1125.41667
1844.719	1131.75
1847.567	1103.08333
1850.414	1112.41667
1853.258	1099.75
1856.1	1106.75
1858.94	1117.41667
1861.778	1111.41667
1864.614	1112.75
1867.448	1105.08333
1870.28	1098.75
1873.111	1104.41667
1875.939	1100.41667
1878.765	1098.08333
1881.589	1079.75
1884.411	1079.08333
1887.231	1094.08333
1890.049	1088.41667
1892.865	1077.41667
1895.68	1087.41667
1898.492	1072.75
1901.302	1059.75
1904.11	1063.75
1906.916	1048.75
1909.721	1037.75
1912.523	1035.08333
1915.323	1019.08333
1918.122	1035.41667
1920.918	1038.08333
1923.712	1015.75
1926.505	1038.08333
1929.295	1020.08333
1932.084	1039.08333
1934.87	1029.41667
1937.655	1009.41667
1940.438	1012.41667
1943.218	1019.08333
1945.997	1019.08333
1948.774	1030.75
1951.549	1024.41667
1954.322	1005.08333
1957.093	1013.41667
1959.862	1002.41667
1962.629	1018.75
1965.394	996.08333
1968.157	978.75
1970.918	991.75
1973.678	975.08333
1976.435	986.08333
1979.19	982.08333
1981.944	970.08333
1984.696	964.08333
1987.445	953.08333
1990.193	964.41667
1992.939	992.41667
1995.683	971.41667
1998.425	945.41667
2001.165	983.75
2003.903	959.08333
2006.639	953.08333
2009.374	955.41667
2012.106	953.41667
2014.837	921.41667
2017.566	962.41667
2020.292	953.41667
2023.017	954.41667
2025.74	940.75
2028.461	929.08333
2031.18	936.41667
2033.898	942.08333
2036.613	941.08333
2039.327	948.41667
2042.038	918.08333
2044.748	907.08333
2047.456	919.08333
2050.162	910.41667
2052.866	903.41667
2055.568	927.75
2058.268	924.75
2060.967	919.08333
2063.663	891.08333
2066.358	907.08333
2069.051	900.08333
2071.742	904.41667
2074.431	904.08333
2077.118	902.08333
2079.804	894.75
2082.487	899.41667
2085.169	907.41667
2087.849	916.41667
2090.527	895.08333
2093.203	910.41667
2095.877	921.41667
2098.55	909.08333
2101.22	922.75
2103.889	933.75
2106.556	930.75
2109.221	952.75
2111.884	967.75
2114.546	1031.08333
2117.205	1078.41667
2119.863	1157.08333
2122.519	1237.41667
2125.173	1326.41667
2127.825	1422.41667
2130.475	1446.41667
2133.124	1436.08333
2135.771	1402.41667
2138.416	1350.41667
2141.059	1279.08333
2143.7	1229.08333
2146.339	1146.08333
2148.977	1092.41667
2151.613	1072.41667
2154.247	1043.75
2156.879	1027.75
2159.51	999.75
2162.138	986.08333
2164.765	983.41667
2167.39	969.75
2170.013	1000.08333
2172.634	993.08333
2175.254	974.41667
2177.872	995.08333
2180.488	956.41667
2183.102	964.08333
2185.714	945.75
2188.325	922.41667
2190.934	923.08333
2193.541	892.08333
2196.146	890.08333
2198.75	873.41667
2201.351	875.75
2203.951	838.75
2206.549	860.41667
2209.146	838.41667
2211.74	833.41667
2214.333	835.08333
2216.924	811.08333
2219.514	803.75
2222.101	791.75
2224.687	813.08333
2227.271	787.75
2229.853	783.08333
2232.433	787.08333
2235.012	796.41667
2237.589	790.75
2240.164	795.08333
2242.738	783.75
2245.309	763.08333
2247.879	775.41667
2250.448	766.75
2253.014	743.75
2255.579	737.41667
2258.142	725.75
2260.703	717.08333
2263.262	719.75
2265.82	727.08333
2268.376	723.41667
2270.93	703.08333
2273.483	699.08333
2276.033	698.08333
2278.583	696.41667
2281.13	694.41667
2283.675	687.75
2286.219	691.08333
2288.761	681.41667
2291.302	690.75
2293.841	680.75
2296.377	666.08333
2298.913	669.41667
2301.446	682.75
2303.978	663.75
2306.508	665.75
2309.037	661.75
2311.563	669.41667
2314.088	650.75
2316.612	645.75
2319.133	658.75
2321.653	652.41667
2324.171	651.41667
2326.688	655.41667
2329.202	636.08333
2331.715	644.08333
2334.227	635.41667
2336.736	617.41667
2339.244	627.08333
2341.751	623.08333
2344.255	634.08333
2346.758	629.75
2349.259	620.08333
2351.759	620.41667
2354.257	613.41667
2356.753	620.08333
2359.247	621.41667
2361.74	614.08333
2364.231	605.75
2366.721	615.41667
2369.209	617.08333
2371.695	605.08333
2374.179	606.75
2376.662	602.08333
2379.143	621.08333
2381.622	601.08333
2384.1	612.08333
2386.576	595.75
2389.051	606.75
2391.524	612.08333
2393.995	600.41667
2396.464	588.75
2398.932	585.75
2401.398	587.41667
2403.863	581.08333
2406.325	585.08333
2408.787	584.75
2411.246	576.08333
2413.704	590.41667
2416.16	572.41667
2418.615	577.41667
2421.068	589.41667
2423.519	575.75
2425.969	569.08333
2428.417	582.41667
2430.863	594.41667
2433.308	585.75
2435.751	565.41667
2438.193	566.41667
2440.633	572.41667
2443.071	566.75
2445.508	552.41667
2447.943	559.08333
2450.376	547.41667
2452.808	561.08333
2455.238	542.08333
2457.667	571.08333
2460.093	555.08333
2462.519	544.08333
2464.942	544.75
2467.365	555.41667
2469.785	549.41667
2472.204	542.08333
2474.621	535.75
2477.037	560.75
2479.451	522.41667
2481.863	525.41667
2484.274	521.08333
2486.683	534.08333
2489.091	546.08333
2491.497	533.08333
2493.901	535.41667
2496.304	529.08333
2498.705	540.08333
2501.105	517.75
2503.503	547.08333
2505.899	513.75
2508.294	540.75
2510.687	516.41667
2513.079	513.08333
2515.469	524.75
2517.858	518.41667
2520.245	537.41667
2522.63	506.41667
2525.014	499.08333
2527.396	503.41667
2529.776	503.75
2532.156	505.41667
2534.533	496.75
2536.909	500.41667
2539.283	487.08333
2541.656	495.41667
2544.027	517.08333
2546.397	496.08333
2548.765	496.75
2551.131	490.41667
2553.496	505.08333
2555.86	504.08333
2558.221	498.41667
2560.582	488.41667
2562.94	474.08333
2565.298	488.08333
2567.653	511.08333
2570.007	469.41667
2572.36	499.41667
2574.711	487.41667
2577.06	539.41667
2579.408	779.75
2581.754	584.08333
2584.099	490.08333
2586.442	476.75
2588.784	485.08333
2591.124	489.75
2593.463	473.75
2595.8	477.41667
2598.135	466.41667
2600.469	483.08333
2602.802	495.08333
2605.133	478.75
2607.462	468.41667
2609.79	464.41667
2612.116	475.08333
2614.441	472.08333
2616.764	470.41667
2619.086	472.08333
2621.406	470.75
2623.725	485.41667
2626.042	462.08333
2628.358	457.75
2630.672	465.08333
2632.985	470.41667
2635.296	469.41667
2637.606	468.75
2639.914	457.75
2642.22	466.41667
2644.525	467.75
2646.829	470.41667
2649.131	477.75
2651.432	479.75
2653.731	470.41667
2656.028	479.08333
2658.324	476.41667
2660.619	466.41667
2662.912	481.41667
2665.204	463.41667
2667.494	477.41667
2669.782	457.08333
2672.07	474.75
2674.355	483.08333
2676.639	468.08333
2678.922	464.08333
2681.203	472.08333
2683.483	457.08333
2685.761	466.41667
2688.038	473.41667
2690.313	478.08333
2692.587	468.75
2694.859	472.75
2697.13	472.75
2699.399	471.41667
2701.667	493.41667
2703.933	491.41667
2706.198	484.75
2708.461	497.75
2710.723	484.75
2712.984	500.08333
2715.243	507.75
2717.5	495.75
2719.757	516.75
2722.011	510.08333
2724.264	520.75
2726.516	510.41667
2728.766	506.08333
2731.015	515.41667
2733.262	501.41667
2735.508	497.75
2737.753	495.41667
2739.996	475.75
2742.237	489.41667
2744.477	500.41667
2746.716	496.08333
2748.953	480.08333
2751.189	495.75
2753.423	475.41667
2755.656	473.08333
2757.887	465.08333
2760.117	467.08333
2762.346	455.41667
2764.573	459.41667
2766.798	455.41667
2769.022	468.75
2771.245	458.41667
2773.467	462.75
2775.686	464.41667
2777.905	473.08333
2780.122	471.08333
2782.337	473.75
2784.552	472.08333
2786.764	488.41667
2788.976	482.08333
2791.186	498.08333
2793.394	492.41667
2795.601	503.75
2797.807	513.75
2800.011	523.75
2802.214	535.41667
2804.415	536.08333
2806.615	543.41667
2808.814	553.41667
2811.011	548.41667
2813.206	556.41667
2815.401	572.75
2817.594	578.75
2819.785	593.41667
2821.975	580.75
2824.164	597.75
2826.351	631.08333
2828.537	648.41667
2830.722	672.08333
2832.905	678.08333
2835.086	717.08333
2837.267	756.75
2839.445	785.41667
2841.623	823.41667
2843.799	859.41667
2845.974	906.75
2848.147	965.75
2850.319	981.41667
2852.489	1027.41667
2854.659	1050.41667
2856.826	1066.75
2858.993	1083.08333
2861.158	1075.08333
2863.321	1093.75
2865.483	1103.08333
2867.644	1110.75
2869.804	1098.75
2871.962	1091.08333
2874.118	1083.41667
2876.274	1085.41667
2878.428	1101.08333
2880.58	1088.08333
2882.731	1064.41667
2884.881	1082.75
2887.03	1090.41667
2889.177	1080.41667
2891.322	1111.41667
2893.467	1092.41667
2895.61	1115.41667
2897.751	1125.08333
2899.892	1120.75
2902.03	1120.08333
2904.168	1133.75
2906.304	1140.08333
2908.439	1165.41667
2910.572	1130.08333
2912.704	1160.08333
2914.835	1143.41667
2916.965	1154.41667
2919.093	1171.41667
2921.219	1135.75
2923.345	1135.41667
2925.469	1111.08333
2927.591	1110.41667
2929.712	1066.08333
2931.832	1053.75
2933.951	1031.75
2936.068	1004.08333
2938.184	974.75
2940.299	922.75
2942.412	902.75
2944.524	842.41667
2946.634	825.41667
2948.744	765.41667
2950.851	782.08333
2952.958	729.75
2955.063	714.41667
2957.167	687.75
2959.269	651.08333
2961.371	662.08333
2963.471	612.75
2965.569	617.41667
2967.666	575.08333
2969.762	551.08333
2971.857	537.41667
2973.95	528.75
2976.042	520.08333
2978.133	505.41667
2980.222	486.08333
2982.31	455.08333
2984.396	437.75
2986.482	431.41667
2988.566	431.41667
2990.648	427.08333
2992.73	406.41667
2994.81	398.08333
2996.889	403.41667
2998.966	395.08333
3001.042	384.41667
3003.117	380.08333
3005.191	381.75
3007.263	372.08333
3009.334	364.75
3011.403	350.41667
3013.472	343.08333
3015.539	345.08333
3017.604	353.08333
3019.669	311.75
3021.732	311.08333
3023.794	322.75
3025.854	305.75
3027.914	299.41667
3029.971	312.41667
3032.028	295.75
3034.083	303.08333
3036.137	297.75
3038.19	283.41667
3040.242	278.75
3042.292	265.08333
3044.341	266.75
3046.388	280.08333
3048.435	257.41667
3050.48	272.41667
3052.524	269.41667
3054.566	245.08333
3056.607	254.08333
3058.647	251.41667
3060.686	241.08333
3062.723	227.08333
3064.759	222.75
3066.794	-0.25
3068.828	-0.91667
3070.86	-2.25
