-0.839	293.5
3.438	309.83333
7.711	99.83333
11.981	54.5
16.247	49.83333
20.509	42.5
24.768	47.16667
29.024	46.16667
33.276	42.5
37.524	51.5
41.769	46.5
46.01	38.5
50.247	50.5
54.481	59.83333
58.712	69.16667
62.939	49.5
67.162	64.83333
71.382	59.5
75.599	53.16667
79.812	66.83333
84.021	83.16667
88.227	63.16667
92.429	64.16667
96.628	54.16667
100.823	72.16667
105.015	80.83333
109.204	82.16667
113.388	80.83333
117.57	76.83333
121.748	94.16667
125.922	85.16667
130.093	104.83333
134.261	111.16667
138.425	112.83333
142.585	155.16667
146.742	150.5
150.896	175.16667
155.046	222.5
159.193	343.5
163.336	591.16667
167.476	1064.83333
171.613	1991.83333
175.746	3312.5
179.875	4969.5
184.002	6537.5
188.124	7616.16667
192.244	8015.5
196.36	8009.83333
200.472	7952.83333
204.581	7855.5
208.687	7780.83333
212.79	7839.5
216.889	7985.5
220.984	8158.16667
225.077	8324.16667
229.165	8586.16667
233.251	8727.16667
237.333	8876.83333
241.412	8980.16667
245.487	8993.5
249.559	8985.83333
253.628	8897.83333
257.694	8768.83333
261.756	8659.16667
265.814	8525.83333
269.87	8256.83333
273.922	7945.83333
277.97	7652.5
282.016	7424.5
286.058	7191.5
290.097	7124.83333
294.132	7025.5
298.164	6860.5
302.193	6597.5
306.219	6078.83333
310.241	5521.5
314.26	5023.16667
318.276	4582.83333
322.288	4276.16667
326.297	4034.83333
330.303	3860.16667
334.305	3743.83333
338.305	3660.16667
342.301	3599.16667
346.294	3573.83333
350.283	3532.5
354.269	3498.16667
358.252	3485.5
362.232	3457.16667
366.209	3447.5
370.182	3402.5
374.152	3405.5
378.119	3424.5
382.083	3394.5
386.043	3418.5
390	3360.5
393.954	3345.83333
397.905	3296.16667
401.852	3309.5
405.797	3255.16667
409.738	3215.83333
413.676	3190.83333
417.61	3167.16667
421.542	3102.83333
425.47	3037.83333
429.396	3015.16667
433.318	3001.83333
437.236	2994.83333
441.152	2977.16667
445.065	2954.5
448.974	2940.5
452.88	2909.83333
456.783	2894.16667
460.683	2891.5
464.58	2888.5
468.473	2895.5
472.364	2909.16667
476.251	2901.16667
480.135	2924.83333
484.016	2945.83333
487.894	2960.5
491.769	2954.83333
495.641	2961.5
499.509	2952.16667
503.375	2978.83333
507.237	2946.83333
511.096	2942.83333
514.952	2928.5
518.805	2933.16667
522.655	2913.5
526.502	2946.16667
530.346	2926.16667
534.187	2947.16667
538.024	2932.83333
541.859	2937.5
545.69	2944.16667
549.519	2922.83333
553.344	2934.83333
557.166	2877.83333
560.985	2854.83333
564.802	2809.83333
568.615	2782.16667
572.425	2720.16667
576.232	2722.83333
580.036	2727.5
583.836	2719.16667
587.634	2727.83333
591.429	2733.5
595.221	2775.16667
599.01	2777.16667
602.796	2827.16667
606.578	2854.83333
610.358	2863.5
614.135	2841.16667
617.909	2821.83333
621.679	2808.16667
625.447	2813.16667
629.212	2810.83333
632.973	2817.16667
636.732	2801.83333
640.488	2827.16667
644.241	2790.83333
647.991	2793.16667
651.737	2796.5
655.481	2766.5
659.222	2801.16667
662.96	2792.83333
666.695	2814.5
670.427	2787.5
674.156	2809.83333
677.882	2806.16667
681.605	2803.16667
685.325	2777.16667
689.043	2788.16667
692.757	2766.83333
696.468	2780.5
700.177	2785.5
703.882	2784.83333
707.585	2755.83333
711.284	2750.83333
714.981	2791.16667
718.675	2760.16667
722.366	2771.83333
726.054	2760.5
729.739	2778.83333
733.421	2770.16667
737.1	2773.16667
740.777	2806.16667
744.45	2828.83333
748.121	2838.16667
751.789	2900.83333
755.453	2877.16667
759.115	2879.5
762.774	2929.16667
766.431	2963.83333
770.084	2980.16667
773.734	3003.83333
777.382	3066.83333
781.027	3089.5
784.669	3108.16667
788.308	3139.83333
791.944	3157.16667
795.577	3175.16667
799.208	3216.83333
802.835	3251.83333
806.46	3253.5
810.082	3314.83333
813.701	3313.16667
817.317	3360.5
820.931	3321.16667
824.542	3358.16667
828.149	3332.83333
831.754	3286.83333
835.357	3263.5
838.956	3247.16667
842.553	3211.16667
846.146	3191.83333
849.737	3176.5
853.326	3221.5
856.911	3206.5
860.493	3281.5
864.073	3293.16667
867.65	3348.5
871.225	3363.16667
874.796	3368.16667
878.365	3383.83333
881.931	3401.5
885.494	3445.83333
889.054	3433.5
892.612	3424.5
896.166	3402.16667
899.719	3366.83333
903.268	3341.83333
906.814	3315.5
910.358	3293.5
913.899	3269.5
917.438	3282.16667
920.973	3267.16667
924.506	3306.16667
928.036	3344.83333
931.564	3368.83333
935.088	3412.83333
938.61	3423.5
942.129	3467.16667
945.646	3541.5
949.16	3623.83333
952.671	3695.5
956.179	3750.83333
959.685	3708.5
963.188	3707.83333
966.688	3652.5
970.185	3575.16667
973.68	3497.83333
977.173	3460.5
980.662	3443.5
984.149	3449.5
987.633	3481.5
991.114	3521.5
994.593	3620.16667
998.069	3775.83333
1001.542	3882.5
1005.013	3814.16667
1008.481	3588.83333
1011.947	3555.16667
1015.409	3537.16667
1018.869	3523.5
1022.327	3516.83333
1025.782	3480.16667
1029.234	3498.16667
1032.683	3447.83333
1036.13	3355.83333
1039.574	3206.83333
1043.016	3145.16667
1046.455	3070.16667
1049.891	3021.16667
1053.325	3052.83333
1056.756	3041.5
1060.184	3060.5
1063.61	3097.16667
1067.033	3095.5
1070.454	3107.83333
1073.872	3134.16667
1077.287	3129.5
1080.7	3137.16667
1084.11	3153.16667
1087.517	3118.5
1090.922	3070.16667
1094.325	3045.5
1097.724	2991.83333
1101.122	3008.83333
1104.516	2980.83333
1107.908	3019.16667
1111.298	3055.83333
1114.684	3100.16667
1118.069	3118.5
1121.45	3167.5
1124.83	3150.83333
1128.206	3161.5
1131.58	3217.83333
1134.951	3279.16667
1138.32	3367.16667
1141.687	3485.83333
1145.05	3582.16667
1148.412	3631.16667
1151.77	3640.5
1155.126	3647.5
1158.48	3627.5
1161.831	3655.16667
1165.18	3662.16667
1168.525	3743.83333
1171.869	3784.83333
1175.21	3801.5
1178.548	3859.83333
1181.884	3930.16667
1185.217	3924.83333
1188.548	4000.16667
1191.877	4047.5
1195.202	4131.16667
1198.526	4180.5
1201.846	4172.83333
1205.165	4194.5
1208.48	4170.16667
1211.794	4146.5
1215.104	4139.16667
1218.413	4142.5
1221.719	4131.83333
1225.022	4107.16667
1228.323	4080.83333
1231.621	4057.5
1234.917	4046.16667
1238.21	4101.16667
1241.501	4068.83333
1244.79	4079.16667
1248.076	4067.83333
1251.359	4081.5
1254.64	4143.16667
1257.919	4196.16667
1261.195	4247.83333
1264.468	4301.16667
1267.74	4371.16667
1271.008	4400.5
1274.275	4395.16667
1277.538	4351.5
1280.8	4330.5
1284.059	4313.16667
1287.315	4369.83333
1290.569	4386.83333
1293.821	4423.83333
1297.07	4432.83333
1300.317	4468.16667
1303.562	4445.16667
1306.803	4394.16667
1310.043	4362.16667
1313.28	4322.16667
1316.515	4264.16667
1319.747	4230.5
1322.977	4174.83333
1326.204	4140.5
1329.429	4057.83333
1332.652	4035.5
1335.872	4044.16667
1339.09	4007.83333
1342.306	4004.83333
1345.519	3955.16667
1348.729	3955.5
1351.938	3957.83333
1355.144	3869.16667
1358.347	3818.83333
1361.548	3821.5
1364.747	3814.5
1367.944	3819.83333
1371.138	3827.83333
1374.329	3826.83333
1377.518	3903.16667
1380.705	3923.5
1383.89	3913.16667
1387.072	3797.5
1390.252	3694.5
1393.429	3534.83333
1396.605	3451.83333
1399.777	3353.16667
1402.948	3322.83333
1406.116	3293.83333
1409.282	3282.16667
1412.445	3295.5
1415.606	3312.16667
1418.765	3357.16667
1421.921	3433.5
1425.075	3513.5
1428.227	3635.83333
1431.376	3772.5
1434.524	3946.16667
1437.668	4037.83333
1440.811	4107.83333
1443.951	4094.16667
1447.089	4121.83333
1450.224	4103.83333
1453.357	4074.83333
1456.488	4044.83333
1459.617	3992.83333
1462.743	3924.5
1465.867	3832.83333
1468.989	3793.16667
1472.108	3751.83333
1475.225	3670.16667
1478.34	3641.83333
1481.453	3614.5
1484.563	3632.83333
1487.671	3650.83333
1490.776	3721.16667
1493.88	3788.83333
1496.981	3878.16667
1500.08	3954.5
1503.176	4012.16667
1506.271	4082.16667
1509.363	4152.83333
1512.452	4197.16667
1515.54	4295.83333
1518.625	4395.16667
1521.708	4586.83333
1524.789	4877.5
1527.867	5205.16667
1530.944	5497.5
1534.018	5742.5
1537.089	5843.83333
1540.159	5775.83333
1543.226	5586.83333
1546.291	5386.5
1549.354	5186.5
1552.415	5014.5
1555.473	4863.5
1558.529	4787.16667
1561.583	4736.16667
1564.634	4710.83333
1567.684	4690.16667
1570.731	4725.5
1573.776	4764.83333
1576.819	4817.83333
1579.859	4864.83333
1582.898	4952.16667
1585.934	4991.16667
1588.968	4976.5
1591.999	4956.16667
1595.029	4972.16667
1598.056	5001.16667
1601.081	5015.16667
1604.104	4986.16667
1607.125	4933.5
1610.144	4846.16667
1613.16	4738.16667
1616.174	4640.5
1619.186	4515.83333
1622.196	4417.83333
1625.203	4326.5
1628.209	4272.5
1631.212	4231.83333
1634.213	4203.16667
1637.212	4169.5
1640.209	4106.16667
1643.203	3985.83333
1646.196	3872.5
1649.186	3735.16667
1652.174	3649.5
1655.16	3501.16667
1658.144	3388.16667
1661.125	3226.83333
1664.105	3066.83333
1667.082	2940.16667
1670.057	2773.5
1673.03	2619.16667
1676.001	2447.16667
1678.97	2279.83333
1681.937	2156.83333
1684.901	2031.5
1687.863	1971.83333
1690.824	1892.5
1693.782	1836.16667
1696.738	1788.16667
1699.692	1740.5
1702.643	1705.83333
1705.593	1675.83333
1708.54	1663.5
1711.486	1649.16667
1714.429	1604.5
1717.37	1608.83333
1720.309	1573.16667
1723.246	1576.5
1726.181	1529.16667
1729.113	1533.5
1732.044	1508.5
1734.972	1485.83333
1737.899	1487.16667
1740.823	1489.16667
1743.745	1481.83333
1746.665	1432.83333
1749.583	1410.83333
1752.499	1378.16667
1755.413	1374.16667
1758.325	1333.5
1761.235	1326.5
1764.142	1316.5
1767.048	1295.83333
1769.951	1295.16667
1772.852	1280.16667
1775.752	1276.83333
1778.649	1275.83333
1781.544	1267.16667
1784.437	1236.83333
1787.328	1247.16667
1790.217	1233.83333
1793.104	1218.5
1795.989	1199.83333
1798.872	1201.5
1801.753	1210.5
1804.631	1210.16667
1807.508	1219.16667
1810.383	1202.83333
1813.255	1196.83333
1816.126	1205.16667
1818.994	1182.5
1821.861	1175.5
1824.725	1176.16667
1827.587	1180.5
1830.448	1144.83333
1833.306	1146.5
1836.162	1164.83333
1839.017	1127.83333
1841.869	1128.16667
1844.719	1133.5
1847.567	1108.83333
1850.414	1120.5
1853.258	1122.83333
1856.1	1116.5
1858.94	1142.16667
1861.778	1119.5
1864.614	1115.5
1867.448	1130.83333
1870.28	1099.5
1873.111	1130.16667
1875.939	1111.83333
1878.765	1121.16667
1881.589	1106.5
1884.411	1092.83333
1887.231	1090.83333
1890.049	1105.16667
1892.865	1092.5
1895.68	1083.5
1898.492	1072.16667
1901.302	1078.5
1904.11	1063.5
1906.916	1052.16667
1909.721	1049.83333
1912.523	1061.83333
1915.323	1040.5
1918.122	1039.5
1920.918	1045.16667
1923.712	1038.16667
1926.505	1054.5
1929.295	1036.16667
1932.084	1050.5
1934.87	1045.5
1937.655	1035.5
1940.438	1025.83333
1943.218	1025.83333
1945.997	1030.5
1948.774	1034.16667
1951.549	1033.16667
1954.322	1013.16667
1957.093	1027.16667
1959.862	1016.5
1962.629	1012.16667
1965.394	1014.16667
1968.157	1005.5
1970.918	1005.5
1973.678	991.16667
1976.435	994.83333
1979.19	987.5
1981.944	990.83333
1984.696	991.83333
1987.445	982.5
1990.193	974.83333
1992.939	997.83333
1995.683	977.5
1998.425	959.5
2001.165	993.5
2003.903	957.83333
2006.639	976.83333
2009.374	964.5
2012.106	962.5
2014.837	941.5
2017.566	957.83333
2020.292	969.83333
2023.017	954.83333
2025.74	957.16667
2028.461	942.5
2031.18	958.5
2033.898	937.16667
2036.613	944.5
2039.327	945.16667
2042.038	926.83333
2044.748	935.16667
2047.456	939.16667
2050.162	931.83333
2052.866	918.16667
2055.568	925.83333
2058.268	919.83333
2060.967	916.16667
2063.663	908.5
2066.358	918.16667
2069.051	902.16667
2071.742	911.16667
2074.431	929.16667
2077.118	895.83333
2079.804	903.5
2082.487	911.5
2085.169	919.5
2087.849	937.83333
2090.527	908.5
2093.203	931.16667
2095.877	923.83333
2098.55	924.5
2101.22	948.5
2103.889	937.5
2106.556	936.83333
2109.221	966.83333
2111.884	976.83333
2114.546	1022.16667
2117.205	1090.5
2119.863	1146.16667
2122.519	1231.83333
2125.173	1314.5
2127.825	1405.16667
2130.475	1437.16667
2133.124	1419.16667
2135.771	1399.5
2138.416	1360.5
2141.059	1280.16667
2143.7	1217.83333
2146.339	1143.83333
2148.977	1089.83333
2151.613	1072.16667
2154.247	1042.16667
2156.879	1023.83333
2159.51	1011.83333
2162.138	995.16667
2164.765	993.16667
2167.39	969.83333
2170.013	989.83333
2172.634	994.83333
2175.254	992.83333
2177.872	1012.83333
2180.488	961.5
2183.102	966.5
2185.714	954.83333
2188.325	928.16667
2190.934	931.5
2193.541	923.16667
2196.146	887.83333
2198.75	879.16667
2201.351	876.5
2203.951	851.83333
2206.549	867.16667
2209.146	841.83333
2211.74	824.16667
2214.333	830.83333
2216.924	813.83333
2219.514	809.5
2222.101	806.16667
2224.687	813.83333
2227.271	799.5
2229.853	792.16667
2232.433	776.16667
2235.012	797.5
2237.589	804.83333
2240.164	803.83333
2242.738	791.16667
2245.309	778.16667
2247.879	776.83333
2250.448	777.5
2253.014	755.16667
2255.579	729.5
2258.142	737.16667
2260.703	723.16667
2263.262	730.83333
2265.82	720.5
2268.376	726.83333
2270.93	717.83333
2273.483	697.83333
2276.033	704.83333
2278.583	701.83333
2281.13	699.83333
2283.675	675.83333
2286.219	687.16667
2288.761	696.16667
2291.302	704.5
2293.841	700.5
2296.377	672.83333
2298.913	678.16667
2301.446	686.83333
2303.978	677.5
2306.508	668.83333
2309.037	672.16667
2311.563	656.5
2314.088	680.5
2316.612	657.83333
2319.133	678.16667
2321.653	651.5
2324.171	655.83333
2326.688	661.83333
2329.202	644.5
2331.715	651.83333
2334.227	649.5
2336.736	646.83333
2339.244	634.83333
2341.751	619.83333
2344.255	631.5
2346.758	635.83333
2349.259	622.5
2351.759	627.16667
2354.257	621.5
2356.753	620.5
2359.247	611.83333
2361.74	619.5
2364.231	613.5
2366.721	622.83333
2369.209	612.16667
2371.695	603.5
2374.179	606.5
2376.662	605.5
2379.143	613.16667
2381.622	607.16667
2384.1	612.5
2386.576	606.83333
2389.051	622.16667
2391.524	627.5
2393.995	611.5
2396.464	598.83333
2398.932	596.83333
2401.398	593.16667
2403.863	582.5
2406.325	581.5
2408.787	586.83333
2411.246	583.5
2413.704	584.5
2416.16	573.83333
2418.615	574.5
2421.068	577.16667
2423.519	578.16667
2425.969	574.5
2428.417	580.5
2430.863	602.16667
2433.308	592.83333
2435.751	573.5
2438.193	566.83333
2440.633	575.83333
2443.071	571.5
2445.508	556.5
2447.943	566.16667
2450.376	553.16667
2452.808	555.83333
2455.238	555.83333
2457.667	576.83333
2460.093	555.5
2462.519	537.16667
2464.942	544.83333
2467.365	555.83333
2469.785	548.83333
2472.204	543.83333
2474.621	543.83333
2477.037	555.5
2479.451	532.83333
2481.863	533.5
2484.274	539.16667
2486.683	547.5
2489.091	547.83333
2491.497	538.5
2493.901	532.5
2496.304	539.16667
2498.705	543.5
2501.105	522.16667
2503.503	553.83333
2505.899	511.83333
2508.294	541.83333
2510.687	511.5
2513.079	516.16667
2515.469	518.5
2517.858	512.5
2520.245	537.83333
2522.63	516.83333
2525.014	514.5
2527.396	506.83333
2529.776	507.83333
2532.156	509.16667
2534.533	508.5
2536.909	495.83333
2539.283	484.16667
2541.656	499.16667
2544.027	525.5
2546.397	506.16667
2548.765	505.5
2551.131	506.5
2553.496	498.5
2555.86	498.83333
2558.221	490.5
2560.582	489.5
2562.94	479.16667
2565.298	483.16667
2567.653	506.5
2570.007	476.5
2572.36	490.83333
2574.711	488.5
2577.06	500.16667
2579.408	498.16667
2581.754	487.5
2584.099	482.5
2586.442	475.83333
2588.784	481.16667
2591.124	493.5
2593.463	478.16667
2595.8	478.16667
2598.135	469.5
2600.469	475.83333
2602.802	496.83333
2605.133	485.83333
2607.462	468.5
2609.79	466.5
2612.116	476.16667
2614.441	472.16667
2616.764	471.5
2619.086	474.5
2621.406	463.83333
2623.725	487.16667
2626.042	482.83333
2628.358	472.5
2630.672	466.83333
2632.985	483.83333
2635.296	479.16667
2637.606	478.83333
2639.914	462.83333
2642.22	485.83333
2644.525	470.83333
2646.829	473.83333
2649.131	474.83333
2651.432	478.5
2653.731	489.16667
2656.028	483.5
2658.324	475.83333
2660.619	464.83333
2662.912	479.16667
2665.204	469.83333
2667.494	491.83333
2669.782	465.83333
2672.07	477.83333
2674.355	484.83333
2676.639	472.5
2678.922	470.5
2681.203	483.83333
2683.483	460.5
2685.761	454.16667
2688.038	474.83333
2690.313	477.5
2692.587	469.16667
2694.859	470.5
2697.13	475.5
2699.399	476.5
2701.667	492.5
2703.933	495.5
2706.198	486.16667
2708.461	493.5
2710.723	500.16667
2712.984	505.16667
2715.243	504.16667
2717.5	498.5
2719.757	506.16667
2722.011	500.16667
2724.264	508.5
2726.516	529.5
2728.766	509.83333
2731.015	507.83333
2733.262	501.16667
2735.508	503.16667
2737.753	501.5
2739.996	475.5
2742.237	477.16667
2744.477	490.5
2746.716	500.5
2748.953	487.16667
2751.189	483.16667
2753.423	477.83333
2755.656	463.83333
2757.887	473.16667
2760.117	474.16667
2762.346	454.16667
2764.573	445.5
2766.798	451.16667
2769.022	464.16667
2771.245	469.5
2773.467	464.5
2775.686	468.5
2777.905	486.5
2780.122	480.5
2782.337	475.5
2784.552	471.16667
2786.764	478.16667
2788.976	481.16667
2791.186	493.16667
2793.394	492.83333
2795.601	501.5
2797.807	499.16667
2800.011	513.16667
2802.214	528.83333
2804.415	525.16667
2806.615	531.5
2808.814	542.83333
2811.011	546.16667
2813.206	562.16667
2815.401	564.16667
2817.594	578.5
2819.785	587.16667
2821.975	583.5
2824.164	604.83333
2826.351	630.5
2828.537	646.16667
2830.722	665.16667
2832.905	679.5
2835.086	712.5
2837.267	742.16667
2839.445	789.83333
2841.623	818.83333
2843.799	871.83333
2845.974	906.5
2848.147	958.83333
2850.319	990.5
2852.489	1025.83333
2854.659	1047.83333
2856.826	1057.5
2858.993	1091.5
2861.158	1088.5
2863.321	1074.83333
2865.483	1116.83333
2867.644	1097.83333
2869.804	1107.16667
2871.962	1093.16667
2874.118	1099.16667
2876.274	1097.5
2878.428	1096.83333
2880.58	1074.5
2882.731	1060.5
2884.881	1087.16667
2887.03	1082.83333
2889.177	1080.16667
2891.322	1093.16667
2893.467	1089.5
2895.61	1100.5
2897.751	1130.83333
2899.892	1120.83333
2902.03	1132.16667
2904.168	1135.5
2906.304	1163.5
2908.439	1176.16667
2910.572	1135.83333
2912.704	1171.5
2914.835	1170.5
2916.965	1173.5
2919.093	1171.16667
2921.219	1133.83333
2923.345	1164.16667
2925.469	1123.16667
2927.591	1103.5
2929.712	1066.83333
2931.832	1067.16667
2933.951	1038.16667
2936.068	1015.83333
2938.184	980.16667
2940.299	932.83333
2942.412	891.16667
2944.524	853.83333
2946.634	837.16667
2948.744	774.5
2950.851	783.83333
2952.958	735.5
2955.063	713.83333
2957.167	702.5
2959.269	657.16667
2961.371	669.16667
2963.471	632.16667
2965.569	621.83333
2967.666	579.16667
2969.762	568.83333
2971.857	546.16667
2973.95	526.83333
2976.042	524.83333
2978.133	495.5
2980.222	473.83333
2982.31	461.83333
2984.396	439.5
2986.482	432.83333
2988.566	429.83333
2990.648	411.5
2992.73	409.16667
2994.81	393.5
2996.889	409.5
2998.966	387.83333
3001.042	395.16667
3003.117	388.83333
3005.191	382.5
3007.263	371.5
3009.334	367.16667
3011.403	356.5
3013.472	342.5
3015.539	339.83333
3017.604	354.16667
3019.669	314.16667
3021.732	317.5
3023.794	321.5
3025.854	313.16667
3027.914	300.16667
3029.971	312.83333
3032.028	304.16667
3034.083	303.83333
3036.137	297.5
3038.19	290.16667
3040.242	274.83333
3042.292	270.5
3044.341	268.5
3046.388	286.83333
3048.435	249.16667
3050.48	277.16667
3052.524	272.5
3054.566	246.5
3056.607	261.5
3058.647	246.83333
3060.686	238.83333
3062.723	230.16667
3064.759	221.83333
3066.794	0.5
3068.828	-2.16667
3070.86	-2.16667
