-0.839	293.04167
3.438	316.375
7.711	99.04167
11.981	51.70833
16.247	44.375
20.509	45.04167
24.768	46.04167
29.024	49.04167
33.276	45.04167
37.524	53.70833
41.769	40.04167
46.01	38.70833
50.247	52.70833
54.481	61.70833
58.712	70.375
62.939	53.375
67.162	66.04167
71.382	57.375
75.599	50.70833
79.812	67.70833
84.021	81.04167
88.227	62.375
92.429	68.70833
96.628	50.375
100.823	67.375
105.015	78.70833
109.204	78.375
113.388	77.375
117.57	79.70833
121.748	93.375
125.922	86.04167
130.093	106.04167
134.261	115.70833
138.425	109.70833
142.585	150.04167
146.742	151.70833
150.896	177.375
155.046	210.375
159.193	341.375
163.336	576.04167
167.476	1059.04167
171.613	1979.04167
175.746	3301.70833
179.875	4956.70833
184.002	6500.375
188.124	7579.375
192.244	7990.70833
196.36	8000.70833
200.472	7922.70833
204.581	7813.70833
208.687	7735.375
212.79	7816.375
216.889	7945.70833
220.984	8121.375
225.077	8341.04167
229.165	8509.375
233.251	8725.70833
237.333	8879.375
241.412	8970.375
245.487	8966.70833
249.559	8904.70833
253.628	8879.70833
257.694	8714.70833
261.756	8700.375
265.814	8461.70833
269.87	8198.375
273.922	7916.04167
277.97	7581.04167
282.016	7394.70833
286.058	7193.375
290.097	7059.375
294.132	7014.70833
298.164	6885.375
302.193	6542.04167
306.219	6047.375
310.241	5498.04167
314.26	4991.04167
318.276	4580.04167
322.288	4264.375
326.297	4008.375
330.303	3811.04167
334.305	3727.70833
338.305	3630.04167
342.301	3582.04167
346.294	3538.04167
350.283	3511.375
354.269	3466.70833
358.252	3446.70833
362.232	3444.375
366.209	3422.70833
370.182	3370.70833
374.152	3388.70833
378.119	3370.04167
382.083	3368.04167
386.043	3363.70833
390	3351.375
393.954	3317.04167
397.905	3285.375
401.852	3271.375
405.797	3200.04167
409.738	3198.375
413.676	3146.375
417.61	3143.375
421.542	3061.70833
425.47	3039.70833
429.396	3014.375
433.318	2997.375
437.236	2953.375
441.152	2974.70833
445.065	2938.04167
448.974	2902.70833
452.88	2889.375
456.783	2866.04167
460.683	2861.375
464.58	2867.375
468.473	2867.375
472.364	2846.375
476.251	2866.70833
480.135	2892.04167
484.016	2912.70833
487.894	2932.375
491.769	2945.04167
495.641	2954.04167
499.509	2925.70833
503.375	2912.375
507.237	2937.70833
511.096	2917.375
514.952	2927.04167
518.805	2877.70833
522.655	2885.375
526.502	2883.375
530.346	2887.70833
534.187	2900.04167
538.024	2916.04167
541.859	2907.70833
545.69	2942.04167
549.519	2909.04167
553.344	2895.04167
557.166	2857.375
560.985	2834.04167
564.802	2779.70833
568.615	2744.04167
572.425	2700.375
576.232	2713.70833
580.036	2716.375
583.836	2714.375
587.634	2702.04167
591.429	2696.70833
595.221	2746.70833
599.01	2751.04167
602.796	2787.70833
606.578	2819.70833
610.358	2815.375
614.135	2820.04167
617.909	2823.375
621.679	2795.375
625.447	2767.70833
629.212	2773.04167
632.973	2806.70833
636.732	2787.375
640.488	2780.375
644.241	2750.70833
647.991	2751.70833
651.737	2779.70833
655.481	2763.375
659.222	2765.70833
662.96	2769.70833
666.695	2767.70833
670.427	2771.70833
674.156	2777.70833
677.882	2797.04167
681.605	2773.04167
685.325	2750.375
689.043	2756.375
692.757	2739.04167
696.468	2756.375
700.177	2747.70833
703.882	2749.70833
707.585	2760.04167
711.284	2745.04167
714.981	2734.70833
718.675	2759.70833
722.366	2773.70833
726.054	2746.375
729.739	2762.04167
733.421	2766.375
737.1	2724.04167
740.777	2768.70833
744.45	2796.04167
748.121	2827.04167
751.789	2865.04167
755.453	2865.70833
759.115	2877.70833
762.774	2905.04167
766.431	2949.04167
770.084	2958.375
773.734	2997.04167
777.382	3030.04167
781.027	3076.70833
784.669	3084.375
788.308	3102.70833
791.944	3128.375
795.577	3167.70833
799.208	3195.375
802.835	3218.70833
806.46	3258.375
810.082	3292.04167
813.701	3319.375
817.317	3345.04167
820.931	3330.04167
824.542	3339.375
828.149	3295.375
831.754	3253.375
835.357	3251.70833
838.956	3252.375
842.553	3200.04167
846.146	3182.375
849.737	3161.375
853.326	3193.70833
856.911	3200.04167
860.493	3269.70833
864.073	3259.04167
867.65	3333.04167
871.225	3361.04167
874.796	3349.375
878.365	3367.375
881.931	3385.70833
885.494	3403.04167
889.054	3396.04167
892.612	3407.04167
896.166	3366.70833
899.719	3327.375
903.268	3314.70833
906.814	3283.375
910.358	3282.70833
913.899	3255.70833
917.438	3270.04167
920.973	3263.04167
924.506	3273.04167
928.036	3331.04167
931.564	3379.04167
935.088	3388.375
938.61	3406.375
942.129	3457.375
945.646	3520.375
949.16	3611.04167
952.671	3683.375
956.179	3719.04167
959.685	3712.375
963.188	3709.375
966.688	3649.04167
970.185	3543.04167
973.68	3502.70833
977.173	3456.70833
980.662	3458.04167
984.149	3447.04167
987.633	3463.04167
991.114	3519.04167
994.593	3607.375
998.069	3734.375
1001.542	3843.375
1005.013	3773.04167
1008.481	3598.70833
1011.947	3533.70833
1015.409	3508.375
1018.869	3519.04167
1022.327	3498.375
1025.782	3466.04167
1029.234	3448.04167
1032.683	3428.04167
1036.13	3326.04167
1039.574	3189.70833
1043.016	3125.04167
1046.455	3056.375
1049.891	3028.04167
1053.325	3012.70833
1056.756	3021.375
1060.184	3079.70833
1063.61	3061.375
1067.033	3074.375
1070.454	3082.04167
1073.872	3109.70833
1077.287	3112.04167
1080.7	3140.70833
1084.11	3109.04167
1087.517	3096.375
1090.922	3050.70833
1094.325	3021.375
1097.724	2985.70833
1101.122	3004.375
1104.516	2994.70833
1107.908	2989.375
1111.298	3007.04167
1114.684	3071.70833
1118.069	3081.375
1121.45	3151.70833
1124.83	3132.04167
1128.206	3133.70833
1131.58	3181.375
1134.951	3255.04167
1138.32	3367.70833
1141.687	3490.375
1145.05	3578.04167
1148.412	3607.375
1151.77	3616.70833
1155.126	3605.375
1158.48	3636.04167
1161.831	3662.70833
1165.18	3681.70833
1168.525	3751.04167
1171.869	3750.04167
1175.21	3801.70833
1178.548	3869.70833
1181.884	3883.70833
1185.217	3916.70833
1188.548	3998.375
1191.877	4044.70833
1195.202	4121.375
1198.526	4204.70833
1201.846	4184.70833
1205.165	4164.04167
1208.48	4137.70833
1211.794	4143.375
1215.104	4114.04167
1218.413	4124.375
1221.719	4099.375
1225.022	4079.375
1228.323	4069.375
1231.621	4033.375
1234.917	4033.375
1238.21	4068.70833
1241.501	4052.04167
1244.79	4022.04167
1248.076	4042.70833
1251.359	4087.04167
1254.64	4137.04167
1257.919	4192.04167
1261.195	4226.375
1264.468	4290.375
1267.74	4371.375
1271.008	4367.375
1274.275	4356.70833
1277.538	4303.04167
1280.8	4311.04167
1284.059	4320.04167
1287.315	4353.70833
1290.569	4362.375
1293.821	4387.70833
1297.07	4417.04167
1300.317	4441.04167
1303.562	4429.70833
1306.803	4389.375
1310.043	4355.375
1313.28	4305.70833
1316.515	4273.375
1319.747	4215.375
1322.977	4163.375
1326.204	4129.70833
1329.429	4043.04167
1332.652	4046.375
1335.872	4018.375
1339.09	3993.375
1342.306	3998.04167
1345.519	3981.04167
1348.729	3938.375
1351.938	3871.04167
1355.144	3837.04167
1358.347	3801.375
1361.548	3795.04167
1364.747	3806.04167
1367.944	3775.70833
1371.138	3798.375
1374.329	3815.04167
1377.518	3874.375
1380.705	3907.375
1383.89	3860.375
1387.072	3776.04167
1390.252	3658.04167
1393.429	3529.04167
1396.605	3417.375
1399.777	3326.70833
1402.948	3311.04167
1406.116	3269.04167
1409.282	3280.04167
1412.445	3284.04167
1415.606	3315.70833
1418.765	3333.70833
1421.921	3438.04167
1425.075	3517.375
1428.227	3639.04167
1431.376	3794.375
1434.524	3919.375
1437.668	4012.375
1440.811	4055.375
1443.951	4083.04167
1447.089	4113.375
1450.224	4106.70833
1453.357	4062.70833
1456.488	4013.04167
1459.617	3946.04167
1462.743	3923.375
1465.867	3837.375
1468.989	3772.70833
1472.108	3724.375
1475.225	3663.70833
1478.34	3617.375
1481.453	3593.375
1484.563	3605.04167
1487.671	3657.70833
1490.776	3715.70833
1493.88	3776.70833
1496.981	3855.04167
1500.08	3910.375
1503.176	3995.375
1506.271	4064.70833
1509.363	4128.375
1512.452	4201.04167
1515.54	4274.70833
1518.625	4418.70833
1521.708	4584.04167
1524.789	4860.04167
1527.867	5151.375
1530.944	5496.04167
1534.018	5748.70833
1537.089	5810.04167
1540.159	5740.04167
1543.226	5565.375
1546.291	5366.375
1549.354	5166.70833
1552.415	4984.70833
1555.473	4863.70833
1558.529	4763.70833
1561.583	4723.04167
1564.634	4694.04167
1567.684	4704.70833
1570.731	4679.70833
1573.776	4758.375
1576.819	4806.70833
1579.859	4860.375
1582.898	4928.04167
1585.934	4958.375
1588.968	5001.375
1591.999	4968.70833
1595.029	4941.70833
1598.056	4968.04167
1601.081	5029.375
1604.104	4965.70833
1607.125	4922.04167
1610.144	4819.04167
1613.16	4716.70833
1616.174	4624.70833
1619.186	4502.375
1622.196	4415.70833
1625.203	4312.375
1628.209	4252.375
1631.212	4177.375
1634.213	4159.04167
1637.212	4139.375
1640.209	4073.70833
1643.203	3972.70833
1646.196	3837.04167
1649.186	3683.375
1652.174	3574.70833
1655.16	3465.04167
1658.144	3353.04167
1661.125	3204.04167
1664.105	3040.375
1667.082	2893.04167
1670.057	2747.375
1673.03	2556.375
1676.001	2418.04167
1678.97	2263.70833
1681.937	2153.70833
1684.901	2001.375
1687.863	1955.375
1690.824	1872.04167
1693.782	1845.375
1696.738	1759.70833
1699.692	1739.375
1702.643	1682.375
1705.593	1687.375
1708.54	1653.70833
1711.486	1629.375
1714.429	1596.375
1717.37	1573.70833
1720.309	1555.375
1723.246	1568.375
1726.181	1531.70833
1729.113	1535.375
1732.044	1502.375
1734.972	1484.04167
1737.899	1479.375
1740.823	1481.04167
1743.745	1469.375
1746.665	1414.70833
1749.583	1390.375
1752.499	1370.04167
1755.413	1349.70833
1758.325	1337.70833
1761.235	1343.70833
1764.142	1301.375
1767.048	1284.70833
1769.951	1280.375
1772.852	1266.04167
1775.752	1258.70833
1778.649	1261.04167
1781.544	1246.04167
1784.437	1231.375
1787.328	1243.04167
1790.217	1228.04167
1793.104	1205.04167
1795.989	1208.04167
1798.872	1207.375
1801.753	1210.70833
1804.631	1209.04167
1807.508	1208.70833
1810.383	1201.375
1813.255	1190.04167
1816.126	1182.70833
1818.994	1171.375
1821.861	1168.70833
1824.725	1166.375
1827.587	1161.04167
1830.448	1152.04167
1833.306	1117.04167
1836.162	1145.04167
1839.017	1123.70833
1841.869	1139.375
1844.719	1106.70833
1847.567	1113.04167
1850.414	1112.04167
1853.258	1106.70833
1856.1	1120.375
1858.94	1121.04167
1861.778	1102.70833
1864.614	1113.04167
1867.448	1110.70833
1870.28	1104.70833
1873.111	1108.375
1875.939	1106.375
1878.765	1124.375
1881.589	1100.375
1884.411	1097.70833
1887.231	1105.70833
1890.049	1090.70833
1892.865	1085.70833
1895.68	1075.70833
1898.492	1073.04167
1901.302	1069.70833
1904.11	1056.70833
1906.916	1056.375
1909.721	1047.04167
1912.523	1073.70833
1915.323	1019.04167
1918.122	1034.70833
1920.918	1045.70833
1923.712	1033.375
1926.505	1052.375
1929.295	1023.04167
1932.084	1036.04167
1934.87	1040.375
1937.655	1033.04167
1940.438	1019.04167
1943.218	1023.375
1945.997	1016.04167
1948.774	1025.70833
1951.549	1030.70833
1954.322	1016.70833
1957.093	1012.375
1959.862	1005.04167
1962.629	1009.375
1965.394	1001.70833
1968.157	978.375
1970.918	1009.70833
1973.678	994.70833
1976.435	998.375
1979.19	995.375
1981.944	980.70833
1984.696	970.04167
1987.445	970.70833
1990.193	968.70833
1992.939	988.70833
1995.683	963.70833
1998.425	948.375
2001.165	970.70833
2003.903	966.375
2006.639	954.70833
2009.374	954.70833
2012.106	960.04167
2014.837	928.04167
2017.566	957.375
2020.292	949.70833
2023.017	957.04167
2025.74	953.375
2028.461	958.04167
2031.18	940.375
2033.898	945.04167
2036.613	938.375
2039.327	945.70833
2042.038	917.70833
2044.748	927.70833
2047.456	924.04167
2050.162	909.70833
2052.866	922.375
2055.568	919.70833
2058.268	901.70833
2060.967	909.375
2063.663	902.04167
2066.358	925.70833
2069.051	903.04167
2071.742	908.04167
2074.431	910.375
2077.118	908.70833
2079.804	899.04167
2082.487	906.70833
2085.169	914.70833
2087.849	932.375
2090.527	898.04167
2093.203	923.375
2095.877	918.375
2098.55	916.70833
2101.22	933.70833
2103.889	935.70833
2106.556	926.70833
2109.221	954.70833
2111.884	977.70833
2114.546	1023.04167
2117.205	1086.70833
2119.863	1159.70833
2122.519	1230.04167
2125.173	1316.04167
2127.825	1422.04167
2130.475	1438.375
2133.124	1431.70833
2135.771	1397.375
2138.416	1353.04167
2141.059	1258.375
2143.7	1239.375
2146.339	1148.04167
2148.977	1089.375
2151.613	1063.375
2154.247	1027.375
2156.879	1004.375
2159.51	1001.04167
2162.138	981.70833
2164.765	985.375
2167.39	964.375
2170.013	985.04167
2172.634	982.375
2175.254	976.70833
2177.872	996.375
2180.488	964.375
2183.102	974.04167
2185.714	955.375
2188.325	921.375
2190.934	921.375
2193.541	909.70833
2196.146	885.04167
2198.75	878.04167
2201.351	875.04167
2203.951	847.70833
2206.549	861.04167
2209.146	833.375
2211.74	825.375
2214.333	826.70833
2216.924	814.04167
2219.514	810.04167
2222.101	800.04167
2224.687	822.04167
2227.271	800.04167
2229.853	783.375
2232.433	797.70833
2235.012	807.70833
2237.589	795.04167
2240.164	800.70833
2242.738	775.70833
2245.309	758.70833
2247.879	775.04167
2250.448	773.70833
2253.014	755.375
2255.579	733.375
2258.142	736.375
2260.703	726.375
2263.262	726.70833
2265.82	717.375
2268.376	723.04167
2270.93	706.04167
2273.483	697.04167
2276.033	710.375
2278.583	705.70833
2281.13	696.04167
2283.675	695.70833
2286.219	684.70833
2288.761	686.70833
2291.302	691.375
2293.841	668.04167
2296.377	670.04167
2298.913	669.70833
2301.446	680.04167
2303.978	676.375
2306.508	662.70833
2309.037	672.375
2311.563	668.04167
2314.088	667.375
2316.612	649.04167
2319.133	660.375
2321.653	654.70833
2324.171	643.375
2326.688	657.70833
2329.202	631.04167
2331.715	646.375
2334.227	633.375
2336.736	639.375
2339.244	626.04167
2341.751	623.375
2344.255	637.70833
2346.758	626.375
2349.259	621.70833
2351.759	618.04167
2354.257	612.375
2356.753	609.70833
2359.247	614.04167
2361.74	626.70833
2364.231	609.70833
2366.721	617.04167
2369.209	611.375
2371.695	604.70833
2374.179	603.375
2376.662	606.70833
2379.143	626.04167
2381.622	602.70833
2384.1	611.70833
2386.576	597.375
2389.051	607.375
2391.524	605.375
2393.995	603.04167
2396.464	590.375
2398.932	595.375
2401.398	590.375
2403.863	578.375
2406.325	585.04167
2408.787	590.70833
2411.246	586.04167
2413.704	574.70833
2416.16	571.70833
2418.615	583.04167
2421.068	587.375
2423.519	576.375
2425.969	568.04167
2428.417	580.70833
2430.863	598.04167
2433.308	580.04167
2435.751	569.70833
2438.193	580.04167
2440.633	569.04167
2443.071	570.70833
2445.508	554.04167
2447.943	557.04167
2450.376	552.04167
2452.808	559.375
2455.238	549.04167
2457.667	564.04167
2460.093	543.04167
2462.519	544.70833
2464.942	540.70833
2467.365	560.375
2469.785	541.04167
2472.204	550.04167
2474.621	543.04167
2477.037	563.04167
2479.451	527.70833
2481.863	524.375
2484.274	526.375
2486.683	533.04167
2489.091	543.70833
2491.497	544.375
2493.901	530.70833
2496.304	538.04167
2498.705	530.04167
2501.105	521.375
2503.503	549.70833
2505.899	520.04167
2508.294	543.04167
2510.687	515.70833
2513.079	516.375
2515.469	511.375
2517.858	507.04167
2520.245	532.375
2522.63	502.375
2525.014	505.375
2527.396	502.04167
2529.776	508.04167
2532.156	508.70833
2534.533	495.04167
2536.909	503.04167
2539.283	493.70833
2541.656	498.70833
2544.027	518.70833
2546.397	498.70833
2548.765	497.70833
2551.131	498.375
2553.496	497.04167
2555.86	506.04167
2558.221	498.375
2560.582	491.70833
2562.94	478.70833
2565.298	495.375
2567.653	516.70833
2570.007	478.04167
2572.36	492.04167
2574.711	487.70833
2577.06	499.375
2579.408	481.70833
2581.754	488.04167
2584.099	488.04167
2586.442	480.04167
2588.784	491.375
2591.124	483.70833
2593.463	478.70833
2595.8	481.04167
2598.135	460.70833
2600.469	472.04167
2602.802	483.375
2605.133	487.375
2607.462	460.70833
2609.79	468.375
2612.116	475.70833
2614.441	469.04167
2616.764	482.04167
2619.086	472.04167
2621.406	459.70833
2623.725	474.375
2626.042	472.375
2628.358	462.70833
2630.672	471.375
2632.985	477.70833
2635.296	468.70833
2637.606	469.04167
2639.914	455.375
2642.22	469.375
2644.525	462.375
2646.829	478.70833
2649.131	474.375
2651.432	472.375
2653.731	470.04167
2656.028	485.70833
2658.324	469.70833
2660.619	463.04167
2662.912	483.375
2665.204	463.375
2667.494	471.04167
2669.782	464.375
2672.07	470.375
2674.355	474.70833
2676.639	472.04167
2678.922	462.375
2681.203	477.70833
2683.483	455.375
2685.761	462.375
2688.038	472.04167
2690.313	482.04167
2692.587	470.375
2694.859	460.375
2697.13	468.375
2699.399	471.70833
2701.667	491.375
2703.933	495.70833
2706.198	491.375
2708.461	496.70833
2710.723	502.70833
2712.984	486.70833
2715.243	506.375
2717.5	494.70833
2719.757	513.375
2722.011	501.375
2724.264	511.375
2726.516	526.375
2728.766	510.375
2731.015	508.375
2733.262	506.375
2735.508	494.375
2737.753	493.04167
2739.996	488.04167
2742.237	474.375
2744.477	490.70833
2746.716	487.70833
2748.953	485.04167
2751.189	484.70833
2753.423	474.375
2755.656	463.70833
2757.887	463.04167
2760.117	468.375
2762.346	459.04167
2764.573	451.70833
2766.798	455.375
2769.022	455.70833
2771.245	454.70833
2773.467	455.375
2775.686	467.70833
2777.905	465.70833
2780.122	484.04167
2782.337	472.70833
2784.552	476.375
2786.764	485.70833
2788.976	481.70833
2791.186	496.70833
2793.394	500.375
2795.601	490.70833
2797.807	511.375
2800.011	506.70833
2802.214	541.70833
2804.415	530.04167
2806.615	523.04167
2808.814	541.375
2811.011	552.375
2813.206	546.04167
2815.401	568.04167
2817.594	578.70833
2819.785	590.70833
2821.975	579.375
2824.164	602.04167
2826.351	621.70833
2828.537	639.375
2830.722	655.375
2832.905	671.375
2835.086	723.04167
2837.267	756.70833
2839.445	788.70833
2841.623	825.04167
2843.799	861.70833
2845.974	906.70833
2848.147	963.375
2850.319	987.04167
2852.489	1036.375
2854.659	1037.70833
2856.826	1064.70833
2858.993	1084.375
2861.158	1085.70833
2863.321	1064.04167
2865.483	1106.375
2867.644	1101.375
2869.804	1096.375
2871.962	1070.04167
2874.118	1105.04167
2876.274	1101.375
2878.428	1087.04167
2880.58	1068.375
2882.731	1076.04167
2884.881	1083.375
2887.03	1072.375
2889.177	1079.375
2891.322	1101.375
2893.467	1086.04167
2895.61	1089.70833
2897.751	1125.04167
2899.892	1103.04167
2902.03	1128.375
2904.168	1133.04167
2906.304	1126.70833
2908.439	1176.70833
2910.572	1145.70833
2912.704	1156.04167
2914.835	1143.04167
2916.965	1151.04167
2919.093	1172.70833
2921.219	1141.70833
2923.345	1161.70833
2925.469	1122.375
2927.591	1098.70833
2929.712	1065.375
2931.832	1059.375
2933.951	1025.04167
2936.068	984.04167
2938.184	973.70833
2940.299	930.04167
2942.412	916.04167
2944.524	854.70833
2946.634	846.04167
2948.744	784.70833
2950.851	777.04167
2952.958	721.04167
2955.063	723.375
2957.167	694.04167
2959.269	662.70833
2961.371	663.70833
2963.471	619.70833
2965.569	629.04167
2967.666	578.70833
2969.762	564.375
2971.857	555.70833
2973.95	524.375
2976.042	507.375
2978.133	498.04167
2980.222	477.375
2982.31	459.70833
2984.396	445.04167
2986.482	428.70833
2988.566	432.375
2990.648	412.375
2992.73	411.375
2994.81	388.70833
2996.889	400.04167
2998.966	393.375
3001.042	384.70833
3003.117	383.70833
3005.191	376.04167
3007.263	378.70833
3009.334	366.375
3011.403	358.04167
3013.472	335.375
3015.539	343.70833
3017.604	345.375
3019.669	313.04167
3021.732	320.04167
3023.794	321.375
3025.854	303.375
3027.914	299.375
3029.971	313.375
3032.028	308.375
3034.083	299.70833
3036.137	292.375
3038.19	286.70833
3040.242	270.04167
3042.292	274.04167
3044.341	274.04167
3046.388	286.04167
3048.435	258.375
3050.48	279.70833
3052.524	267.70833
3054.566	241.04167
3056.607	262.375
3058.647	254.70833
3060.686	237.04167
3062.723	229.04167
3064.759	227.375
3066.794	2.375
3068.828	-0.95833
3070.86	-2.95833
