-0.839	314.375
3.438	339.375
7.711	103.04167
11.981	53.375
16.247	45.04167
20.509	46.375
24.768	49.70833
29.024	50.375
33.276	48.375
37.524	55.70833
41.769	44.375
46.01	38.04167
50.247	53.70833
54.481	64.04167
58.712	71.375
62.939	53.04167
67.162	66.375
71.382	57.70833
75.599	52.375
79.812	66.04167
84.021	86.04167
88.227	65.04167
92.429	64.70833
96.628	53.375
100.823	73.70833
105.015	77.70833
109.204	83.70833
113.388	84.04167
117.57	81.04167
121.748	94.04167
125.922	93.70833
130.093	111.70833
134.261	118.70833
138.425	113.04167
142.585	153.375
146.742	153.70833
150.896	188.70833
155.046	229.375
159.193	370.04167
163.336	610.70833
167.476	1123.04167
171.613	2097.375
175.746	3496.70833
179.875	5245.375
184.002	6820.04167
188.124	7987.70833
192.244	8467.04167
196.36	8557.04167
200.472	8445.70833
204.581	8323.04167
208.687	8191.04167
212.79	8287.375
216.889	8454.375
220.984	8611.04167
225.077	8858.70833
229.165	9090.375
233.251	9272.375
237.333	9434.375
241.412	9509.70833
245.487	9549.04167
249.559	9496.70833
253.628	9383.04167
257.694	9310.70833
261.756	9225.375
265.814	9060.04167
269.87	8733.375
273.922	8439.375
277.97	8102.04167
282.016	7852.70833
286.058	7605.70833
290.097	7526.375
294.132	7420.375
298.164	7266.70833
302.193	6965.04167
306.219	6463.375
310.241	5861.04167
314.26	5338.04167
318.276	4905.04167
322.288	4585.04167
326.297	4307.04167
330.303	4117.375
334.305	3978.375
338.305	3901.70833
342.301	3847.375
346.294	3827.70833
350.283	3778.70833
354.269	3753.375
358.252	3715.70833
362.232	3708.375
366.209	3688.375
370.182	3664.04167
374.152	3656.375
378.119	3661.04167
382.083	3679.04167
386.043	3691.04167
390	3663.04167
393.954	3623.375
397.905	3565.375
401.852	3535.04167
405.797	3494.375
409.738	3442.04167
413.676	3449.70833
417.61	3377.04167
421.542	3343.04167
425.47	3281.04167
429.396	3256.375
433.318	3236.70833
437.236	3227.375
441.152	3219.70833
445.065	3174.375
448.974	3161.04167
452.88	3125.70833
456.783	3104.375
460.683	3123.375
464.58	3106.04167
468.473	3111.04167
472.364	3107.70833
476.251	3121.70833
480.135	3131.70833
484.016	3153.375
487.894	3187.04167
491.769	3218.375
495.641	3189.04167
499.509	3202.70833
503.375	3189.04167
507.237	3176.70833
511.096	3174.70833
514.952	3141.04167
518.805	3143.70833
522.655	3122.70833
526.502	3119.04167
530.346	3151.04167
534.187	3157.04167
538.024	3157.04167
541.859	3141.375
545.69	3154.70833
549.519	3135.70833
553.344	3134.375
557.166	3093.04167
560.985	3044.70833
564.802	3020.375
568.615	2993.70833
572.425	2925.04167
576.232	2920.04167
580.036	2911.04167
583.836	2935.375
587.634	2932.70833
591.429	2930.04167
595.221	2955.375
599.01	2996.04167
602.796	3008.70833
606.578	3040.70833
610.358	3066.375
614.135	3037.04167
617.909	3042.04167
621.679	3023.70833
625.447	3003.70833
629.212	3032.04167
632.973	3018.375
636.732	3013.70833
640.488	3014.375
644.241	2990.70833
647.991	2961.375
651.737	2995.04167
655.481	2962.70833
659.222	2998.04167
662.96	2982.70833
666.695	3000.70833
670.427	3025.04167
674.156	3020.04167
677.882	3009.70833
681.605	3001.04167
685.325	2986.70833
689.043	3003.04167
692.757	2958.375
696.468	2980.04167
700.177	3007.70833
703.882	2980.70833
707.585	2977.04167
711.284	2995.375
714.981	2993.70833
718.675	2981.375
722.366	2995.70833
726.054	2976.375
729.739	2982.04167
733.421	2970.375
737.1	2980.375
740.777	3005.70833
744.45	3034.04167
748.121	3046.04167
751.789	3083.70833
755.453	3100.70833
759.115	3126.375
762.774	3143.04167
766.431	3157.375
770.084	3186.04167
773.734	3217.70833
777.382	3284.70833
781.027	3293.70833
784.669	3306.70833
788.308	3354.70833
791.944	3353.70833
795.577	3401.375
799.208	3433.04167
802.835	3428.70833
806.46	3513.04167
810.082	3534.04167
813.701	3560.04167
817.317	3613.375
820.931	3572.70833
824.542	3584.04167
828.149	3549.70833
831.754	3492.375
835.357	3482.70833
838.956	3463.375
842.553	3460.70833
846.146	3423.04167
849.737	3403.04167
853.326	3430.375
856.911	3420.70833
860.493	3470.04167
864.073	3528.375
867.65	3538.70833
871.225	3558.70833
874.796	3575.70833
878.365	3584.04167
881.931	3603.375
885.494	3631.70833
889.054	3639.70833
892.612	3624.70833
896.166	3582.04167
899.719	3562.70833
903.268	3528.04167
906.814	3503.04167
910.358	3502.04167
913.899	3489.04167
917.438	3475.70833
920.973	3474.70833
924.506	3546.70833
928.036	3549.04167
931.564	3608.04167
935.088	3655.70833
938.61	3638.04167
942.129	3670.375
945.646	3756.04167
949.16	3832.04167
952.671	3922.375
956.179	3958.04167
959.685	3961.70833
963.188	3979.04167
966.688	3944.04167
970.185	3827.70833
973.68	3735.04167
977.173	3714.70833
980.662	3686.375
984.149	3693.375
987.633	3729.70833
991.114	3767.70833
994.593	3871.70833
998.069	4009.375
1001.542	4123.04167
1005.013	4054.70833
1008.481	3845.04167
1011.947	3778.70833
1015.409	3743.70833
1018.869	3757.375
1022.327	3722.04167
1025.782	3710.04167
1029.234	3723.375
1032.683	3688.04167
1036.13	3569.04167
1039.574	3435.375
1043.016	3348.04167
1046.455	3283.70833
1049.891	3253.70833
1053.325	3238.04167
1056.756	3247.70833
1060.184	3260.375
1063.61	3272.375
1067.033	3294.375
1070.454	3333.04167
1073.872	3336.70833
1077.287	3331.70833
1080.7	3340.70833
1084.11	3356.375
1087.517	3316.70833
1090.922	3288.375
1094.325	3251.70833
1097.724	3198.70833
1101.122	3213.70833
1104.516	3181.70833
1107.908	3197.375
1111.298	3238.70833
1114.684	3279.70833
1118.069	3323.70833
1121.45	3338.375
1124.83	3335.70833
1128.206	3343.70833
1131.58	3398.04167
1134.951	3461.04167
1138.32	3574.04167
1141.687	3702.04167
1145.05	3776.04167
1148.412	3835.70833
1151.77	3835.70833
1155.126	3827.70833
1158.48	3834.70833
1161.831	3864.70833
1165.18	3867.70833
1168.525	3933.70833
1171.869	3983.04167
1175.21	4008.70833
1178.548	4066.04167
1181.884	4132.04167
1185.217	4119.375
1188.548	4204.375
1191.877	4255.04167
1195.202	4351.70833
1198.526	4390.70833
1201.846	4412.04167
1205.165	4414.70833
1208.48	4398.375
1211.794	4375.70833
1215.104	4371.375
1218.413	4408.375
1221.719	4393.04167
1225.022	4290.70833
1228.323	4278.04167
1231.621	4297.04167
1234.917	4266.375
1238.21	4332.375
1241.501	4307.375
1244.79	4297.70833
1248.076	4287.70833
1251.359	4344.04167
1254.64	4421.04167
1257.919	4424.04167
1261.195	4507.04167
1264.468	4548.04167
1267.74	4644.70833
1271.008	4609.375
1274.275	4608.375
1277.538	4582.375
1280.8	4566.04167
1284.059	4580.375
1287.315	4647.04167
1290.569	4665.70833
1293.821	4665.70833
1297.07	4677.70833
1300.317	4692.375
1303.562	4689.375
1306.803	4666.04167
1310.043	4622.04167
1313.28	4588.04167
1316.515	4547.04167
1319.747	4485.04167
1322.977	4456.04167
1326.204	4396.375
1329.429	4305.70833
1332.652	4315.70833
1335.872	4309.375
1339.09	4263.70833
1342.306	4270.70833
1345.519	4242.375
1348.729	4188.375
1351.938	4197.04167
1355.144	4126.375
1358.347	4054.70833
1361.548	4051.70833
1364.747	4094.70833
1367.944	4075.375
1371.138	4101.70833
1374.329	4109.70833
1377.518	4155.04167
1380.705	4183.70833
1383.89	4170.375
1387.072	4048.70833
1390.252	3915.70833
1393.429	3796.04167
1396.605	3666.04167
1399.777	3575.70833
1402.948	3517.375
1406.116	3504.04167
1409.282	3509.70833
1412.445	3524.04167
1415.606	3508.375
1418.765	3565.70833
1421.921	3659.04167
1425.075	3729.70833
1428.227	3892.04167
1431.376	4034.04167
1434.524	4188.04167
1437.668	4284.70833
1440.811	4334.375
1443.951	4381.70833
1447.089	4369.04167
1450.224	4339.04167
1453.357	4318.04167
1456.488	4280.375
1459.617	4219.375
1462.743	4134.375
1465.867	4050.375
1468.989	4021.04167
1472.108	3942.04167
1475.225	3866.70833
1478.34	3866.375
1481.453	3804.375
1484.563	3841.04167
1487.671	3869.375
1490.776	3909.375
1493.88	3986.04167
1496.981	4098.70833
1500.08	4152.70833
1503.176	4222.04167
1506.271	4279.375
1509.363	4370.04167
1512.452	4415.70833
1515.54	4492.70833
1518.625	4631.04167
1521.708	4839.04167
1524.789	5141.70833
1527.867	5462.375
1530.944	5800.375
1534.018	6002.04167
1537.089	6119.70833
1540.159	6041.375
1543.226	5834.375
1546.291	5609.375
1549.354	5402.375
1552.415	5241.375
1555.473	5124.04167
1558.529	4996.70833
1561.583	4940.70833
1564.634	4916.04167
1567.684	4916.04167
1570.731	4914.70833
1573.776	4956.04167
1576.819	5061.375
1579.859	5081.70833
1582.898	5176.375
1585.934	5207.375
1588.968	5224.70833
1591.999	5200.04167
1595.029	5195.04167
1598.056	5229.375
1601.081	5253.375
1604.104	5206.04167
1607.125	5159.375
1610.144	5098.04167
1613.16	4982.04167
1616.174	4872.04167
1619.186	4745.04167
1622.196	4665.375
1625.203	4565.70833
1628.209	4511.70833
1631.212	4519.04167
1634.213	4495.375
1637.212	4458.04167
1640.209	4395.70833
1643.203	4299.375
1646.196	4162.375
1649.186	3996.04167
1652.174	3887.04167
1655.16	3778.04167
1658.144	3649.70833
1661.125	3506.375
1664.105	3328.04167
1667.082	3163.04167
1670.057	2978.04167
1673.03	2808.375
1676.001	2627.375
1678.97	2449.375
1681.937	2294.70833
1684.901	2193.70833
1687.863	2113.04167
1690.824	2027.375
1693.782	1964.375
1696.738	1896.375
1699.692	1860.70833
1702.643	1812.375
1705.593	1789.375
1708.54	1754.375
1711.486	1755.70833
1714.429	1725.04167
1717.37	1698.70833
1720.309	1668.70833
1723.246	1675.04167
1726.181	1626.70833
1729.113	1652.70833
1732.044	1605.375
1734.972	1597.375
1737.899	1594.04167
1740.823	1577.70833
1743.745	1575.70833
1746.665	1523.70833
1749.583	1503.70833
1752.499	1498.04167
1755.413	1463.04167
1758.325	1432.375
1761.235	1437.375
1764.142	1390.04167
1767.048	1397.375
1769.951	1393.70833
1772.852	1363.04167
1775.752	1363.70833
1778.649	1370.70833
1781.544	1374.04167
1784.437	1335.70833
1787.328	1351.04167
1790.217	1322.375
1793.104	1316.04167
1795.989	1299.375
1798.872	1282.375
1801.753	1316.04167
1804.631	1289.375
1807.508	1295.70833
1810.383	1282.70833
1813.255	1283.375
1816.126	1276.70833
1818.994	1270.04167
1821.861	1268.70833
1824.725	1259.70833
1827.587	1272.04167
1830.448	1251.70833
1833.306	1238.70833
1836.162	1221.70833
1839.017	1217.04167
1841.869	1217.375
1844.719	1216.70833
1847.567	1204.70833
1850.414	1188.04167
1853.258	1195.04167
1856.1	1196.04167
1858.94	1212.375
1861.778	1199.375
1864.614	1209.70833
1867.448	1193.375
1870.28	1183.70833
1873.111	1205.375
1875.939	1189.375
1878.765	1194.70833
1881.589	1183.04167
1884.411	1171.70833
1887.231	1188.04167
1890.049	1160.04167
1892.865	1176.04167
1895.68	1152.04167
1898.492	1166.375
1901.302	1153.375
1904.11	1152.04167
1906.916	1139.70833
1909.721	1138.375
1912.523	1124.70833
1915.323	1113.375
1918.122	1115.375
1920.918	1140.04167
1923.712	1107.375
1926.505	1125.375
1929.295	1095.375
1932.084	1122.04167
1934.87	1119.375
1937.655	1096.04167
1940.438	1114.04167
1943.218	1101.375
1945.997	1109.70833
1948.774	1106.70833
1951.549	1106.70833
1954.322	1108.70833
1957.093	1099.04167
1959.862	1087.70833
1962.629	1084.04167
1965.394	1091.04167
1968.157	1072.70833
1970.918	1071.04167
1973.678	1067.375
1976.435	1072.04167
1979.19	1058.04167
1981.944	1057.375
1984.696	1039.70833
1987.445	1040.375
1990.193	1044.375
1992.939	1055.04167
1995.683	1058.04167
1998.425	1030.375
2001.165	1052.70833
2003.903	1041.70833
2006.639	1035.70833
2009.374	1024.04167
2012.106	1036.04167
2014.837	1003.70833
2017.566	1038.04167
2020.292	1025.375
2023.017	1013.375
2025.74	1017.375
2028.461	1017.04167
2031.18	1012.04167
2033.898	1015.70833
2036.613	1009.375
2039.327	1015.70833
2042.038	993.04167
2044.748	997.04167
2047.456	1000.70833
2050.162	981.375
2052.866	991.70833
2055.568	990.375
2058.268	986.70833
2060.967	992.04167
2063.663	969.04167
2066.358	978.70833
2069.051	978.04167
2071.742	976.70833
2074.431	985.04167
2077.118	985.04167
2079.804	965.04167
2082.487	976.375
2085.169	988.04167
2087.849	978.70833
2090.527	973.70833
2093.203	990.70833
2095.877	983.375
2098.55	978.375
2101.22	1001.70833
2103.889	996.70833
2106.556	995.70833
2109.221	1020.04167
2111.884	1044.375
2114.546	1088.04167
2117.205	1136.04167
2119.863	1223.70833
2122.519	1292.70833
2125.173	1377.70833
2127.825	1472.04167
2130.475	1504.70833
2133.124	1498.70833
2135.771	1466.70833
2138.416	1415.70833
2141.059	1326.70833
2143.7	1292.70833
2146.339	1211.375
2148.977	1153.70833
2151.613	1121.70833
2154.247	1106.04167
2156.879	1075.04167
2159.51	1069.375
2162.138	1058.375
2164.765	1054.04167
2167.39	1043.04167
2170.013	1081.70833
2172.634	1066.70833
2175.254	1053.70833
2177.872	1080.70833
2180.488	1038.375
2183.102	1036.375
2185.714	1007.70833
2188.325	996.04167
2190.934	986.70833
2193.541	978.04167
2196.146	953.04167
2198.75	949.375
2201.351	925.04167
2203.951	900.04167
2206.549	913.375
2209.146	903.70833
2211.74	870.04167
2214.333	884.70833
2216.924	866.375
2219.514	869.04167
2222.101	884.04167
2224.687	875.70833
2227.271	851.375
2229.853	841.04167
2232.433	840.375
2235.012	845.04167
2237.589	856.04167
2240.164	846.70833
2242.738	842.04167
2245.309	825.375
2247.879	820.04167
2250.448	821.04167
2253.014	803.70833
2255.579	779.04167
2258.142	798.70833
2260.703	775.70833
2263.262	787.375
2265.82	767.70833
2268.376	768.70833
2270.93	761.70833
2273.483	752.70833
2276.033	767.375
2278.583	748.70833
2281.13	737.70833
2283.675	734.04167
2286.219	744.375
2288.761	736.04167
2291.302	741.70833
2293.841	743.375
2296.377	721.04167
2298.913	720.70833
2301.446	730.70833
2303.978	724.70833
2306.508	711.375
2309.037	717.70833
2311.563	714.70833
2314.088	725.04167
2316.612	698.04167
2319.133	710.70833
2321.653	699.375
2324.171	691.70833
2326.688	703.375
2329.202	688.04167
2331.715	696.70833
2334.227	682.70833
2336.736	680.04167
2339.244	680.70833
2341.751	669.375
2344.255	686.70833
2346.758	672.04167
2349.259	660.375
2351.759	658.70833
2354.257	667.375
2356.753	664.375
2359.247	667.04167
2361.74	656.70833
2364.231	661.70833
2366.721	667.04167
2369.209	660.04167
2371.695	654.375
2374.179	640.375
2376.662	647.04167
2379.143	659.04167
2381.622	646.375
2384.1	654.70833
2386.576	639.375
2389.051	650.375
2391.524	660.70833
2393.995	648.70833
2396.464	635.70833
2398.932	629.375
2401.398	627.375
2403.863	625.04167
2406.325	620.04167
2408.787	627.375
2411.246	619.70833
2413.704	627.04167
2416.16	603.375
2418.615	614.04167
2421.068	628.04167
2423.519	616.04167
2425.969	613.375
2428.417	616.375
2430.863	627.70833
2433.308	624.375
2435.751	611.04167
2438.193	608.04167
2440.633	617.04167
2443.071	608.70833
2445.508	587.70833
2447.943	591.70833
2450.376	595.04167
2452.808	601.04167
2455.238	593.375
2457.667	615.70833
2460.093	595.70833
2462.519	581.70833
2464.942	582.375
2467.365	590.375
2469.785	593.375
2472.204	582.04167
2474.621	570.375
2477.037	602.04167
2479.451	558.04167
2481.863	573.375
2484.274	564.375
2486.683	573.70833
2489.091	581.04167
2491.497	569.375
2493.901	570.04167
2496.304	566.04167
2498.705	569.04167
2501.105	567.70833
2503.503	580.70833
2505.899	551.04167
2508.294	569.04167
2510.687	550.70833
2513.079	546.375
2515.469	546.04167
2517.858	538.04167
2520.245	563.70833
2522.63	551.70833
2525.014	546.04167
2527.396	539.375
2529.776	541.375
2532.156	553.70833
2534.533	527.70833
2536.909	533.70833
2539.283	528.375
2541.656	531.375
2544.027	550.375
2546.397	545.70833
2548.765	538.70833
2551.131	529.04167
2553.496	521.375
2555.86	529.375
2558.221	528.375
2560.582	527.04167
2562.94	504.375
2565.298	507.375
2567.653	541.375
2570.007	509.04167
2572.36	524.375
2574.711	507.04167
2577.06	537.04167
2579.408	516.70833
2581.754	517.70833
2584.099	507.375
2586.442	520.375
2588.784	515.70833
2591.124	515.70833
2593.463	503.70833
2595.8	512.70833
2598.135	495.70833
2600.469	501.04167
2602.802	521.04167
2605.133	519.375
2607.462	501.04167
2609.79	490.04167
2612.116	504.70833
2614.441	501.375
2616.764	512.375
2619.086	498.70833
2621.406	495.70833
2623.725	510.04167
2626.042	504.70833
2628.358	503.375
2630.672	503.375
2632.985	508.375
2635.296	499.70833
2637.606	502.70833
2639.914	489.04167
2642.22	494.70833
2644.525	488.375
2646.829	508.375
2649.131	505.70833
2651.432	508.04167
2653.731	495.04167
2656.028	504.375
2658.324	502.04167
2660.619	489.375
2662.912	507.70833
2665.204	490.375
2667.494	505.70833
2669.782	489.375
2672.07	507.375
2674.355	503.375
2676.639	505.04167
2678.922	492.04167
2681.203	506.70833
2683.483	486.70833
2685.761	486.375
2688.038	502.04167
2690.313	513.70833
2692.587	499.70833
2694.859	490.04167
2697.13	498.375
2699.399	493.375
2701.667	517.04167
2703.933	518.70833
2706.198	513.70833
2708.461	535.04167
2710.723	522.04167
2712.984	524.04167
2715.243	511.375
2717.5	528.04167
2719.757	539.70833
2722.011	532.04167
2724.264	543.70833
2726.516	549.70833
2728.766	534.375
2731.015	542.04167
2733.262	533.70833
2735.508	535.04167
2737.753	518.04167
2739.996	512.04167
2742.237	514.04167
2744.477	517.70833
2746.716	513.375
2748.953	510.375
2751.189	512.70833
2753.423	496.70833
2755.656	488.375
2757.887	478.375
2760.117	488.04167
2762.346	484.04167
2764.573	477.375
2766.798	479.04167
2769.022	486.375
2771.245	486.70833
2773.467	481.04167
2775.686	497.375
2777.905	498.70833
2780.122	490.375
2782.337	505.375
2784.552	491.70833
2786.764	507.375
2788.976	512.04167
2791.186	518.375
2793.394	514.375
2795.601	524.70833
2797.807	530.375
2800.011	541.04167
2802.214	554.70833
2804.415	549.04167
2806.615	555.70833
2808.814	559.04167
2811.011	579.375
2813.206	578.70833
2815.401	589.70833
2817.594	599.70833
2819.785	617.04167
2821.975	605.375
2824.164	633.70833
2826.351	649.375
2828.537	672.375
2830.722	704.375
2832.905	704.70833
2835.086	741.375
2837.267	801.70833
2839.445	828.04167
2841.623	861.70833
2843.799	900.04167
2845.974	966.04167
2848.147	1014.04167
2850.319	1043.04167
2852.489	1082.04167
2854.659	1105.04167
2856.826	1124.04167
2858.993	1142.70833
2861.158	1139.375
2863.321	1141.70833
2865.483	1161.04167
2867.644	1161.375
2869.804	1176.04167
2871.962	1140.375
2874.118	1147.375
2876.274	1158.70833
2878.428	1150.70833
2880.58	1141.375
2882.731	1135.70833
2884.881	1134.375
2887.03	1136.04167
2889.177	1138.70833
2891.322	1169.04167
2893.467	1152.375
2895.61	1162.375
2897.751	1186.70833
2899.892	1180.375
2902.03	1191.70833
2904.168	1204.04167
2906.304	1194.70833
2908.439	1246.04167
2910.572	1200.04167
2912.704	1228.70833
2914.835	1222.70833
2916.965	1205.70833
2919.093	1239.375
2921.219	1188.375
2923.345	1228.70833
2925.469	1176.04167
2927.591	1176.70833
2929.712	1124.70833
2931.832	1114.70833
2933.951	1076.70833
2936.068	1049.70833
2938.184	1034.375
2940.299	977.04167
2942.412	954.04167
2944.524	905.375
2946.634	876.04167
2948.744	823.04167
2950.851	826.70833
2952.958	763.04167
2955.063	754.04167
2957.167	726.375
2959.269	686.375
2961.371	712.375
2963.471	655.04167
2965.569	655.70833
2967.666	611.04167
2969.762	598.375
2971.857	586.70833
2973.95	556.375
2976.042	542.375
2978.133	520.70833
2980.222	500.70833
2982.31	482.70833
2984.396	465.04167
2986.482	467.70833
2988.566	456.04167
2990.648	439.70833
2992.73	429.04167
2994.81	416.04167
2996.889	410.04167
2998.966	408.04167
3001.042	406.375
3003.117	401.375
3005.191	400.375
3007.263	389.70833
3009.334	382.70833
3011.403	381.375
3013.472	364.375
3015.539	356.04167
3017.604	369.70833
3019.669	332.70833
3021.732	344.04167
3023.794	341.70833
3025.854	321.70833
3027.914	324.375
3029.971	324.375
3032.028	315.375
3034.083	323.70833
3036.137	315.70833
3038.19	293.375
3040.242	296.04167
3042.292	289.04167
3044.341	276.375
3046.388	300.375
3048.435	273.04167
3050.48	294.70833
3052.524	281.70833
3054.566	259.70833
3056.607	267.04167
3058.647	264.70833
3060.686	245.04167
3062.723	241.70833
3064.759	234.375
3066.794	-2.625
3068.828	-0.625
3070.86	-1.625
