-0.839	423.08333
3.438	456.08333
7.711	126.08333
11.981	57.41667
16.247	48.41667
20.509	45.75
24.768	47.75
29.024	48.08333
33.276	44.75
37.524	52.75
41.769	44.75
46.01	41.41667
50.247	52.75
54.481	65.75
58.712	70.08333
62.939	50.75
67.162	63.41667
71.382	62.41667
75.599	45.75
79.812	67.41667
84.021	82.75
88.227	58.75
92.429	63.41667
96.628	53.41667
100.823	68.75
105.015	78.41667
109.204	78.41667
113.388	80.75
117.57	78.75
121.748	92.41667
125.922	84.08333
130.093	102.41667
134.261	118.41667
138.425	104.08333
142.585	156.08333
146.742	150.75
150.896	176.75
155.046	228.75
159.193	361.08333
163.336	630.41667
167.476	1162.41667
171.613	2138.41667
175.746	3571.41667
179.875	5259.75
184.002	6810.41667
188.124	7878.08333
192.244	8206.41667
196.36	8102.75
200.472	7889.75
204.581	7706.08333
208.687	7545.41667
212.79	7494.08333
216.889	7562.75
220.984	7639.41667
225.077	7740.75
229.165	7831.08333
233.251	7979.08333
237.333	8063.08333
241.412	8089.08333
245.487	8088.75
249.559	8021.41667
253.628	7926.75
257.694	7799.75
261.756	7770.41667
265.814	7551.08333
269.87	7283.41667
273.922	7063.41667
277.97	6825.41667
282.016	6542.75
286.058	6388.75
290.097	6275.75
294.132	6179.08333
298.164	6076.08333
302.193	5836.75
306.219	5454.08333
310.241	4920.75
314.26	4487.08333
318.276	4096.41667
322.288	3826.75
326.297	3654.08333
330.303	3530.08333
334.305	3423.41667
338.305	3346.75
342.301	3297.75
346.294	3257.75
350.283	3246.41667
354.269	3217.41667
358.252	3206.75
362.232	3152.75
366.209	3143.41667
370.182	3125.08333
374.152	3122.08333
378.119	3112.08333
382.083	3088.41667
386.043	3128.08333
390	3076.75
393.954	3054.41667
397.905	3060.75
401.852	3006.75
405.797	2956.75
409.738	2949.41667
413.676	2913.75
417.61	2879.41667
421.542	2849.08333
425.47	2805.08333
429.396	2775.75
433.318	2731.41667
437.236	2746.41667
441.152	2770.08333
445.065	2695.08333
448.974	2695.75
452.88	2661.75
456.783	2654.41667
460.683	2644.75
464.58	2647.41667
468.473	2637.75
472.364	2639.41667
476.251	2668.75
480.135	2682.41667
484.016	2694.75
487.894	2694.08333
491.769	2732.41667
495.641	2716.08333
499.509	2722.41667
503.375	2719.08333
507.237	2724.08333
511.096	2699.75
514.952	2714.75
518.805	2729.75
522.655	2756.41667
526.502	2685.75
530.346	2661.75
534.187	2668.41667
538.024	2677.08333
541.859	2675.08333
545.69	2690.41667
549.519	2650.41667
553.344	2661.08333
557.166	2622.08333
560.985	2583.08333
564.802	2571.08333
568.615	2532.41667
572.425	2504.08333
576.232	2478.75
580.036	2474.41667
583.836	2487.41667
587.634	2472.75
591.429	2481.08333
595.221	2532.75
599.01	2528.08333
602.796	2559.75
606.578	2600.08333
610.358	2605.75
614.135	2597.08333
617.909	2593.41667
621.679	2561.41667
625.447	2548.41667
629.212	2562.75
632.973	2565.08333
636.732	2569.75
640.488	2564.41667
644.241	2518.75
647.991	2536.41667
651.737	2559.41667
655.481	2559.41667
659.222	2569.08333
662.96	2566.75
666.695	2585.08333
670.427	2590.75
674.156	2586.08333
677.882	2586.41667
681.605	2563.08333
685.325	2532.08333
689.043	2561.75
692.757	2539.75
696.468	2543.08333
700.177	2567.08333
703.882	2529.08333
707.585	2530.41667
711.284	2532.75
714.981	2541.08333
718.675	2560.41667
722.366	2567.08333
726.054	2548.08333
729.739	2547.75
733.421	2550.75
737.1	2516.41667
740.777	2549.41667
744.45	2575.41667
748.121	2583.75
751.789	2658.08333
755.453	2642.08333
759.115	2654.75
762.774	2677.75
766.431	2688.75
770.084	2721.08333
773.734	2738.75
777.382	2775.41667
781.027	2791.75
784.669	2821.08333
788.308	2832.08333
791.944	2859.08333
795.577	2860.41667
799.208	2906.08333
802.835	2912.41667
806.46	2951.41667
810.082	3005.08333
813.701	3039.08333
817.317	3065.41667
820.931	3018.75
824.542	3011.08333
828.149	2992.41667
831.754	2950.08333
835.357	2922.08333
838.956	2939.75
842.553	2899.08333
846.146	2910.41667
849.737	2893.41667
853.326	2879.08333
856.911	2919.08333
860.493	2942.75
864.073	2950.75
867.65	3002.75
871.225	3053.41667
874.796	3018.41667
878.365	3024.75
881.931	3050.75
885.494	3077.08333
889.054	3056.75
892.612	3067.75
896.166	3032.41667
899.719	2987.75
903.268	2970.75
906.814	2988.75
910.358	2965.75
913.899	2972.08333
917.438	2973.41667
920.973	2954.41667
924.506	3016.75
928.036	3047.08333
931.564	3076.75
935.088	3103.75
938.61	3101.75
942.129	3119.08333
945.646	3198.41667
949.16	3260.41667
952.671	3335.75
956.179	3395.41667
959.685	3376.41667
963.188	3366.08333
966.688	3314.08333
970.185	3255.75
973.68	3178.08333
977.173	3181.41667
980.662	3130.75
984.149	3182.08333
987.633	3204.75
991.114	3233.41667
994.593	3322.08333
998.069	3418.75
1001.542	3541.75
1005.013	3480.75
1008.481	3231.08333
1011.947	3205.08333
1015.409	3193.08333
1018.869	3175.08333
1022.327	3184.75
1025.782	3149.75
1029.234	3173.41667
1032.683	3145.75
1036.13	3011.75
1039.574	2883.41667
1043.016	2841.08333
1046.455	2784.41667
1049.891	2736.08333
1053.325	2739.75
1056.756	2770.75
1060.184	2761.08333
1063.61	2770.75
1067.033	2776.41667
1070.454	2769.41667
1073.872	2836.75
1077.287	2834.08333
1080.7	2837.41667
1084.11	2824.41667
1087.517	2784.41667
1090.922	2749.75
1094.325	2737.41667
1097.724	2686.75
1101.122	2693.41667
1104.516	2674.41667
1107.908	2692.75
1111.298	2732.41667
1114.684	2784.08333
1118.069	2778.75
1121.45	2807.41667
1124.83	2810.08333
1128.206	2800.41667
1131.58	2855.08333
1134.951	2924.08333
1138.32	2998.75
1141.687	3119.75
1145.05	3214.41667
1148.412	3238.75
1151.77	3208.75
1155.126	3211.75
1158.48	3207.41667
1161.831	3223.08333
1165.18	3264.08333
1168.525	3290.41667
1171.869	3372.08333
1175.21	3372.08333
1178.548	3443.41667
1181.884	3464.08333
1185.217	3475.75
1188.548	3545.75
1191.877	3624.08333
1195.202	3680.41667
1198.526	3700.41667
1201.846	3748.75
1205.165	3708.08333
1208.48	3700.08333
1211.794	3677.41667
1215.104	3667.41667
1218.413	3683.08333
1221.719	3689.08333
1225.022	3619.75
1228.323	3585.75
1231.621	3605.75
1234.917	3576.75
1238.21	3614.41667
1241.501	3592.75
1244.79	3582.41667
1248.076	3607.41667
1251.359	3645.75
1254.64	3688.41667
1257.919	3725.41667
1261.195	3770.08333
1264.468	3845.41667
1267.74	3924.41667
1271.008	3929.41667
1274.275	3901.08333
1277.538	3867.08333
1280.8	3845.08333
1284.059	3862.75
1287.315	3862.41667
1290.569	3908.08333
1293.821	3904.08333
1297.07	3946.08333
1300.317	3946.75
1303.562	3947.08333
1306.803	3909.08333
1310.043	3878.08333
1313.28	3840.08333
1316.515	3826.41667
1319.747	3786.75
1322.977	3726.08333
1326.204	3680.41667
1329.429	3658.41667
1332.652	3609.75
1335.872	3638.41667
1339.09	3621.41667
1342.306	3596.75
1345.519	3603.41667
1348.729	3557.75
1351.938	3551.75
1355.144	3512.75
1358.347	3457.08333
1361.548	3463.41667
1364.747	3486.41667
1367.944	3470.08333
1371.138	3481.75
1374.329	3485.41667
1377.518	3530.75
1380.705	3554.41667
1383.89	3539.41667
1387.072	3442.08333
1390.252	3295.41667
1393.429	3188.41667
1396.605	3071.08333
1399.777	2992.75
1402.948	2972.41667
1406.116	2943.08333
1409.282	2946.41667
1412.445	2955.08333
1415.606	3010.08333
1418.765	3002.41667
1421.921	3090.75
1425.075	3145.08333
1428.227	3250.41667
1431.376	3393.41667
1434.524	3530.08333
1437.668	3627.41667
1440.811	3662.75
1443.951	3684.41667
1447.089	3675.75
1450.224	3700.75
1453.357	3641.75
1456.488	3631.08333
1459.617	3590.08333
1462.743	3545.75
1465.867	3430.75
1468.989	3401.75
1472.108	3370.08333
1475.225	3300.41667
1478.34	3282.08333
1481.453	3246.41667
1484.563	3250.41667
1487.671	3277.41667
1490.776	3331.08333
1493.88	3390.08333
1496.981	3465.08333
1500.08	3536.41667
1503.176	3590.75
1506.271	3652.41667
1509.363	3721.75
1512.452	3801.08333
1515.54	3849.08333
1518.625	3954.41667
1521.708	4108.75
1524.789	4373.75
1527.867	4621.41667
1530.944	4949.08333
1534.018	5132.75
1537.089	5262.75
1540.159	5203.75
1543.226	5042.08333
1546.291	4829.08333
1549.354	4666.75
1552.415	4533.75
1555.473	4395.41667
1558.529	4310.41667
1561.583	4236.75
1564.634	4206.41667
1567.684	4219.41667
1570.731	4236.41667
1573.776	4275.75
1576.819	4314.41667
1579.859	4359.75
1582.898	4415.41667
1585.934	4448.75
1588.968	4479.41667
1591.999	4426.41667
1595.029	4453.08333
1598.056	4447.75
1601.081	4493.41667
1604.104	4458.41667
1607.125	4415.41667
1610.144	4346.08333
1613.16	4247.41667
1616.174	4164.75
1619.186	4075.08333
1622.196	3994.08333
1625.203	3910.41667
1628.209	3894.75
1631.212	3882.75
1634.213	3886.41667
1637.212	3859.41667
1640.209	3842.75
1643.203	3710.08333
1646.196	3619.08333
1649.186	3470.75
1652.174	3356.08333
1655.16	3278.75
1658.144	3176.41667
1661.125	3019.75
1664.105	2866.41667
1667.082	2745.08333
1670.057	2583.75
1673.03	2412.41667
1676.001	2268.41667
1678.97	2105.75
1681.937	1973.75
1684.901	1865.41667
1687.863	1813.41667
1690.824	1743.08333
1693.782	1703.75
1696.738	1636.41667
1699.692	1602.41667
1702.643	1577.08333
1705.593	1531.75
1708.54	1537.75
1711.486	1526.08333
1714.429	1477.41667
1717.37	1462.41667
1720.309	1456.41667
1723.246	1452.41667
1726.181	1416.41667
1729.113	1414.75
1732.044	1398.08333
1734.972	1386.41667
1737.899	1391.75
1740.823	1374.75
1743.745	1386.08333
1746.665	1317.75
1749.583	1302.08333
1752.499	1287.75
1755.413	1265.08333
1758.325	1238.08333
1761.235	1248.75
1764.142	1218.08333
1767.048	1209.41667
1769.951	1209.08333
1772.852	1189.75
1775.752	1197.41667
1778.649	1199.41667
1781.544	1204.41667
1784.437	1160.75
1787.328	1162.75
1790.217	1146.08333
1793.104	1127.08333
1795.989	1119.08333
1798.872	1116.08333
1801.753	1138.75
1804.631	1137.75
1807.508	1154.75
1810.383	1117.08333
1813.255	1104.08333
1816.126	1103.08333
1818.994	1112.41667
1821.861	1093.75
1824.725	1090.08333
1827.587	1091.41667
1830.448	1079.08333
1833.306	1051.41667
1836.162	1074.75
1839.017	1058.08333
1841.869	1065.75
1844.719	1069.75
1847.567	1048.41667
1850.414	1034.41667
1853.258	1045.41667
1856.1	1060.75
1858.94	1061.75
1861.778	1050.41667
1864.614	1037.75
1867.448	1042.41667
1870.28	1039.75
1873.111	1053.75
1875.939	1039.75
1878.765	1056.75
1881.589	1030.75
1884.411	1042.08333
1887.231	1044.08333
1890.049	1028.75
1892.865	1032.41667
1895.68	1012.41667
1898.492	1026.08333
1901.302	1007.75
1904.11	989.75
1906.916	993.08333
1909.721	988.08333
1912.523	999.08333
1915.323	979.41667
1918.122	978.75
1920.918	996.08333
1923.712	974.08333
1926.505	988.08333
1929.295	964.08333
1932.084	962.41667
1934.87	973.08333
1937.655	976.08333
1940.438	955.41667
1943.218	962.75
1945.997	963.41667
1948.774	983.08333
1951.549	975.08333
1954.322	964.75
1957.093	969.75
1959.862	948.08333
1962.629	946.08333
1965.394	941.08333
1968.157	924.75
1970.918	934.08333
1973.678	929.08333
1976.435	938.08333
1979.19	930.75
1981.944	931.75
1984.696	927.41667
1987.445	901.08333
1990.193	922.75
1992.939	926.08333
1995.683	913.08333
1998.425	903.08333
2001.165	923.75
2003.903	893.75
2006.639	897.75
2009.374	901.75
2012.106	903.41667
2014.837	878.75
2017.566	898.08333
2020.292	902.75
2023.017	900.41667
2025.74	887.75
2028.461	883.41667
2031.18	881.08333
2033.898	869.75
2036.613	889.08333
2039.327	892.08333
2042.038	861.41667
2044.748	865.41667
2047.456	882.41667
2050.162	846.75
2052.866	865.41667
2055.568	875.75
2058.268	861.08333
2060.967	872.75
2063.663	846.41667
2066.358	857.41667
2069.051	847.08333
2071.742	856.08333
2074.431	870.75
2077.118	848.75
2079.804	841.08333
2082.487	862.41667
2085.169	860.08333
2087.849	875.75
2090.527	855.08333
2093.203	865.75
2095.877	860.08333
2098.55	860.08333
2101.22	869.41667
2103.889	886.75
2106.556	879.08333
2109.221	904.75
2111.884	905.41667
2114.546	948.41667
2117.205	995.08333
2119.863	1071.08333
2122.519	1114.75
2125.173	1189.75
2127.825	1287.41667
2130.475	1319.75
2133.124	1299.08333
2135.771	1268.08333
2138.416	1239.41667
2141.059	1171.75
2143.7	1138.41667
2146.339	1050.08333
2148.977	1014.75
2151.613	996.75
2154.247	990.41667
2156.879	950.41667
2159.51	940.75
2162.138	941.08333
2164.765	936.08333
2167.39	947.75
2170.013	953.08333
2172.634	950.75
2175.254	938.75
2177.872	977.41667
2180.488	930.41667
2183.102	926.75
2185.714	921.41667
2188.325	878.41667
2190.934	898.08333
2193.541	882.75
2196.146	857.41667
2198.75	838.41667
2201.351	825.75
2203.951	789.08333
2206.549	808.75
2209.146	790.08333
2211.74	783.75
2214.333	791.08333
2216.924	767.75
2219.514	764.75
2222.101	750.41667
2224.687	773.41667
2227.271	750.75
2229.853	745.75
2232.433	734.08333
2235.012	767.41667
2237.589	750.41667
2240.164	760.08333
2242.738	739.75
2245.309	736.75
2247.879	743.08333
2250.448	731.08333
2253.014	710.08333
2255.579	692.41667
2258.142	705.08333
2260.703	673.08333
2263.262	685.75
2265.82	699.41667
2268.376	696.41667
2270.93	675.08333
2273.483	669.08333
2276.033	676.41667
2278.583	664.75
2281.13	668.75
2283.675	659.75
2286.219	658.41667
2288.761	660.75
2291.302	667.75
2293.841	670.75
2296.377	641.41667
2298.913	630.75
2301.446	664.08333
2303.978	637.41667
2306.508	641.08333
2309.037	643.08333
2311.563	639.75
2314.088	643.75
2316.612	614.41667
2319.133	643.41667
2321.653	627.08333
2324.171	617.41667
2326.688	630.08333
2329.202	617.75
2331.715	626.08333
2334.227	608.75
2336.736	616.75
2339.244	613.41667
2341.751	600.41667
2344.255	621.41667
2346.758	611.08333
2349.259	595.41667
2351.759	598.08333
2354.257	597.75
2356.753	589.41667
2359.247	601.75
2361.74	606.75
2364.231	598.08333
2366.721	608.41667
2369.209	592.41667
2371.695	583.75
2374.179	588.41667
2376.662	584.41667
2379.143	607.41667
2381.622	591.75
2384.1	582.75
2386.576	578.08333
2389.051	593.41667
2391.524	602.08333
2393.995	587.75
2396.464	577.75
2398.932	580.75
2401.398	585.41667
2403.863	569.75
2406.325	564.08333
2408.787	570.75
2411.246	571.41667
2413.704	571.08333
2416.16	559.41667
2418.615	570.41667
2421.068	577.41667
2423.519	563.75
2425.969	567.08333
2428.417	569.41667
2430.863	582.08333
2433.308	572.08333
2435.751	568.75
2438.193	558.75
2440.633	563.75
2443.071	556.08333
2445.508	544.41667
2447.943	546.75
2450.376	549.41667
2452.808	549.41667
2455.238	538.08333
2457.667	569.75
2460.093	543.08333
2462.519	538.08333
2464.942	539.08333
2467.365	551.75
2469.785	541.75
2472.204	535.08333
2474.621	531.08333
2477.037	552.08333
2479.451	518.08333
2481.863	528.41667
2484.274	528.41667
2486.683	535.41667
2489.091	536.08333
2491.497	528.08333
2493.901	531.41667
2496.304	523.41667
2498.705	535.08333
2501.105	517.41667
2503.503	547.08333
2505.899	524.08333
2508.294	541.08333
2510.687	516.41667
2513.079	518.41667
2515.469	517.41667
2517.858	516.75
2520.245	532.41667
2522.63	509.41667
2525.014	507.08333
2527.396	511.75
2529.776	498.75
2532.156	514.41667
2534.533	498.41667
2536.909	506.41667
2539.283	501.75
2541.656	496.75
2544.027	525.08333
2546.397	511.41667
2548.765	504.08333
2551.131	515.08333
2553.496	498.75
2555.86	514.08333
2558.221	504.75
2560.582	507.75
2562.94	490.75
2565.298	499.08333
2567.653	516.41667
2570.007	488.75
2572.36	506.08333
2574.711	501.41667
2577.06	511.41667
2579.408	495.41667
2581.754	499.75
2584.099	492.75
2586.442	484.75
2588.784	497.75
2591.124	498.75
2593.463	491.75
2595.8	497.41667
2598.135	483.08333
2600.469	489.41667
2602.802	502.41667
2605.133	505.75
2607.462	476.08333
2609.79	479.08333
2612.116	494.41667
2614.441	487.41667
2616.764	498.08333
2619.086	487.75
2621.406	480.08333
2623.725	492.75
2626.042	489.75
2628.358	482.08333
2630.672	487.41667
2632.985	492.08333
2635.296	494.75
2637.606	498.08333
2639.914	484.08333
2642.22	492.08333
2644.525	472.08333
2646.829	490.08333
2649.131	507.41667
2651.432	500.75
2653.731	491.41667
2656.028	503.75
2658.324	495.08333
2660.619	486.41667
2662.912	510.08333
2665.204	487.41667
2667.494	501.08333
2669.782	489.08333
2672.07	502.41667
2674.355	506.41667
2676.639	493.41667
2678.922	495.08333
2681.203	505.75
2683.483	481.75
2685.761	482.75
2688.038	503.41667
2690.313	517.08333
2692.587	496.75
2694.859	490.75
2697.13	498.41667
2699.399	499.08333
2701.667	511.08333
2703.933	514.08333
2706.198	516.08333
2708.461	519.08333
2710.723	521.75
2712.984	516.41667
2715.243	531.75
2717.5	517.08333
2719.757	535.41667
2722.011	526.08333
2724.264	531.41667
2726.516	549.08333
2728.766	531.08333
2731.015	538.75
2733.262	541.75
2735.508	529.75
2737.753	529.08333
2739.996	513.41667
2742.237	506.08333
2744.477	526.41667
2746.716	523.41667
2748.953	511.08333
2751.189	518.75
2753.423	506.41667
2755.656	492.41667
2757.887	500.75
2760.117	503.08333
2762.346	494.08333
2764.573	493.75
2766.798	491.75
2769.022	498.75
2771.245	496.41667
2773.467	496.75
2775.686	502.41667
2777.905	500.41667
2780.122	502.75
2782.337	509.41667
2784.552	504.75
2786.764	514.08333
2788.976	513.75
2791.186	526.75
2793.394	526.41667
2795.601	536.75
2797.807	536.08333
2800.011	540.75
2802.214	556.41667
2804.415	552.41667
2806.615	559.08333
2808.814	571.41667
2811.011	579.08333
2813.206	566.41667
2815.401	592.75
2817.594	589.75
2819.785	608.75
2821.975	604.08333
2824.164	616.75
2826.351	640.08333
2828.537	661.08333
2830.722	668.41667
2832.905	679.41667
2835.086	707.41667
2837.267	732.08333
2839.445	763.41667
2841.623	786.41667
2843.799	824.75
2845.974	874.08333
2848.147	908.75
2850.319	928.41667
2852.489	958.41667
2854.659	990.08333
2856.826	1011.08333
2858.993	1016.75
2861.158	1014.41667
2863.321	1009.08333
2865.483	1029.41667
2867.644	1031.41667
2869.804	1036.41667
2871.962	1003.41667
2874.118	1038.08333
2876.274	1029.08333
2878.428	1038.41667
2880.58	1032.75
2882.731	1019.75
2884.881	1022.08333
2887.03	1011.08333
2889.177	1008.08333
2891.322	1038.08333
2893.467	1021.41667
2895.61	1035.08333
2897.751	1060.75
2899.892	1050.41667
2902.03	1067.08333
2904.168	1077.41667
2906.304	1071.41667
2908.439	1085.75
2910.572	1071.41667
2912.704	1093.75
2914.835	1102.41667
2916.965	1090.41667
2919.093	1090.08333
2921.219	1059.08333
2923.345	1078.41667
2925.469	1056.41667
2927.591	1035.41667
2929.712	1006.41667
2931.832	1000.75
2933.951	987.08333
2936.068	952.08333
2938.184	920.41667
2940.299	893.41667
2942.412	878.41667
2944.524	828.08333
2946.634	819.41667
2948.744	769.08333
2950.851	791.08333
2952.958	735.75
2955.063	720.08333
2957.167	703.08333
2959.269	687.41667
2961.371	684.08333
2963.471	649.41667
2965.569	654.08333
2967.666	610.75
2969.762	604.41667
2971.857	583.41667
2973.95	565.41667
2976.042	555.41667
2978.133	549.41667
2980.222	537.41667
2982.31	512.08333
2984.396	496.75
2986.482	499.75
2988.566	486.08333
2990.648	476.41667
2992.73	484.75
2994.81	461.75
2996.889	472.41667
2998.966	464.75
3001.042	479.41667
3003.117	454.08333
3005.191	457.08333
3007.263	451.08333
3009.334	435.08333
3011.403	429.75
3013.472	415.75
3015.539	418.75
3017.604	437.08333
3019.669	387.41667
3021.732	394.75
3023.794	397.75
3025.854	390.08333
3027.914	386.41667
3029.971	383.75
3032.028	377.41667
3034.083	393.08333
3036.137	377.75
3038.19	361.41667
3040.242	357.08333
3042.292	355.75
3044.341	352.08333
3046.388	361.08333
3048.435	330.08333
3050.48	351.08333
3052.524	349.75
3054.566	317.41667
3056.607	335.41667
3058.647	332.75
3060.686	309.08333
3062.723	299.08333
3064.759	296.75
3066.794	0.08333
3068.828	0.75
3070.86	-2.91667
