-0.839	406.41667
3.438	434.75
7.711	118.41667
11.981	54.75
16.247	49.08333
20.509	45.75
24.768	47.08333
29.024	49.08333
33.276	45.75
37.524	55.08333
41.769	42.08333
46.01	34.41667
50.247	54.75
54.481	63.75
58.712	69.08333
62.939	50.41667
67.162	62.41667
71.382	60.41667
75.599	50.75
79.812	68.75
84.021	81.75
88.227	63.41667
92.429	66.08333
96.628	52.41667
100.823	71.75
105.015	80.75
109.204	81.08333
113.388	83.41667
117.57	81.75
121.748	101.08333
125.922	88.41667
130.093	111.41667
134.261	119.75
138.425	112.75
142.585	157.08333
146.742	159.08333
150.896	185.75
155.046	235.41667
159.193	376.75
163.336	642.41667
167.476	1200.08333
171.613	2199.08333
175.746	3695.75
179.875	5472.75
184.002	7105.41667
188.124	8224.75
192.244	8622.41667
196.36	8528.75
200.472	8342.75
204.581	8188.08333
208.687	8013.41667
212.79	8060.41667
216.889	8105.41667
220.984	8238.41667
225.077	8414.41667
229.165	8568.41667
233.251	8707.08333
237.333	8801.08333
241.412	8890.41667
245.487	8823.75
249.559	8756.41667
253.628	8667.75
257.694	8540.41667
261.756	8431.08333
265.814	8243.08333
269.87	7930.41667
273.922	7640.41667
277.97	7396.75
282.016	7185.75
286.058	7012.08333
290.097	6937.08333
294.132	6870.41667
298.164	6707.08333
302.193	6381.08333
306.219	5933.41667
310.241	5348.75
314.26	4877.08333
318.276	4501.41667
322.288	4250.08333
326.297	4004.75
330.303	3822.08333
334.305	3705.41667
338.305	3628.75
342.301	3593.41667
346.294	3533.75
350.283	3515.08333
354.269	3480.41667
358.252	3486.75
362.232	3429.08333
366.209	3389.08333
370.182	3394.75
374.152	3342.41667
378.119	3367.41667
382.083	3343.41667
386.043	3349.08333
390	3323.41667
393.954	3281.41667
397.905	3280.08333
401.852	3232.08333
405.797	3193.08333
409.738	3146.08333
413.676	3124.41667
417.61	3116.08333
421.542	3063.08333
425.47	3016.75
429.396	2996.41667
433.318	2980.75
437.236	2950.08333
441.152	2956.08333
445.065	2918.75
448.974	2888.41667
452.88	2884.08333
456.783	2861.08333
460.683	2840.75
464.58	2847.75
468.473	2869.08333
472.364	2866.41667
476.251	2868.08333
480.135	2885.08333
484.016	2904.41667
487.894	2927.41667
491.769	2923.08333
495.641	2940.08333
499.509	2941.41667
503.375	2914.75
507.237	2902.75
511.096	2913.08333
514.952	2928.41667
518.805	2910.08333
522.655	2924.41667
526.502	2901.75
530.346	2899.08333
534.187	2907.08333
538.024	2892.75
541.859	2895.75
545.69	2917.41667
549.519	2877.08333
553.344	2895.08333
557.166	2841.41667
560.985	2832.41667
564.802	2782.75
568.615	2741.08333
572.425	2706.75
576.232	2691.08333
580.036	2676.08333
583.836	2697.08333
587.634	2680.08333
591.429	2680.75
595.221	2737.75
599.01	2749.41667
602.796	2780.41667
606.578	2807.41667
610.358	2808.75
614.135	2797.08333
617.909	2788.08333
621.679	2793.08333
625.447	2774.41667
629.212	2770.41667
632.973	2792.08333
636.732	2751.41667
640.488	2781.08333
644.241	2747.08333
647.991	2739.75
651.737	2748.08333
655.481	2736.08333
659.222	2737.41667
662.96	2737.08333
666.695	2740.08333
670.427	2757.75
674.156	2780.75
677.882	2754.75
681.605	2763.75
685.325	2732.41667
689.043	2741.75
692.757	2719.08333
696.468	2727.08333
700.177	2753.41667
703.882	2719.08333
707.585	2725.75
711.284	2731.08333
714.981	2746.08333
718.675	2710.41667
722.366	2768.08333
726.054	2722.08333
729.739	2744.41667
733.421	2751.75
737.1	2741.75
740.777	2801.08333
744.45	2773.08333
748.121	2798.08333
751.789	2856.08333
755.453	2866.41667
759.115	2875.41667
762.774	2911.75
766.431	2945.75
770.084	2977.41667
773.734	3013.75
777.382	3063.75
781.027	3082.75
784.669	3134.75
788.308	3122.41667
791.944	3153.41667
795.577	3175.08333
799.208	3203.08333
802.835	3235.41667
806.46	3272.08333
810.082	3309.75
813.701	3296.75
817.317	3345.41667
820.931	3346.75
824.542	3352.08333
828.149	3317.41667
831.754	3306.75
835.357	3255.41667
838.956	3281.08333
842.553	3249.41667
846.146	3250.41667
849.737	3248.41667
853.326	3256.08333
856.911	3257.08333
860.493	3339.41667
864.073	3363.41667
867.65	3390.41667
871.225	3462.08333
874.796	3455.75
878.365	3481.41667
881.931	3476.41667
885.494	3520.08333
889.054	3521.75
892.612	3527.08333
896.166	3469.75
899.719	3461.08333
903.268	3428.41667
906.814	3417.08333
910.358	3399.75
913.899	3371.08333
917.438	3371.41667
920.973	3373.41667
924.506	3395.41667
928.036	3452.41667
931.564	3465.08333
935.088	3500.08333
938.61	3504.75
942.129	3544.75
945.646	3618.75
949.16	3713.75
952.671	3787.08333
956.179	3840.41667
959.685	3813.41667
963.188	3777.08333
966.688	3729.75
970.185	3625.08333
973.68	3561.75
977.173	3522.75
980.662	3549.08333
984.149	3554.41667
987.633	3570.41667
991.114	3640.08333
994.593	3759.08333
998.069	3843.75
1001.542	3956.41667
1005.013	3861.41667
1008.481	3666.75
1011.947	3610.75
1015.409	3581.08333
1018.869	3610.75
1022.327	3576.75
1025.782	3564.41667
1029.234	3539.41667
1032.683	3523.08333
1036.13	3369.41667
1039.574	3241.08333
1043.016	3181.41667
1046.455	3117.08333
1049.891	3063.75
1053.325	3056.08333
1056.756	3050.75
1060.184	3097.75
1063.61	3113.41667
1067.033	3138.41667
1070.454	3121.75
1073.872	3150.41667
1077.287	3165.75
1080.7	3154.08333
1084.11	3135.41667
1087.517	3142.75
1090.922	3073.41667
1094.325	3046.08333
1097.724	3040.41667
1101.122	3013.41667
1104.516	3013.75
1107.908	3039.08333
1111.298	3096.41667
1114.684	3136.08333
1118.069	3160.08333
1121.45	3199.08333
1124.83	3193.41667
1128.206	3237.41667
1131.58	3288.75
1134.951	3378.08333
1138.32	3472.41667
1141.687	3646.08333
1145.05	3759.75
1148.412	3789.08333
1151.77	3798.41667
1155.126	3802.75
1158.48	3813.08333
1161.831	3844.41667
1165.18	3900.08333
1168.525	3948.08333
1171.869	3983.75
1175.21	4038.75
1178.548	4103.75
1181.884	4124.41667
1185.217	4156.08333
1188.548	4207.41667
1191.877	4257.41667
1195.202	4328.08333
1198.526	4367.08333
1201.846	4374.08333
1205.165	4352.75
1208.48	4319.41667
1211.794	4279.08333
1215.104	4279.75
1218.413	4277.08333
1221.719	4251.75
1225.022	4207.75
1228.323	4179.08333
1231.621	4165.41667
1234.917	4157.75
1238.21	4217.75
1241.501	4195.75
1244.79	4202.41667
1248.076	4200.75
1251.359	4241.75
1254.64	4319.08333
1257.919	4356.75
1261.195	4437.41667
1264.468	4485.08333
1267.74	4559.75
1271.008	4585.08333
1274.275	4557.08333
1277.538	4522.08333
1280.8	4464.08333
1284.059	4479.08333
1287.315	4506.08333
1290.569	4550.75
1293.821	4551.08333
1297.07	4592.75
1300.317	4607.41667
1303.562	4591.08333
1306.803	4562.08333
1310.043	4505.75
1313.28	4446.41667
1316.515	4381.75
1319.747	4364.41667
1322.977	4278.08333
1326.204	4221.75
1329.429	4155.75
1332.652	4127.41667
1335.872	4135.08333
1339.09	4109.08333
1342.306	4111.08333
1345.519	4101.08333
1348.729	4050.08333
1351.938	4020.08333
1355.144	3994.08333
1358.347	3918.41667
1361.548	3938.75
1364.747	3944.08333
1367.944	3905.75
1371.138	3951.75
1374.329	3967.41667
1377.518	4016.75
1380.705	4007.08333
1383.89	4009.41667
1387.072	3901.41667
1390.252	3742.08333
1393.429	3653.41667
1396.605	3516.75
1399.777	3418.75
1402.948	3388.75
1406.116	3340.41667
1409.282	3361.75
1412.445	3380.08333
1415.606	3392.75
1418.765	3463.75
1421.921	3535.41667
1425.075	3605.41667
1428.227	3715.41667
1431.376	3891.08333
1434.524	4018.41667
1437.668	4128.08333
1440.811	4172.75
1443.951	4176.41667
1447.089	4193.08333
1450.224	4232.75
1453.357	4194.75
1456.488	4159.75
1459.617	4110.41667
1462.743	4072.75
1465.867	3989.41667
1468.989	3935.75
1472.108	3881.75
1475.225	3846.41667
1478.34	3807.75
1481.453	3799.41667
1484.563	3840.75
1487.671	3879.41667
1490.776	3964.08333
1493.88	4055.41667
1496.981	4139.41667
1500.08	4226.08333
1503.176	4311.08333
1506.271	4385.41667
1509.363	4445.41667
1512.452	4516.41667
1515.54	4617.08333
1518.625	4753.41667
1521.708	4939.41667
1524.789	5202.41667
1527.867	5530.75
1530.944	5869.75
1534.018	6150.08333
1537.089	6295.75
1540.159	6229.41667
1543.226	6074.75
1546.291	5878.75
1549.354	5664.08333
1552.415	5473.08333
1555.473	5361.08333
1558.529	5229.08333
1561.583	5191.08333
1564.634	5157.41667
1567.684	5174.75
1570.731	5161.75
1573.776	5175.08333
1576.819	5278.41667
1579.859	5326.08333
1582.898	5403.41667
1585.934	5418.41667
1588.968	5441.08333
1591.999	5441.75
1595.029	5415.08333
1598.056	5429.75
1601.081	5446.41667
1604.104	5404.75
1607.125	5330.08333
1610.144	5204.75
1613.16	5078.75
1616.174	4965.75
1619.186	4830.08333
1622.196	4728.41667
1625.203	4621.41667
1628.209	4496.41667
1631.212	4455.08333
1634.213	4398.08333
1637.212	4344.08333
1640.209	4266.41667
1643.203	4133.41667
1646.196	3996.75
1649.186	3844.75
1652.174	3707.75
1655.16	3581.75
1658.144	3459.41667
1661.125	3279.75
1664.105	3131.75
1667.082	2987.08333
1670.057	2822.08333
1673.03	2652.08333
1676.001	2492.75
1678.97	2340.08333
1681.937	2202.41667
1684.901	2083.08333
1687.863	2021.75
1690.824	1933.75
1693.782	1914.08333
1696.738	1825.08333
1699.692	1802.75
1702.643	1746.75
1705.593	1728.75
1708.54	1704.08333
1711.486	1685.75
1714.429	1661.75
1717.37	1643.41667
1720.309	1602.75
1723.246	1619.08333
1726.181	1564.41667
1729.113	1586.75
1732.044	1550.41667
1734.972	1535.75
1737.899	1521.41667
1740.823	1523.41667
1743.745	1521.75
1746.665	1472.75
1749.583	1445.75
1752.499	1438.75
1755.413	1404.75
1758.325	1362.41667
1761.235	1370.75
1764.142	1335.41667
1767.048	1334.41667
1769.951	1311.75
1772.852	1299.75
1775.752	1306.75
1778.649	1284.41667
1781.544	1285.41667
1784.437	1269.41667
1787.328	1280.08333
1790.217	1273.08333
1793.104	1250.41667
1795.989	1222.41667
1798.872	1240.41667
1801.753	1253.08333
1804.631	1262.75
1807.508	1248.41667
1810.383	1235.08333
1813.255	1226.08333
1816.126	1229.41667
1818.994	1224.41667
1821.861	1217.08333
1824.725	1204.75
1827.587	1202.75
1830.448	1190.75
1833.306	1172.41667
1836.162	1195.75
1839.017	1157.41667
1841.869	1168.41667
1844.719	1169.08333
1847.567	1143.41667
1850.414	1140.75
1853.258	1149.08333
1856.1	1156.08333
1858.94	1149.08333
1861.778	1143.41667
1864.614	1133.41667
1867.448	1138.41667
1870.28	1125.08333
1873.111	1158.41667
1875.939	1138.41667
1878.765	1156.08333
1881.589	1121.41667
1884.411	1129.08333
1887.231	1146.75
1890.049	1112.41667
1892.865	1123.75
1895.68	1112.75
1898.492	1105.41667
1901.302	1105.75
1904.11	1088.08333
1906.916	1090.08333
1909.721	1076.41667
1912.523	1091.41667
1915.323	1064.75
1918.122	1071.75
1920.918	1069.08333
1923.712	1066.75
1926.505	1072.08333
1929.295	1061.08333
1932.084	1068.41667
1934.87	1063.08333
1937.655	1054.75
1940.438	1052.08333
1943.218	1052.75
1945.997	1052.75
1948.774	1063.08333
1951.549	1067.08333
1954.322	1060.41667
1957.093	1070.08333
1959.862	1037.08333
1962.629	1030.75
1965.394	1023.08333
1968.157	1017.75
1970.918	1046.41667
1973.678	1019.75
1976.435	1026.41667
1979.19	1020.08333
1981.944	1010.75
1984.696	1006.08333
1987.445	1001.75
1990.193	1010.08333
1992.939	1016.41667
1995.683	1003.75
1998.425	987.75
2001.165	1005.41667
2003.903	990.75
2006.639	989.08333
2009.374	1001.75
2012.106	999.75
2014.837	980.75
2017.566	989.75
2020.292	994.08333
2023.017	976.41667
2025.74	975.41667
2028.461	970.75
2031.18	971.41667
2033.898	974.75
2036.613	977.75
2039.327	973.41667
2042.038	949.75
2044.748	953.41667
2047.456	956.75
2050.162	940.08333
2052.866	959.41667
2055.568	953.08333
2058.268	947.75
2060.967	948.08333
2063.663	930.08333
2066.358	947.08333
2069.051	933.08333
2071.742	945.41667
2074.431	950.75
2077.118	945.75
2079.804	939.75
2082.487	937.75
2085.169	956.08333
2087.849	967.41667
2090.527	952.41667
2093.203	960.41667
2095.877	969.75
2098.55	967.08333
2101.22	987.41667
2103.889	1001.75
2106.556	1000.08333
2109.221	1035.41667
2111.884	1065.41667
2114.546	1130.41667
2117.205	1195.41667
2119.863	1308.08333
2122.519	1392.41667
2125.173	1535.08333
2127.825	1623.41667
2130.475	1676.08333
2133.124	1646.41667
2135.771	1607.75
2138.416	1547.41667
2141.059	1442.75
2143.7	1372.75
2146.339	1288.41667
2148.977	1215.08333
2151.613	1201.08333
2154.247	1155.41667
2156.879	1113.41667
2159.51	1101.75
2162.138	1084.75
2164.765	1083.08333
2167.39	1074.08333
2170.013	1086.41667
2172.634	1087.41667
2175.254	1066.75
2177.872	1095.75
2180.488	1056.08333
2183.102	1058.08333
2185.714	1042.41667
2188.325	1017.75
2190.934	1024.75
2193.541	1008.75
2196.146	968.75
2198.75	956.75
2201.351	940.75
2203.951	926.08333
2206.549	934.08333
2209.146	901.75
2211.74	891.75
2214.333	903.41667
2216.924	874.75
2219.514	885.41667
2222.101	862.75
2224.687	876.41667
2227.271	848.75
2229.853	850.41667
2232.433	829.75
2235.012	844.75
2237.589	832.41667
2240.164	845.08333
2242.738	833.08333
2245.309	826.08333
2247.879	806.41667
2250.448	822.41667
2253.014	790.75
2255.579	786.75
2258.142	781.41667
2260.703	759.75
2263.262	766.41667
2265.82	751.75
2268.376	757.41667
2270.93	750.41667
2273.483	738.41667
2276.033	745.41667
2278.583	736.08333
2281.13	717.41667
2283.675	713.41667
2286.219	727.75
2288.761	717.41667
2291.302	724.41667
2293.841	730.08333
2296.377	698.75
2298.913	710.41667
2301.446	716.41667
2303.978	701.41667
2306.508	702.08333
2309.037	703.08333
2311.563	714.75
2314.088	702.08333
2316.612	685.41667
2319.133	691.41667
2321.653	695.08333
2324.171	676.75
2326.688	683.08333
2329.202	670.75
2331.715	674.41667
2334.227	669.75
2336.736	671.08333
2339.244	673.41667
2341.751	651.08333
2344.255	672.41667
2346.758	655.08333
2349.259	651.75
2351.759	659.41667
2354.257	653.08333
2356.753	653.75
2359.247	652.75
2361.74	655.75
2364.231	651.75
2366.721	659.08333
2369.209	643.41667
2371.695	643.08333
2374.179	631.08333
2376.662	637.08333
2379.143	644.41667
2381.622	633.41667
2384.1	639.41667
2386.576	630.41667
2389.051	641.41667
2391.524	651.41667
2393.995	634.75
2396.464	628.08333
2398.932	621.41667
2401.398	633.41667
2403.863	618.75
2406.325	616.75
2408.787	624.75
2411.246	620.75
2413.704	617.08333
2416.16	608.75
2418.615	612.75
2421.068	625.08333
2423.519	612.08333
2425.969	599.41667
2428.417	604.41667
2430.863	620.75
2433.308	621.08333
2435.751	615.41667
2438.193	601.08333
2440.633	601.08333
2443.071	612.08333
2445.508	587.08333
2447.943	599.41667
2450.376	590.41667
2452.808	591.08333
2455.238	593.41667
2457.667	612.41667
2460.093	579.41667
2462.519	570.41667
2464.942	579.08333
2467.365	587.75
2469.785	586.41667
2472.204	579.08333
2474.621	579.41667
2477.037	595.41667
2479.451	567.75
2481.863	558.08333
2484.274	564.75
2486.683	571.75
2489.091	580.41667
2491.497	570.75
2493.901	559.08333
2496.304	561.41667
2498.705	571.75
2501.105	553.75
2503.503	578.41667
2505.899	550.08333
2508.294	575.75
2510.687	557.08333
2513.079	549.75
2515.469	552.08333
2517.858	547.41667
2520.245	564.41667
2522.63	542.41667
2525.014	547.41667
2527.396	548.08333
2529.776	546.41667
2532.156	538.08333
2534.533	531.75
2536.909	536.08333
2539.283	527.41667
2541.656	533.08333
2544.027	562.41667
2546.397	543.08333
2548.765	535.08333
2551.131	543.08333
2553.496	533.75
2555.86	532.41667
2558.221	529.41667
2560.582	540.41667
2562.94	524.08333
2565.298	527.41667
2567.653	541.08333
2570.007	520.41667
2572.36	523.75
2574.711	526.75
2577.06	540.08333
2579.408	524.08333
2581.754	517.08333
2584.099	524.08333
2586.442	516.75
2588.784	522.41667
2591.124	532.75
2593.463	515.41667
2595.8	525.41667
2598.135	502.75
2600.469	515.41667
2602.802	541.75
2605.133	520.08333
2607.462	504.08333
2609.79	513.75
2612.116	516.75
2614.441	515.08333
2616.764	518.41667
2619.086	513.08333
2621.406	498.75
2623.725	527.41667
2626.042	516.08333
2628.358	511.75
2630.672	505.08333
2632.985	521.75
2635.296	514.08333
2637.606	515.41667
2639.914	501.75
2642.22	511.75
2644.525	515.08333
2646.829	516.41667
2649.131	519.41667
2651.432	529.41667
2653.731	513.08333
2656.028	524.08333
2658.324	518.08333
2660.619	509.08333
2662.912	531.41667
2665.204	503.41667
2667.494	531.75
2669.782	504.41667
2672.07	526.41667
2674.355	521.75
2676.639	510.08333
2678.922	502.75
2681.203	520.08333
2683.483	501.08333
2685.761	499.08333
2688.038	509.41667
2690.313	530.75
2692.587	521.75
2694.859	512.41667
2697.13	514.08333
2699.399	525.75
2701.667	525.08333
2703.933	540.75
2706.198	543.08333
2708.461	548.08333
2710.723	536.41667
2712.984	528.08333
2715.243	559.75
2717.5	544.41667
2719.757	557.08333
2722.011	550.41667
2724.264	562.41667
2726.516	582.75
2728.766	558.75
2731.015	556.75
2733.262	554.08333
2735.508	546.75
2737.753	548.08333
2739.996	540.08333
2742.237	542.75
2744.477	547.75
2746.716	537.75
2748.953	538.75
2751.189	534.08333
2753.423	528.08333
2755.656	526.41667
2757.887	508.75
2760.117	525.41667
2762.346	511.08333
2764.573	514.41667
2766.798	510.75
2769.022	518.41667
2771.245	514.41667
2773.467	516.41667
2775.686	524.41667
2777.905	528.08333
2780.122	528.75
2782.337	533.08333
2784.552	534.08333
2786.764	547.41667
2788.976	539.08333
2791.186	546.08333
2793.394	547.08333
2795.601	561.75
2797.807	575.41667
2800.011	580.08333
2802.214	586.41667
2804.415	583.08333
2806.615	600.08333
2808.814	598.75
2811.011	605.75
2813.206	620.08333
2815.401	635.08333
2817.594	641.75
2819.785	655.75
2821.975	651.41667
2824.164	662.75
2826.351	680.75
2828.537	708.41667
2830.722	711.41667
2832.905	722.75
2835.086	771.08333
2837.267	790.41667
2839.445	841.75
2841.623	854.75
2843.799	906.41667
2845.974	946.41667
2848.147	994.41667
2850.319	1005.41667
2852.489	1061.41667
2854.659	1073.41667
2856.826	1093.41667
2858.993	1125.75
2861.158	1096.75
2863.321	1097.08333
2865.483	1127.08333
2867.644	1121.75
2869.804	1130.08333
2871.962	1112.08333
2874.118	1119.41667
2876.274	1122.41667
2878.428	1105.08333
2880.58	1100.08333
2882.731	1079.08333
2884.881	1112.08333
2887.03	1103.75
2889.177	1101.75
2891.322	1128.08333
2893.467	1116.41667
2895.61	1120.75
2897.751	1142.75
2899.892	1118.75
2902.03	1155.08333
2904.168	1163.41667
2906.304	1152.41667
2908.439	1187.08333
2910.572	1167.41667
2912.704	1186.41667
2914.835	1170.08333
2916.965	1168.75
2919.093	1196.75
2921.219	1132.75
2923.345	1163.41667
2925.469	1126.41667
2927.591	1115.08333
2929.712	1097.08333
2931.832	1080.08333
2933.951	1046.08333
2936.068	1024.41667
2938.184	1003.08333
2940.299	956.08333
2942.412	932.41667
2944.524	875.75
2946.634	869.08333
2948.744	813.75
2950.851	821.75
2952.958	766.41667
2955.063	761.75
2957.167	732.75
2959.269	698.41667
2961.371	712.41667
2963.471	664.41667
2965.569	662.08333
2967.666	619.75
2969.762	609.75
2971.857	593.08333
2973.95	570.08333
2976.042	565.41667
2978.133	556.08333
2980.222	535.08333
2982.31	509.08333
2984.396	494.75
2986.482	491.41667
2988.566	481.75
2990.648	471.41667
2992.73	466.75
2994.81	450.08333
2996.889	459.41667
2998.966	445.75
3001.042	450.08333
3003.117	432.41667
3005.191	433.41667
3007.263	419.75
3009.334	424.08333
3011.403	420.75
3013.472	399.75
3015.539	404.08333
3017.604	404.75
3019.669	370.75
3021.732	372.08333
3023.794	379.41667
3025.854	357.41667
3027.914	359.08333
3029.971	366.41667
3032.028	355.75
3034.083	362.41667
3036.137	354.08333
3038.19	343.41667
3040.242	337.75
3042.292	322.75
3044.341	322.08333
3046.388	348.41667
3048.435	299.08333
3050.48	328.75
3052.524	324.08333
3054.566	294.75
3056.607	316.41667
3058.647	308.41667
3060.686	285.08333
3062.723	277.41667
3064.759	269.08333
3066.794	0.75
3068.828	-2.25
3070.86	-0.25
