-0.839	298.16667
3.438	320.83333
7.711	99.5
11.981	52.16667
16.247	47.5
20.509	46.16667
24.768	49.5
29.024	49.5
33.276	46.83333
37.524	54.5
41.769	43.5
46.01	40.16667
50.247	52.83333
54.481	64.16667
58.712	70.16667
62.939	53.16667
67.162	66.83333
71.382	59.5
75.599	52.16667
79.812	65.83333
84.021	86.83333
88.227	61.16667
92.429	70.83333
96.628	50.16667
100.823	69.16667
105.015	76.83333
109.204	80.16667
113.388	82.83333
117.57	77.83333
121.748	97.83333
125.922	82.5
130.093	109.16667
134.261	114.5
138.425	110.16667
142.585	152.5
146.742	148.83333
150.896	178.16667
155.046	215.16667
159.193	348.5
163.336	592.83333
167.476	1065.5
171.613	1990.83333
175.746	3341.5
179.875	4944.83333
184.002	6489.83333
188.124	7580.16667
192.244	7996.83333
196.36	8018.5
200.472	7878.83333
204.581	7785.83333
208.687	7753.83333
212.79	7748.5
216.889	7916.5
220.984	8141.83333
225.077	8302.83333
229.165	8510.16667
233.251	8713.83333
237.333	8880.5
241.412	8929.83333
245.487	9005.16667
249.559	8896.83333
253.628	8820.5
257.694	8707.83333
261.756	8648.83333
265.814	8438.83333
269.87	8201.5
273.922	7871.83333
277.97	7587.5
282.016	7316.5
286.058	7188.5
290.097	7082.83333
294.132	7020.16667
298.164	6856.83333
302.193	6559.16667
306.219	6052.16667
310.241	5471.83333
314.26	4999.16667
318.276	4561.83333
322.288	4253.5
326.297	4012.5
330.303	3847.83333
334.305	3716.16667
338.305	3636.16667
342.301	3574.5
346.294	3512.5
350.283	3518.83333
354.269	3469.83333
358.252	3468.5
362.232	3413.16667
366.209	3400.5
370.182	3380.16667
374.152	3349.16667
378.119	3370.5
382.083	3366.5
386.043	3378.16667
390	3331.16667
393.954	3315.5
397.905	3284.16667
401.852	3265.16667
405.797	3208.5
409.738	3162.83333
413.676	3135.83333
417.61	3104.83333
421.542	3077.83333
425.47	3037.5
429.396	2992.5
433.318	2987.83333
437.236	2962.16667
441.152	2966.16667
445.065	2931.16667
448.974	2887.83333
452.88	2861.83333
456.783	2876.16667
460.683	2846.83333
464.58	2860.16667
468.473	2851.83333
472.364	2878.83333
476.251	2873.83333
480.135	2890.83333
484.016	2923.83333
487.894	2922.16667
491.769	2933.83333
495.641	2952.16667
499.509	2928.16667
503.375	2927.16667
507.237	2915.5
511.096	2904.16667
514.952	2907.16667
518.805	2898.16667
522.655	2877.16667
526.502	2865.16667
530.346	2888.83333
534.187	2913.16667
538.024	2900.83333
541.859	2901.5
545.69	2917.5
549.519	2907.5
553.344	2878.83333
557.166	2842.83333
560.985	2807.16667
564.802	2795.83333
568.615	2756.16667
572.425	2703.5
576.232	2677.83333
580.036	2677.83333
583.836	2709.16667
587.634	2683.5
591.429	2692.5
595.221	2727.16667
599.01	2760.83333
602.796	2759.5
606.578	2797.83333
610.358	2817.16667
614.135	2791.5
617.909	2823.16667
621.679	2804.5
625.447	2776.5
629.212	2767.83333
632.973	2766.5
636.732	2779.5
640.488	2792.5
644.241	2743.16667
647.991	2752.83333
651.737	2749.83333
655.481	2763.5
659.222	2738.16667
662.96	2771.5
666.695	2766.83333
670.427	2766.83333
674.156	2789.5
677.882	2768.83333
681.605	2771.5
685.325	2729.5
689.043	2751.83333
692.757	2742.5
696.468	2754.5
700.177	2747.16667
703.882	2744.16667
707.585	2749.83333
711.284	2732.16667
714.981	2736.83333
718.675	2730.83333
722.366	2747.16667
726.054	2751.5
729.739	2734.5
733.421	2755.83333
737.1	2729.16667
740.777	2768.16667
744.45	2780.5
748.121	2803.5
751.789	2856.16667
755.453	2842.5
759.115	2860.16667
762.774	2908.83333
766.431	2930.83333
770.084	2959.83333
773.734	2984.83333
777.382	3006.83333
781.027	3070.16667
784.669	3069.16667
788.308	3110.5
791.944	3114.83333
795.577	3134.83333
799.208	3165.16667
802.835	3202.16667
806.46	3241.16667
810.082	3283.16667
813.701	3285.5
817.317	3345.16667
820.931	3314.16667
824.542	3346.83333
828.149	3297.5
831.754	3254.83333
835.357	3226.5
838.956	3202.83333
842.553	3196.16667
846.146	3203.5
849.737	3176.83333
853.326	3168.83333
856.911	3188.5
860.493	3248.83333
864.073	3262.5
867.65	3333.16667
871.225	3349.5
874.796	3353.16667
878.365	3359.83333
881.931	3385.83333
885.494	3411.5
889.054	3412.16667
892.612	3401.16667
896.166	3372.83333
899.719	3334.16667
903.268	3311.5
906.814	3278.83333
910.358	3275.5
913.899	3247.83333
917.438	3274.83333
920.973	3252.83333
924.506	3272.83333
928.036	3327.5
931.564	3369.83333
935.088	3373.83333
938.61	3399.83333
942.129	3420.16667
945.646	3501.83333
949.16	3581.16667
952.671	3674.16667
956.179	3724.16667
959.685	3725.16667
963.188	3697.5
966.688	3616.83333
970.185	3551.16667
973.68	3474.5
977.173	3451.83333
980.662	3415.5
984.149	3436.16667
987.633	3436.83333
991.114	3531.83333
994.593	3617.5
998.069	3712.83333
1001.542	3854.83333
1005.013	3788.16667
1008.481	3549.83333
1011.947	3497.16667
1015.409	3519.5
1018.869	3488.83333
1022.327	3487.83333
1025.782	3463.16667
1029.234	3462.5
1032.683	3421.16667
1036.13	3322.16667
1039.574	3173.5
1043.016	3128.5
1046.455	3080.5
1049.891	3043.16667
1053.325	3014.16667
1056.756	3029.83333
1060.184	3046.5
1063.61	3067.83333
1067.033	3087.16667
1070.454	3063.83333
1073.872	3095.5
1077.287	3102.16667
1080.7	3112.16667
1084.11	3107.83333
1087.517	3097.5
1090.922	3065.5
1094.325	3009.83333
1097.724	2962.5
1101.122	2955.83333
1104.516	2960.16667
1107.908	2990.16667
1111.298	3041.83333
1114.684	3083.16667
1118.069	3107.5
1121.45	3134.83333
1124.83	3104.5
1128.206	3162.16667
1131.58	3171.16667
1134.951	3281.16667
1138.32	3358.5
1141.687	3481.5
1145.05	3579.16667
1148.412	3613.5
1151.77	3602.5
1155.126	3613.5
1158.48	3612.83333
1161.831	3650.5
1165.18	3664.5
1168.525	3716.5
1171.869	3758.5
1175.21	3796.5
1178.548	3862.83333
1181.884	3900.16667
1185.217	3924.83333
1188.548	4007.16667
1191.877	4057.16667
1195.202	4133.83333
1198.526	4191.83333
1201.846	4149.5
1205.165	4139.83333
1208.48	4135.5
1211.794	4131.83333
1215.104	4113.16667
1218.413	4115.16667
1221.719	4125.83333
1225.022	4086.16667
1228.323	4050.5
1231.621	4047.83333
1234.917	4036.83333
1238.21	4061.16667
1241.501	4047.16667
1244.79	4050.83333
1248.076	4067.16667
1251.359	4078.5
1254.64	4147.5
1257.919	4185.5
1261.195	4222.83333
1264.468	4270.5
1267.74	4373.83333
1271.008	4383.16667
1274.275	4366.5
1277.538	4308.16667
1280.8	4304.5
1284.059	4300.5
1287.315	4327.5
1290.569	4366.16667
1293.821	4427.83333
1297.07	4413.16667
1300.317	4436.16667
1303.562	4414.83333
1306.803	4394.16667
1310.043	4365.5
1313.28	4287.5
1316.515	4256.5
1319.747	4246.5
1322.977	4187.16667
1326.204	4106.16667
1329.429	4045.83333
1332.652	4005.5
1335.872	3995.83333
1339.09	3974.5
1342.306	3973.5
1345.519	3935.16667
1348.729	3942.16667
1351.938	3904.5
1355.144	3860.5
1358.347	3770.83333
1361.548	3783.83333
1364.747	3814.5
1367.944	3782.83333
1371.138	3816.5
1374.329	3828.5
1377.518	3884.5
1380.705	3888.83333
1383.89	3898.16667
1387.072	3792.83333
1390.252	3634.5
1393.429	3533.5
1396.605	3412.16667
1399.777	3338.83333
1402.948	3290.83333
1406.116	3267.83333
1409.282	3281.5
1412.445	3285.83333
1415.606	3308.83333
1418.765	3343.83333
1421.921	3413.83333
1425.075	3499.5
1428.227	3603.16667
1431.376	3776.16667
1434.524	3904.83333
1437.668	4053.16667
1440.811	4069.5
1443.951	4092.5
1447.089	4074.5
1450.224	4074.16667
1453.357	4013.16667
1456.488	4028.5
1459.617	3959.83333
1462.743	3919.5
1465.867	3834.16667
1468.989	3776.16667
1472.108	3724.83333
1475.225	3666.83333
1478.34	3616.83333
1481.453	3615.16667
1484.563	3638.16667
1487.671	3635.16667
1490.776	3698.83333
1493.88	3752.16667
1496.981	3860.5
1500.08	3913.83333
1503.176	4001.83333
1506.271	4067.5
1509.363	4160.83333
1512.452	4172.83333
1515.54	4253.16667
1518.625	4375.5
1521.708	4542.16667
1524.789	4821.83333
1527.867	5180.16667
1530.944	5503.16667
1534.018	5740.16667
1537.089	5815.83333
1540.159	5755.5
1543.226	5563.5
1546.291	5353.83333
1549.354	5190.83333
1552.415	5014.16667
1555.473	4874.83333
1558.529	4789.83333
1561.583	4752.83333
1564.634	4691.5
1567.684	4692.16667
1570.731	4713.16667
1573.776	4782.83333
1576.819	4800.5
1579.859	4876.16667
1582.898	4940.83333
1585.934	4965.16667
1588.968	4977.83333
1591.999	4984.16667
1595.029	4939.5
1598.056	4992.16667
1601.081	5013.83333
1604.104	4973.5
1607.125	4928.16667
1610.144	4833.16667
1613.16	4713.83333
1616.174	4630.16667
1619.186	4486.83333
1622.196	4377.16667
1625.203	4258.83333
1628.209	4201.16667
1631.212	4198.83333
1634.213	4155.16667
1637.212	4136.83333
1640.209	4063.5
1643.203	3952.16667
1646.196	3842.16667
1649.186	3682.5
1652.174	3560.83333
1655.16	3463.16667
1658.144	3345.83333
1661.125	3187.16667
1664.105	3041.83333
1667.082	2908.83333
1670.057	2727.5
1673.03	2567.16667
1676.001	2412.5
1678.97	2256.16667
1681.937	2145.16667
1684.901	2008.5
1687.863	1953.83333
1690.824	1870.16667
1693.782	1818.16667
1696.738	1766.16667
1699.692	1723.83333
1702.643	1679.16667
1705.593	1666.16667
1708.54	1629.83333
1711.486	1626.5
1714.429	1591.83333
1717.37	1589.16667
1720.309	1566.5
1723.246	1554.83333
1726.181	1528.83333
1729.113	1529.83333
1732.044	1495.83333
1734.972	1485.16667
1737.899	1491.5
1740.823	1461.83333
1743.745	1462.5
1746.665	1411.83333
1749.583	1385.83333
1752.499	1369.16667
1755.413	1363.5
1758.325	1323.83333
1761.235	1329.83333
1764.142	1282.5
1767.048	1287.5
1769.951	1271.5
1772.852	1275.5
1775.752	1259.16667
1778.649	1249.16667
1781.544	1245.16667
1784.437	1220.5
1787.328	1238.16667
1790.217	1236.5
1793.104	1204.83333
1795.989	1192.16667
1798.872	1187.5
1801.753	1214.83333
1804.631	1204.16667
1807.508	1212.83333
1810.383	1203.16667
1813.255	1187.5
1816.126	1173.83333
1818.994	1170.5
1821.861	1164.83333
1824.725	1157.83333
1827.587	1172.5
1830.448	1156.5
1833.306	1129.16667
1836.162	1125.83333
1839.017	1137.16667
1841.869	1134.16667
1844.719	1129.16667
1847.567	1102.16667
1850.414	1106.83333
1853.258	1092.16667
1856.1	1118.16667
1858.94	1117.83333
1861.778	1111.83333
1864.614	1096.5
1867.448	1098.83333
1870.28	1088.16667
1873.111	1100.5
1875.939	1104.5
1878.765	1113.83333
1881.589	1082.83333
1884.411	1083.83333
1887.231	1099.16667
1890.049	1071.83333
1892.865	1071.5
1895.68	1077.5
1898.492	1070.83333
1901.302	1050.83333
1904.11	1059.16667
1906.916	1058.16667
1909.721	1057.5
1912.523	1067.5
1915.323	1032.16667
1918.122	1028.83333
1920.918	1034.5
1923.712	1013.16667
1926.505	1038.5
1929.295	1017.83333
1932.084	1035.5
1934.87	1039.16667
1937.655	1040.5
1940.438	1019.83333
1943.218	1024.83333
1945.997	1026.16667
1948.774	1038.5
1951.549	1013.5
1954.322	999.5
1957.093	1015.16667
1959.862	1010.83333
1962.629	995.83333
1965.394	1007.83333
1968.157	982.16667
1970.918	992.83333
1973.678	987.5
1976.435	986.5
1979.19	982.5
1981.944	975.5
1984.696	954.83333
1987.445	968.83333
1990.193	973.5
1992.939	982.16667
1995.683	971.5
1998.425	951.83333
2001.165	967.5
2003.903	969.5
2006.639	957.83333
2009.374	961.5
2012.106	962.16667
2014.837	932.16667
2017.566	953.5
2020.292	962.83333
2023.017	940.83333
2025.74	957.16667
2028.461	938.5
2031.18	944.83333
2033.898	947.16667
2036.613	936.16667
2039.327	935.16667
2042.038	922.5
2044.748	929.83333
2047.456	922.83333
2050.162	904.16667
2052.866	913.5
2055.568	906.5
2058.268	901.83333
2060.967	915.5
2063.663	903.83333
2066.358	906.16667
2069.051	909.5
2071.742	900.5
2074.431	901.16667
2077.118	886.83333
2079.804	895.16667
2082.487	897.5
2085.169	907.83333
2087.849	928.83333
2090.527	906.16667
2093.203	904.16667
2095.877	919.83333
2098.55	921.83333
2101.22	924.83333
2103.889	936.16667
2106.556	932.83333
2109.221	957.83333
2111.884	961.16667
2114.546	1018.16667
2117.205	1078.16667
2119.863	1152.5
2122.519	1220.5
2125.173	1309.16667
2127.825	1425.16667
2130.475	1445.16667
2133.124	1449.16667
2135.771	1400.83333
2138.416	1346.83333
2141.059	1272.83333
2143.7	1232.16667
2146.339	1151.16667
2148.977	1083.16667
2151.613	1071.5
2154.247	1047.83333
2156.879	1008.16667
2159.51	1001.5
2162.138	978.5
2164.765	982.5
2167.39	967.83333
2170.013	987.83333
2172.634	983.16667
2175.254	977.5
2177.872	1012.16667
2180.488	967.5
2183.102	976.83333
2185.714	949.83333
2188.325	930.16667
2190.934	913.83333
2193.541	924.5
2196.146	892.16667
2198.75	858.83333
2201.351	859.16667
2203.951	844.83333
2206.549	856.16667
2209.146	841.16667
2211.74	819.5
2214.333	830.5
2216.924	788.16667
2219.514	804.83333
2222.101	807.16667
2224.687	814.16667
2227.271	796.5
2229.853	794.16667
2232.433	780.83333
2235.012	796.5
2237.589	792.5
2240.164	790.5
2242.738	784.16667
2245.309	769.83333
2247.879	764.83333
2250.448	772.5
2253.014	750.16667
2255.579	732.5
2258.142	732.5
2260.703	723.83333
2263.262	724.16667
2265.82	722.83333
2268.376	721.83333
2270.93	700.5
2273.483	697.16667
2276.033	710.16667
2278.583	700.83333
2281.13	695.5
2283.675	682.5
2286.219	699.83333
2288.761	685.83333
2291.302	698.5
2293.841	691.83333
2296.377	662.83333
2298.913	681.83333
2301.446	677.16667
2303.978	678.83333
2306.508	648.5
2309.037	669.16667
2311.563	672.5
2314.088	671.83333
2316.612	640.5
2319.133	663.5
2321.653	650.16667
2324.171	637.5
2326.688	654.5
2329.202	645.5
2331.715	636.16667
2334.227	639.83333
2336.736	628.83333
2339.244	625.16667
2341.751	623.16667
2344.255	637.5
2346.758	629.83333
2349.259	621.16667
2351.759	611.83333
2354.257	619.83333
2356.753	615.5
2359.247	616.83333
2361.74	618.5
2364.231	610.83333
2366.721	619.83333
2369.209	603.5
2371.695	606.5
2374.179	606.5
2376.662	605.16667
2379.143	617.83333
2381.622	597.16667
2384.1	605.5
2386.576	598.16667
2389.051	609.5
2391.524	616.16667
2393.995	602.16667
2396.464	596.16667
2398.932	579.16667
2401.398	591.83333
2403.863	582.16667
2406.325	584.16667
2408.787	583.16667
2411.246	582.16667
2413.704	572.16667
2416.16	573.83333
2418.615	570.83333
2421.068	589.83333
2423.519	581.5
2425.969	567.83333
2428.417	585.83333
2430.863	598.83333
2433.308	577.83333
2435.751	572.83333
2438.193	565.83333
2440.633	576.16667
2443.071	570.5
2445.508	550.83333
2447.943	557.16667
2450.376	545.16667
2452.808	561.5
2455.238	540.83333
2457.667	585.5
2460.093	555.16667
2462.519	540.5
2464.942	549.83333
2467.365	558.5
2469.785	554.16667
2472.204	542.83333
2474.621	542.83333
2477.037	557.5
2479.451	531.5
2481.863	531.16667
2484.274	524.16667
2486.683	535.83333
2489.091	533.16667
2491.497	538.16667
2493.901	524.5
2496.304	529.16667
2498.705	528.16667
2501.105	524.83333
2503.503	552.16667
2505.899	509.16667
2508.294	540.83333
2510.687	512.16667
2513.079	511.16667
2515.469	507.5
2517.858	517.16667
2520.245	524.16667
2522.63	508.83333
2525.014	513.83333
2527.396	503.5
2529.776	504.83333
2532.156	516.83333
2534.533	497.16667
2536.909	497.83333
2539.283	494.5
2541.656	499.5
2544.027	513.5
2546.397	499.16667
2548.765	502.83333
2551.131	502.83333
2553.496	499.83333
2555.86	504.83333
2558.221	482.83333
2560.582	490.16667
2562.94	474.16667
2565.298	495.16667
2567.653	503.16667
2570.007	482.83333
2572.36	494.5
2574.711	485.83333
2577.06	501.83333
2579.408	486.83333
2581.754	480.5
2584.099	480.16667
2586.442	478.16667
2588.784	483.5
2591.124	490.16667
2593.463	477.5
2595.8	476.5
2598.135	468.16667
2600.469	472.16667
2602.802	489.5
2605.133	484.5
2607.462	470.16667
2609.79	460.5
2612.116	474.16667
2614.441	473.5
2616.764	472.83333
2619.086	473.83333
2621.406	468.16667
2623.725	476.5
2626.042	475.16667
2628.358	460.16667
2630.672	456.83333
2632.985	476.16667
2635.296	467.16667
2637.606	472.16667
2639.914	459.83333
2642.22	470.83333
2644.525	465.5
2646.829	479.16667
2649.131	478.83333
2651.432	479.16667
2653.731	464.5
2656.028	468.5
2658.324	475.83333
2660.619	460.83333
2662.912	481.5
2665.204	463.83333
2667.494	473.16667
2669.782	455.5
2672.07	472.16667
2674.355	482.5
2676.639	469.83333
2678.922	462.5
2681.203	477.83333
2683.483	455.83333
2685.761	461.83333
2688.038	467.16667
2690.313	484.5
2692.587	473.16667
2694.859	462.16667
2697.13	476.5
2699.399	469.5
2701.667	487.16667
2703.933	482.16667
2706.198	490.83333
2708.461	491.5
2710.723	502.5
2712.984	492.5
2715.243	509.16667
2717.5	502.16667
2719.757	502.5
2722.011	504.16667
2724.264	523.83333
2726.516	523.5
2728.766	501.5
2731.015	501.83333
2733.262	498.5
2735.508	512.16667
2737.753	505.5
2739.996	488.5
2742.237	482.5
2744.477	502.5
2746.716	495.83333
2748.953	478.5
2751.189	486.16667
2753.423	466.16667
2755.656	472.5
2757.887	460.83333
2760.117	468.16667
2762.346	455.16667
2764.573	454.5
2766.798	454.83333
2769.022	468.16667
2771.245	458.5
2773.467	473.16667
2775.686	474.5
2777.905	474.5
2780.122	470.83333
2782.337	476.5
2784.552	473.83333
2786.764	487.16667
2788.976	484.83333
2791.186	493.5
2793.394	501.5
2795.601	501.16667
2797.807	502.83333
2800.011	512.5
2802.214	529.16667
2804.415	532.5
2806.615	530.83333
2808.814	538.5
2811.011	545.5
2813.206	548.83333
2815.401	575.16667
2817.594	585.16667
2819.785	591.16667
2821.975	590.5
2824.164	603.16667
2826.351	623.83333
2828.537	660.16667
2830.722	651.5
2832.905	676.16667
2835.086	712.16667
2837.267	746.83333
2839.445	787.16667
2841.623	809.16667
2843.799	871.83333
2845.974	914.16667
2848.147	970.83333
2850.319	980.5
2852.489	1027.83333
2854.659	1040.83333
2856.826	1056.5
2858.993	1094.16667
2861.158	1066.83333
2863.321	1088.83333
2865.483	1106.5
2867.644	1105.83333
2869.804	1096.5
2871.962	1093.5
2874.118	1086.83333
2876.274	1090.5
2878.428	1076.16667
2880.58	1074.16667
2882.731	1077.83333
2884.881	1079.5
2887.03	1068.16667
2889.177	1066.16667
2891.322	1100.83333
2893.467	1092.83333
2895.61	1104.5
2897.751	1133.16667
2899.892	1112.5
2902.03	1131.16667
2904.168	1145.83333
2906.304	1135.5
2908.439	1153.83333
2910.572	1127.83333
2912.704	1161.16667
2914.835	1154.83333
2916.965	1150.83333
2919.093	1158.83333
2921.219	1126.83333
2923.345	1150.16667
2925.469	1102.83333
2927.591	1098.83333
2929.712	1063.5
2931.832	1050.16667
2933.951	1038.5
2936.068	1003.83333
2938.184	983.16667
2940.299	923.83333
2942.412	907.16667
2944.524	852.16667
2946.634	835.5
2948.744	769.5
2950.851	792.5
2952.958	719.5
2955.063	723.83333
2957.167	694.83333
2959.269	656.83333
2961.371	658.83333
2963.471	628.83333
2965.569	614.5
2967.666	580.16667
2969.762	566.5
2971.857	536.5
2973.95	516.5
2976.042	505.83333
2978.133	498.83333
2980.222	478.5
2982.31	456.16667
2984.396	443.5
2986.482	429.83333
2988.566	432.16667
2990.648	421.83333
2992.73	420.16667
2994.81	392.5
2996.889	398.5
2998.966	389.83333
3001.042	395.83333
3003.117	379.5
3005.191	381.16667
3007.263	371.16667
3009.334	365.16667
3011.403	353.5
3013.472	336.83333
3015.539	341.5
3017.604	349.83333
3019.669	308.5
3021.732	317.5
3023.794	318.83333
3025.854	303.5
3027.914	303.83333
3029.971	306.5
3032.028	310.5
3034.083	299.5
3036.137	301.16667
3038.19	291.16667
3040.242	274.83333
3042.292	280.16667
3044.341	264.16667
3046.388	284.16667
3048.435	258.83333
3050.48	279.5
3052.524	266.83333
3054.566	241.83333
3056.607	264.16667
3058.647	255.5
3060.686	240.16667
3062.723	228.16667
3064.759	218.5
3066.794	0.5
3068.828	0.16667
3070.86	-2.5
