-0.839	429.20833
3.438	454.875
7.711	125.20833
11.981	55.54167
16.247	49.54167
20.509	45.54167
24.768	47.54167
29.024	44.54167
33.276	48.875
37.524	51.20833
41.769	41.875
46.01	41.54167
50.247	52.875
54.481	64.54167
58.712	68.875
62.939	53.20833
67.162	64.54167
71.382	63.20833
75.599	49.20833
79.812	68.875
84.021	88.20833
88.227	64.54167
92.429	64.875
96.628	58.54167
100.823	75.20833
105.015	81.20833
109.204	81.20833
113.388	83.875
117.57	83.20833
121.748	97.20833
125.922	85.875
130.093	106.54167
134.261	115.20833
138.425	111.875
142.585	159.20833
146.742	164.20833
150.896	190.54167
155.046	244.875
159.193	382.20833
163.336	678.20833
167.476	1224.20833
171.613	2293.875
175.746	3818.875
179.875	5641.54167
184.002	7339.54167
188.124	8485.54167
192.244	8853.20833
196.36	8775.875
200.472	8502.875
204.581	8254.54167
208.687	8024.54167
212.79	7958.54167
216.889	7999.875
220.984	8087.20833
225.077	8196.875
229.165	8318.20833
233.251	8450.20833
237.333	8516.875
241.412	8520.20833
245.487	8508.20833
249.559	8377.875
253.628	8321.875
257.694	8257.54167
261.756	8112.20833
265.814	7941.54167
269.87	7702.54167
273.922	7440.54167
277.97	7233.875
282.016	7005.54167
286.058	6885.54167
290.097	6848.875
294.132	6836.20833
298.164	6693.54167
302.193	6368.54167
306.219	5912.54167
310.241	5340.20833
314.26	4840.54167
318.276	4417.875
322.288	4151.20833
326.297	3926.875
330.303	3746.875
334.305	3647.875
338.305	3544.54167
342.301	3484.20833
346.294	3440.54167
350.283	3422.20833
354.269	3358.875
358.252	3359.20833
362.232	3335.875
366.209	3298.54167
370.182	3260.20833
374.152	3212.20833
378.119	3245.20833
382.083	3220.20833
386.043	3252.54167
390	3170.54167
393.954	3157.20833
397.905	3133.54167
401.852	3118.20833
405.797	3066.54167
409.738	3039.54167
413.676	3019.54167
417.61	2990.875
421.542	2961.875
425.47	2943.875
429.396	2911.875
433.318	2866.54167
437.236	2845.875
441.152	2879.875
445.065	2816.875
448.974	2822.54167
452.88	2761.20833
456.783	2775.875
460.683	2753.20833
464.58	2753.875
468.473	2735.54167
472.364	2753.20833
476.251	2750.875
480.135	2779.875
484.016	2796.875
487.894	2807.20833
491.769	2813.20833
495.641	2822.54167
499.509	2829.20833
503.375	2839.54167
507.237	2781.54167
511.096	2817.20833
514.952	2813.875
518.805	2821.20833
522.655	2799.54167
526.502	2784.875
530.346	2778.20833
534.187	2796.54167
538.024	2800.20833
541.859	2809.875
545.69	2841.20833
549.519	2803.875
553.344	2802.875
557.166	2769.20833
560.985	2736.875
564.802	2694.875
568.615	2653.875
572.425	2621.875
576.232	2606.875
580.036	2600.875
583.836	2618.875
587.634	2604.20833
591.429	2606.875
595.221	2665.54167
599.01	2687.54167
602.796	2717.20833
606.578	2741.875
610.358	2741.54167
614.135	2710.20833
617.909	2727.20833
621.679	2686.54167
625.447	2700.875
629.212	2690.54167
632.973	2700.54167
636.732	2695.875
640.488	2696.54167
644.241	2660.875
647.991	2666.54167
651.737	2675.875
655.481	2649.54167
659.222	2670.875
662.96	2675.875
666.695	2675.875
670.427	2699.20833
674.156	2709.54167
677.882	2689.875
681.605	2687.875
685.325	2663.875
689.043	2678.20833
692.757	2652.54167
696.468	2673.20833
700.177	2649.54167
703.882	2635.875
707.585	2644.20833
711.284	2646.20833
714.981	2634.875
718.675	2663.875
722.366	2668.875
726.054	2659.54167
729.739	2667.54167
733.421	2657.54167
737.1	2654.54167
740.777	2689.54167
744.45	2699.20833
748.121	2703.20833
751.789	2768.54167
755.453	2762.20833
759.115	2776.20833
762.774	2805.875
766.431	2833.875
770.084	2852.20833
773.734	2888.20833
777.382	2980.20833
781.027	2983.875
784.669	3014.875
788.308	3022.54167
791.944	3042.875
795.577	3062.875
799.208	3100.875
802.835	3108.875
806.46	3144.875
810.082	3168.875
813.701	3215.54167
817.317	3237.875
820.931	3219.20833
824.542	3224.54167
828.149	3202.20833
831.754	3158.20833
835.357	3150.20833
838.956	3143.20833
842.553	3111.875
846.146	3098.875
849.737	3111.54167
853.326	3095.875
856.911	3122.54167
860.493	3164.54167
864.073	3182.875
867.65	3243.875
871.225	3279.20833
874.796	3233.875
878.365	3270.54167
881.931	3314.875
885.494	3334.875
889.054	3355.54167
892.612	3347.875
896.166	3271.875
899.719	3276.54167
903.268	3254.20833
906.814	3219.875
910.358	3219.875
913.899	3167.20833
917.438	3203.54167
920.973	3207.54167
924.506	3233.875
928.036	3290.20833
931.564	3299.20833
935.088	3357.20833
938.61	3371.875
942.129	3382.54167
945.646	3478.875
949.16	3570.54167
952.671	3662.20833
956.179	3687.875
959.685	3658.875
963.188	3670.54167
966.688	3592.20833
970.185	3487.875
973.68	3419.875
977.173	3380.875
980.662	3359.54167
984.149	3373.20833
987.633	3362.875
991.114	3420.20833
994.593	3511.54167
998.069	3606.875
1001.542	3739.875
1005.013	3672.54167
1008.481	3449.54167
1011.947	3407.54167
1015.409	3397.54167
1018.869	3414.20833
1022.327	3389.54167
1025.782	3372.54167
1029.234	3382.20833
1032.683	3338.20833
1036.13	3198.20833
1039.574	3090.54167
1043.016	3023.54167
1046.455	2973.54167
1049.891	2921.54167
1053.325	2932.54167
1056.756	2918.54167
1060.184	2968.875
1063.61	2967.54167
1067.033	2981.875
1070.454	2994.54167
1073.872	3024.20833
1077.287	3022.54167
1080.7	3026.54167
1084.11	3024.875
1087.517	3002.54167
1090.922	2978.54167
1094.325	2952.54167
1097.724	2925.20833
1101.122	2928.875
1104.516	2916.875
1107.908	2923.54167
1111.298	2974.54167
1114.684	3002.54167
1118.069	3019.875
1121.45	3056.54167
1124.83	3042.875
1128.206	3085.54167
1131.58	3131.875
1134.951	3221.875
1138.32	3324.875
1141.687	3473.875
1145.05	3552.20833
1148.412	3575.54167
1151.77	3578.20833
1155.126	3552.54167
1158.48	3564.20833
1161.831	3564.875
1165.18	3602.20833
1168.525	3669.20833
1171.869	3731.20833
1175.21	3740.20833
1178.548	3794.875
1181.884	3862.875
1185.217	3871.875
1188.548	3955.20833
1191.877	4003.20833
1195.202	4111.54167
1198.526	4131.875
1201.846	4174.875
1205.165	4135.875
1208.48	4118.875
1211.794	4111.875
1215.104	4099.54167
1218.413	4105.20833
1221.719	4077.54167
1225.022	4051.54167
1228.323	4030.20833
1231.621	4024.20833
1234.917	4010.20833
1238.21	4024.54167
1241.501	4011.54167
1244.79	4005.54167
1248.076	4003.54167
1251.359	4024.20833
1254.64	4103.875
1257.919	4136.875
1261.195	4213.20833
1264.468	4281.20833
1267.74	4352.875
1271.008	4372.54167
1274.275	4336.875
1277.538	4302.875
1280.8	4291.54167
1284.059	4313.54167
1287.315	4339.20833
1290.569	4381.54167
1293.821	4390.54167
1297.07	4427.20833
1300.317	4449.54167
1303.562	4406.20833
1306.803	4364.54167
1310.043	4358.875
1313.28	4271.875
1316.515	4253.54167
1319.747	4195.875
1322.977	4152.875
1326.204	4092.875
1329.429	4024.20833
1332.652	4008.20833
1335.872	3988.875
1339.09	3940.875
1342.306	3954.20833
1345.519	3905.20833
1348.729	3862.54167
1351.938	3839.54167
1355.144	3797.20833
1358.347	3744.20833
1361.548	3745.20833
1364.747	3767.20833
1367.944	3758.54167
1371.138	3796.875
1374.329	3837.54167
1377.518	3834.875
1380.705	3876.54167
1383.89	3880.20833
1387.072	3760.54167
1390.252	3619.875
1393.429	3507.54167
1396.605	3364.20833
1399.777	3298.875
1402.948	3247.20833
1406.116	3235.54167
1409.282	3228.20833
1412.445	3238.20833
1415.606	3273.875
1418.765	3304.54167
1421.921	3363.54167
1425.075	3468.54167
1428.227	3601.875
1431.376	3781.54167
1434.524	3896.20833
1437.668	4015.875
1440.811	4039.54167
1443.951	4050.875
1447.089	4054.20833
1450.224	4078.20833
1453.357	4050.20833
1456.488	4009.875
1459.617	3928.20833
1462.743	3887.54167
1465.867	3819.20833
1468.989	3775.20833
1472.108	3726.54167
1475.225	3660.20833
1478.34	3612.875
1481.453	3630.20833
1484.563	3635.875
1487.671	3665.20833
1490.776	3749.54167
1493.88	3818.875
1496.981	3932.20833
1500.08	3995.20833
1503.176	4079.54167
1506.271	4127.54167
1509.363	4220.875
1512.452	4276.875
1515.54	4300.875
1518.625	4437.54167
1521.708	4621.875
1524.789	4855.54167
1527.867	5168.875
1530.944	5474.875
1534.018	5731.54167
1537.089	5840.875
1540.159	5781.875
1543.226	5641.54167
1546.291	5433.20833
1549.354	5219.54167
1552.415	5071.20833
1555.473	4971.20833
1558.529	4862.54167
1561.583	4836.20833
1564.634	4791.54167
1567.684	4784.20833
1570.731	4807.54167
1573.776	4837.875
1576.819	4916.875
1579.859	4959.20833
1582.898	4995.875
1585.934	5081.875
1588.968	5080.875
1591.999	5069.54167
1595.029	5070.875
1598.056	5061.875
1601.081	5088.54167
1604.104	5057.875
1607.125	5013.54167
1610.144	4891.20833
1613.16	4786.875
1616.174	4672.875
1619.186	4560.875
1622.196	4427.54167
1625.203	4343.54167
1628.209	4276.20833
1631.212	4233.875
1634.213	4209.875
1637.212	4142.54167
1640.209	4077.54167
1643.203	3982.875
1646.196	3885.20833
1649.186	3707.54167
1652.174	3598.54167
1655.16	3486.54167
1658.144	3379.875
1661.125	3219.875
1664.105	3062.20833
1667.082	2911.20833
1670.057	2742.54167
1673.03	2593.20833
1676.001	2419.875
1678.97	2253.20833
1681.937	2132.54167
1684.901	2018.875
1687.863	1954.875
1690.824	1863.54167
1693.782	1836.54167
1696.738	1768.54167
1699.692	1718.875
1702.643	1685.54167
1705.593	1658.54167
1708.54	1644.54167
1711.486	1639.20833
1714.429	1583.875
1717.37	1589.54167
1720.309	1558.875
1723.246	1566.20833
1726.181	1506.20833
1729.113	1517.875
1732.044	1497.875
1734.972	1488.875
1737.899	1481.54167
1740.823	1481.20833
1743.745	1469.875
1746.665	1419.20833
1749.583	1395.20833
1752.499	1370.20833
1755.413	1354.875
1758.325	1326.20833
1761.235	1322.20833
1764.142	1289.20833
1767.048	1294.20833
1769.951	1283.54167
1772.852	1271.54167
1775.752	1255.20833
1778.649	1251.875
1781.544	1263.54167
1784.437	1231.875
1787.328	1247.54167
1790.217	1244.875
1793.104	1204.54167
1795.989	1199.875
1798.872	1193.54167
1801.753	1213.20833
1804.631	1214.54167
1807.508	1204.54167
1810.383	1207.875
1813.255	1187.54167
1816.126	1192.875
1818.994	1182.20833
1821.861	1166.20833
1824.725	1159.54167
1827.587	1165.54167
1830.448	1158.54167
1833.306	1133.875
1836.162	1145.20833
1839.017	1133.54167
1841.869	1139.875
1844.719	1119.20833
1847.567	1114.875
1850.414	1103.20833
1853.258	1118.54167
1856.1	1117.20833
1858.94	1110.875
1861.778	1112.54167
1864.614	1112.875
1867.448	1104.54167
1870.28	1087.875
1873.111	1112.875
1875.939	1102.20833
1878.765	1122.20833
1881.589	1083.875
1884.411	1092.20833
1887.231	1092.875
1890.049	1083.54167
1892.865	1092.875
1895.68	1079.875
1898.492	1067.875
1901.302	1067.875
1904.11	1061.54167
1906.916	1057.20833
1909.721	1055.20833
1912.523	1056.875
1915.323	1042.20833
1918.122	1044.875
1920.918	1046.20833
1923.712	1041.20833
1926.505	1040.54167
1929.295	1037.54167
1932.084	1045.54167
1934.87	1050.54167
1937.655	1037.54167
1940.438	1012.875
1943.218	1011.875
1945.997	1022.54167
1948.774	1047.875
1951.549	1039.20833
1954.322	1017.20833
1957.093	1021.875
1959.862	1029.875
1962.629	1010.54167
1965.394	1009.20833
1968.157	990.54167
1970.918	1008.54167
1973.678	1012.20833
1976.435	1005.20833
1979.19	980.875
1981.944	983.54167
1984.696	980.875
1987.445	977.20833
1990.193	987.54167
1992.939	999.54167
1995.683	985.875
1998.425	961.20833
2001.165	992.54167
2003.903	975.20833
2006.639	972.54167
2009.374	966.54167
2012.106	967.54167
2014.837	938.54167
2017.566	971.875
2020.292	968.875
2023.017	965.54167
2025.74	970.875
2028.461	939.875
2031.18	949.54167
2033.898	954.54167
2036.613	939.54167
2039.327	953.54167
2042.038	920.20833
2044.748	941.20833
2047.456	946.875
2050.162	931.875
2052.866	940.875
2055.568	937.20833
2058.268	929.54167
2060.967	944.54167
2063.663	919.875
2066.358	915.875
2069.051	912.875
2071.742	930.20833
2074.431	926.54167
2077.118	922.875
2079.804	914.875
2082.487	924.54167
2085.169	937.20833
2087.849	935.875
2090.527	922.875
2093.203	940.875
2095.877	936.875
2098.55	930.875
2101.22	952.875
2103.889	961.20833
2106.556	952.875
2109.221	980.875
2111.884	1006.20833
2114.546	1062.20833
2117.205	1120.54167
2119.863	1219.20833
2122.519	1289.54167
2125.173	1384.54167
2127.825	1462.875
2130.475	1524.54167
2133.124	1506.20833
2135.771	1455.875
2138.416	1411.875
2141.059	1323.54167
2143.7	1277.875
2146.339	1204.54167
2148.977	1141.54167
2151.613	1121.875
2154.247	1097.20833
2156.879	1060.20833
2159.51	1048.54167
2162.138	1012.54167
2164.765	1021.20833
2167.39	1016.20833
2170.013	1015.875
2172.634	1005.54167
2175.254	997.54167
2177.872	1021.54167
2180.488	968.875
2183.102	985.20833
2185.714	967.875
2188.325	931.54167
2190.934	940.20833
2193.541	929.54167
2196.146	906.20833
2198.75	897.54167
2201.351	887.875
2203.951	867.875
2206.549	874.875
2209.146	847.54167
2211.74	848.20833
2214.333	847.20833
2216.924	819.20833
2219.514	837.20833
2222.101	824.54167
2224.687	839.875
2227.271	803.54167
2229.853	810.20833
2232.433	812.54167
2235.012	811.875
2237.589	824.54167
2240.164	814.875
2242.738	809.20833
2245.309	789.20833
2247.879	785.20833
2250.448	794.54167
2253.014	760.875
2255.579	747.875
2258.142	753.54167
2260.703	733.20833
2263.262	747.20833
2265.82	732.20833
2268.376	746.875
2270.93	724.20833
2273.483	718.20833
2276.033	723.54167
2278.583	719.875
2281.13	711.20833
2283.675	697.875
2286.219	706.875
2288.761	711.20833
2291.302	704.875
2293.841	719.875
2296.377	689.875
2298.913	693.54167
2301.446	711.875
2303.978	688.54167
2306.508	682.20833
2309.037	690.54167
2311.563	696.54167
2314.088	684.875
2316.612	674.54167
2319.133	682.20833
2321.653	667.875
2324.171	670.875
2326.688	675.875
2329.202	670.20833
2331.715	671.875
2334.227	655.875
2336.736	648.875
2339.244	658.54167
2341.751	635.875
2344.255	654.875
2346.758	644.875
2349.259	641.20833
2351.759	652.54167
2354.257	638.875
2356.753	637.20833
2359.247	645.20833
2361.74	643.54167
2364.231	643.54167
2366.721	645.875
2369.209	628.54167
2371.695	623.20833
2374.179	624.875
2376.662	621.20833
2379.143	636.54167
2381.622	625.875
2384.1	628.875
2386.576	624.54167
2389.051	631.20833
2391.524	648.20833
2393.995	636.20833
2396.464	627.20833
2398.932	622.20833
2401.398	617.20833
2403.863	612.54167
2406.325	609.875
2408.787	600.54167
2411.246	614.875
2413.704	596.875
2416.16	602.875
2418.615	605.54167
2421.068	613.20833
2423.519	607.54167
2425.969	598.54167
2428.417	613.54167
2430.863	618.20833
2433.308	609.54167
2435.751	603.20833
2438.193	594.54167
2440.633	602.20833
2443.071	600.20833
2445.508	578.20833
2447.943	591.20833
2450.376	577.54167
2452.808	597.54167
2455.238	580.20833
2457.667	610.54167
2460.093	578.875
2462.519	566.54167
2464.942	572.875
2467.365	581.54167
2469.785	576.20833
2472.204	584.20833
2474.621	566.875
2477.037	580.20833
2479.451	562.875
2481.863	567.20833
2484.274	557.875
2486.683	566.54167
2489.091	568.875
2491.497	567.54167
2493.901	562.54167
2496.304	564.875
2498.705	566.20833
2501.105	549.54167
2503.503	585.20833
2505.899	548.875
2508.294	571.20833
2510.687	550.54167
2513.079	547.875
2515.469	546.54167
2517.858	549.20833
2520.245	562.54167
2522.63	549.54167
2525.014	546.875
2527.396	534.54167
2529.776	530.875
2532.156	550.20833
2534.533	529.875
2536.909	536.54167
2539.283	519.875
2541.656	530.20833
2544.027	547.54167
2546.397	533.54167
2548.765	530.20833
2551.131	533.875
2553.496	534.54167
2555.86	543.875
2558.221	532.875
2560.582	526.54167
2562.94	508.875
2565.298	518.875
2567.653	535.54167
2570.007	521.875
2572.36	531.54167
2574.711	516.875
2577.06	538.875
2579.408	523.54167
2581.754	525.20833
2584.099	522.20833
2586.442	519.20833
2588.784	525.54167
2591.124	524.20833
2593.463	516.875
2595.8	523.54167
2598.135	506.875
2600.469	514.20833
2602.802	527.20833
2605.133	522.20833
2607.462	501.20833
2609.79	500.54167
2612.116	526.20833
2614.441	512.20833
2616.764	517.20833
2619.086	512.20833
2621.406	512.20833
2623.725	523.875
2626.042	509.875
2628.358	511.875
2630.672	504.20833
2632.985	522.54167
2635.296	517.20833
2637.606	513.20833
2639.914	503.54167
2642.22	506.20833
2644.525	500.20833
2646.829	514.875
2649.131	521.54167
2651.432	526.20833
2653.731	522.875
2656.028	535.20833
2658.324	521.20833
2660.619	501.54167
2662.912	518.20833
2665.204	502.875
2667.494	522.875
2669.782	512.20833
2672.07	526.875
2674.355	530.54167
2676.639	511.875
2678.922	505.54167
2681.203	523.875
2683.483	510.54167
2685.761	507.20833
2688.038	514.875
2690.313	523.20833
2692.587	520.875
2694.859	513.54167
2697.13	520.20833
2699.399	523.875
2701.667	539.20833
2703.933	540.54167
2706.198	536.54167
2708.461	541.54167
2710.723	537.54167
2712.984	536.875
2715.243	547.875
2717.5	545.20833
2719.757	566.54167
2722.011	554.54167
2724.264	567.875
2726.516	572.54167
2728.766	560.54167
2731.015	561.875
2733.262	557.54167
2735.508	546.54167
2737.753	553.875
2739.996	531.54167
2742.237	532.54167
2744.477	547.54167
2746.716	548.20833
2748.953	546.875
2751.189	540.20833
2753.423	523.54167
2755.656	526.875
2757.887	515.875
2760.117	525.20833
2762.346	509.54167
2764.573	507.54167
2766.798	507.875
2769.022	519.875
2771.245	519.20833
2773.467	516.54167
2775.686	526.875
2777.905	532.54167
2780.122	537.20833
2782.337	534.20833
2784.552	535.20833
2786.764	543.20833
2788.976	540.20833
2791.186	570.875
2793.394	568.20833
2795.601	569.54167
2797.807	569.20833
2800.011	580.20833
2802.214	594.20833
2804.415	593.54167
2806.615	600.54167
2808.814	606.875
2811.011	617.875
2813.206	623.875
2815.401	641.54167
2817.594	659.54167
2819.785	661.875
2821.975	651.875
2824.164	669.875
2826.351	695.54167
2828.537	714.875
2830.722	728.20833
2832.905	736.54167
2835.086	783.20833
2837.267	824.20833
2839.445	855.875
2841.623	879.875
2843.799	928.875
2845.974	974.875
2848.147	1015.54167
2850.319	1055.54167
2852.489	1093.20833
2854.659	1101.20833
2856.826	1122.54167
2858.993	1145.875
2861.158	1129.20833
2863.321	1136.875
2865.483	1147.54167
2867.644	1166.20833
2869.804	1152.20833
2871.962	1145.54167
2874.118	1145.54167
2876.274	1153.875
2878.428	1138.54167
2880.58	1142.54167
2882.731	1126.875
2884.881	1121.875
2887.03	1134.20833
2889.177	1147.875
2891.322	1161.20833
2893.467	1144.20833
2895.61	1152.54167
2897.751	1167.875
2899.892	1172.20833
2902.03	1174.20833
2904.168	1179.875
2906.304	1189.875
2908.439	1216.875
2910.572	1182.54167
2912.704	1205.20833
2914.835	1213.54167
2916.965	1212.54167
2919.093	1221.875
2921.219	1178.20833
2923.345	1205.20833
2925.469	1177.20833
2927.591	1147.20833
2929.712	1117.20833
2931.832	1112.875
2933.951	1084.54167
2936.068	1057.875
2938.184	1019.875
2940.299	973.20833
2942.412	949.20833
2944.524	897.20833
2946.634	886.20833
2948.744	821.20833
2950.851	834.875
2952.958	784.54167
2955.063	770.875
2957.167	748.54167
2959.269	712.20833
2961.371	730.54167
2963.471	684.54167
2965.569	692.54167
2967.666	641.20833
2969.762	637.20833
2971.857	614.20833
2973.95	582.54167
2976.042	577.20833
2978.133	564.20833
2980.222	551.20833
2982.31	520.875
2984.396	500.875
2986.482	499.20833
2988.566	500.54167
2990.648	490.54167
2992.73	486.54167
2994.81	468.54167
2996.889	467.875
2998.966	450.20833
3001.042	460.875
3003.117	451.875
3005.191	452.875
3007.263	442.875
3009.334	430.875
3011.403	433.54167
3013.472	405.875
3015.539	413.875
3017.604	424.54167
3019.669	389.875
3021.732	392.875
3023.794	389.875
3025.854	373.875
3027.914	361.54167
3029.971	385.54167
3032.028	373.20833
3034.083	371.54167
3036.137	370.20833
3038.19	347.875
3040.242	335.20833
3042.292	336.54167
3044.341	331.875
3046.388	346.875
3048.435	313.20833
3050.48	329.54167
3052.524	337.20833
3054.566	315.20833
3056.607	331.20833
3058.647	311.875
3060.686	287.54167
3062.723	291.54167
3064.759	276.875
3066.794	-1.45833
3068.828	-0.45833
3070.86	-2.125
