-0.839	442.125
3.438	451.125
7.711	120.45833
11.981	52.45833
16.247	46.45833
20.509	43.79167
24.768	44.79167
29.024	51.45833
33.276	43.45833
37.524	57.79167
41.769	42.45833
46.01	40.45833
50.247	54.125
54.481	59.125
58.712	66.79167
62.939	49.79167
67.162	67.125
71.382	62.45833
75.599	49.79167
79.812	69.125
84.021	83.125
88.227	64.79167
92.429	65.45833
96.628	58.79167
100.823	72.79167
105.015	81.79167
109.204	84.125
113.388	84.45833
117.57	81.45833
121.748	98.45833
125.922	91.45833
130.093	110.125
134.261	116.45833
138.425	118.125
142.585	153.79167
146.742	158.125
150.896	193.45833
155.046	239.45833
159.193	394.125
163.336	662.125
167.476	1226.45833
171.613	2284.125
175.746	3788.79167
179.875	5649.45833
184.002	7352.45833
188.124	8546.79167
192.244	8856.79167
196.36	8762.45833
200.472	8496.125
204.581	8245.125
208.687	8056.125
212.79	7991.125
216.889	8020.79167
220.984	8109.79167
225.077	8232.79167
229.165	8346.125
233.251	8445.125
237.333	8520.45833
241.412	8527.45833
245.487	8468.45833
249.559	8377.45833
253.628	8332.79167
257.694	8213.45833
261.756	8143.45833
265.814	7945.45833
269.87	7704.45833
273.922	7461.125
277.97	7223.45833
282.016	7033.45833
286.058	6926.125
290.097	6909.45833
294.132	6834.45833
298.164	6708.45833
302.193	6415.125
306.219	5910.125
310.241	5351.79167
314.26	4869.125
318.276	4470.45833
322.288	4177.79167
326.297	3935.125
330.303	3750.45833
334.305	3632.45833
338.305	3553.125
342.301	3484.79167
346.294	3449.125
350.283	3407.45833
354.269	3355.125
358.252	3332.125
362.232	3330.125
366.209	3287.79167
370.182	3250.125
374.152	3234.79167
378.119	3220.79167
382.083	3214.125
386.043	3206.45833
390	3187.79167
393.954	3162.125
397.905	3131.79167
401.852	3117.79167
405.797	3086.125
409.738	3053.125
413.676	2989.45833
417.61	2966.45833
421.542	2959.125
425.47	2938.79167
429.396	2898.45833
433.318	2862.125
437.236	2871.79167
441.152	2860.45833
445.065	2831.45833
448.974	2810.125
452.88	2802.79167
456.783	2758.125
460.683	2737.79167
464.58	2740.45833
468.473	2738.45833
472.364	2746.125
476.251	2754.45833
480.135	2766.125
484.016	2792.45833
487.894	2811.45833
491.769	2822.79167
495.641	2811.79167
499.509	2835.45833
503.375	2849.125
507.237	2812.79167
511.096	2790.45833
514.952	2802.45833
518.805	2829.125
522.655	2818.125
526.502	2786.125
530.346	2797.125
534.187	2802.125
538.024	2816.45833
541.859	2842.79167
545.69	2870.79167
549.519	2813.45833
553.344	2801.79167
557.166	2771.125
560.985	2738.45833
564.802	2681.125
568.615	2658.45833
572.425	2615.45833
576.232	2603.45833
580.036	2604.45833
583.836	2609.79167
587.634	2588.45833
591.429	2615.125
595.221	2655.125
599.01	2664.125
602.796	2720.79167
606.578	2718.125
610.358	2744.79167
614.135	2724.45833
617.909	2740.45833
621.679	2695.125
625.447	2692.45833
629.212	2691.125
632.973	2713.45833
636.732	2714.45833
640.488	2706.125
644.241	2671.125
647.991	2652.79167
651.737	2691.79167
655.481	2644.125
659.222	2649.45833
662.96	2640.79167
666.695	2678.79167
670.427	2696.125
674.156	2711.125
677.882	2696.45833
681.605	2668.45833
685.325	2660.79167
689.043	2676.45833
692.757	2647.45833
696.468	2648.79167
700.177	2657.45833
703.882	2646.79167
707.585	2645.125
711.284	2655.79167
714.981	2642.45833
718.675	2661.79167
722.366	2687.45833
726.054	2632.79167
729.739	2659.125
733.421	2666.125
737.1	2673.79167
740.777	2682.79167
744.45	2685.125
748.121	2722.79167
751.789	2780.79167
755.453	2758.45833
759.115	2790.45833
762.774	2796.45833
766.431	2841.125
770.084	2861.79167
773.734	2899.45833
777.382	2974.125
781.027	2989.79167
784.669	3018.79167
788.308	3026.79167
791.944	3054.125
795.577	3066.45833
799.208	3098.79167
802.835	3123.45833
806.46	3168.45833
810.082	3175.79167
813.701	3204.125
817.317	3220.79167
820.931	3234.125
824.542	3212.79167
828.149	3203.45833
831.754	3159.45833
835.357	3145.79167
838.956	3154.45833
842.553	3129.79167
846.146	3116.45833
849.737	3116.125
853.326	3106.79167
856.911	3144.79167
860.493	3176.125
864.073	3180.79167
867.65	3239.45833
871.225	3274.125
874.796	3259.79167
878.365	3285.125
881.931	3329.45833
885.494	3339.45833
889.054	3337.79167
892.612	3311.45833
896.166	3311.45833
899.719	3275.45833
903.268	3234.45833
906.814	3234.79167
910.358	3216.125
913.899	3219.79167
917.438	3243.79167
920.973	3184.125
924.506	3256.125
928.036	3290.125
931.564	3317.79167
935.088	3356.79167
938.61	3371.125
942.129	3428.45833
945.646	3514.45833
949.16	3608.45833
952.671	3690.45833
956.179	3707.45833
959.685	3673.79167
963.188	3662.45833
966.688	3585.79167
970.185	3487.125
973.68	3437.79167
977.173	3390.45833
980.662	3359.125
984.149	3378.79167
987.633	3392.45833
991.114	3421.79167
994.593	3534.45833
998.069	3624.45833
1001.542	3755.45833
1005.013	3666.79167
1008.481	3477.45833
1011.947	3416.79167
1015.409	3397.79167
1018.869	3396.125
1022.327	3400.45833
1025.782	3356.125
1029.234	3373.79167
1032.683	3350.45833
1036.13	3198.79167
1039.574	3092.45833
1043.016	3023.79167
1046.455	2960.45833
1049.891	2933.45833
1053.325	2917.125
1056.756	2961.125
1060.184	2966.79167
1063.61	2980.45833
1067.033	2998.125
1070.454	2976.79167
1073.872	3014.45833
1077.287	3029.45833
1080.7	3009.45833
1084.11	3032.79167
1087.517	3021.45833
1090.922	2963.45833
1094.325	2958.125
1097.724	2929.125
1101.122	2921.125
1104.516	2931.79167
1107.908	2942.45833
1111.298	2973.125
1114.684	3001.79167
1118.069	3044.125
1121.45	3069.125
1124.83	3060.45833
1128.206	3077.125
1131.58	3145.125
1134.951	3236.45833
1138.32	3352.79167
1141.687	3475.79167
1145.05	3572.125
1148.412	3590.125
1151.77	3587.79167
1155.126	3601.125
1158.48	3575.45833
1161.831	3611.79167
1165.18	3627.79167
1168.525	3697.79167
1171.869	3737.125
1175.21	3766.79167
1178.548	3826.79167
1181.884	3869.45833
1185.217	3877.79167
1188.548	3995.79167
1191.877	4033.125
1195.202	4118.79167
1198.526	4168.125
1201.846	4182.45833
1205.165	4170.45833
1208.48	4139.45833
1211.794	4121.125
1215.104	4079.45833
1218.413	4114.45833
1221.719	4077.45833
1225.022	4042.79167
1228.323	4035.79167
1231.621	4024.79167
1234.917	3996.45833
1238.21	4042.45833
1241.501	4003.125
1244.79	4001.79167
1248.076	4013.45833
1251.359	4044.79167
1254.64	4100.79167
1257.919	4165.45833
1261.195	4206.79167
1264.468	4299.79167
1267.74	4356.125
1271.008	4362.79167
1274.275	4367.125
1277.538	4342.125
1280.8	4334.79167
1284.059	4317.45833
1287.315	4355.79167
1290.569	4392.79167
1293.821	4402.45833
1297.07	4427.45833
1300.317	4434.79167
1303.562	4428.79167
1306.803	4400.45833
1310.043	4359.79167
1313.28	4314.125
1316.515	4273.45833
1319.747	4234.79167
1322.977	4151.45833
1326.204	4078.125
1329.429	4027.125
1332.652	4008.45833
1335.872	3991.79167
1339.09	3966.79167
1342.306	3941.45833
1345.519	3912.79167
1348.729	3885.45833
1351.938	3858.45833
1355.144	3789.45833
1358.347	3760.79167
1361.548	3733.45833
1364.747	3783.45833
1367.944	3759.125
1371.138	3780.45833
1374.329	3811.125
1377.518	3852.45833
1380.705	3898.45833
1383.89	3890.125
1387.072	3738.45833
1390.252	3610.45833
1393.429	3499.79167
1396.605	3398.45833
1399.777	3283.125
1402.948	3265.45833
1406.116	3232.79167
1409.282	3243.45833
1412.445	3256.79167
1415.606	3278.125
1418.765	3299.79167
1421.921	3408.79167
1425.075	3495.45833
1428.227	3623.45833
1431.376	3779.125
1434.524	3924.79167
1437.668	4019.45833
1440.811	4028.79167
1443.951	4087.125
1447.089	4084.79167
1450.224	4095.125
1453.357	4043.125
1456.488	4039.45833
1459.617	3957.45833
1462.743	3929.79167
1465.867	3818.45833
1468.989	3793.45833
1472.108	3742.45833
1475.225	3706.125
1478.34	3683.125
1481.453	3654.45833
1484.563	3656.45833
1487.671	3703.79167
1490.776	3772.125
1493.88	3857.79167
1496.981	3979.79167
1500.08	4020.79167
1503.176	4095.45833
1506.271	4150.79167
1509.363	4212.45833
1512.452	4244.125
1515.54	4364.45833
1518.625	4459.125
1521.708	4647.45833
1524.789	4890.79167
1527.867	5171.79167
1530.944	5502.45833
1534.018	5770.125
1537.089	5896.79167
1540.159	5795.79167
1543.226	5681.45833
1546.291	5458.79167
1549.354	5271.79167
1552.415	5106.79167
1555.473	4962.125
1558.529	4901.45833
1561.583	4831.45833
1564.634	4815.79167
1567.684	4828.79167
1570.731	4838.45833
1573.776	4874.125
1576.819	4934.45833
1579.859	4991.45833
1582.898	5025.79167
1585.934	5098.125
1588.968	5105.125
1591.999	5088.79167
1595.029	5079.45833
1598.056	5127.79167
1601.081	5125.125
1604.104	5085.79167
1607.125	5041.45833
1610.144	4938.125
1613.16	4811.79167
1616.174	4693.125
1619.186	4563.45833
1622.196	4458.79167
1625.203	4353.125
1628.209	4290.45833
1631.212	4220.125
1634.213	4179.45833
1637.212	4155.45833
1640.209	4082.45833
1643.203	3962.79167
1646.196	3848.125
1649.186	3712.45833
1652.174	3566.45833
1655.16	3472.45833
1658.144	3352.79167
1661.125	3206.79167
1664.105	3043.125
1667.082	2917.45833
1670.057	2721.45833
1673.03	2560.79167
1676.001	2427.125
1678.97	2260.125
1681.937	2137.79167
1684.901	2003.125
1687.863	1928.45833
1690.824	1884.45833
1693.782	1833.79167
1696.738	1749.79167
1699.692	1716.125
1702.643	1687.45833
1705.593	1657.125
1708.54	1641.125
1711.486	1628.45833
1714.429	1580.45833
1717.37	1587.79167
1720.309	1555.125
1723.246	1553.79167
1726.181	1517.125
1729.113	1537.125
1732.044	1494.45833
1734.972	1479.79167
1737.899	1479.125
1740.823	1461.79167
1743.745	1471.125
1746.665	1415.45833
1749.583	1383.79167
1752.499	1367.125
1755.413	1365.125
1758.325	1329.45833
1761.235	1324.45833
1764.142	1296.79167
1767.048	1277.125
1769.951	1271.79167
1772.852	1264.125
1775.752	1273.125
1778.649	1255.125
1781.544	1261.45833
1784.437	1229.45833
1787.328	1244.79167
1790.217	1223.45833
1793.104	1190.45833
1795.989	1198.45833
1798.872	1191.45833
1801.753	1224.79167
1804.631	1213.45833
1807.508	1211.125
1810.383	1191.125
1813.255	1196.45833
1816.126	1172.45833
1818.994	1176.45833
1821.861	1164.79167
1824.725	1166.125
1827.587	1166.45833
1830.448	1164.45833
1833.306	1131.45833
1836.162	1140.125
1839.017	1125.125
1841.869	1131.45833
1844.719	1131.79167
1847.567	1107.79167
1850.414	1120.125
1853.258	1109.125
1856.1	1132.45833
1858.94	1123.79167
1861.778	1120.125
1864.614	1107.125
1867.448	1104.125
1870.28	1100.79167
1873.111	1123.79167
1875.939	1109.125
1878.765	1109.45833
1881.589	1094.45833
1884.411	1090.79167
1887.231	1111.45833
1890.049	1090.79167
1892.865	1088.45833
1895.68	1077.79167
1898.492	1071.79167
1901.302	1061.45833
1904.11	1063.79167
1906.916	1054.79167
1909.721	1050.125
1912.523	1058.45833
1915.323	1046.79167
1918.122	1048.45833
1920.918	1048.125
1923.712	1047.45833
1926.505	1032.125
1929.295	1021.45833
1932.084	1043.79167
1934.87	1045.79167
1937.655	1021.45833
1940.438	1028.45833
1943.218	1041.45833
1945.997	1041.79167
1948.774	1053.79167
1951.549	1031.45833
1954.322	1023.125
1957.093	1027.45833
1959.862	1012.79167
1962.629	1016.45833
1965.394	1007.79167
1968.157	985.45833
1970.918	1007.45833
1973.678	996.125
1976.435	1003.45833
1979.19	998.79167
1981.944	986.125
1984.696	975.79167
1987.445	975.79167
1990.193	986.125
1992.939	990.45833
1995.683	985.45833
1998.425	950.79167
2001.165	992.125
2003.903	970.45833
2006.639	968.79167
2009.374	960.45833
2012.106	970.79167
2014.837	945.79167
2017.566	960.79167
2020.292	969.79167
2023.017	969.79167
2025.74	957.79167
2028.461	948.45833
2031.18	963.125
2033.898	952.45833
2036.613	961.45833
2039.327	947.45833
2042.038	934.45833
2044.748	938.45833
2047.456	934.45833
2050.162	917.45833
2052.866	914.125
2055.568	932.79167
2058.268	925.125
2060.967	934.79167
2063.663	912.45833
2066.358	919.125
2069.051	917.125
2071.742	916.45833
2074.431	925.45833
2077.118	911.45833
2079.804	903.125
2082.487	917.45833
2085.169	935.125
2087.849	948.79167
2090.527	929.45833
2093.203	947.125
2095.877	936.79167
2098.55	947.45833
2101.22	955.79167
2103.889	969.45833
2106.556	959.79167
2109.221	973.125
2111.884	1018.79167
2114.546	1073.79167
2117.205	1133.79167
2119.863	1213.45833
2122.519	1295.125
2125.173	1392.79167
2127.825	1496.45833
2130.475	1541.45833
2133.124	1507.45833
2135.771	1471.79167
2138.416	1408.125
2141.059	1338.125
2143.7	1286.125
2146.339	1189.45833
2148.977	1144.79167
2151.613	1122.79167
2154.247	1083.79167
2156.879	1072.79167
2159.51	1044.45833
2162.138	1017.125
2164.765	1022.45833
2167.39	1014.79167
2170.013	1031.79167
2172.634	1003.45833
2175.254	1000.125
2177.872	1023.125
2180.488	983.79167
2183.102	983.125
2185.714	964.125
2188.325	943.125
2190.934	936.125
2193.541	933.79167
2196.146	904.45833
2198.75	894.79167
2201.351	882.45833
2203.951	862.79167
2206.549	889.125
2209.146	863.79167
2211.74	845.79167
2214.333	854.125
2216.924	829.79167
2219.514	836.45833
2222.101	826.125
2224.687	837.125
2227.271	809.45833
2229.853	797.45833
2232.433	790.79167
2235.012	824.79167
2237.589	821.125
2240.164	815.79167
2242.738	808.125
2245.309	795.125
2247.879	788.125
2250.448	784.79167
2253.014	764.79167
2255.579	747.125
2258.142	750.125
2260.703	731.45833
2263.262	736.125
2265.82	741.79167
2268.376	743.125
2270.93	722.79167
2273.483	714.125
2276.033	732.45833
2278.583	720.79167
2281.13	716.125
2283.675	693.79167
2286.219	710.125
2288.761	705.125
2291.302	710.45833
2293.841	715.125
2296.377	681.79167
2298.913	694.79167
2301.446	704.45833
2303.978	691.45833
2306.508	685.125
2309.037	683.79167
2311.563	687.45833
2314.088	688.45833
2316.612	658.79167
2319.133	696.125
2321.653	669.79167
2324.171	666.79167
2326.688	683.125
2329.202	658.45833
2331.715	668.79167
2334.227	664.79167
2336.736	652.45833
2339.244	645.125
2341.751	641.79167
2344.255	664.79167
2346.758	654.125
2349.259	639.45833
2351.759	649.79167
2354.257	635.125
2356.753	641.45833
2359.247	638.125
2361.74	641.125
2364.231	631.79167
2366.721	649.125
2369.209	639.79167
2371.695	635.79167
2374.179	634.45833
2376.662	625.45833
2379.143	646.125
2381.622	626.45833
2384.1	629.79167
2386.576	622.45833
2389.051	640.79167
2391.524	636.79167
2393.995	636.79167
2396.464	615.125
2398.932	609.45833
2401.398	623.125
2403.863	611.125
2406.325	609.79167
2408.787	619.45833
2411.246	607.45833
2413.704	606.45833
2416.16	607.125
2418.615	598.45833
2421.068	614.79167
2423.519	608.79167
2425.969	602.125
2428.417	613.125
2430.863	618.125
2433.308	613.125
2435.751	598.125
2438.193	599.45833
2440.633	599.79167
2443.071	606.45833
2445.508	579.125
2447.943	596.125
2450.376	590.45833
2452.808	593.79167
2455.238	573.79167
2457.667	611.125
2460.093	581.125
2462.519	567.79167
2464.942	575.125
2467.365	582.45833
2469.785	585.79167
2472.204	580.125
2474.621	576.79167
2477.037	598.125
2479.451	559.79167
2481.863	566.79167
2484.274	565.125
2486.683	559.125
2489.091	561.125
2491.497	569.45833
2493.901	567.79167
2496.304	552.79167
2498.705	563.45833
2501.105	556.79167
2503.503	591.45833
2505.899	553.125
2508.294	567.125
2510.687	556.125
2513.079	547.125
2515.469	549.45833
2517.858	552.79167
2520.245	564.125
2522.63	544.79167
2525.014	538.45833
2527.396	546.45833
2529.776	538.45833
2532.156	542.125
2534.533	530.125
2536.909	534.45833
2539.283	523.45833
2541.656	524.125
2544.027	554.125
2546.397	536.45833
2548.765	528.125
2551.131	535.125
2553.496	531.125
2555.86	540.125
2558.221	534.45833
2560.582	525.79167
2562.94	522.45833
2565.298	527.79167
2567.653	540.45833
2570.007	519.45833
2572.36	534.79167
2574.711	522.45833
2577.06	537.45833
2579.408	524.125
2581.754	519.79167
2584.099	520.45833
2586.442	515.125
2588.784	530.45833
2591.124	528.45833
2593.463	521.125
2595.8	517.79167
2598.135	498.45833
2600.469	517.125
2602.802	532.45833
2605.133	524.79167
2607.462	510.45833
2609.79	513.125
2612.116	519.125
2614.441	512.79167
2616.764	510.79167
2619.086	507.79167
2621.406	505.79167
2623.725	523.125
2626.042	515.45833
2628.358	506.79167
2630.672	510.45833
2632.985	526.125
2635.296	514.125
2637.606	519.45833
2639.914	501.125
2642.22	513.45833
2644.525	503.125
2646.829	509.79167
2649.131	527.79167
2651.432	518.79167
2653.731	504.125
2656.028	530.79167
2658.324	518.45833
2660.619	504.125
2662.912	515.125
2665.204	502.79167
2667.494	530.79167
2669.782	507.79167
2672.07	527.45833
2674.355	533.45833
2676.639	524.125
2678.922	507.125
2681.203	520.45833
2683.483	507.45833
2685.761	498.125
2688.038	531.125
2690.313	531.45833
2692.587	522.125
2694.859	516.79167
2697.13	524.79167
2699.399	520.125
2701.667	542.125
2703.933	536.79167
2706.198	543.45833
2708.461	543.79167
2710.723	555.79167
2712.984	551.125
2715.243	557.79167
2717.5	547.79167
2719.757	562.79167
2722.011	561.45833
2724.264	560.79167
2726.516	582.125
2728.766	561.125
2731.015	554.125
2733.262	559.45833
2735.508	564.45833
2737.753	563.45833
2739.996	537.45833
2742.237	546.45833
2744.477	546.125
2746.716	548.79167
2748.953	541.125
2751.189	544.45833
2753.423	531.125
2755.656	533.125
2757.887	512.45833
2760.117	526.45833
2762.346	515.45833
2764.573	512.45833
2766.798	507.125
2769.022	529.125
2771.245	521.45833
2773.467	526.45833
2775.686	525.125
2777.905	536.79167
2780.122	535.79167
2782.337	547.79167
2784.552	536.45833
2786.764	550.125
2788.976	559.45833
2791.186	562.79167
2793.394	564.125
2795.601	581.125
2797.807	574.125
2800.011	589.125
2802.214	591.79167
2804.415	593.125
2806.615	602.45833
2808.814	608.79167
2811.011	625.45833
2813.206	625.45833
2815.401	636.45833
2817.594	645.45833
2819.785	662.45833
2821.975	664.79167
2824.164	671.45833
2826.351	691.45833
2828.537	707.45833
2830.722	737.125
2832.905	737.125
2835.086	786.79167
2837.267	823.125
2839.445	858.79167
2841.623	886.125
2843.799	931.79167
2845.974	972.79167
2848.147	1021.45833
2850.319	1055.125
2852.489	1089.79167
2854.659	1103.45833
2856.826	1126.79167
2858.993	1143.45833
2861.158	1152.45833
2863.321	1140.45833
2865.483	1169.125
2867.644	1172.79167
2869.804	1149.45833
2871.962	1134.45833
2874.118	1147.125
2876.274	1131.45833
2878.428	1154.45833
2880.58	1121.125
2882.731	1126.79167
2884.881	1142.79167
2887.03	1135.125
2889.177	1133.45833
2891.322	1143.45833
2893.467	1147.125
2895.61	1139.45833
2897.751	1176.45833
2899.892	1174.79167
2902.03	1176.125
2904.168	1196.79167
2906.304	1199.79167
2908.439	1228.45833
2910.572	1197.125
2912.704	1209.45833
2914.835	1215.45833
2916.965	1200.79167
2919.093	1231.45833
2921.219	1176.125
2923.345	1211.125
2925.469	1171.45833
2927.591	1159.45833
2929.712	1129.125
2931.832	1120.79167
2933.951	1083.125
2936.068	1060.79167
2938.184	1030.125
2940.299	985.45833
2942.412	970.45833
2944.524	910.45833
2946.634	890.79167
2948.744	830.45833
2950.851	853.45833
2952.958	785.45833
2955.063	780.125
2957.167	762.45833
2959.269	715.125
2961.371	735.79167
2963.471	689.45833
2965.569	688.125
2967.666	654.79167
2969.762	641.125
2971.857	603.45833
2973.95	587.125
2976.042	581.45833
2978.133	557.45833
2980.222	551.45833
2982.31	530.45833
2984.396	512.79167
2986.482	513.45833
2988.566	508.79167
2990.648	486.125
2992.73	484.79167
2994.81	473.125
2996.889	468.79167
2998.966	463.79167
3001.042	460.45833
3003.117	460.45833
3005.191	453.125
3007.263	436.125
3009.334	444.125
3011.403	425.79167
3013.472	405.45833
3015.539	412.45833
3017.604	420.45833
3019.669	382.125
3021.732	392.125
3023.794	385.45833
3025.854	371.79167
3027.914	367.45833
3029.971	376.45833
3032.028	375.125
3034.083	374.79167
3036.137	364.125
3038.19	356.125
3040.242	336.79167
3042.292	338.79167
3044.341	326.45833
3046.388	345.45833
3048.435	330.125
3050.48	347.125
3052.524	332.125
3054.566	311.45833
3056.607	320.125
3058.647	313.79167
3060.686	296.125
3062.723	291.79167
3064.759	278.79167
3066.794	1.125
3068.828	-3.875
3070.86	-1.20833
