-0.839	430.625
3.438	447.625
7.711	118.95833
11.981	55.625
16.247	46.29167
20.509	46.95833
24.768	43.625
29.024	52.95833
33.276	45.29167
37.524	48.95833
41.769	40.95833
46.01	36.625
50.247	53.29167
54.481	64.625
58.712	65.625
62.939	50.29167
67.162	64.625
71.382	58.29167
75.599	52.95833
79.812	65.29167
84.021	84.95833
88.227	62.29167
92.429	64.29167
96.628	51.625
100.823	69.625
105.015	79.95833
109.204	84.625
113.388	82.95833
117.57	80.95833
121.748	89.95833
125.922	85.625
130.093	108.95833
134.261	114.95833
138.425	104.29167
142.585	156.95833
146.742	160.625
150.896	189.625
155.046	234.95833
159.193	385.29167
163.336	656.625
167.476	1233.95833
171.613	2269.29167
175.746	3832.29167
179.875	5627.625
184.002	7339.625
188.124	8468.29167
192.244	8809.95833
196.36	8733.29167
200.472	8479.625
204.581	8237.95833
208.687	8023.95833
212.79	7988.95833
216.889	8000.625
220.984	8116.625
225.077	8211.95833
229.165	8359.95833
233.251	8444.29167
237.333	8484.625
241.412	8549.29167
245.487	8509.625
249.559	8423.95833
253.628	8325.29167
257.694	8228.95833
261.756	8133.95833
265.814	7961.625
269.87	7688.625
273.922	7415.95833
277.97	7211.625
282.016	7047.29167
286.058	6904.29167
290.097	6864.29167
294.132	6798.29167
298.164	6694.29167
302.193	6386.625
306.219	5911.625
310.241	5334.95833
314.26	4862.95833
318.276	4425.29167
322.288	4135.29167
326.297	3917.625
330.303	3752.29167
334.305	3626.625
338.305	3537.95833
342.301	3463.95833
346.294	3447.95833
350.283	3400.95833
354.269	3390.29167
358.252	3343.625
362.232	3312.29167
366.209	3287.625
370.182	3260.95833
374.152	3242.29167
378.119	3235.95833
382.083	3229.625
386.043	3247.95833
390	3186.95833
393.954	3174.29167
397.905	3115.29167
401.852	3110.625
405.797	3081.95833
409.738	3023.29167
413.676	3028.95833
417.61	3000.29167
421.542	2965.95833
425.47	2922.625
429.396	2880.95833
433.318	2888.29167
437.236	2874.625
441.152	2885.95833
445.065	2821.95833
448.974	2821.29167
452.88	2785.625
456.783	2756.29167
460.683	2744.95833
464.58	2739.95833
468.473	2754.625
472.364	2755.95833
476.251	2784.95833
480.135	2773.29167
484.016	2798.29167
487.894	2825.625
491.769	2826.95833
495.641	2832.95833
499.509	2837.29167
503.375	2834.29167
507.237	2792.95833
511.096	2803.95833
514.952	2805.29167
518.805	2810.95833
522.655	2825.95833
526.502	2783.29167
530.346	2785.95833
534.187	2787.29167
538.024	2796.95833
541.859	2832.95833
545.69	2846.29167
549.519	2816.625
553.344	2807.625
557.166	2762.95833
560.985	2740.625
564.802	2684.95833
568.615	2659.625
572.425	2599.29167
576.232	2595.29167
580.036	2595.95833
583.836	2612.625
587.634	2628.625
591.429	2591.95833
595.221	2659.29167
599.01	2681.29167
602.796	2721.625
606.578	2733.625
610.358	2742.95833
614.135	2743.29167
617.909	2731.625
621.679	2673.29167
625.447	2707.29167
629.212	2689.625
632.973	2690.625
636.732	2670.625
640.488	2691.625
644.241	2639.95833
647.991	2646.29167
651.737	2671.625
655.481	2653.95833
659.222	2659.625
662.96	2666.29167
666.695	2683.625
670.427	2682.95833
674.156	2713.625
677.882	2696.625
681.605	2694.625
685.325	2642.95833
689.043	2657.95833
692.757	2658.95833
696.468	2663.95833
700.177	2679.95833
703.882	2653.625
707.585	2659.625
711.284	2642.95833
714.981	2645.29167
718.675	2665.625
722.366	2668.29167
726.054	2648.95833
729.739	2657.95833
733.421	2683.95833
737.1	2650.29167
740.777	2683.29167
744.45	2699.625
748.121	2708.95833
751.789	2779.625
755.453	2753.95833
759.115	2788.29167
762.774	2804.29167
766.431	2860.95833
770.084	2868.95833
773.734	2906.95833
777.382	2971.29167
781.027	3000.625
784.669	2998.29167
788.308	2997.29167
791.944	3048.95833
795.577	3048.625
799.208	3108.95833
802.835	3138.95833
806.46	3134.95833
810.082	3196.95833
813.701	3177.95833
817.317	3237.95833
820.931	3237.625
824.542	3232.29167
828.149	3190.625
831.754	3169.95833
835.357	3127.95833
838.956	3153.29167
842.553	3115.95833
846.146	3101.625
849.737	3080.29167
853.326	3095.95833
856.911	3099.29167
860.493	3166.625
864.073	3163.95833
867.65	3211.625
871.225	3259.95833
874.796	3263.29167
878.365	3276.625
881.931	3307.29167
885.494	3344.29167
889.054	3318.95833
892.612	3334.29167
896.166	3300.95833
899.719	3243.95833
903.268	3215.29167
906.814	3223.29167
910.358	3201.95833
913.899	3182.625
917.438	3198.625
920.973	3207.95833
924.506	3237.95833
928.036	3283.95833
931.564	3297.625
935.088	3344.95833
938.61	3350.95833
942.129	3408.29167
945.646	3498.95833
949.16	3564.95833
952.671	3680.625
956.179	3718.29167
959.685	3686.95833
963.188	3651.95833
966.688	3571.625
970.185	3503.95833
973.68	3405.95833
977.173	3381.95833
980.662	3378.29167
984.149	3372.95833
987.633	3363.625
991.114	3415.29167
994.593	3529.625
998.069	3634.29167
1001.542	3744.95833
1005.013	3645.29167
1008.481	3456.95833
1011.947	3388.29167
1015.409	3389.95833
1018.869	3397.29167
1022.327	3387.95833
1025.782	3372.95833
1029.234	3370.625
1032.683	3370.95833
1036.13	3209.625
1039.574	3069.29167
1043.016	3037.625
1046.455	2953.95833
1049.891	2917.625
1053.325	2933.29167
1056.756	2933.29167
1060.184	2967.625
1063.61	2963.95833
1067.033	2997.95833
1070.454	2999.29167
1073.872	3025.625
1077.287	3028.29167
1080.7	3044.625
1084.11	3040.625
1087.517	3006.95833
1090.922	2981.95833
1094.325	2924.95833
1097.724	2917.625
1101.122	2907.625
1104.516	2889.29167
1107.908	2903.29167
1111.298	2974.29167
1114.684	2998.95833
1118.069	3032.95833
1121.45	3054.29167
1124.83	3040.29167
1128.206	3059.29167
1131.58	3105.95833
1134.951	3196.95833
1138.32	3314.29167
1141.687	3464.95833
1145.05	3530.29167
1148.412	3593.29167
1151.77	3551.625
1155.126	3557.95833
1158.48	3556.29167
1161.831	3588.625
1165.18	3602.29167
1168.525	3666.95833
1171.869	3713.29167
1175.21	3749.29167
1178.548	3808.625
1181.884	3834.95833
1185.217	3885.625
1188.548	3941.29167
1191.877	4000.625
1195.202	4069.625
1198.526	4150.95833
1201.846	4141.95833
1205.165	4151.29167
1208.48	4092.625
1211.794	4078.29167
1215.104	4091.29167
1218.413	4084.29167
1221.719	4080.29167
1225.022	4048.29167
1228.323	3992.625
1231.621	4011.95833
1234.917	3982.29167
1238.21	4026.29167
1241.501	3980.625
1244.79	3986.625
1248.076	3973.625
1251.359	4005.29167
1254.64	4076.95833
1257.919	4104.29167
1261.195	4212.29167
1264.468	4248.625
1267.74	4350.625
1271.008	4391.625
1274.275	4333.29167
1277.538	4298.625
1280.8	4308.29167
1284.059	4282.625
1287.315	4334.29167
1290.569	4316.29167
1293.821	4374.95833
1297.07	4409.95833
1300.317	4425.95833
1303.562	4402.95833
1306.803	4378.29167
1310.043	4329.29167
1313.28	4313.625
1316.515	4251.625
1319.747	4222.625
1322.977	4137.95833
1326.204	4087.625
1329.429	4015.95833
1332.652	3974.29167
1335.872	3978.625
1339.09	3951.625
1342.306	3960.29167
1345.519	3908.29167
1348.729	3912.95833
1351.938	3858.625
1355.144	3813.29167
1358.347	3766.625
1361.548	3777.95833
1364.747	3769.29167
1367.944	3743.95833
1371.138	3767.95833
1374.329	3814.95833
1377.518	3852.29167
1380.705	3919.95833
1383.89	3873.29167
1387.072	3736.95833
1390.252	3631.95833
1393.429	3491.95833
1396.605	3381.29167
1399.777	3296.625
1402.948	3282.95833
1406.116	3230.625
1409.282	3219.95833
1412.445	3250.95833
1415.606	3274.625
1418.765	3331.29167
1421.921	3357.625
1425.075	3487.29167
1428.227	3592.95833
1431.376	3760.95833
1434.524	3901.95833
1437.668	3983.95833
1440.811	4007.625
1443.951	4049.625
1447.089	4059.625
1450.224	4058.95833
1453.357	4049.625
1456.488	4013.625
1459.617	3945.95833
1462.743	3893.95833
1465.867	3833.625
1468.989	3788.625
1472.108	3721.625
1475.225	3652.29167
1478.34	3606.95833
1481.453	3619.29167
1484.563	3616.29167
1487.671	3668.29167
1490.776	3747.625
1493.88	3805.29167
1496.981	3907.29167
1500.08	4004.625
1503.176	4028.625
1506.271	4111.95833
1509.363	4173.29167
1512.452	4241.625
1515.54	4307.625
1518.625	4404.95833
1521.708	4622.95833
1524.789	4840.95833
1527.867	5150.29167
1530.944	5446.95833
1534.018	5706.95833
1537.089	5835.625
1540.159	5765.625
1543.226	5612.29167
1546.291	5388.625
1549.354	5198.625
1552.415	5076.95833
1555.473	4941.625
1558.529	4826.95833
1561.583	4773.95833
1564.634	4767.625
1567.684	4758.29167
1570.731	4800.95833
1573.776	4836.625
1576.819	4871.95833
1579.859	4915.95833
1582.898	5018.625
1585.934	5050.95833
1588.968	5065.625
1591.999	5026.625
1595.029	5056.29167
1598.056	5088.29167
1601.081	5088.29167
1604.104	5036.95833
1607.125	4985.625
1610.144	4889.625
1613.16	4803.625
1616.174	4673.95833
1619.186	4549.625
1622.196	4451.95833
1625.203	4347.95833
1628.209	4263.95833
1631.212	4230.625
1634.213	4212.29167
1637.212	4162.95833
1640.209	4112.95833
1643.203	3983.625
1646.196	3878.95833
1649.186	3736.29167
1652.174	3622.625
1655.16	3513.625
1658.144	3397.95833
1661.125	3219.625
1664.105	3059.625
1667.082	2940.29167
1670.057	2751.29167
1673.03	2585.95833
1676.001	2421.95833
1678.97	2268.95833
1681.937	2133.625
1684.901	2005.95833
1687.863	1945.625
1690.824	1860.29167
1693.782	1825.29167
1696.738	1760.95833
1699.692	1711.95833
1702.643	1676.625
1705.593	1657.625
1708.54	1624.95833
1711.486	1626.95833
1714.429	1602.29167
1717.37	1579.95833
1720.309	1550.29167
1723.246	1550.95833
1726.181	1518.29167
1729.113	1528.95833
1732.044	1492.95833
1734.972	1489.95833
1737.899	1476.95833
1740.823	1464.625
1743.745	1460.29167
1746.665	1410.29167
1749.583	1389.95833
1752.499	1379.29167
1755.413	1356.95833
1758.325	1322.29167
1761.235	1325.29167
1764.142	1298.29167
1767.048	1295.95833
1769.951	1275.29167
1772.852	1267.95833
1775.752	1257.625
1778.649	1255.625
1781.544	1264.95833
1784.437	1234.29167
1787.328	1240.625
1790.217	1223.95833
1793.104	1191.29167
1795.989	1197.29167
1798.872	1216.625
1801.753	1216.29167
1804.631	1206.625
1807.508	1208.625
1810.383	1193.95833
1813.255	1175.625
1816.126	1192.95833
1818.994	1178.29167
1821.861	1165.625
1824.725	1184.29167
1827.587	1160.29167
1830.448	1154.625
1833.306	1123.29167
1836.162	1144.29167
1839.017	1136.29167
1841.869	1125.95833
1844.719	1132.625
1847.567	1111.95833
1850.414	1113.625
1853.258	1101.625
1856.1	1124.95833
1858.94	1133.29167
1861.778	1118.95833
1864.614	1100.95833
1867.448	1109.95833
1870.28	1102.625
1873.111	1111.29167
1875.939	1101.95833
1878.765	1118.29167
1881.589	1106.29167
1884.411	1098.95833
1887.231	1100.625
1890.049	1086.29167
1892.865	1092.95833
1895.68	1079.95833
1898.492	1073.29167
1901.302	1066.95833
1904.11	1075.29167
1906.916	1061.95833
1909.721	1049.29167
1912.523	1050.625
1915.323	1041.29167
1918.122	1053.95833
1920.918	1042.625
1923.712	1035.95833
1926.505	1042.625
1929.295	1022.95833
1932.084	1046.625
1934.87	1040.29167
1937.655	1024.29167
1940.438	1019.29167
1943.218	1038.29167
1945.997	1041.29167
1948.774	1048.29167
1951.549	1036.95833
1954.322	1018.29167
1957.093	1023.29167
1959.862	1014.29167
1962.629	1017.95833
1965.394	999.625
1968.157	994.95833
1970.918	998.29167
1973.678	993.625
1976.435	1003.29167
1979.19	989.95833
1981.944	974.95833
1984.696	986.29167
1987.445	980.95833
1990.193	975.95833
1992.939	982.625
1995.683	986.95833
1998.425	958.625
2001.165	984.95833
2003.903	965.625
2006.639	970.625
2009.374	971.625
2012.106	970.95833
2014.837	949.625
2017.566	955.625
2020.292	974.95833
2023.017	955.29167
2025.74	946.625
2028.461	960.29167
2031.18	964.95833
2033.898	937.95833
2036.613	957.29167
2039.327	940.29167
2042.038	923.625
2044.748	932.625
2047.456	938.625
2050.162	912.625
2052.866	911.95833
2055.568	934.95833
2058.268	927.625
2060.967	933.29167
2063.663	910.625
2066.358	918.29167
2069.051	908.95833
2071.742	922.625
2074.431	921.95833
2077.118	917.625
2079.804	919.95833
2082.487	922.29167
2085.169	931.95833
2087.849	938.29167
2090.527	911.29167
2093.203	933.29167
2095.877	945.625
2098.55	943.625
2101.22	941.29167
2103.889	960.625
2106.556	962.29167
2109.221	966.625
2111.884	997.625
2114.546	1052.29167
2117.205	1124.95833
2119.863	1211.29167
2122.519	1285.29167
2125.173	1384.625
2127.825	1474.95833
2130.475	1511.625
2133.124	1496.29167
2135.771	1453.95833
2138.416	1419.95833
2141.059	1324.95833
2143.7	1275.95833
2146.339	1186.95833
2148.977	1129.625
2151.613	1115.95833
2154.247	1069.29167
2156.879	1042.625
2159.51	1041.625
2162.138	1012.29167
2164.765	1019.625
2167.39	1002.95833
2170.013	1011.95833
2172.634	1017.625
2175.254	1003.95833
2177.872	1020.625
2180.488	980.95833
2183.102	994.625
2185.714	961.95833
2188.325	939.29167
2190.934	936.625
2193.541	927.95833
2196.146	908.625
2198.75	867.95833
2201.351	870.625
2203.951	863.29167
2206.549	879.625
2209.146	859.95833
2211.74	839.625
2214.333	849.95833
2216.924	817.625
2219.514	827.95833
2222.101	809.95833
2224.687	843.95833
2227.271	810.95833
2229.853	800.625
2232.433	787.95833
2235.012	824.625
2237.589	816.625
2240.164	818.625
2242.738	803.625
2245.309	790.95833
2247.879	789.625
2250.448	790.29167
2253.014	766.95833
2255.579	745.95833
2258.142	758.625
2260.703	733.625
2263.262	726.95833
2265.82	741.95833
2268.376	734.95833
2270.93	729.95833
2273.483	725.29167
2276.033	726.29167
2278.583	710.95833
2281.13	702.625
2283.675	696.29167
2286.219	717.95833
2288.761	698.29167
2291.302	707.95833
2293.841	712.625
2296.377	694.95833
2298.913	695.29167
2301.446	696.625
2303.978	700.95833
2306.508	688.95833
2309.037	684.625
2311.563	687.95833
2314.088	697.95833
2316.612	667.29167
2319.133	683.29167
2321.653	672.29167
2324.171	678.29167
2326.688	677.625
2329.202	660.625
2331.715	658.625
2334.227	663.625
2336.736	663.625
2339.244	651.625
2341.751	647.625
2344.255	660.625
2346.758	645.625
2349.259	644.29167
2351.759	639.29167
2354.257	643.625
2356.753	638.625
2359.247	645.625
2361.74	644.625
2364.231	636.95833
2366.721	639.625
2369.209	630.625
2371.695	622.95833
2374.179	623.95833
2376.662	630.625
2379.143	641.625
2381.622	619.29167
2384.1	626.95833
2386.576	626.95833
2389.051	638.95833
2391.524	626.625
2393.995	623.625
2396.464	620.95833
2398.932	608.95833
2401.398	612.625
2403.863	605.95833
2406.325	604.625
2408.787	606.625
2411.246	599.625
2413.704	607.95833
2416.16	599.95833
2418.615	606.29167
2421.068	604.29167
2423.519	612.29167
2425.969	599.29167
2428.417	606.95833
2430.863	616.625
2433.308	617.95833
2435.751	605.625
2438.193	593.625
2440.633	598.95833
2443.071	596.29167
2445.508	580.95833
2447.943	583.625
2450.376	571.95833
2452.808	580.95833
2455.238	575.95833
2457.667	605.29167
2460.093	572.95833
2462.519	567.29167
2464.942	576.95833
2467.365	580.625
2469.785	575.625
2472.204	574.95833
2474.621	566.29167
2477.037	587.95833
2479.451	555.625
2481.863	547.95833
2484.274	555.625
2486.683	558.625
2489.091	574.29167
2491.497	566.29167
2493.901	562.625
2496.304	553.95833
2498.705	578.95833
2501.105	551.95833
2503.503	579.625
2505.899	549.29167
2508.294	566.29167
2510.687	541.95833
2513.079	542.95833
2515.469	537.625
2517.858	537.95833
2520.245	561.95833
2522.63	541.95833
2525.014	538.29167
2527.396	547.29167
2529.776	533.95833
2532.156	543.95833
2534.533	529.95833
2536.909	531.95833
2539.283	528.29167
2541.656	526.95833
2544.027	552.625
2546.397	534.29167
2548.765	540.95833
2551.131	533.95833
2553.496	514.95833
2555.86	536.625
2558.221	533.625
2560.582	523.95833
2562.94	519.29167
2565.298	516.95833
2567.653	539.625
2570.007	515.625
2572.36	527.29167
2574.711	518.625
2577.06	535.95833
2579.408	527.95833
2581.754	526.29167
2584.099	517.625
2586.442	517.29167
2588.784	528.95833
2591.124	528.29167
2593.463	524.625
2595.8	515.29167
2598.135	498.95833
2600.469	509.95833
2602.802	525.625
2605.133	523.625
2607.462	497.95833
2609.79	506.29167
2612.116	519.625
2614.441	507.625
2616.764	509.95833
2619.086	507.625
2621.406	497.625
2623.725	525.95833
2626.042	512.625
2628.358	505.625
2630.672	509.625
2632.985	517.625
2635.296	510.95833
2637.606	520.29167
2639.914	501.625
2642.22	510.625
2644.525	512.625
2646.829	515.95833
2649.131	518.95833
2651.432	518.95833
2653.731	500.29167
2656.028	524.29167
2658.324	513.95833
2660.619	509.625
2662.912	521.29167
2665.204	496.625
2667.494	512.625
2669.782	514.625
2672.07	519.29167
2674.355	523.625
2676.639	515.95833
2678.922	512.29167
2681.203	520.29167
2683.483	519.29167
2685.761	507.625
2688.038	522.29167
2690.313	531.95833
2692.587	512.95833
2694.859	512.29167
2697.13	509.95833
2699.399	519.625
2701.667	530.95833
2703.933	533.625
2706.198	533.95833
2708.461	538.29167
2710.723	547.29167
2712.984	543.95833
2715.243	549.29167
2717.5	550.29167
2719.757	555.95833
2722.011	543.29167
2724.264	561.29167
2726.516	573.95833
2728.766	555.625
2731.015	562.95833
2733.262	563.29167
2735.508	551.29167
2737.753	552.29167
2739.996	548.29167
2742.237	530.625
2744.477	547.29167
2746.716	547.95833
2748.953	525.625
2751.189	538.29167
2753.423	520.29167
2755.656	526.625
2757.887	508.29167
2760.117	517.29167
2762.346	508.95833
2764.573	508.29167
2766.798	509.95833
2769.022	523.95833
2771.245	525.95833
2773.467	517.95833
2775.686	527.29167
2777.905	528.95833
2780.122	533.95833
2782.337	532.95833
2784.552	532.95833
2786.764	542.625
2788.976	542.625
2791.186	546.625
2793.394	552.625
2795.601	564.29167
2797.807	576.625
2800.011	585.29167
2802.214	594.29167
2804.415	593.29167
2806.615	593.29167
2808.814	609.95833
2811.011	609.625
2813.206	621.95833
2815.401	632.95833
2817.594	641.29167
2819.785	665.95833
2821.975	646.625
2824.164	672.29167
2826.351	688.95833
2828.537	719.625
2830.722	738.95833
2832.905	729.625
2835.086	777.95833
2837.267	808.29167
2839.445	847.625
2841.623	875.625
2843.799	920.29167
2845.974	960.95833
2848.147	1012.95833
2850.319	1050.625
2852.489	1084.95833
2854.659	1088.29167
2856.826	1125.29167
2858.993	1148.625
2861.158	1123.29167
2863.321	1120.29167
2865.483	1159.29167
2867.644	1160.625
2869.804	1149.95833
2871.962	1146.95833
2874.118	1142.95833
2876.274	1130.95833
2878.428	1122.29167
2880.58	1127.29167
2882.731	1109.95833
2884.881	1137.95833
2887.03	1128.95833
2889.177	1125.29167
2891.322	1139.625
2893.467	1140.95833
2895.61	1154.95833
2897.751	1163.95833
2899.892	1160.95833
2902.03	1172.95833
2904.168	1194.29167
2906.304	1184.625
2908.439	1204.625
2910.572	1187.95833
2912.704	1201.95833
2914.835	1204.29167
2916.965	1205.95833
2919.093	1230.29167
2921.219	1167.29167
2923.345	1196.95833
2925.469	1164.95833
2927.591	1158.29167
2929.712	1118.29167
2931.832	1110.95833
2933.951	1082.625
2936.068	1046.29167
2938.184	1016.95833
2940.299	982.29167
2942.412	948.29167
2944.524	911.95833
2946.634	880.29167
2948.744	830.95833
2950.851	843.29167
2952.958	772.29167
2955.063	772.95833
2957.167	747.95833
2959.269	720.625
2961.371	722.29167
2963.471	675.29167
2965.569	687.625
2967.666	636.95833
2969.762	639.625
2971.857	608.29167
2973.95	593.625
2976.042	578.625
2978.133	565.95833
2980.222	546.29167
2982.31	518.29167
2984.396	501.625
2986.482	509.625
2988.566	505.29167
2990.648	486.29167
2992.73	476.29167
2994.81	466.29167
2996.889	451.625
2998.966	466.29167
3001.042	469.625
3003.117	445.625
3005.191	450.625
3007.263	436.29167
3009.334	428.95833
3011.403	430.95833
3013.472	407.29167
3015.539	418.625
3017.604	410.625
3019.669	379.95833
3021.732	387.625
3023.794	385.29167
3025.854	371.95833
3027.914	369.95833
3029.971	386.625
3032.028	362.29167
3034.083	372.29167
3036.137	362.95833
3038.19	338.29167
3040.242	343.29167
3042.292	331.95833
3044.341	340.29167
3046.388	344.29167
3048.435	320.29167
3050.48	347.625
3052.524	333.625
3054.566	299.95833
3056.607	320.625
3058.647	304.29167
3060.686	293.625
3062.723	277.29167
3064.759	273.625
3066.794	-0.70833
3068.828	-2.375
3070.86	0.95833
