-0.839	424.04167
3.438	433.70833
7.711	121.70833
11.981	56.70833
16.247	47.375
20.509	45.04167
24.768	50.375
29.024	49.70833
33.276	44.375
37.524	52.375
41.769	45.70833
46.01	38.70833
50.247	52.04167
54.481	68.375
58.712	71.04167
62.939	54.04167
67.162	61.70833
71.382	58.375
75.599	53.70833
79.812	68.70833
84.021	84.70833
88.227	63.70833
92.429	68.04167
96.628	57.04167
100.823	71.70833
105.015	83.04167
109.204	79.04167
113.388	86.70833
117.57	81.375
121.748	97.70833
125.922	85.70833
130.093	110.375
134.261	117.04167
138.425	112.70833
142.585	159.375
146.742	159.375
150.896	193.375
155.046	248.70833
159.193	382.04167
163.336	664.70833
167.476	1259.70833
171.613	2314.04167
175.746	3835.375
179.875	5698.375
184.002	7465.70833
188.124	8640.70833
192.244	9015.70833
196.36	8939.375
200.472	8690.04167
204.581	8501.375
208.687	8336.04167
212.79	8182.04167
216.889	8303.04167
220.984	8326.375
225.077	8486.70833
229.165	8615.375
233.251	8660.70833
237.333	8790.375
241.412	8809.375
245.487	8799.70833
249.559	8690.04167
253.628	8623.04167
257.694	8504.375
261.756	8446.375
265.814	8291.70833
269.87	8045.04167
273.922	7754.70833
277.97	7535.04167
282.016	7336.70833
286.058	7163.70833
290.097	7081.375
294.132	7048.04167
298.164	6922.375
302.193	6656.375
306.219	6234.70833
310.241	5662.04167
314.26	5152.375
318.276	4731.375
322.288	4445.04167
326.297	4221.04167
330.303	4060.70833
334.305	3937.04167
338.305	3881.70833
342.301	3827.375
346.294	3786.375
350.283	3750.04167
354.269	3723.375
358.252	3693.375
362.232	3653.70833
366.209	3619.375
370.182	3609.375
374.152	3603.04167
378.119	3583.70833
382.083	3595.70833
386.043	3621.70833
390	3579.70833
393.954	3562.70833
397.905	3502.375
401.852	3497.70833
405.797	3438.375
409.738	3378.70833
413.676	3389.70833
417.61	3362.04167
421.542	3333.04167
425.47	3269.70833
429.396	3276.375
433.318	3224.04167
437.236	3200.375
441.152	3213.375
445.065	3161.04167
448.974	3186.375
452.88	3125.375
456.783	3106.04167
460.683	3090.375
464.58	3099.375
468.473	3091.375
472.364	3122.04167
476.251	3122.04167
480.135	3120.375
484.016	3154.70833
487.894	3174.375
491.769	3175.375
495.641	3186.04167
499.509	3187.04167
503.375	3167.04167
507.237	3177.04167
511.096	3149.70833
514.952	3143.70833
518.805	3157.04167
522.655	3146.70833
526.502	3096.70833
530.346	3133.375
534.187	3119.375
538.024	3153.375
541.859	3159.70833
545.69	3168.70833
549.519	3142.375
553.344	3116.70833
557.166	3091.04167
560.985	3046.04167
564.802	3032.04167
568.615	2979.375
572.425	2938.04167
576.232	2916.70833
580.036	2918.375
583.836	2928.70833
587.634	2930.70833
591.429	2919.04167
595.221	2974.70833
599.01	2996.375
602.796	3049.04167
606.578	3053.70833
610.358	3062.375
614.135	3049.375
617.909	3046.375
621.679	3055.70833
625.447	3016.04167
629.212	3038.70833
632.973	3040.375
636.732	3035.70833
640.488	3028.375
644.241	2971.70833
647.991	2985.375
651.737	3017.70833
655.481	3014.375
659.222	3051.04167
662.96	3047.04167
666.695	3073.04167
670.427	3034.70833
674.156	3071.70833
677.882	3035.04167
681.605	3031.04167
685.325	3017.04167
689.043	3009.70833
692.757	2990.70833
696.468	2979.04167
700.177	2984.70833
703.882	2994.70833
707.585	2953.375
711.284	2980.04167
714.981	2964.375
718.675	2969.375
722.366	2999.04167
726.054	2958.70833
729.739	2999.04167
733.421	2971.70833
737.1	2965.04167
740.777	2988.04167
744.45	3015.375
748.121	3018.70833
751.789	3060.04167
755.453	3063.375
759.115	3103.375
762.774	3117.04167
766.431	3137.70833
770.084	3178.70833
773.734	3189.375
777.382	3254.04167
781.027	3249.04167
784.669	3292.70833
788.308	3296.375
791.944	3312.70833
795.577	3359.375
799.208	3376.70833
802.835	3440.04167
806.46	3441.375
810.082	3489.04167
813.701	3532.375
817.317	3556.04167
820.931	3518.04167
824.542	3537.04167
828.149	3486.375
831.754	3416.375
835.357	3408.375
838.956	3380.04167
842.553	3373.04167
846.146	3350.04167
849.737	3308.04167
853.326	3321.04167
856.911	3362.375
860.493	3398.04167
864.073	3363.04167
867.65	3441.04167
871.225	3496.04167
874.796	3467.70833
878.365	3492.70833
881.931	3495.04167
885.494	3537.375
889.054	3518.70833
892.612	3514.04167
896.166	3479.375
899.719	3468.375
903.268	3435.70833
906.814	3401.04167
910.358	3432.04167
913.899	3399.375
917.438	3420.04167
920.973	3409.04167
924.506	3461.70833
928.036	3498.04167
931.564	3570.375
935.088	3561.04167
938.61	3579.70833
942.129	3592.70833
945.646	3691.04167
949.16	3762.04167
952.671	3846.70833
956.179	3926.70833
959.685	3910.04167
963.188	3941.375
966.688	3873.70833
970.185	3767.04167
973.68	3681.375
977.173	3636.375
980.662	3592.70833
984.149	3613.04167
987.633	3631.04167
991.114	3689.70833
994.593	3793.375
998.069	3878.375
1001.542	4015.375
1005.013	3897.375
1008.481	3719.70833
1011.947	3648.04167
1015.409	3608.375
1018.869	3634.375
1022.327	3619.70833
1025.782	3593.375
1029.234	3621.70833
1032.683	3550.04167
1036.13	3475.04167
1039.574	3316.04167
1043.016	3242.70833
1046.455	3187.375
1049.891	3135.04167
1053.325	3139.375
1056.756	3147.70833
1060.184	3191.375
1063.61	3183.70833
1067.033	3198.04167
1070.454	3197.375
1073.872	3221.04167
1077.287	3232.375
1080.7	3291.375
1084.11	3284.70833
1087.517	3228.70833
1090.922	3190.70833
1094.325	3167.70833
1097.724	3108.04167
1101.122	3085.04167
1104.516	3110.375
1107.908	3125.70833
1111.298	3134.70833
1114.684	3188.70833
1118.069	3232.70833
1121.45	3222.70833
1124.83	3250.70833
1128.206	3215.375
1131.58	3310.70833
1134.951	3346.70833
1138.32	3478.04167
1141.687	3604.375
1145.05	3689.375
1148.412	3737.70833
1151.77	3716.04167
1155.126	3690.70833
1158.48	3659.04167
1161.831	3687.375
1165.18	3701.70833
1168.525	3761.70833
1171.869	3815.70833
1175.21	3828.375
1178.548	3871.375
1181.884	3904.04167
1185.217	3965.04167
1188.548	4011.375
1191.877	4092.375
1195.202	4175.70833
1198.526	4230.70833
1201.846	4226.70833
1205.165	4254.70833
1208.48	4229.70833
1211.794	4226.70833
1215.104	4230.04167
1218.413	4242.375
1221.719	4242.70833
1225.022	4197.70833
1228.323	4131.04167
1231.621	4145.04167
1234.917	4118.04167
1238.21	4135.04167
1241.501	4116.70833
1244.79	4096.70833
1248.076	4110.375
1251.359	4144.04167
1254.64	4252.04167
1257.919	4252.375
1261.195	4318.70833
1264.468	4407.04167
1267.74	4462.04167
1271.008	4485.375
1274.275	4474.375
1277.538	4455.04167
1280.8	4388.70833
1284.059	4428.70833
1287.315	4470.70833
1290.569	4512.70833
1293.821	4491.375
1297.07	4520.04167
1300.317	4543.70833
1303.562	4544.04167
1306.803	4461.70833
1310.043	4437.70833
1313.28	4415.70833
1316.515	4376.375
1319.747	4348.375
1322.977	4308.375
1326.204	4248.04167
1329.429	4174.375
1332.652	4181.70833
1335.872	4200.70833
1339.09	4162.70833
1342.306	4155.70833
1345.519	4140.375
1348.729	4130.375
1351.938	4139.04167
1355.144	4066.04167
1358.347	4000.70833
1361.548	4009.70833
1364.747	4006.375
1367.944	3998.70833
1371.138	3988.375
1374.329	4027.04167
1377.518	4058.04167
1380.705	4110.70833
1383.89	4073.375
1387.072	3967.04167
1390.252	3807.375
1393.429	3676.375
1396.605	3557.70833
1399.777	3455.70833
1402.948	3397.04167
1406.116	3387.375
1409.282	3402.04167
1412.445	3409.70833
1415.606	3431.04167
1418.765	3492.375
1421.921	3544.04167
1425.075	3608.70833
1428.227	3741.70833
1431.376	3896.375
1434.524	4059.70833
1437.668	4169.375
1440.811	4188.04167
1443.951	4238.375
1447.089	4250.70833
1450.224	4251.04167
1453.357	4194.375
1456.488	4155.70833
1459.617	4120.70833
1462.743	4040.04167
1465.867	3942.04167
1468.989	3920.04167
1472.108	3854.375
1475.225	3813.70833
1478.34	3769.04167
1481.453	3743.70833
1484.563	3719.70833
1487.671	3784.04167
1490.776	3862.04167
1493.88	3894.70833
1496.981	3979.04167
1500.08	4073.70833
1503.176	4114.04167
1506.271	4184.375
1509.363	4260.375
1512.452	4292.375
1515.54	4358.375
1518.625	4477.70833
1521.708	4663.375
1524.789	4897.04167
1527.867	5199.375
1530.944	5509.375
1534.018	5733.70833
1537.089	5829.70833
1540.159	5763.375
1543.226	5591.375
1546.291	5375.04167
1549.354	5195.04167
1552.415	5033.70833
1555.473	4888.70833
1558.529	4799.375
1561.583	4762.04167
1564.634	4727.70833
1567.684	4733.375
1570.731	4778.04167
1573.776	4799.70833
1576.819	4868.70833
1579.859	4944.70833
1582.898	4990.375
1585.934	5035.04167
1588.968	5046.04167
1591.999	5036.70833
1595.029	5017.375
1598.056	5049.04167
1601.081	5035.375
1604.104	5046.04167
1607.125	4993.04167
1610.144	4926.375
1613.16	4841.04167
1616.174	4732.04167
1619.186	4636.04167
1622.196	4547.04167
1625.203	4472.70833
1628.209	4422.375
1631.212	4417.70833
1634.213	4438.70833
1637.212	4434.04167
1640.209	4405.375
1643.203	4309.04167
1646.196	4180.04167
1649.186	4026.375
1652.174	3877.04167
1655.16	3787.04167
1658.144	3680.70833
1661.125	3497.04167
1664.105	3322.04167
1667.082	3171.70833
1670.057	2977.70833
1673.03	2815.04167
1676.001	2624.70833
1678.97	2430.375
1681.937	2301.04167
1684.901	2146.375
1687.863	2079.04167
1690.824	1993.04167
1693.782	1956.70833
1696.738	1910.70833
1699.692	1843.04167
1702.643	1807.70833
1705.593	1789.70833
1708.54	1767.70833
1711.486	1759.70833
1714.429	1706.04167
1717.37	1712.70833
1720.309	1667.70833
1723.246	1678.04167
1726.181	1650.70833
1729.113	1642.70833
1732.044	1628.375
1734.972	1618.70833
1737.899	1617.04167
1740.823	1581.04167
1743.745	1602.375
1746.665	1541.04167
1749.583	1531.04167
1752.499	1511.04167
1755.413	1490.70833
1758.325	1470.04167
1761.235	1457.70833
1764.142	1414.375
1767.048	1424.70833
1769.951	1406.70833
1772.852	1396.04167
1775.752	1387.04167
1778.649	1395.70833
1781.544	1394.375
1784.437	1359.04167
1787.328	1363.04167
1790.217	1344.04167
1793.104	1324.375
1795.989	1325.375
1798.872	1321.04167
1801.753	1354.70833
1804.631	1339.70833
1807.508	1347.70833
1810.383	1311.04167
1813.255	1306.70833
1816.126	1323.04167
1818.994	1318.375
1821.861	1285.04167
1824.725	1291.70833
1827.587	1285.375
1830.448	1279.70833
1833.306	1255.04167
1836.162	1256.70833
1839.017	1250.04167
1841.869	1259.04167
1844.719	1249.70833
1847.567	1222.70833
1850.414	1230.70833
1853.258	1234.04167
1856.1	1248.375
1858.94	1231.04167
1861.778	1219.375
1864.614	1226.04167
1867.448	1231.70833
1870.28	1209.04167
1873.111	1243.04167
1875.939	1223.04167
1878.765	1240.70833
1881.589	1200.70833
1884.411	1204.375
1887.231	1226.70833
1890.049	1195.04167
1892.865	1198.70833
1895.68	1182.375
1898.492	1183.04167
1901.302	1193.04167
1904.11	1180.375
1906.916	1171.375
1909.721	1164.04167
1912.523	1174.375
1915.323	1142.04167
1918.122	1155.375
1920.918	1164.70833
1923.712	1134.375
1926.505	1150.04167
1929.295	1128.70833
1932.084	1150.04167
1934.87	1159.375
1937.655	1136.375
1940.438	1127.375
1943.218	1129.70833
1945.997	1118.70833
1948.774	1139.04167
1951.549	1148.70833
1954.322	1119.04167
1957.093	1131.70833
1959.862	1115.04167
1962.629	1122.375
1965.394	1102.375
1968.157	1093.375
1970.918	1108.375
1973.678	1094.375
1976.435	1101.70833
1979.19	1096.04167
1981.944	1066.04167
1984.696	1081.04167
1987.445	1084.04167
1990.193	1074.04167
1992.939	1100.70833
1995.683	1067.04167
1998.425	1061.375
2001.165	1087.375
2003.903	1063.04167
2006.639	1052.375
2009.374	1057.70833
2012.106	1066.375
2014.837	1040.375
2017.566	1065.70833
2020.292	1046.375
2023.017	1042.04167
2025.74	1048.375
2028.461	1034.04167
2031.18	1050.70833
2033.898	1030.375
2036.613	1045.70833
2039.327	1036.375
2042.038	1018.04167
2044.748	1024.70833
2047.456	1023.70833
2050.162	1010.04167
2052.866	1009.375
2055.568	1016.375
2058.268	1008.70833
2060.967	1017.375
2063.663	1001.04167
2066.358	998.375
2069.051	999.04167
2071.742	1016.375
2074.431	1007.375
2077.118	991.375
2079.804	985.375
2082.487	989.375
2085.169	992.04167
2087.849	1017.375
2090.527	987.70833
2093.203	1001.04167
2095.877	1005.375
2098.55	1004.70833
2101.22	1025.04167
2103.889	1022.375
2106.556	1011.04167
2109.221	1050.375
2111.884	1069.70833
2114.546	1113.04167
2117.205	1153.70833
2119.863	1233.04167
2122.519	1297.04167
2125.173	1380.70833
2127.825	1480.70833
2130.475	1510.04167
2133.124	1492.04167
2135.771	1457.375
2138.416	1419.04167
2141.059	1342.70833
2143.7	1296.375
2146.339	1235.04167
2148.977	1173.70833
2151.613	1157.375
2154.247	1112.70833
2156.879	1105.375
2159.51	1089.70833
2162.138	1074.70833
2164.765	1063.70833
2167.39	1056.70833
2170.013	1073.04167
2172.634	1056.70833
2175.254	1061.70833
2177.872	1079.04167
2180.488	1033.375
2183.102	1046.375
2185.714	1019.04167
2188.325	988.375
2190.934	998.375
2193.541	984.04167
2196.146	973.70833
2198.75	936.70833
2201.351	932.70833
2203.951	921.70833
2206.549	918.70833
2209.146	905.70833
2211.74	895.70833
2214.333	907.70833
2216.924	884.70833
2219.514	884.70833
2222.101	861.04167
2224.687	877.04167
2227.271	865.375
2229.853	862.70833
2232.433	842.375
2235.012	875.70833
2237.589	866.70833
2240.164	872.375
2242.738	855.375
2245.309	836.375
2247.879	849.375
2250.448	840.04167
2253.014	816.04167
2255.579	804.375
2258.142	798.04167
2260.703	794.04167
2263.262	802.375
2265.82	792.375
2268.376	797.375
2270.93	769.375
2273.483	781.375
2276.033	781.04167
2278.583	767.70833
2281.13	758.70833
2283.675	757.04167
2286.219	762.70833
2288.761	755.375
2291.302	755.375
2293.841	757.04167
2296.377	732.04167
2298.913	748.375
2301.446	755.70833
2303.978	741.04167
2306.508	739.04167
2309.037	727.375
2311.563	733.04167
2314.088	732.375
2316.612	707.70833
2319.133	721.70833
2321.653	728.04167
2324.171	709.70833
2326.688	717.375
2329.202	712.70833
2331.715	704.375
2334.227	703.04167
2336.736	705.70833
2339.244	714.70833
2341.751	678.04167
2344.255	698.70833
2346.758	681.70833
2349.259	675.70833
2351.759	682.375
2354.257	687.70833
2356.753	683.70833
2359.247	676.70833
2361.74	677.04167
2364.231	674.375
2366.721	675.04167
2369.209	661.375
2371.695	666.04167
2374.179	661.375
2376.662	662.375
2379.143	670.04167
2381.622	668.70833
2384.1	671.375
2386.576	652.375
2389.051	672.70833
2391.524	668.70833
2393.995	674.04167
2396.464	661.70833
2398.932	652.70833
2401.398	652.70833
2403.863	645.375
2406.325	647.375
2408.787	638.04167
2411.246	645.375
2413.704	634.70833
2416.16	632.70833
2418.615	631.04167
2421.068	645.04167
2423.519	642.04167
2425.969	627.04167
2428.417	644.70833
2430.863	656.04167
2433.308	644.375
2435.751	635.04167
2438.193	622.375
2440.633	632.70833
2443.071	631.70833
2445.508	612.04167
2447.943	611.70833
2450.376	609.04167
2452.808	617.70833
2455.238	606.375
2457.667	640.04167
2460.093	612.70833
2462.519	593.70833
2464.942	606.04167
2467.365	607.70833
2469.785	601.70833
2472.204	609.70833
2474.621	586.70833
2477.037	622.70833
2479.451	591.375
2481.863	582.70833
2484.274	592.70833
2486.683	597.70833
2489.091	601.70833
2491.497	594.375
2493.901	594.375
2496.304	579.70833
2498.705	583.375
2501.105	574.04167
2503.503	604.375
2505.899	577.70833
2508.294	585.70833
2510.687	575.70833
2513.079	571.375
2515.469	565.70833
2517.858	564.70833
2520.245	586.04167
2522.63	560.04167
2525.014	563.70833
2527.396	558.375
2529.776	561.375
2532.156	569.375
2534.533	551.375
2536.909	563.375
2539.283	544.375
2541.656	550.375
2544.027	571.04167
2546.397	563.375
2548.765	547.70833
2551.131	542.04167
2553.496	545.375
2555.86	561.04167
2558.221	552.70833
2560.582	546.70833
2562.94	536.04167
2565.298	547.375
2567.653	563.375
2570.007	532.375
2572.36	551.04167
2574.711	537.70833
2577.06	557.70833
2579.408	548.04167
2581.754	546.04167
2584.099	548.70833
2586.442	526.04167
2588.784	543.70833
2591.124	543.04167
2593.463	531.375
2595.8	549.70833
2598.135	519.375
2600.469	534.375
2602.802	544.70833
2605.133	537.375
2607.462	522.70833
2609.79	518.70833
2612.116	523.04167
2614.441	533.04167
2616.764	536.70833
2619.086	525.70833
2621.406	520.70833
2623.725	538.70833
2626.042	522.70833
2628.358	520.70833
2630.672	523.70833
2632.985	535.04167
2635.296	524.375
2637.606	525.04167
2639.914	518.375
2642.22	527.04167
2644.525	515.04167
2646.829	530.375
2649.131	532.375
2651.432	538.70833
2653.731	539.04167
2656.028	534.375
2658.324	532.70833
2660.619	520.70833
2662.912	540.375
2665.204	516.70833
2667.494	526.375
2669.782	532.04167
2672.07	535.70833
2674.355	543.04167
2676.639	538.04167
2678.922	529.375
2681.203	527.70833
2683.483	519.70833
2685.761	521.70833
2688.038	534.70833
2690.313	546.375
2692.587	530.375
2694.859	520.375
2697.13	521.04167
2699.399	530.70833
2701.667	543.70833
2703.933	543.04167
2706.198	545.04167
2708.461	541.375
2710.723	558.375
2712.984	539.375
2715.243	555.70833
2717.5	550.04167
2719.757	562.375
2722.011	553.375
2724.264	576.04167
2726.516	572.04167
2728.766	572.70833
2731.015	568.04167
2733.262	568.04167
2735.508	555.375
2737.753	564.70833
2739.996	542.375
2742.237	545.375
2744.477	547.375
2746.716	549.70833
2748.953	533.70833
2751.189	552.375
2753.423	532.375
2755.656	527.70833
2757.887	515.375
2760.117	530.04167
2762.346	506.70833
2764.573	512.375
2766.798	508.70833
2769.022	523.04167
2771.245	524.70833
2773.467	514.375
2775.686	516.04167
2777.905	530.375
2780.122	537.04167
2782.337	539.70833
2784.552	531.04167
2786.764	539.04167
2788.976	539.70833
2791.186	549.375
2793.394	551.375
2795.601	558.70833
2797.807	567.375
2800.011	580.04167
2802.214	584.04167
2804.415	591.375
2806.615	579.375
2808.814	606.375
2811.011	603.04167
2813.206	615.70833
2815.401	621.375
2817.594	637.04167
2819.785	656.375
2821.975	645.70833
2824.164	655.04167
2826.351	679.04167
2828.537	695.04167
2830.722	724.375
2832.905	720.04167
2835.086	768.04167
2837.267	799.375
2839.445	839.70833
2841.623	860.04167
2843.799	912.70833
2845.974	964.04167
2848.147	999.70833
2850.319	1029.70833
2852.489	1083.04167
2854.659	1078.70833
2856.826	1109.04167
2858.993	1133.375
2861.158	1120.70833
2863.321	1117.375
2865.483	1148.04167
2867.644	1136.04167
2869.804	1136.70833
2871.962	1130.375
2874.118	1136.04167
2876.274	1137.70833
2878.428	1119.375
2880.58	1114.375
2882.731	1110.375
2884.881	1116.70833
2887.03	1129.375
2889.177	1129.70833
2891.322	1132.70833
2893.467	1142.70833
2895.61	1135.70833
2897.751	1159.04167
2899.892	1162.70833
2902.03	1175.70833
2904.168	1183.70833
2906.304	1192.04167
2908.439	1196.70833
2910.572	1175.375
2912.704	1202.04167
2914.835	1214.70833
2916.965	1206.04167
2919.093	1202.375
2921.219	1161.375
2923.345	1192.04167
2925.469	1181.70833
2927.591	1151.70833
2929.712	1112.04167
2931.832	1111.375
2933.951	1075.70833
2936.068	1044.04167
2938.184	1021.04167
2940.299	976.04167
2942.412	947.04167
2944.524	903.04167
2946.634	886.70833
2948.744	813.70833
2950.851	830.70833
2952.958	768.375
2955.063	768.375
2957.167	747.375
2959.269	706.375
2961.371	720.375
2963.471	672.70833
2965.569	684.375
2967.666	643.70833
2969.762	623.04167
2971.857	618.04167
2973.95	596.70833
2976.042	580.70833
2978.133	560.70833
2980.222	540.04167
2982.31	513.04167
2984.396	496.04167
2986.482	502.04167
2988.566	504.375
2990.648	483.70833
2992.73	485.04167
2994.81	462.70833
2996.889	462.375
2998.966	445.04167
3001.042	460.375
3003.117	441.04167
3005.191	455.04167
3007.263	446.04167
3009.334	439.375
3011.403	428.70833
3013.472	409.375
3015.539	413.70833
3017.604	425.04167
3019.669	385.375
3021.732	392.375
3023.794	382.70833
3025.854	362.04167
3027.914	373.70833
3029.971	377.70833
3032.028	368.70833
3034.083	377.04167
3036.137	363.375
3038.19	344.375
3040.242	340.375
3042.292	343.04167
3044.341	325.70833
3046.388	343.04167
3048.435	311.375
3050.48	337.375
3052.524	329.375
3054.566	308.70833
3056.607	324.70833
3058.647	310.70833
3060.686	297.375
3062.723	288.04167
3064.759	270.70833
3066.794	-0.625
3068.828	-1.29167
3070.86	-0.625
