-0.839	418.41667
3.438	435.75
7.711	120.75
11.981	56.08333
16.247	46.41667
20.509	45.08333
24.768	46.41667
29.024	47.41667
33.276	44.08333
37.524	54.08333
41.769	40.41667
46.01	39.08333
50.247	52.75
54.481	64.08333
58.712	66.08333
62.939	50.75
67.162	63.08333
71.382	62.08333
75.599	53.41667
79.812	65.41667
84.021	87.08333
88.227	62.41667
92.429	64.08333
96.628	55.08333
100.823	74.41667
105.015	83.75
109.204	84.75
113.388	83.41667
117.57	81.41667
121.748	96.08333
125.922	88.75
130.093	113.08333
134.261	113.41667
138.425	109.41667
142.585	157.75
146.742	155.75
150.896	191.08333
155.046	238.41667
159.193	384.08333
163.336	650.75
167.476	1237.08333
171.613	2270.75
175.746	3785.75
179.875	5616.08333
184.002	7284.08333
188.124	8411.41667
192.244	8788.75
196.36	8719.41667
200.472	8507.41667
204.581	8257.75
208.687	8055.41667
212.79	8026.08333
216.889	8023.41667
220.984	8100.08333
225.077	8222.08333
229.165	8338.08333
233.251	8488.75
237.333	8542.75
241.412	8555.41667
245.487	8581.41667
249.559	8454.75
253.628	8373.08333
257.694	8254.41667
261.756	8154.08333
265.814	8034.75
269.87	7779.08333
273.922	7496.08333
277.97	7280.41667
282.016	7051.08333
286.058	6867.08333
290.097	6837.75
294.132	6762.75
298.164	6675.08333
302.193	6370.41667
306.219	5921.41667
310.241	5393.41667
314.26	4899.08333
318.276	4472.08333
322.288	4186.08333
326.297	3964.08333
330.303	3807.41667
334.305	3688.08333
338.305	3588.41667
342.301	3539.75
346.294	3513.08333
350.283	3484.75
354.269	3432.75
358.252	3439.08333
362.232	3400.08333
366.209	3375.41667
370.182	3339.41667
374.152	3330.41667
378.119	3315.75
382.083	3313.41667
386.043	3338.08333
390	3319.08333
393.954	3271.41667
397.905	3245.08333
401.852	3215.41667
405.797	3170.08333
409.738	3134.08333
413.676	3104.75
417.61	3093.75
421.542	3043.75
425.47	3024.08333
429.396	2990.08333
433.318	2985.41667
437.236	2945.08333
441.152	2953.75
445.065	2911.41667
448.974	2909.75
452.88	2856.75
456.783	2842.75
460.683	2821.75
464.58	2840.75
468.473	2851.75
472.364	2838.75
476.251	2854.41667
480.135	2851.41667
484.016	2895.41667
487.894	2938.08333
491.769	2943.41667
495.641	2911.08333
499.509	2913.08333
503.375	2897.75
507.237	2910.41667
511.096	2896.08333
514.952	2895.08333
518.805	2876.41667
522.655	2880.75
526.502	2852.75
530.346	2878.08333
534.187	2904.41667
538.024	2892.08333
541.859	2901.75
545.69	2921.41667
549.519	2892.41667
553.344	2881.08333
557.166	2831.75
560.985	2814.41667
564.802	2767.41667
568.615	2745.08333
572.425	2707.08333
576.232	2693.08333
580.036	2658.41667
583.836	2679.08333
587.634	2689.41667
591.429	2676.08333
595.221	2726.75
599.01	2749.41667
602.796	2771.41667
606.578	2824.41667
610.358	2820.41667
614.135	2813.41667
617.909	2800.08333
621.679	2767.41667
625.447	2776.75
629.212	2791.08333
632.973	2770.08333
636.732	2753.41667
640.488	2760.41667
644.241	2757.41667
647.991	2740.75
651.737	2768.08333
655.481	2763.75
659.222	2784.75
662.96	2779.08333
666.695	2794.41667
670.427	2804.75
674.156	2802.75
677.882	2794.75
681.605	2764.08333
685.325	2718.75
689.043	2745.75
692.757	2746.08333
696.468	2739.08333
700.177	2752.08333
703.882	2714.75
707.585	2719.75
711.284	2717.41667
714.981	2732.41667
718.675	2730.75
722.366	2749.75
726.054	2742.75
729.739	2737.41667
733.421	2733.08333
737.1	2748.41667
740.777	2777.75
744.45	2769.08333
748.121	2781.75
751.789	2855.08333
755.453	2812.08333
759.115	2850.75
762.774	2909.08333
766.431	2919.41667
770.084	2937.08333
773.734	2978.08333
777.382	3025.41667
781.027	3042.08333
784.669	3059.75
788.308	3063.75
791.944	3129.41667
795.577	3126.41667
799.208	3164.75
802.835	3197.41667
806.46	3206.75
810.082	3270.75
813.701	3284.08333
817.317	3311.08333
820.931	3283.08333
824.542	3317.41667
828.149	3268.08333
831.754	3180.08333
835.357	3185.08333
838.956	3206.08333
842.553	3164.75
846.146	3155.08333
849.737	3115.08333
853.326	3138.75
856.911	3148.75
860.493	3181.75
864.073	3172.75
867.65	3244.41667
871.225	3290.41667
874.796	3284.75
878.365	3295.08333
881.931	3312.75
885.494	3351.08333
889.054	3346.75
892.612	3333.75
896.166	3305.75
899.719	3274.41667
903.268	3264.08333
906.814	3256.08333
910.358	3241.08333
913.899	3205.41667
917.438	3233.41667
920.973	3220.08333
924.506	3258.08333
928.036	3326.75
931.564	3336.08333
935.088	3400.75
938.61	3384.41667
942.129	3426.08333
945.646	3498.75
949.16	3626.08333
952.671	3710.08333
956.179	3726.75
959.685	3706.08333
963.188	3711.41667
966.688	3671.41667
970.185	3555.08333
973.68	3491.75
977.173	3436.75
980.662	3408.41667
984.149	3429.41667
987.633	3420.08333
991.114	3497.08333
994.593	3572.08333
998.069	3684.41667
1001.542	3799.08333
1005.013	3720.75
1008.481	3490.08333
1011.947	3437.41667
1015.409	3432.08333
1018.869	3434.75
1022.327	3427.75
1025.782	3408.75
1029.234	3421.08333
1032.683	3379.75
1036.13	3265.75
1039.574	3110.75
1043.016	3058.08333
1046.455	3028.75
1049.891	2970.75
1053.325	2966.41667
1056.756	2999.08333
1060.184	3035.08333
1063.61	3039.08333
1067.033	3044.41667
1070.454	3031.41667
1073.872	3084.75
1077.287	3071.08333
1080.7	3072.08333
1084.11	3092.41667
1087.517	3051.75
1090.922	3024.41667
1094.325	2986.41667
1097.724	2947.41667
1101.122	2949.75
1104.516	2935.08333
1107.908	2959.08333
1111.298	2992.08333
1114.684	3031.08333
1118.069	3070.08333
1121.45	3091.75
1124.83	3062.75
1128.206	3089.75
1131.58	3140.08333
1134.951	3223.41667
1138.32	3318.75
1141.687	3452.75
1145.05	3546.41667
1148.412	3548.41667
1151.77	3544.75
1155.126	3545.75
1158.48	3518.41667
1161.831	3593.08333
1165.18	3575.75
1168.525	3629.08333
1171.869	3667.75
1175.21	3706.08333
1178.548	3740.41667
1181.884	3812.41667
1185.217	3832.08333
1188.548	3910.41667
1191.877	3956.41667
1195.202	4052.75
1198.526	4126.41667
1201.846	4148.08333
1205.165	4098.41667
1208.48	4122.08333
1211.794	4102.75
1215.104	4101.75
1218.413	4102.41667
1221.719	4089.75
1225.022	4069.75
1228.323	4013.41667
1231.621	4013.41667
1234.917	3979.08333
1238.21	4013.41667
1241.501	4001.75
1244.79	3970.08333
1248.076	3975.41667
1251.359	4023.41667
1254.64	4102.75
1257.919	4119.41667
1261.195	4207.08333
1264.468	4278.41667
1267.74	4336.08333
1271.008	4369.41667
1274.275	4327.41667
1277.538	4307.08333
1280.8	4287.41667
1284.059	4294.75
1287.315	4345.41667
1290.569	4378.41667
1293.821	4395.75
1297.07	4405.75
1300.317	4428.41667
1303.562	4393.08333
1306.803	4355.41667
1310.043	4338.41667
1313.28	4295.08333
1316.515	4226.41667
1319.747	4213.41667
1322.977	4161.41667
1326.204	4115.75
1329.429	4043.41667
1332.652	4049.75
1335.872	4023.75
1339.09	3999.75
1342.306	3990.75
1345.519	3979.75
1348.729	3943.41667
1351.938	3942.08333
1355.144	3896.08333
1358.347	3821.75
1361.548	3818.75
1364.747	3842.41667
1367.944	3823.41667
1371.138	3843.08333
1374.329	3841.75
1377.518	3899.75
1380.705	3945.75
1383.89	3910.08333
1387.072	3828.41667
1390.252	3659.41667
1393.429	3529.41667
1396.605	3399.08333
1399.777	3334.41667
1402.948	3281.75
1406.116	3267.08333
1409.282	3251.75
1412.445	3263.08333
1415.606	3295.75
1418.765	3336.75
1421.921	3422.41667
1425.075	3492.41667
1428.227	3643.75
1431.376	3836.75
1434.524	3933.41667
1437.668	4011.08333
1440.811	4081.08333
1443.951	4085.08333
1447.089	4093.08333
1450.224	4089.75
1453.357	4068.41667
1456.488	4001.08333
1459.617	3960.08333
1462.743	3911.41667
1465.867	3826.41667
1468.989	3788.75
1472.108	3738.08333
1475.225	3654.75
1478.34	3654.75
1481.453	3617.75
1484.563	3652.41667
1487.671	3677.41667
1490.776	3724.41667
1493.88	3802.08333
1496.981	3880.75
1500.08	3956.08333
1503.176	4020.75
1506.271	4086.41667
1509.363	4175.41667
1512.452	4193.41667
1515.54	4280.75
1518.625	4387.41667
1521.708	4591.75
1524.789	4847.41667
1527.867	5115.08333
1530.944	5417.08333
1534.018	5664.08333
1537.089	5743.41667
1540.159	5704.75
1543.226	5529.41667
1546.291	5324.41667
1549.354	5154.08333
1552.415	4976.75
1555.473	4852.41667
1558.529	4758.75
1561.583	4721.41667
1564.634	4679.75
1567.684	4670.08333
1570.731	4721.08333
1573.776	4768.75
1576.819	4800.75
1579.859	4879.08333
1582.898	4926.75
1585.934	4961.41667
1588.968	5002.75
1591.999	4991.75
1595.029	4988.08333
1598.056	5018.41667
1601.081	5013.75
1604.104	4992.41667
1607.125	4944.75
1610.144	4840.08333
1613.16	4741.41667
1616.174	4630.75
1619.186	4561.41667
1622.196	4437.41667
1625.203	4350.75
1628.209	4310.41667
1631.212	4291.75
1634.213	4287.75
1637.212	4309.41667
1640.209	4227.75
1643.203	4141.41667
1646.196	4017.08333
1649.186	3837.08333
1652.174	3741.41667
1655.16	3605.08333
1658.144	3507.75
1661.125	3339.41667
1664.105	3155.41667
1667.082	3024.75
1670.057	2849.41667
1673.03	2657.08333
1676.001	2479.41667
1678.97	2318.75
1681.937	2190.75
1684.901	2053.41667
1687.863	1991.75
1690.824	1896.41667
1693.782	1856.75
1696.738	1799.08333
1699.692	1769.75
1702.643	1719.08333
1705.593	1701.41667
1708.54	1668.08333
1711.486	1658.41667
1714.429	1620.75
1717.37	1619.41667
1720.309	1574.41667
1723.246	1580.75
1726.181	1553.08333
1729.113	1555.75
1732.044	1535.75
1734.972	1524.08333
1737.899	1520.75
1740.823	1516.08333
1743.745	1503.08333
1746.665	1447.41667
1749.583	1423.41667
1752.499	1411.08333
1755.413	1392.41667
1758.325	1363.75
1761.235	1344.75
1764.142	1344.41667
1767.048	1330.75
1769.951	1307.75
1772.852	1307.41667
1775.752	1298.41667
1778.649	1299.41667
1781.544	1275.75
1784.437	1265.08333
1787.328	1277.75
1790.217	1272.75
1793.104	1242.08333
1795.989	1234.08333
1798.872	1227.75
1801.753	1242.75
1804.631	1239.41667
1807.508	1253.75
1810.383	1245.41667
1813.255	1202.75
1816.126	1215.75
1818.994	1208.75
1821.861	1203.41667
1824.725	1208.08333
1827.587	1191.08333
1830.448	1196.41667
1833.306	1162.41667
1836.162	1185.41667
1839.017	1171.41667
1841.869	1174.08333
1844.719	1168.08333
1847.567	1141.08333
1850.414	1143.41667
1853.258	1144.08333
1856.1	1142.75
1858.94	1160.08333
1861.778	1154.41667
1864.614	1134.75
1867.448	1148.41667
1870.28	1137.75
1873.111	1155.41667
1875.939	1139.08333
1878.765	1153.41667
1881.589	1129.75
1884.411	1126.41667
1887.231	1139.41667
1890.049	1115.41667
1892.865	1112.75
1895.68	1120.08333
1898.492	1100.75
1901.302	1104.75
1904.11	1100.08333
1906.916	1087.08333
1909.721	1094.75
1912.523	1088.08333
1915.323	1079.08333
1918.122	1067.41667
1920.918	1070.08333
1923.712	1074.75
1926.505	1073.41667
1929.295	1057.08333
1932.084	1066.08333
1934.87	1060.75
1937.655	1038.08333
1940.438	1061.75
1943.218	1065.41667
1945.997	1059.41667
1948.774	1075.75
1951.549	1067.75
1954.322	1065.08333
1957.093	1055.08333
1959.862	1041.08333
1962.629	1034.41667
1965.394	1045.75
1968.157	1021.41667
1970.918	1044.08333
1973.678	1026.08333
1976.435	1028.75
1979.19	1011.75
1981.944	1017.75
1984.696	1010.75
1987.445	999.75
1990.193	1015.08333
1992.939	1028.75
1995.683	1003.08333
1998.425	988.75
2001.165	1020.75
2003.903	988.41667
2006.639	987.75
2009.374	990.75
2012.106	995.41667
2014.837	962.75
2017.566	983.75
2020.292	1005.08333
2023.017	998.41667
2025.74	978.41667
2028.461	969.41667
2031.18	976.41667
2033.898	970.41667
2036.613	969.75
2039.327	976.41667
2042.038	958.75
2044.748	960.75
2047.456	972.75
2050.162	951.41667
2052.866	952.08333
2055.568	947.08333
2058.268	931.08333
2060.967	951.75
2063.663	943.41667
2066.358	943.75
2069.051	930.75
2071.742	943.75
2074.431	952.41667
2077.118	941.41667
2079.804	919.75
2082.487	939.75
2085.169	944.41667
2087.849	972.41667
2090.527	942.75
2093.203	935.41667
2095.877	954.41667
2098.55	947.41667
2101.22	966.41667
2103.889	979.08333
2106.556	967.75
2109.221	993.41667
2111.884	1005.41667
2114.546	1058.41667
2117.205	1116.75
2119.863	1196.75
2122.519	1261.41667
2125.173	1343.75
2127.825	1446.75
2130.475	1480.08333
2133.124	1472.41667
2135.771	1421.41667
2138.416	1382.08333
2141.059	1294.08333
2143.7	1257.41667
2146.339	1181.75
2148.977	1121.75
2151.613	1107.41667
2154.247	1070.41667
2156.879	1046.08333
2159.51	1044.41667
2162.138	1030.08333
2164.765	1034.08333
2167.39	1002.08333
2170.013	1019.75
2172.634	1011.41667
2175.254	1014.41667
2177.872	1045.41667
2180.488	995.08333
2183.102	991.08333
2185.714	979.08333
2188.325	952.75
2190.934	961.75
2193.541	936.08333
2196.146	913.41667
2198.75	903.08333
2201.351	888.08333
2203.951	883.08333
2206.549	892.41667
2209.146	856.41667
2211.74	843.75
2214.333	868.41667
2216.924	829.08333
2219.514	844.08333
2222.101	829.08333
2224.687	838.75
2227.271	821.08333
2229.853	827.41667
2232.433	804.75
2235.012	817.75
2237.589	821.08333
2240.164	828.08333
2242.738	818.41667
2245.309	802.75
2247.879	804.08333
2250.448	804.75
2253.014	782.41667
2255.579	766.75
2258.142	762.41667
2260.703	752.41667
2263.262	750.08333
2265.82	748.41667
2268.376	754.41667
2270.93	744.41667
2273.483	727.41667
2276.033	732.08333
2278.583	732.08333
2281.13	723.41667
2283.675	712.41667
2286.219	710.08333
2288.761	718.41667
2291.302	723.75
2293.841	728.75
2296.377	699.41667
2298.913	706.08333
2301.446	711.75
2303.978	699.75
2306.508	702.41667
2309.037	703.08333
2311.563	701.41667
2314.088	699.08333
2316.612	673.41667
2319.133	682.41667
2321.653	686.41667
2324.171	672.08333
2326.688	690.75
2329.202	678.41667
2331.715	671.75
2334.227	669.75
2336.736	663.08333
2339.244	676.75
2341.751	660.75
2344.255	675.41667
2346.758	655.41667
2349.259	653.08333
2351.759	659.41667
2354.257	649.41667
2356.753	643.08333
2359.247	658.41667
2361.74	657.41667
2364.231	655.08333
2366.721	656.41667
2369.209	635.41667
2371.695	644.08333
2374.179	640.75
2376.662	631.75
2379.143	648.75
2381.622	629.75
2384.1	637.41667
2386.576	635.08333
2389.051	634.41667
2391.524	658.75
2393.995	636.75
2396.464	630.08333
2398.932	615.75
2401.398	628.75
2403.863	626.08333
2406.325	620.41667
2408.787	620.75
2411.246	608.75
2413.704	611.75
2416.16	604.08333
2418.615	612.41667
2421.068	625.08333
2423.519	604.08333
2425.969	604.08333
2428.417	609.41667
2430.863	625.08333
2433.308	613.08333
2435.751	603.75
2438.193	598.75
2440.633	601.41667
2443.071	598.41667
2445.508	585.75
2447.943	588.08333
2450.376	595.41667
2452.808	596.08333
2455.238	590.08333
2457.667	601.75
2460.093	577.08333
2462.519	567.41667
2464.942	578.75
2467.365	583.41667
2469.785	582.08333
2472.204	568.41667
2474.621	573.41667
2477.037	590.75
2479.451	567.41667
2481.863	560.08333
2484.274	560.41667
2486.683	578.41667
2489.091	578.75
2491.497	571.75
2493.901	566.08333
2496.304	560.41667
2498.705	568.75
2501.105	559.75
2503.503	579.75
2505.899	548.41667
2508.294	586.08333
2510.687	557.75
2513.079	550.75
2515.469	542.41667
2517.858	545.41667
2520.245	569.08333
2522.63	544.41667
2525.014	547.41667
2527.396	537.41667
2529.776	538.75
2532.156	548.41667
2534.533	528.75
2536.909	532.41667
2539.283	529.08333
2541.656	544.75
2544.027	552.08333
2546.397	534.75
2548.765	526.41667
2551.131	531.08333
2553.496	536.08333
2555.86	535.41667
2558.221	537.41667
2560.582	533.08333
2562.94	523.41667
2565.298	525.75
2567.653	547.75
2570.007	513.41667
2572.36	523.41667
2574.711	516.41667
2577.06	542.41667
2579.408	527.41667
2581.754	523.08333
2584.099	520.75
2586.442	520.75
2588.784	520.08333
2591.124	525.41667
2593.463	519.08333
2595.8	512.75
2598.135	507.08333
2600.469	514.08333
2602.802	538.41667
2605.133	520.41667
2607.462	513.41667
2609.79	516.08333
2612.116	516.41667
2614.441	514.41667
2616.764	504.08333
2619.086	513.75
2621.406	508.41667
2623.725	521.41667
2626.042	508.75
2628.358	507.08333
2630.672	500.75
2632.985	515.41667
2635.296	511.75
2637.606	515.08333
2639.914	500.41667
2642.22	505.08333
2644.525	507.08333
2646.829	507.08333
2649.131	521.75
2651.432	508.41667
2653.731	519.75
2656.028	516.75
2658.324	522.08333
2660.619	495.08333
2662.912	518.41667
2665.204	498.08333
2667.494	533.41667
2669.782	509.75
2672.07	529.08333
2674.355	525.75
2676.639	512.08333
2678.922	513.41667
2681.203	523.41667
2683.483	501.41667
2685.761	504.08333
2688.038	513.08333
2690.313	536.75
2692.587	517.41667
2694.859	501.75
2697.13	518.75
2699.399	521.75
2701.667	529.41667
2703.933	527.75
2706.198	521.75
2708.461	531.75
2710.723	537.08333
2712.984	532.75
2715.243	544.75
2717.5	538.08333
2719.757	552.08333
2722.011	544.08333
2724.264	562.41667
2726.516	572.41667
2728.766	557.75
2731.015	558.41667
2733.262	555.75
2735.508	550.75
2737.753	549.41667
2739.996	536.08333
2742.237	522.08333
2744.477	545.75
2746.716	546.41667
2748.953	529.08333
2751.189	540.08333
2753.423	522.75
2755.656	520.08333
2757.887	502.75
2760.117	514.75
2762.346	514.41667
2764.573	502.75
2766.798	505.08333
2769.022	508.75
2771.245	514.75
2773.467	515.41667
2775.686	522.41667
2777.905	521.41667
2780.122	529.08333
2782.337	531.75
2784.552	521.41667
2786.764	535.08333
2788.976	540.08333
2791.186	547.08333
2793.394	544.41667
2795.601	556.41667
2797.807	572.41667
2800.011	568.08333
2802.214	577.41667
2804.415	582.08333
2806.615	590.08333
2808.814	599.41667
2811.011	613.08333
2813.206	609.75
2815.401	620.75
2817.594	634.75
2819.785	651.75
2821.975	639.75
2824.164	648.75
2826.351	671.08333
2828.537	695.08333
2830.722	710.75
2832.905	732.08333
2835.086	756.08333
2837.267	791.41667
2839.445	828.41667
2841.623	867.08333
2843.799	906.41667
2845.974	956.08333
2848.147	1014.41667
2850.319	1029.08333
2852.489	1082.08333
2854.659	1067.08333
2856.826	1091.08333
2858.993	1134.08333
2861.158	1115.75
2863.321	1106.08333
2865.483	1149.41667
2867.644	1136.75
2869.804	1145.75
2871.962	1129.41667
2874.118	1137.41667
2876.274	1121.08333
2878.428	1127.08333
2880.58	1129.08333
2882.731	1097.75
2884.881	1113.41667
2887.03	1100.08333
2889.177	1112.41667
2891.322	1151.75
2893.467	1119.41667
2895.61	1146.75
2897.751	1167.75
2899.892	1156.75
2902.03	1166.75
2904.168	1180.41667
2906.304	1183.41667
2908.439	1191.08333
2910.572	1193.41667
2912.704	1212.41667
2914.835	1202.75
2916.965	1197.41667
2919.093	1221.41667
2921.219	1162.41667
2923.345	1185.75
2925.469	1152.75
2927.591	1140.75
2929.712	1104.08333
2931.832	1096.75
2933.951	1059.41667
2936.068	1031.08333
2938.184	1008.75
2940.299	975.75
2942.412	946.08333
2944.524	885.41667
2946.634	882.75
2948.744	820.08333
2950.851	837.08333
2952.958	778.41667
2955.063	763.08333
2957.167	750.75
2959.269	717.75
2961.371	730.08333
2963.471	676.08333
2965.569	683.75
2967.666	633.75
2969.762	626.75
2971.857	600.08333
2973.95	581.08333
2976.042	574.41667
2978.133	552.41667
2980.222	545.41667
2982.31	525.08333
2984.396	493.08333
2986.482	494.08333
2988.566	489.75
2990.648	474.08333
2992.73	466.41667
2994.81	455.41667
2996.889	459.75
2998.966	453.75
3001.042	458.75
3003.117	445.08333
3005.191	443.08333
3007.263	438.41667
3009.334	423.41667
3011.403	418.08333
3013.472	404.75
3015.539	408.75
3017.604	407.08333
3019.669	376.41667
3021.732	384.41667
3023.794	375.41667
3025.854	373.08333
3027.914	366.08333
3029.971	373.08333
3032.028	365.08333
3034.083	364.08333
3036.137	365.08333
3038.19	348.08333
3040.242	331.75
3042.292	331.08333
3044.341	327.41667
3046.388	339.41667
3048.435	316.08333
3050.48	335.08333
3052.524	322.41667
3054.566	312.41667
3056.607	315.41667
3058.647	314.08333
3060.686	286.41667
3062.723	279.08333
3064.759	275.08333
3066.794	0.41667
3068.828	-1.25
3070.86	-1.91667
