-0.839	441.16667
3.438	440.16667
7.711	122.5
11.981	55.16667
16.247	44.5
20.509	43.16667
24.768	45.83333
29.024	46.16667
33.276	43.5
37.524	62.5
41.769	43.5
46.01	39.16667
50.247	54.83333
54.481	65.5
58.712	71.16667
62.939	53.5
67.162	60.16667
71.382	58.5
75.599	51.5
79.812	67.5
84.021	80.16667
88.227	60.16667
92.429	65.83333
96.628	53.83333
100.823	73.83333
105.015	77.5
109.204	82.5
113.388	81.16667
117.57	75.83333
121.748	93.83333
125.922	82.5
130.093	102.5
134.261	113.83333
138.425	108.16667
142.585	148.5
146.742	148.5
150.896	178.83333
155.046	223.83333
159.193	353.83333
163.336	630.5
167.476	1168.83333
171.613	2135.5
175.746	3581.83333
179.875	5293.5
184.002	6865.5
188.124	7918.16667
192.244	8215.83333
196.36	8120.16667
200.472	7880.16667
204.581	7638.16667
208.687	7472.16667
212.79	7426.16667
216.889	7475.5
220.984	7539.16667
225.077	7645.16667
229.165	7753.83333
233.251	7873.5
237.333	7963.83333
241.412	7975.16667
245.487	7937.83333
249.559	7879.16667
253.628	7816.16667
257.694	7675.5
261.756	7557.16667
265.814	7448.16667
269.87	7160.16667
273.922	6879.5
277.97	6634.83333
282.016	6424.16667
286.058	6244.5
290.097	6197.16667
294.132	6083.83333
298.164	5974.16667
302.193	5711.83333
306.219	5267.83333
310.241	4793.83333
314.26	4320.83333
318.276	3966.83333
322.288	3744.83333
326.297	3518.83333
330.303	3361.16667
334.305	3298.83333
338.305	3200.83333
342.301	3132.16667
346.294	3125.16667
350.283	3083.83333
354.269	3064.5
358.252	3035.5
362.232	3010.5
366.209	2982.5
370.182	2958.83333
374.152	2937.5
378.119	2929.16667
382.083	2927.16667
386.043	2935.83333
390	2909.5
393.954	2868.83333
397.905	2844.16667
401.852	2819.16667
405.797	2770.16667
409.738	2773.5
413.676	2753.5
417.61	2699.83333
421.542	2670.5
425.47	2637.16667
429.396	2588.5
433.318	2612.5
437.236	2619.5
441.152	2614.83333
445.065	2543.83333
448.974	2555.5
452.88	2513.5
456.783	2494.5
460.683	2481.83333
464.58	2503.5
468.473	2489.16667
472.364	2500.16667
476.251	2509.16667
480.135	2505.83333
484.016	2529.5
487.894	2553.5
491.769	2570.83333
495.641	2560.16667
499.509	2545.83333
503.375	2550.83333
507.237	2527.16667
511.096	2538.16667
514.952	2592.16667
518.805	2596.83333
522.655	2618.83333
526.502	2531.5
530.346	2511.16667
534.187	2527.16667
538.024	2525.5
541.859	2518.83333
545.69	2549.83333
549.519	2537.16667
553.344	2500.5
557.166	2473.16667
560.985	2472.16667
564.802	2411.83333
568.615	2400.16667
572.425	2359.5
576.232	2336.5
580.036	2330.83333
583.836	2348.5
587.634	2348.16667
591.429	2334.16667
595.221	2387.83333
599.01	2402.83333
602.796	2428.83333
606.578	2471.83333
610.358	2464.5
614.135	2434.83333
617.909	2448.16667
621.679	2433.5
625.447	2394.16667
629.212	2421.16667
632.973	2428.5
636.732	2400.16667
640.488	2406.5
644.241	2371.83333
647.991	2404.83333
651.737	2410.16667
655.481	2394.5
659.222	2424.16667
662.96	2373.83333
666.695	2428.5
670.427	2428.16667
674.156	2424.83333
677.882	2422.83333
681.605	2404.16667
685.325	2388.5
689.043	2410.5
692.757	2380.83333
696.468	2411.16667
700.177	2426.16667
703.882	2415.16667
707.585	2389.5
711.284	2378.5
714.981	2397.83333
718.675	2411.16667
722.366	2398.5
726.054	2393.5
729.739	2413.5
733.421	2398.83333
737.1	2411.5
740.777	2427.83333
744.45	2425.83333
748.121	2447.16667
751.789	2492.16667
755.453	2462.5
759.115	2526.83333
762.774	2521.5
766.431	2563.16667
770.084	2599.83333
773.734	2597.83333
777.382	2660.5
781.027	2688.5
784.669	2722.16667
788.308	2717.5
791.944	2737.5
795.577	2770.5
799.208	2797.5
802.835	2832.5
806.46	2836.16667
810.082	2865.5
813.701	2889.5
817.317	2909.83333
820.931	2913.83333
824.542	2899.83333
828.149	2876.83333
831.754	2854.16667
835.357	2831.5
838.956	2832.16667
842.553	2812.5
846.146	2791.16667
849.737	2801.16667
853.326	2810.5
856.911	2810.5
860.493	2849.83333
864.073	2846.16667
867.65	2926.83333
871.225	2949.83333
874.796	2963.5
878.365	2986.16667
881.931	2982.83333
885.494	2997.5
889.054	3009.5
892.612	2984.16667
896.166	2974.16667
899.719	2946.16667
903.268	2922.83333
906.814	2904.16667
910.358	2876.83333
913.899	2870.83333
917.438	2886.16667
920.973	2873.16667
924.506	2904.5
928.036	2950.5
931.564	2991.16667
935.088	2998.5
938.61	2995.83333
942.129	3035.83333
945.646	3138.83333
949.16	3164.83333
952.671	3266.16667
956.179	3294.83333
959.685	3252.5
963.188	3237.83333
966.688	3212.5
970.185	3145.5
973.68	3088.5
977.173	3056.16667
980.662	3053.5
984.149	3067.83333
987.633	3071.16667
991.114	3141.16667
994.593	3201.16667
998.069	3326.16667
1001.542	3431.5
1005.013	3343.83333
1008.481	3157.5
1011.947	3084.5
1015.409	3092.5
1018.869	3105.16667
1022.327	3100.83333
1025.782	3056.16667
1029.234	3070.83333
1032.683	3043.16667
1036.13	2937.83333
1039.574	2813.16667
1043.016	2736.5
1046.455	2680.5
1049.891	2650.5
1053.325	2638.83333
1056.756	2672.83333
1060.184	2684.5
1063.61	2657.5
1067.033	2698.5
1070.454	2672.5
1073.872	2723.83333
1077.287	2717.16667
1080.7	2731.83333
1084.11	2737.5
1087.517	2678.5
1090.922	2677.83333
1094.325	2632.16667
1097.724	2622.83333
1101.122	2631.5
1104.516	2596.83333
1107.908	2623.16667
1111.298	2633.5
1114.684	2685.83333
1118.069	2706.83333
1121.45	2735.16667
1124.83	2723.5
1128.206	2733.16667
1131.58	2771.16667
1134.951	2875.5
1138.32	2957.16667
1141.687	3054.5
1145.05	3153.83333
1148.412	3192.16667
1151.77	3179.5
1155.126	3202.5
1158.48	3191.83333
1161.831	3230.83333
1165.18	3224.83333
1168.525	3291.83333
1171.869	3350.5
1175.21	3345.5
1178.548	3415.5
1181.884	3444.5
1185.217	3466.16667
1188.548	3541.83333
1191.877	3568.5
1195.202	3640.5
1198.526	3697.16667
1201.846	3692.83333
1205.165	3692.5
1208.48	3664.16667
1211.794	3631.83333
1215.104	3621.16667
1218.413	3638.83333
1221.719	3628.16667
1225.022	3598.5
1228.323	3557.5
1231.621	3564.16667
1234.917	3538.16667
1238.21	3569.16667
1241.501	3529.5
1244.79	3550.83333
1248.076	3545.83333
1251.359	3563.16667
1254.64	3674.16667
1257.919	3659.83333
1261.195	3736.16667
1264.468	3796.83333
1267.74	3874.5
1271.008	3865.5
1274.275	3845.83333
1277.538	3813.16667
1280.8	3808.16667
1284.059	3795.83333
1287.315	3834.83333
1290.569	3847.5
1293.821	3873.83333
1297.07	3899.5
1300.317	3908.5
1303.562	3921.16667
1306.803	3869.83333
1310.043	3821.83333
1313.28	3772.83333
1316.515	3773.16667
1319.747	3724.16667
1322.977	3673.16667
1326.204	3606.83333
1329.429	3562.5
1332.652	3553.16667
1335.872	3539.83333
1339.09	3537.83333
1342.306	3529.5
1345.519	3514.5
1348.729	3497.5
1351.938	3450.16667
1355.144	3408.5
1358.347	3353.5
1361.548	3355.16667
1364.747	3368.16667
1367.944	3353.5
1371.138	3390.83333
1374.329	3402.83333
1377.518	3436.5
1380.705	3476.5
1383.89	3429.83333
1387.072	3340.5
1390.252	3239.16667
1393.429	3143.16667
1396.605	3031.83333
1399.777	2933.83333
1402.948	2891.16667
1406.116	2890.16667
1409.282	2873.5
1412.445	2881.5
1415.606	2915.5
1418.765	2937.5
1421.921	3000.16667
1425.075	3096.5
1428.227	3160.16667
1431.376	3323.83333
1434.524	3451.83333
1437.668	3536.16667
1440.811	3577.16667
1443.951	3598.5
1447.089	3614.16667
1450.224	3595.16667
1453.357	3570.83333
1456.488	3582.16667
1459.617	3515.83333
1462.743	3458.16667
1465.867	3396.16667
1468.989	3376.83333
1472.108	3303.5
1475.225	3260.16667
1478.34	3219.5
1481.453	3217.5
1484.563	3219.16667
1487.671	3251.5
1490.776	3308.83333
1493.88	3388.83333
1496.981	3478.16667
1500.08	3525.16667
1503.176	3588.16667
1506.271	3666.16667
1509.363	3713.16667
1512.452	3777.16667
1515.54	3838.83333
1518.625	3963.16667
1521.708	4140.5
1524.789	4350.83333
1527.867	4653.83333
1530.944	4979.16667
1534.018	5182.83333
1537.089	5261.16667
1540.159	5210.5
1543.226	5092.83333
1546.291	4883.16667
1549.354	4734.5
1552.415	4565.16667
1555.473	4447.83333
1558.529	4337.83333
1561.583	4293.5
1564.634	4262.5
1567.684	4273.16667
1570.731	4259.5
1573.776	4324.16667
1576.819	4359.16667
1579.859	4407.16667
1582.898	4485.5
1585.934	4503.5
1588.968	4533.16667
1591.999	4491.16667
1595.029	4483.83333
1598.056	4494.5
1601.081	4522.83333
1604.104	4514.5
1607.125	4443.83333
1610.144	4347.16667
1613.16	4273.83333
1616.174	4155.16667
1619.186	4049.83333
1622.196	3967.5
1625.203	3878.16667
1628.209	3822.16667
1631.212	3820.16667
1634.213	3778.16667
1637.212	3733.16667
1640.209	3662.5
1643.203	3579.16667
1646.196	3482.5
1649.186	3320.16667
1652.174	3223.83333
1655.16	3112.16667
1658.144	3016.5
1661.125	2889.83333
1664.105	2749.83333
1667.082	2614.5
1670.057	2461.16667
1673.03	2328.83333
1676.001	2171.83333
1678.97	2027.5
1681.937	1897.5
1684.901	1801.16667
1687.863	1735.83333
1690.824	1688.5
1693.782	1628.83333
1696.738	1584.16667
1699.692	1546.83333
1702.643	1513.5
1705.593	1490.83333
1708.54	1466.16667
1711.486	1459.16667
1714.429	1431.83333
1717.37	1413.83333
1720.309	1385.5
1723.246	1388.16667
1726.181	1355.83333
1729.113	1373.16667
1732.044	1331.83333
1734.972	1330.5
1737.899	1328.5
1740.823	1318.16667
1743.745	1307.83333
1746.665	1256.5
1749.583	1247.83333
1752.499	1228.83333
1755.413	1229.83333
1758.325	1195.16667
1761.235	1190.16667
1764.142	1149.16667
1767.048	1161.5
1769.951	1153.83333
1772.852	1128.5
1775.752	1135.83333
1778.649	1128.16667
1781.544	1141.16667
1784.437	1104.5
1787.328	1119.5
1790.217	1097.16667
1793.104	1084.83333
1795.989	1067.83333
1798.872	1068.5
1801.753	1089.83333
1804.631	1076.83333
1807.508	1076.16667
1810.383	1063.83333
1813.255	1050.5
1816.126	1062.83333
1818.994	1058.83333
1821.861	1051.16667
1824.725	1044.5
1827.587	1043.5
1830.448	1039.83333
1833.306	1002.5
1836.162	1029.5
1839.017	1008.16667
1841.869	1025.83333
1844.719	1002.16667
1847.567	988.5
1850.414	997.16667
1853.258	1000.83333
1856.1	1002.5
1858.94	1012.5
1861.778	991.83333
1864.614	993.5
1867.448	982.5
1870.28	975.16667
1873.111	990.83333
1875.939	981.16667
1878.765	1002.16667
1881.589	986.16667
1884.411	973.5
1887.231	988.5
1890.049	968.5
1892.865	971.16667
1895.68	965.83333
1898.492	971.83333
1901.302	953.5
1904.11	952.5
1906.916	943.5
1909.721	936.5
1912.523	940.83333
1915.323	920.5
1918.122	932.83333
1920.918	942.83333
1923.712	933.5
1926.505	929.5
1929.295	915.16667
1932.084	931.83333
1934.87	924.5
1937.655	907.83333
1940.438	917.16667
1943.218	927.5
1945.997	932.16667
1948.774	929.5
1951.549	915.5
1954.322	910.16667
1957.093	922.83333
1959.862	904.83333
1962.629	907.5
1965.394	901.5
1968.157	896.83333
1970.918	893.83333
1973.678	889.5
1976.435	882.83333
1979.19	890.16667
1981.944	885.83333
1984.696	875.5
1987.445	871.83333
1990.193	882.5
1992.939	884.5
1995.683	878.83333
1998.425	855.5
2001.165	884.5
2003.903	860.16667
2006.639	873.5
2009.374	858.5
2012.106	865.83333
2014.837	844.5
2017.566	864.83333
2020.292	863.83333
2023.017	856.83333
2025.74	846.16667
2028.461	846.16667
2031.18	853.83333
2033.898	850.83333
2036.613	837.83333
2039.327	856.83333
2042.038	839.83333
2044.748	835.16667
2047.456	839.16667
2050.162	805.16667
2052.866	820.5
2055.568	838.83333
2058.268	824.83333
2060.967	829.83333
2063.663	818.83333
2066.358	821.5
2069.051	810.5
2071.742	808.5
2074.431	815.16667
2077.118	816.5
2079.804	813.5
2082.487	820.5
2085.169	835.5
2087.849	838.5
2090.527	820.83333
2093.203	829.16667
2095.877	828.83333
2098.55	834.83333
2101.22	844.5
2103.889	850.83333
2106.556	842.16667
2109.221	876.16667
2111.884	887.5
2114.546	924.16667
2117.205	973.16667
2119.863	1039.83333
2122.519	1127.5
2125.173	1184.16667
2127.825	1308.5
2130.475	1335.16667
2133.124	1328.83333
2135.771	1276.16667
2138.416	1253.5
2141.059	1180.16667
2143.7	1132.16667
2146.339	1061.16667
2148.977	997.16667
2151.613	991.16667
2154.247	969.83333
2156.879	947.5
2159.51	922.16667
2162.138	918.5
2164.765	920.83333
2167.39	907.16667
2170.013	930.83333
2172.634	915.83333
2175.254	915.5
2177.872	940.16667
2180.488	902.83333
2183.102	912.83333
2185.714	893.16667
2188.325	864.16667
2190.934	869.16667
2193.541	861.16667
2196.146	835.16667
2198.75	812.5
2201.351	807.83333
2203.951	774.5
2206.549	798.5
2209.146	778.5
2211.74	754.5
2214.333	775.16667
2216.924	738.16667
2219.514	749.83333
2222.101	750.83333
2224.687	742.83333
2227.271	730.5
2229.853	732.83333
2232.433	714.83333
2235.012	738.83333
2237.589	731.5
2240.164	726.5
2242.738	723.5
2245.309	707.5
2247.879	720.16667
2250.448	710.16667
2253.014	691.5
2255.579	667.5
2258.142	673.5
2260.703	671.16667
2263.262	663.16667
2265.82	662.83333
2268.376	669.5
2270.93	646.83333
2273.483	653.5
2276.033	659.83333
2278.583	647.5
2281.13	644.5
2283.675	627.5
2286.219	636.5
2288.761	635.5
2291.302	633.83333
2293.841	638.5
2296.377	620.16667
2298.913	619.16667
2301.446	634.5
2303.978	626.83333
2306.508	616.83333
2309.037	614.16667
2311.563	621.16667
2314.088	614.83333
2316.612	601.5
2319.133	613.83333
2321.653	613.5
2324.171	598.16667
2326.688	604.83333
2329.202	599.16667
2331.715	591.83333
2334.227	608.16667
2336.736	599.83333
2339.244	584.16667
2341.751	585.16667
2344.255	590.83333
2346.758	579.83333
2349.259	577.16667
2351.759	580.5
2354.257	586.83333
2356.753	574.5
2359.247	588.16667
2361.74	584.5
2364.231	579.83333
2366.721	591.5
2369.209	576.5
2371.695	575.83333
2374.179	566.83333
2376.662	566.16667
2379.143	588.16667
2381.622	562.83333
2384.1	570.16667
2386.576	559.5
2389.051	584.83333
2391.524	578.5
2393.995	573.5
2396.464	554.16667
2398.932	567.5
2401.398	563.5
2403.863	553.5
2406.325	559.5
2408.787	558.83333
2411.246	560.16667
2413.704	551.16667
2416.16	551.5
2418.615	555.16667
2421.068	559.16667
2423.519	548.16667
2425.969	541.16667
2428.417	552.5
2430.863	570.5
2433.308	561.83333
2435.751	545.83333
2438.193	541.5
2440.633	556.16667
2443.071	546.16667
2445.508	525.83333
2447.943	532.83333
2450.376	526.5
2452.808	544.16667
2455.238	532.5
2457.667	560.83333
2460.093	535.5
2462.519	531.5
2464.942	521.16667
2467.365	529.5
2469.785	530.83333
2472.204	520.5
2474.621	519.16667
2477.037	552.5
2479.451	513.16667
2481.863	511.5
2484.274	514.83333
2486.683	521.5
2489.091	524.16667
2491.497	532.83333
2493.901	514.16667
2496.304	509.5
2498.705	520.5
2501.105	504.83333
2503.503	538.16667
2505.899	510.83333
2508.294	531.83333
2510.687	502.83333
2513.079	500.5
2515.469	503.5
2517.858	506.16667
2520.245	518.5
2522.63	515.5
2525.014	497.16667
2527.396	499.5
2529.776	494.5
2532.156	504.83333
2534.533	484.5
2536.909	490.83333
2539.283	480.16667
2541.656	497.16667
2544.027	505.5
2546.397	494.5
2548.765	491.16667
2551.131	493.5
2553.496	496.16667
2555.86	506.5
2558.221	487.83333
2560.582	493.5
2562.94	480.16667
2565.298	491.83333
2567.653	509.83333
2570.007	475.83333
2572.36	502.5
2574.711	484.16667
2577.06	507.83333
2579.408	491.16667
2581.754	485.5
2584.099	487.83333
2586.442	481.16667
2588.784	502.5
2591.124	482.5
2593.463	482.16667
2595.8	487.16667
2598.135	472.16667
2600.469	485.83333
2602.802	495.83333
2605.133	497.5
2607.462	469.16667
2609.79	480.83333
2612.116	486.5
2614.441	479.83333
2616.764	483.5
2619.086	475.83333
2621.406	479.5
2623.725	488.16667
2626.042	483.5
2628.358	478.16667
2630.672	476.83333
2632.985	484.16667
2635.296	481.83333
2637.606	486.16667
2639.914	471.16667
2642.22	482.16667
2644.525	482.16667
2646.829	487.83333
2649.131	496.16667
2651.432	492.83333
2653.731	478.5
2656.028	493.83333
2658.324	495.5
2660.619	471.16667
2662.912	495.5
2665.204	470.5
2667.494	492.5
2669.782	478.83333
2672.07	495.83333
2674.355	496.16667
2676.639	488.83333
2678.922	488.83333
2681.203	501.16667
2683.483	473.83333
2685.761	473.83333
2688.038	495.5
2690.313	502.83333
2692.587	491.5
2694.859	488.16667
2697.13	491.5
2699.399	490.16667
2701.667	514.16667
2703.933	508.5
2706.198	512.5
2708.461	509.16667
2710.723	521.83333
2712.984	512.83333
2715.243	526.16667
2717.5	519.5
2719.757	523.5
2722.011	526.83333
2724.264	542.5
2726.516	542.16667
2728.766	534.5
2731.015	533.16667
2733.262	528.83333
2735.508	525.83333
2737.753	519.16667
2739.996	508.16667
2742.237	510.5
2744.477	522.5
2746.716	527.83333
2748.953	506.83333
2751.189	522.16667
2753.423	499.5
2755.656	506.16667
2757.887	498.5
2760.117	495.5
2762.346	491.16667
2764.573	487.83333
2766.798	489.83333
2769.022	493.83333
2771.245	497.83333
2773.467	498.16667
2775.686	501.5
2777.905	507.83333
2780.122	508.5
2782.337	521.83333
2784.552	503.83333
2786.764	524.5
2788.976	521.5
2791.186	528.16667
2793.394	534.83333
2795.601	537.5
2797.807	558.5
2800.011	544.5
2802.214	554.5
2804.415	564.5
2806.615	565.83333
2808.814	574.16667
2811.011	577.83333
2813.206	579.16667
2815.401	598.83333
2817.594	607.83333
2819.785	616.5
2821.975	612.16667
2824.164	622.5
2826.351	642.83333
2828.537	657.83333
2830.722	669.83333
2832.905	683.16667
2835.086	718.16667
2837.267	746.83333
2839.445	777.5
2841.623	803.16667
2843.799	839.5
2845.974	868.5
2848.147	920.83333
2850.319	941.5
2852.489	979.83333
2854.659	981.83333
2856.826	1000.5
2858.993	1026.5
2861.158	1029.5
2863.321	1020.16667
2865.483	1048.16667
2867.644	1031.83333
2869.804	1035.16667
2871.962	1025.83333
2874.118	1035.16667
2876.274	1028.83333
2878.428	1014.83333
2880.58	1024.5
2882.731	1010.5
2884.881	1011.5
2887.03	1019.16667
2889.177	1016.16667
2891.322	1028.83333
2893.467	1023.16667
2895.61	1039.83333
2897.751	1060.16667
2899.892	1044.83333
2902.03	1069.5
2904.168	1079.16667
2906.304	1072.5
2908.439	1100.16667
2910.572	1077.83333
2912.704	1094.83333
2914.835	1107.16667
2916.965	1085.5
2919.093	1097.16667
2921.219	1072.16667
2923.345	1079.16667
2925.469	1055.5
2927.591	1068.16667
2929.712	1009.5
2931.832	1008.83333
2933.951	987.83333
2936.068	959.83333
2938.184	931.5
2940.299	899.83333
2942.412	883.83333
2944.524	831.83333
2946.634	810.5
2948.744	770.16667
2950.851	791.16667
2952.958	734.5
2955.063	720.5
2957.167	716.83333
2959.269	679.83333
2961.371	688.5
2963.471	645.5
2965.569	658.83333
2967.666	618.16667
2969.762	605.16667
2971.857	584.16667
2973.95	571.16667
2976.042	567.16667
2978.133	553.16667
2980.222	535.16667
2982.31	515.16667
2984.396	502.5
2986.482	504.16667
2988.566	495.5
2990.648	487.16667
2992.73	475.16667
2994.81	462.5
2996.889	479.16667
2998.966	450.5
3001.042	471.83333
3003.117	460.16667
3005.191	453.5
3007.263	444.16667
3009.334	446.83333
3011.403	438.83333
3013.472	423.5
3015.539	424.5
3017.604	425.5
3019.669	390.16667
3021.732	401.16667
3023.794	406.83333
3025.854	380.83333
3027.914	383.83333
3029.971	390.83333
3032.028	383.83333
3034.083	389.16667
3036.137	386.5
3038.19	364.16667
3040.242	362.83333
3042.292	354.5
3044.341	345.83333
3046.388	367.83333
3048.435	343.5
3050.48	351.5
3052.524	347.83333
3054.566	324.16667
3056.607	338.5
3058.647	336.5
3060.686	314.16667
3062.723	310.16667
3064.759	292.83333
3066.794	1.16667
3068.828	-0.83333
3070.86	-3.16667
