-0.839	425.875
3.438	459.20833
7.711	121.54167
11.981	51.875
16.247	45.54167
20.509	45.20833
24.768	44.20833
29.024	50.875
33.276	47.54167
37.524	52.20833
41.769	40.54167
46.01	37.875
50.247	53.20833
54.481	61.20833
58.712	69.875
62.939	53.54167
67.162	63.20833
71.382	61.875
75.599	46.875
79.812	65.875
84.021	83.875
88.227	63.54167
92.429	63.875
96.628	50.54167
100.823	70.20833
105.015	77.875
109.204	78.875
113.388	82.20833
117.57	79.20833
121.748	97.20833
125.922	86.875
130.093	106.54167
134.261	115.20833
138.425	105.875
142.585	149.875
146.742	156.875
150.896	179.20833
155.046	230.20833
159.193	361.875
163.336	623.875
167.476	1152.54167
171.613	2154.20833
175.746	3578.54167
179.875	5330.54167
184.002	6897.875
188.124	7966.875
192.244	8317.20833
196.36	8261.54167
200.472	8037.875
204.581	7813.54167
208.687	7660.54167
212.79	7630.20833
216.889	7674.20833
220.984	7742.875
225.077	7843.54167
229.165	7978.54167
233.251	8110.20833
237.333	8194.54167
241.412	8247.54167
245.487	8230.54167
249.559	8124.875
253.628	8064.20833
257.694	7963.875
261.756	7889.20833
265.814	7693.20833
269.87	7473.54167
273.922	7166.20833
277.97	6941.875
282.016	6701.875
286.058	6535.54167
290.097	6400.875
294.132	6266.54167
298.164	6192.20833
302.193	5937.54167
306.219	5599.875
310.241	5084.875
314.26	4621.20833
318.276	4234.875
322.288	3985.54167
326.297	3786.875
330.303	3637.20833
334.305	3534.875
338.305	3474.54167
342.301	3428.54167
346.294	3419.875
350.283	3379.20833
354.269	3324.54167
358.252	3329.875
362.232	3301.54167
366.209	3283.20833
370.182	3276.20833
374.152	3232.20833
378.119	3266.20833
382.083	3232.20833
386.043	3274.875
390	3229.54167
393.954	3212.20833
397.905	3175.875
401.852	3156.875
405.797	3080.20833
409.738	3060.54167
413.676	3060.20833
417.61	3028.20833
421.542	2988.875
425.47	2964.20833
429.396	2924.54167
433.318	2903.875
437.236	2886.875
441.152	2888.54167
445.065	2846.875
448.974	2804.54167
452.88	2790.54167
456.783	2801.54167
460.683	2777.875
464.58	2788.875
468.473	2789.20833
472.364	2786.20833
476.251	2777.20833
480.135	2821.20833
484.016	2836.54167
487.894	2861.875
491.769	2848.875
495.641	2865.875
499.509	2866.54167
503.375	2850.875
507.237	2828.875
511.096	2838.875
514.952	2862.875
518.805	2871.875
522.655	2898.875
526.502	2824.54167
530.346	2806.20833
534.187	2810.875
538.024	2796.875
541.859	2800.875
545.69	2812.875
549.519	2792.20833
553.344	2777.875
557.166	2762.54167
560.985	2707.875
564.802	2703.54167
568.615	2653.54167
572.425	2626.875
576.232	2602.54167
580.036	2611.54167
583.836	2606.20833
587.634	2611.54167
591.429	2615.875
595.221	2655.54167
599.01	2678.875
602.796	2695.20833
606.578	2725.875
610.358	2721.54167
614.135	2716.54167
617.909	2707.875
621.679	2713.20833
625.447	2686.20833
629.212	2706.875
632.973	2702.54167
636.732	2657.875
640.488	2693.54167
644.241	2647.875
647.991	2651.54167
651.737	2699.20833
655.481	2666.875
659.222	2698.20833
662.96	2682.54167
666.695	2697.20833
670.427	2684.875
674.156	2719.54167
677.882	2710.20833
681.605	2710.54167
685.325	2664.20833
689.043	2661.20833
692.757	2663.54167
696.468	2676.20833
700.177	2673.20833
703.882	2642.54167
707.585	2646.54167
711.284	2628.875
714.981	2616.20833
718.675	2675.875
722.366	2672.20833
726.054	2657.875
729.739	2663.20833
733.421	2645.20833
737.1	2626.875
740.777	2681.875
744.45	2680.54167
748.121	2722.875
751.789	2739.20833
755.453	2733.54167
759.115	2757.875
762.774	2790.20833
766.431	2825.54167
770.084	2841.20833
773.734	2842.20833
777.382	2885.20833
781.027	2911.875
784.669	2914.875
788.308	2957.54167
791.944	2952.54167
795.577	2991.54167
799.208	3041.20833
802.835	3056.54167
806.46	3056.20833
810.082	3109.54167
813.701	3119.20833
817.317	3153.54167
820.931	3160.54167
824.542	3145.20833
828.149	3108.875
831.754	3060.54167
835.357	3035.20833
838.956	3021.20833
842.553	3017.54167
846.146	3014.875
849.737	2963.875
853.326	2992.875
856.911	2987.54167
860.493	3053.54167
864.073	3050.875
867.65	3072.20833
871.225	3125.54167
874.796	3115.20833
878.365	3108.875
881.931	3137.20833
885.494	3144.875
889.054	3145.875
892.612	3150.20833
896.166	3111.54167
899.719	3130.875
903.268	3084.20833
906.814	3067.875
910.358	3053.875
913.899	3057.54167
917.438	3063.54167
920.973	3029.20833
924.506	3071.54167
928.036	3133.875
931.564	3135.20833
935.088	3193.20833
938.61	3183.20833
942.129	3196.54167
945.646	3281.875
949.16	3345.54167
952.671	3440.54167
956.179	3481.20833
959.685	3476.54167
963.188	3468.20833
966.688	3455.875
970.185	3365.54167
973.68	3282.875
977.173	3270.20833
980.662	3247.54167
984.149	3263.20833
987.633	3262.20833
991.114	3328.875
994.593	3436.875
998.069	3515.875
1001.542	3626.54167
1005.013	3542.875
1008.481	3335.20833
1011.947	3301.54167
1015.409	3270.54167
1018.869	3259.54167
1022.327	3248.54167
1025.782	3235.54167
1029.234	3247.20833
1032.683	3213.875
1036.13	3108.54167
1039.574	2996.875
1043.016	2925.875
1046.455	2870.54167
1049.891	2829.20833
1053.325	2839.54167
1056.756	2811.54167
1060.184	2847.54167
1063.61	2859.20833
1067.033	2866.54167
1070.454	2866.875
1073.872	2896.20833
1077.287	2895.20833
1080.7	2896.20833
1084.11	2917.54167
1087.517	2873.875
1090.922	2844.20833
1094.325	2785.54167
1097.724	2775.875
1101.122	2763.875
1104.516	2761.20833
1107.908	2782.20833
1111.298	2847.875
1114.684	2839.875
1118.069	2877.20833
1121.45	2897.20833
1124.83	2853.54167
1128.206	2895.20833
1131.58	2942.54167
1134.951	2999.875
1138.32	3062.20833
1141.687	3209.54167
1145.05	3291.875
1148.412	3309.54167
1151.77	3287.54167
1155.126	3274.54167
1158.48	3286.20833
1161.831	3296.875
1165.18	3321.54167
1168.525	3369.20833
1171.869	3431.20833
1175.21	3446.875
1178.548	3508.20833
1181.884	3511.20833
1185.217	3551.54167
1188.548	3625.54167
1191.877	3656.54167
1195.202	3724.54167
1198.526	3801.20833
1201.846	3781.875
1205.165	3816.20833
1208.48	3758.20833
1211.794	3773.20833
1215.104	3744.54167
1218.413	3747.875
1221.719	3724.54167
1225.022	3722.20833
1228.323	3685.54167
1231.621	3675.20833
1234.917	3659.875
1238.21	3696.875
1241.501	3652.20833
1244.79	3668.875
1248.076	3653.54167
1251.359	3716.20833
1254.64	3769.54167
1257.919	3788.54167
1261.195	3865.20833
1264.468	3915.20833
1267.74	3962.20833
1271.008	3989.20833
1274.275	3948.54167
1277.538	3938.54167
1280.8	3919.54167
1284.059	3904.875
1287.315	3955.54167
1290.569	3970.875
1293.821	4002.875
1297.07	3985.20833
1300.317	3999.875
1303.562	4003.20833
1306.803	3963.875
1310.043	3942.875
1313.28	3899.54167
1316.515	3869.54167
1319.747	3860.875
1322.977	3797.875
1326.204	3752.54167
1329.429	3717.54167
1332.652	3694.54167
1335.872	3699.875
1339.09	3688.20833
1342.306	3692.875
1345.519	3703.20833
1348.729	3688.20833
1351.938	3664.54167
1355.144	3635.875
1358.347	3517.54167
1361.548	3541.875
1364.747	3556.54167
1367.944	3558.20833
1371.138	3551.875
1374.329	3601.875
1377.518	3621.20833
1380.705	3655.20833
1383.89	3623.54167
1387.072	3539.875
1390.252	3408.20833
1393.429	3265.20833
1396.605	3165.20833
1399.777	3080.54167
1402.948	3066.54167
1406.116	3016.875
1409.282	3017.54167
1412.445	3034.20833
1415.606	3044.54167
1418.765	3092.54167
1421.921	3142.20833
1425.075	3199.54167
1428.227	3325.875
1431.376	3464.20833
1434.524	3597.875
1437.668	3692.54167
1440.811	3713.875
1443.951	3740.54167
1447.089	3754.875
1450.224	3760.20833
1453.357	3748.20833
1456.488	3696.875
1459.617	3635.20833
1462.743	3590.20833
1465.867	3525.20833
1468.989	3458.20833
1472.108	3420.54167
1475.225	3366.875
1478.34	3332.875
1481.453	3323.54167
1484.563	3317.875
1487.671	3349.875
1490.776	3401.20833
1493.88	3440.875
1496.981	3519.20833
1500.08	3592.54167
1503.176	3633.875
1506.271	3710.20833
1509.363	3793.54167
1512.452	3833.20833
1515.54	3921.875
1518.625	4012.20833
1521.708	4178.54167
1524.789	4408.875
1527.867	4686.875
1530.944	4996.875
1534.018	5216.875
1537.089	5315.54167
1540.159	5197.20833
1543.226	5075.54167
1546.291	4871.20833
1549.354	4665.20833
1552.415	4569.54167
1555.473	4422.875
1558.529	4313.54167
1561.583	4301.20833
1564.634	4273.875
1567.684	4257.875
1570.731	4258.875
1573.776	4315.875
1576.819	4363.20833
1579.859	4422.875
1582.898	4470.20833
1585.934	4483.54167
1588.968	4502.20833
1591.999	4472.875
1595.029	4495.875
1598.056	4482.54167
1601.081	4496.875
1604.104	4479.20833
1607.125	4432.20833
1610.144	4348.875
1613.16	4260.54167
1616.174	4206.54167
1619.186	4136.875
1622.196	4030.875
1625.203	3974.875
1628.209	3931.20833
1631.212	3957.875
1634.213	3940.54167
1637.212	3989.54167
1640.209	3914.54167
1643.203	3807.875
1646.196	3691.875
1649.186	3570.875
1652.174	3429.20833
1655.16	3371.875
1658.144	3275.875
1661.125	3120.20833
1664.105	2975.875
1667.082	2839.20833
1670.057	2649.54167
1673.03	2494.875
1676.001	2326.54167
1678.97	2165.20833
1681.937	2043.20833
1684.901	1915.875
1687.863	1858.875
1690.824	1777.54167
1693.782	1748.54167
1696.738	1672.875
1699.692	1648.54167
1702.643	1606.20833
1705.593	1598.20833
1708.54	1568.54167
1711.486	1573.20833
1714.429	1541.20833
1717.37	1519.54167
1720.309	1486.20833
1723.246	1500.875
1726.181	1454.875
1729.113	1459.20833
1732.044	1447.20833
1734.972	1437.54167
1737.899	1437.54167
1740.823	1414.20833
1743.745	1427.54167
1746.665	1358.54167
1749.583	1360.20833
1752.499	1326.875
1755.413	1336.54167
1758.325	1283.20833
1761.235	1292.54167
1764.142	1270.20833
1767.048	1258.20833
1769.951	1252.875
1772.852	1236.875
1775.752	1240.54167
1778.649	1230.20833
1781.544	1240.54167
1784.437	1194.20833
1787.328	1199.20833
1790.217	1213.20833
1793.104	1179.875
1795.989	1160.54167
1798.872	1168.875
1801.753	1182.875
1804.631	1183.875
1807.508	1193.20833
1810.383	1181.20833
1813.255	1154.54167
1816.126	1154.20833
1818.994	1159.54167
1821.861	1137.20833
1824.725	1141.875
1827.587	1133.875
1830.448	1132.20833
1833.306	1102.875
1836.162	1121.54167
1839.017	1096.875
1841.869	1103.875
1844.719	1094.875
1847.567	1095.875
1850.414	1066.54167
1853.258	1087.875
1856.1	1077.20833
1858.94	1108.20833
1861.778	1088.875
1864.614	1080.54167
1867.448	1084.875
1870.28	1077.54167
1873.111	1100.20833
1875.939	1082.875
1878.765	1089.20833
1881.589	1080.875
1884.411	1075.875
1887.231	1066.875
1890.049	1069.54167
1892.865	1054.20833
1895.68	1066.54167
1898.492	1061.20833
1901.302	1034.875
1904.11	1032.20833
1906.916	1029.20833
1909.721	1024.54167
1912.523	1040.54167
1915.323	999.20833
1918.122	1020.875
1920.918	1019.54167
1923.712	998.875
1926.505	1020.875
1929.295	1006.20833
1932.084	1015.875
1934.87	1021.54167
1937.655	999.20833
1940.438	999.54167
1943.218	1007.20833
1945.997	1007.20833
1948.774	1021.54167
1951.549	1009.20833
1954.322	983.20833
1957.093	994.875
1959.862	979.875
1962.629	986.20833
1965.394	977.875
1968.157	960.54167
1970.918	983.875
1973.678	968.20833
1976.435	969.20833
1979.19	948.54167
1981.944	955.54167
1984.696	955.875
1987.445	943.20833
1990.193	954.54167
1992.939	962.875
1995.683	947.875
1998.425	935.875
2001.165	956.54167
2003.903	940.875
2006.639	928.54167
2009.374	929.20833
2012.106	931.20833
2014.837	911.875
2017.566	926.54167
2020.292	920.20833
2023.017	944.20833
2025.74	921.54167
2028.461	915.875
2031.18	935.20833
2033.898	908.875
2036.613	909.875
2039.327	913.875
2042.038	895.20833
2044.748	899.875
2047.456	902.875
2050.162	882.54167
2052.866	889.54167
2055.568	889.20833
2058.268	898.54167
2060.967	899.54167
2063.663	872.875
2066.358	897.20833
2069.051	876.20833
2071.742	877.54167
2074.431	890.875
2077.118	884.875
2079.804	870.875
2082.487	882.20833
2085.169	899.54167
2087.849	889.875
2090.527	882.875
2093.203	890.54167
2095.877	890.20833
2098.55	876.20833
2101.22	907.875
2103.889	898.54167
2106.556	895.875
2109.221	926.20833
2111.884	939.54167
2114.546	973.875
2117.205	1005.20833
2119.863	1074.875
2122.519	1140.54167
2125.173	1213.54167
2127.825	1299.54167
2130.475	1327.875
2133.124	1316.54167
2135.771	1293.875
2138.416	1250.875
2141.059	1177.54167
2143.7	1141.20833
2146.339	1088.54167
2148.977	1041.20833
2151.613	1041.875
2154.247	994.20833
2156.879	983.875
2159.51	973.54167
2162.138	963.54167
2164.765	973.875
2167.39	954.20833
2170.013	978.54167
2172.634	999.20833
2175.254	970.54167
2177.872	998.54167
2180.488	971.20833
2183.102	964.20833
2185.714	940.54167
2188.325	913.54167
2190.934	926.875
2193.541	904.20833
2196.146	877.54167
2198.75	858.20833
2201.351	851.20833
2203.951	823.54167
2206.549	835.54167
2209.146	809.20833
2211.74	795.54167
2214.333	797.875
2216.924	784.20833
2219.514	790.54167
2222.101	775.54167
2224.687	805.20833
2227.271	778.20833
2229.853	774.54167
2232.433	754.54167
2235.012	778.875
2237.589	781.20833
2240.164	779.20833
2242.738	771.20833
2245.309	758.54167
2247.879	760.875
2250.448	746.54167
2253.014	736.875
2255.579	717.20833
2258.142	711.20833
2260.703	716.20833
2263.262	709.20833
2265.82	706.20833
2268.376	711.875
2270.93	696.20833
2273.483	683.54167
2276.033	688.54167
2278.583	675.54167
2281.13	687.20833
2283.675	670.20833
2286.219	685.20833
2288.761	687.875
2291.302	675.54167
2293.841	679.875
2296.377	665.875
2298.913	667.20833
2301.446	681.54167
2303.978	663.54167
2306.508	661.20833
2309.037	660.875
2311.563	664.20833
2314.088	660.875
2316.612	641.875
2319.133	661.875
2321.653	649.54167
2324.171	635.20833
2326.688	642.54167
2329.202	647.20833
2331.715	636.20833
2334.227	637.54167
2336.736	621.54167
2339.244	628.875
2341.751	622.875
2344.255	636.54167
2346.758	621.54167
2349.259	615.875
2351.759	612.20833
2354.257	613.54167
2356.753	609.875
2359.247	616.875
2361.74	619.54167
2364.231	612.54167
2366.721	610.875
2369.209	606.20833
2371.695	597.54167
2374.179	606.54167
2376.662	599.54167
2379.143	608.875
2381.622	603.54167
2384.1	604.54167
2386.576	582.875
2389.051	613.20833
2391.524	607.875
2393.995	603.875
2396.464	595.20833
2398.932	584.54167
2401.398	588.875
2403.863	588.54167
2406.325	588.20833
2408.787	572.54167
2411.246	581.20833
2413.704	582.20833
2416.16	579.20833
2418.615	579.875
2421.068	579.875
2423.519	578.54167
2425.969	566.54167
2428.417	580.875
2430.863	587.20833
2433.308	588.54167
2435.751	579.20833
2438.193	579.20833
2440.633	578.54167
2443.071	563.875
2445.508	561.20833
2447.943	561.875
2450.376	554.875
2452.808	565.20833
2455.238	553.20833
2457.667	576.54167
2460.093	561.54167
2462.519	545.20833
2464.942	545.54167
2467.365	571.20833
2469.785	553.875
2472.204	541.875
2474.621	539.20833
2477.037	556.54167
2479.451	540.20833
2481.863	535.54167
2484.274	538.875
2486.683	544.20833
2489.091	546.54167
2491.497	549.20833
2493.901	541.20833
2496.304	528.875
2498.705	546.54167
2501.105	533.875
2503.503	559.875
2505.899	529.54167
2508.294	554.875
2510.687	515.54167
2513.079	524.20833
2515.469	530.54167
2517.858	527.20833
2520.245	539.875
2522.63	523.875
2525.014	528.20833
2527.396	522.875
2529.776	516.54167
2532.156	526.20833
2534.533	519.875
2536.909	514.20833
2539.283	500.54167
2541.656	516.875
2544.027	537.54167
2546.397	523.875
2548.765	513.875
2551.131	512.20833
2553.496	513.20833
2555.86	523.54167
2558.221	511.875
2560.582	520.20833
2562.94	495.54167
2565.298	507.20833
2567.653	527.20833
2570.007	493.20833
2572.36	509.54167
2574.711	502.875
2577.06	517.20833
2579.408	502.20833
2581.754	515.875
2584.099	507.54167
2586.442	507.20833
2588.784	514.20833
2591.124	506.20833
2593.463	503.54167
2595.8	504.875
2598.135	479.54167
2600.469	493.875
2602.802	510.20833
2605.133	501.875
2607.462	493.54167
2609.79	488.875
2612.116	501.20833
2614.441	494.54167
2616.764	498.20833
2619.086	501.875
2621.406	486.20833
2623.725	510.54167
2626.042	504.20833
2628.358	493.875
2630.672	487.54167
2632.985	507.54167
2635.296	502.875
2637.606	490.20833
2639.914	489.875
2642.22	499.20833
2644.525	495.20833
2646.829	508.54167
2649.131	506.54167
2651.432	519.875
2653.731	504.875
2656.028	515.54167
2658.324	506.875
2660.619	500.875
2662.912	509.54167
2665.204	487.875
2667.494	514.20833
2669.782	487.875
2672.07	501.54167
2674.355	508.54167
2676.639	497.54167
2678.922	493.20833
2681.203	508.875
2683.483	491.54167
2685.761	485.875
2688.038	502.20833
2690.313	514.20833
2692.587	498.20833
2694.859	500.54167
2697.13	505.875
2699.399	507.54167
2701.667	527.875
2703.933	517.875
2706.198	515.54167
2708.461	526.20833
2710.723	519.875
2712.984	514.20833
2715.243	535.20833
2717.5	525.20833
2719.757	544.54167
2722.011	524.54167
2724.264	540.875
2726.516	559.875
2728.766	540.875
2731.015	544.20833
2733.262	539.20833
2735.508	527.54167
2737.753	528.20833
2739.996	521.20833
2742.237	524.20833
2744.477	531.54167
2746.716	531.54167
2748.953	513.54167
2751.189	519.875
2753.423	500.875
2755.656	503.20833
2757.887	500.875
2760.117	508.875
2762.346	499.20833
2764.573	491.54167
2766.798	501.20833
2769.022	506.20833
2771.245	498.54167
2773.467	506.875
2775.686	510.20833
2777.905	502.20833
2780.122	507.875
2782.337	514.20833
2784.552	497.875
2786.764	525.54167
2788.976	517.875
2791.186	526.54167
2793.394	512.875
2795.601	536.875
2797.807	549.20833
2800.011	552.54167
2802.214	548.54167
2804.415	559.54167
2806.615	560.875
2808.814	566.875
2811.011	568.54167
2813.206	576.54167
2815.401	586.20833
2817.594	604.54167
2819.785	606.54167
2821.975	591.54167
2824.164	610.875
2826.351	638.20833
2828.537	653.54167
2830.722	668.20833
2832.905	666.20833
2835.086	713.54167
2837.267	748.875
2839.445	775.20833
2841.623	795.875
2843.799	821.875
2845.974	877.875
2848.147	920.20833
2850.319	935.20833
2852.489	978.54167
2854.659	975.54167
2856.826	996.54167
2858.993	1038.54167
2861.158	1009.20833
2863.321	1004.54167
2865.483	1031.20833
2867.644	1029.875
2869.804	1041.875
2871.962	1029.20833
2874.118	1038.54167
2876.274	1044.875
2878.428	1019.875
2880.58	1036.20833
2882.731	1009.54167
2884.881	1019.875
2887.03	1018.54167
2889.177	1017.54167
2891.322	1038.20833
2893.467	1034.875
2895.61	1044.875
2897.751	1064.54167
2899.892	1040.875
2902.03	1049.875
2904.168	1076.54167
2906.304	1067.20833
2908.439	1101.875
2910.572	1078.20833
2912.704	1103.54167
2914.835	1101.20833
2916.965	1087.20833
2919.093	1101.54167
2921.219	1062.20833
2923.345	1085.875
2925.469	1050.54167
2927.591	1046.20833
2929.712	1006.54167
2931.832	1008.875
2933.951	977.20833
2936.068	958.54167
2938.184	917.20833
2940.299	913.54167
2942.412	893.20833
2944.524	832.20833
2946.634	816.20833
2948.744	756.875
2950.851	786.54167
2952.958	730.875
2955.063	733.54167
2957.167	706.875
2959.269	677.875
2961.371	695.20833
2963.471	651.54167
2965.569	655.20833
2967.666	630.20833
2969.762	607.20833
2971.857	590.20833
2973.95	585.20833
2976.042	564.875
2978.133	547.20833
2980.222	535.54167
2982.31	506.875
2984.396	493.54167
2986.482	491.20833
2988.566	499.875
2990.648	485.54167
2992.73	481.875
2994.81	463.875
2996.889	461.54167
2998.966	453.54167
3001.042	470.20833
3003.117	460.54167
3005.191	456.875
3007.263	439.54167
3009.334	443.20833
3011.403	438.20833
3013.472	424.54167
3015.539	425.20833
3017.604	424.54167
3019.669	388.20833
3021.732	404.20833
3023.794	398.20833
3025.854	384.20833
3027.914	380.20833
3029.971	393.20833
3032.028	384.875
3034.083	387.875
3036.137	383.875
3038.19	363.54167
3040.242	359.20833
3042.292	344.20833
3044.341	344.875
3046.388	357.20833
3048.435	336.20833
3050.48	362.54167
3052.524	341.54167
3054.566	317.875
3056.607	339.54167
3058.647	323.20833
3060.686	310.20833
3062.723	299.20833
3064.759	290.54167
3066.794	-0.79167
3068.828	-2.45833
3070.86	-2.45833
