-0.839	422.29167
3.438	443.625
7.711	124.625
11.981	55.625
16.247	52.29167
20.509	47.29167
24.768	49.625
29.024	51.625
33.276	44.625
37.524	53.29167
41.769	43.625
46.01	40.29167
50.247	56.625
54.481	65.29167
58.712	71.625
62.939	50.29167
67.162	67.29167
71.382	59.625
75.599	55.625
79.812	70.95833
84.021	86.625
88.227	61.29167
92.429	68.95833
96.628	51.625
100.823	69.625
105.015	81.625
109.204	78.29167
113.388	80.625
117.57	82.95833
121.748	95.625
125.922	92.95833
130.093	109.625
134.261	117.625
138.425	117.625
142.585	159.95833
146.742	160.95833
150.896	188.625
155.046	247.29167
159.193	381.29167
163.336	667.625
167.476	1228.95833
171.613	2252.625
175.746	3788.29167
179.875	5611.95833
184.002	7310.29167
188.124	8414.625
192.244	8755.95833
196.36	8662.625
200.472	8449.625
204.581	8200.625
208.687	8020.95833
212.79	7960.95833
216.889	7985.625
220.984	8087.625
225.077	8224.29167
229.165	8315.95833
233.251	8418.95833
237.333	8496.29167
241.412	8503.29167
245.487	8450.625
249.559	8417.29167
253.628	8343.95833
257.694	8237.625
261.756	8132.29167
265.814	7962.29167
269.87	7717.29167
273.922	7433.29167
277.97	7223.625
282.016	7014.29167
286.058	6850.29167
290.097	6818.625
294.132	6794.95833
298.164	6657.95833
302.193	6367.625
306.219	5881.625
310.241	5324.29167
314.26	4847.29167
318.276	4436.95833
322.288	4164.625
326.297	3902.95833
330.303	3752.625
334.305	3648.625
338.305	3548.29167
342.301	3503.625
346.294	3450.95833
350.283	3428.95833
354.269	3369.625
358.252	3368.29167
362.232	3343.625
366.209	3315.29167
370.182	3281.95833
374.152	3277.29167
378.119	3256.625
382.083	3240.625
386.043	3271.29167
390	3227.95833
393.954	3197.29167
397.905	3158.95833
401.852	3166.29167
405.797	3118.625
409.738	3078.95833
413.676	3053.95833
417.61	3039.29167
421.542	2989.95833
425.47	2939.625
429.396	2942.95833
433.318	2900.95833
437.236	2868.29167
441.152	2901.29167
445.065	2861.95833
448.974	2866.95833
452.88	2830.625
456.783	2789.29167
460.683	2774.29167
464.58	2797.625
468.473	2790.625
472.364	2775.625
476.251	2775.29167
480.135	2809.625
484.016	2830.625
487.894	2849.29167
491.769	2871.95833
495.641	2840.29167
499.509	2837.95833
503.375	2852.625
507.237	2831.29167
511.096	2821.625
514.952	2834.95833
518.805	2830.29167
522.655	2859.95833
526.502	2802.625
530.346	2818.95833
534.187	2836.29167
538.024	2838.95833
541.859	2838.29167
545.69	2888.29167
549.519	2847.625
553.344	2816.29167
557.166	2775.95833
560.985	2769.29167
564.802	2694.625
568.615	2665.95833
572.425	2656.95833
576.232	2616.29167
580.036	2637.625
583.836	2622.625
587.634	2643.29167
591.429	2627.625
595.221	2697.95833
599.01	2703.625
602.796	2746.29167
606.578	2759.29167
610.358	2781.625
614.135	2747.625
617.909	2738.95833
621.679	2745.95833
625.447	2728.625
629.212	2714.95833
632.973	2743.29167
636.732	2724.29167
640.488	2731.625
644.241	2689.625
647.991	2701.95833
651.737	2722.29167
655.481	2681.29167
659.222	2726.29167
662.96	2707.29167
666.695	2717.625
670.427	2735.29167
674.156	2749.95833
677.882	2719.625
681.605	2718.625
685.325	2683.29167
689.043	2696.95833
692.757	2661.29167
696.468	2696.29167
700.177	2701.625
703.882	2646.29167
707.585	2694.29167
711.284	2693.625
714.981	2677.95833
718.675	2686.29167
722.366	2702.95833
726.054	2691.95833
729.739	2685.95833
733.421	2688.29167
737.1	2676.29167
740.777	2725.95833
744.45	2750.29167
748.121	2734.95833
751.789	2792.625
755.453	2792.625
759.115	2797.29167
762.774	2837.95833
766.431	2867.29167
770.084	2893.625
773.734	2930.95833
777.382	2990.29167
781.027	2977.29167
784.669	3031.625
788.308	3043.95833
791.944	3067.29167
795.577	3090.95833
799.208	3117.625
802.835	3157.625
806.46	3195.625
810.082	3209.95833
813.701	3222.95833
817.317	3280.95833
820.931	3250.625
824.542	3243.95833
828.149	3211.29167
831.754	3174.29167
835.357	3149.29167
838.956	3139.29167
842.553	3129.625
846.146	3104.625
849.737	3080.95833
853.326	3107.95833
856.911	3126.625
860.493	3163.625
864.073	3167.625
867.65	3218.29167
871.225	3260.625
874.796	3249.95833
878.365	3283.95833
881.931	3274.625
885.494	3317.95833
889.054	3301.625
892.612	3313.29167
896.166	3291.95833
899.719	3216.625
903.268	3228.29167
906.814	3227.95833
910.358	3215.95833
913.899	3180.95833
917.438	3204.625
920.973	3195.95833
924.506	3238.95833
928.036	3279.95833
931.564	3331.625
935.088	3355.625
938.61	3370.95833
942.129	3375.95833
945.646	3492.95833
949.16	3556.95833
952.671	3648.625
956.179	3701.29167
959.685	3664.625
963.188	3652.625
966.688	3623.625
970.185	3533.29167
973.68	3437.625
977.173	3417.29167
980.662	3388.29167
984.149	3388.95833
987.633	3391.29167
991.114	3455.29167
994.593	3511.29167
998.069	3647.95833
1001.542	3757.29167
1005.013	3681.29167
1008.481	3469.29167
1011.947	3417.625
1015.409	3397.625
1018.869	3405.29167
1022.327	3404.625
1025.782	3369.95833
1029.234	3391.625
1032.683	3367.29167
1036.13	3226.625
1039.574	3114.625
1043.016	3041.29167
1046.455	2986.29167
1049.891	2949.95833
1053.325	2959.625
1056.756	2950.95833
1060.184	2970.625
1063.61	2986.625
1067.033	2978.95833
1070.454	2978.95833
1073.872	3062.95833
1077.287	3057.29167
1080.7	3057.29167
1084.11	3085.95833
1087.517	3015.29167
1090.922	2998.625
1094.325	2935.95833
1097.724	2915.95833
1101.122	2919.29167
1104.516	2904.625
1107.908	2923.29167
1111.298	2971.625
1114.684	3015.625
1118.069	3035.95833
1121.45	3086.625
1124.83	3058.95833
1128.206	3075.29167
1131.58	3122.625
1134.951	3187.29167
1138.32	3306.29167
1141.687	3440.29167
1145.05	3538.625
1148.412	3560.29167
1151.77	3553.625
1155.126	3549.29167
1158.48	3536.625
1161.831	3554.625
1165.18	3581.95833
1168.525	3647.625
1171.869	3649.29167
1175.21	3712.29167
1178.548	3761.29167
1181.884	3801.29167
1185.217	3827.95833
1188.548	3922.29167
1191.877	3972.95833
1195.202	4056.625
1198.526	4130.625
1201.846	4120.625
1205.165	4141.29167
1208.48	4063.95833
1211.794	4077.95833
1215.104	4075.95833
1218.413	4080.95833
1221.719	4062.625
1225.022	4030.625
1228.323	4018.95833
1231.621	3986.95833
1234.917	3969.625
1238.21	4015.29167
1241.501	3980.95833
1244.79	3963.625
1248.076	3965.95833
1251.359	3987.625
1254.64	4076.29167
1257.919	4092.625
1261.195	4189.625
1264.468	4250.95833
1267.74	4328.29167
1271.008	4301.625
1274.275	4322.95833
1277.538	4280.29167
1280.8	4296.95833
1284.059	4289.29167
1287.315	4329.29167
1290.569	4343.95833
1293.821	4400.95833
1297.07	4376.95833
1300.317	4405.95833
1303.562	4376.29167
1306.803	4396.95833
1310.043	4324.29167
1313.28	4285.29167
1316.515	4239.29167
1319.747	4201.625
1322.977	4165.625
1326.204	4091.625
1329.429	4027.625
1332.652	3995.29167
1335.872	4002.625
1339.09	3967.95833
1342.306	3969.29167
1345.519	3930.29167
1348.729	3906.95833
1351.938	3890.625
1355.144	3833.29167
1358.347	3771.625
1361.548	3763.29167
1364.747	3800.29167
1367.944	3767.95833
1371.138	3784.95833
1374.329	3832.95833
1377.518	3848.29167
1380.705	3915.29167
1383.89	3895.29167
1387.072	3786.29167
1390.252	3631.625
1393.429	3511.625
1396.605	3404.95833
1399.777	3266.29167
1402.948	3243.625
1406.116	3238.29167
1409.282	3225.29167
1412.445	3210.29167
1415.606	3274.625
1418.765	3325.625
1421.921	3380.95833
1425.075	3455.625
1428.227	3607.95833
1431.376	3747.29167
1434.524	3885.29167
1437.668	3994.95833
1440.811	4018.95833
1443.951	4060.29167
1447.089	4050.95833
1450.224	4066.95833
1453.357	4032.95833
1456.488	4037.29167
1459.617	3950.95833
1462.743	3902.625
1465.867	3798.29167
1468.989	3764.95833
1472.108	3733.95833
1475.225	3667.95833
1478.34	3629.625
1481.453	3622.95833
1484.563	3597.29167
1487.671	3681.29167
1490.776	3726.29167
1493.88	3821.95833
1496.981	3862.625
1500.08	3961.95833
1503.176	4020.29167
1506.271	4076.95833
1509.363	4155.625
1512.452	4205.625
1515.54	4286.95833
1518.625	4388.29167
1521.708	4562.29167
1524.789	4811.29167
1527.867	5095.29167
1530.944	5409.95833
1534.018	5637.625
1537.089	5751.29167
1540.159	5706.95833
1543.226	5558.95833
1546.291	5359.29167
1549.354	5171.95833
1552.415	4998.95833
1555.473	4863.95833
1558.529	4755.625
1561.583	4721.95833
1564.634	4661.95833
1567.684	4694.95833
1570.731	4681.29167
1573.776	4784.29167
1576.819	4808.95833
1579.859	4888.29167
1582.898	4939.625
1585.934	4993.95833
1588.968	4997.625
1591.999	4973.625
1595.029	4989.95833
1598.056	5019.29167
1601.081	5022.29167
1604.104	5029.625
1607.125	4968.95833
1610.144	4859.95833
1613.16	4749.29167
1616.174	4645.29167
1619.186	4541.29167
1622.196	4446.29167
1625.203	4351.29167
1628.209	4285.29167
1631.212	4247.29167
1634.213	4247.95833
1637.212	4218.95833
1640.209	4152.95833
1643.203	4091.625
1646.196	3943.625
1649.186	3797.29167
1652.174	3657.625
1655.16	3547.95833
1658.144	3468.29167
1661.125	3284.625
1664.105	3083.29167
1667.082	2959.625
1670.057	2804.95833
1673.03	2628.625
1676.001	2463.625
1678.97	2288.625
1681.937	2161.625
1684.901	2027.625
1687.863	1959.95833
1690.824	1881.625
1693.782	1843.95833
1696.738	1770.625
1699.692	1742.625
1702.643	1682.95833
1705.593	1661.625
1708.54	1639.625
1711.486	1655.625
1714.429	1604.95833
1717.37	1601.29167
1720.309	1558.95833
1723.246	1578.29167
1726.181	1522.29167
1729.113	1529.95833
1732.044	1501.95833
1734.972	1489.625
1737.899	1495.29167
1740.823	1476.29167
1743.745	1465.625
1746.665	1421.95833
1749.583	1410.625
1752.499	1390.29167
1755.413	1368.625
1758.325	1342.29167
1761.235	1334.625
1764.142	1301.625
1767.048	1287.29167
1769.951	1297.95833
1772.852	1275.625
1775.752	1281.95833
1778.649	1272.29167
1781.544	1270.95833
1784.437	1251.95833
1787.328	1242.95833
1790.217	1242.95833
1793.104	1222.29167
1795.989	1218.95833
1798.872	1206.95833
1801.753	1221.29167
1804.631	1231.95833
1807.508	1232.29167
1810.383	1206.625
1813.255	1195.625
1816.126	1202.29167
1818.994	1208.625
1821.861	1179.29167
1824.725	1181.95833
1827.587	1174.29167
1830.448	1176.29167
1833.306	1138.625
1836.162	1170.29167
1839.017	1139.29167
1841.869	1141.95833
1844.719	1142.29167
1847.567	1131.95833
1850.414	1106.95833
1853.258	1116.625
1856.1	1128.29167
1858.94	1134.95833
1861.778	1135.29167
1864.614	1115.625
1867.448	1112.625
1870.28	1113.95833
1873.111	1134.29167
1875.939	1108.625
1878.765	1135.625
1881.589	1105.29167
1884.411	1107.625
1887.231	1121.625
1890.049	1108.625
1892.865	1107.29167
1895.68	1094.29167
1898.492	1094.625
1901.302	1088.625
1904.11	1072.625
1906.916	1070.95833
1909.721	1068.625
1912.523	1080.95833
1915.323	1046.95833
1918.122	1054.29167
1920.918	1057.29167
1923.712	1046.29167
1926.505	1054.625
1929.295	1048.29167
1932.084	1043.625
1934.87	1054.625
1937.655	1039.625
1940.438	1035.29167
1943.218	1043.95833
1945.997	1045.95833
1948.774	1038.95833
1951.549	1043.625
1954.322	1033.29167
1957.093	1046.95833
1959.862	1029.29167
1962.629	1020.95833
1965.394	1011.625
1968.157	1007.625
1970.918	1027.29167
1973.678	1006.95833
1976.435	1005.95833
1979.19	1003.95833
1981.944	1004.29167
1984.696	985.29167
1987.445	982.625
1990.193	979.625
1992.939	1007.625
1995.683	993.625
1998.425	979.29167
2001.165	1003.625
2003.903	979.95833
2006.639	984.95833
2009.374	976.29167
2012.106	989.95833
2014.837	947.625
2017.566	992.95833
2020.292	985.29167
2023.017	965.625
2025.74	964.29167
2028.461	960.625
2031.18	961.625
2033.898	941.95833
2036.613	975.29167
2039.327	958.29167
2042.038	940.625
2044.748	948.625
2047.456	951.29167
2050.162	937.625
2052.866	927.625
2055.568	946.95833
2058.268	930.29167
2060.967	940.95833
2063.663	918.625
2066.358	936.29167
2069.051	932.29167
2071.742	935.95833
2074.431	934.625
2077.118	926.29167
2079.804	924.95833
2082.487	912.95833
2085.169	938.29167
2087.849	939.95833
2090.527	920.29167
2093.203	953.95833
2095.877	944.95833
2098.55	953.95833
2101.22	956.95833
2103.889	977.625
2106.556	947.625
2109.221	987.95833
2111.884	1009.29167
2114.546	1063.625
2117.205	1125.95833
2119.863	1191.625
2122.519	1270.95833
2125.173	1357.95833
2127.825	1451.625
2130.475	1481.95833
2133.124	1469.95833
2135.771	1438.95833
2138.416	1405.625
2141.059	1317.625
2143.7	1265.29167
2146.339	1182.95833
2148.977	1109.95833
2151.613	1112.29167
2154.247	1062.29167
2156.879	1045.625
2159.51	1036.95833
2162.138	1011.95833
2164.765	1021.29167
2167.39	997.625
2170.013	1013.625
2172.634	1014.29167
2175.254	1004.29167
2177.872	1024.95833
2180.488	982.95833
2183.102	994.625
2185.714	969.95833
2188.325	942.29167
2190.934	943.95833
2193.541	927.95833
2196.146	914.95833
2198.75	897.95833
2201.351	892.95833
2203.951	864.29167
2206.549	879.625
2209.146	850.95833
2211.74	843.29167
2214.333	855.95833
2216.924	827.625
2219.514	828.625
2222.101	820.625
2224.687	834.29167
2227.271	812.95833
2229.853	805.625
2232.433	791.95833
2235.012	824.29167
2237.589	824.95833
2240.164	831.95833
2242.738	798.95833
2245.309	791.625
2247.879	796.29167
2250.448	799.95833
2253.014	770.625
2255.579	754.625
2258.142	753.625
2260.703	741.95833
2263.262	729.29167
2265.82	739.625
2268.376	737.95833
2270.93	734.29167
2273.483	722.95833
2276.033	740.29167
2278.583	719.625
2281.13	715.625
2283.675	700.29167
2286.219	716.95833
2288.761	706.625
2291.302	704.625
2293.841	710.29167
2296.377	690.95833
2298.913	700.95833
2301.446	721.29167
2303.978	694.95833
2306.508	673.95833
2309.037	696.29167
2311.563	682.625
2314.088	696.95833
2316.612	667.95833
2319.133	683.625
2321.653	676.95833
2324.171	672.29167
2326.688	687.95833
2329.202	666.95833
2331.715	669.95833
2334.227	659.625
2336.736	658.95833
2339.244	654.95833
2341.751	661.29167
2344.255	663.95833
2346.758	645.95833
2349.259	638.95833
2351.759	646.625
2354.257	652.625
2356.753	637.625
2359.247	639.29167
2361.74	649.95833
2364.231	635.29167
2366.721	644.625
2369.209	643.29167
2371.695	634.29167
2374.179	631.625
2376.662	628.95833
2379.143	642.29167
2381.622	634.29167
2384.1	625.625
2386.576	625.29167
2389.051	633.95833
2391.524	645.95833
2393.995	632.625
2396.464	618.29167
2398.932	626.625
2401.398	612.29167
2403.863	612.29167
2406.325	606.625
2408.787	611.29167
2411.246	612.95833
2413.704	605.29167
2416.16	598.625
2418.615	605.625
2421.068	614.29167
2423.519	609.29167
2425.969	599.29167
2428.417	603.95833
2430.863	622.29167
2433.308	619.29167
2435.751	599.95833
2438.193	597.29167
2440.633	596.29167
2443.071	597.95833
2445.508	585.29167
2447.943	587.95833
2450.376	576.625
2452.808	587.29167
2455.238	577.29167
2457.667	610.625
2460.093	583.95833
2462.519	569.95833
2464.942	578.95833
2467.365	594.29167
2469.785	592.95833
2472.204	573.29167
2474.621	570.95833
2477.037	592.95833
2479.451	567.625
2481.863	555.625
2484.274	561.29167
2486.683	554.95833
2489.091	570.95833
2491.497	569.29167
2493.901	551.625
2496.304	555.625
2498.705	573.29167
2501.105	564.625
2503.503	575.95833
2505.899	544.29167
2508.294	579.29167
2510.687	539.95833
2513.079	548.625
2515.469	547.625
2517.858	546.29167
2520.245	555.95833
2522.63	547.95833
2525.014	541.625
2527.396	522.95833
2529.776	534.95833
2532.156	542.95833
2534.533	526.625
2536.909	528.625
2539.283	528.625
2541.656	528.29167
2544.027	554.95833
2546.397	542.95833
2548.765	539.625
2551.131	515.95833
2553.496	524.95833
2555.86	545.95833
2558.221	533.95833
2560.582	522.95833
2562.94	517.95833
2565.298	524.625
2567.653	547.95833
2570.007	514.95833
2572.36	520.625
2574.711	519.95833
2577.06	547.95833
2579.408	517.95833
2581.754	512.625
2584.099	515.625
2586.442	520.625
2588.784	523.625
2591.124	522.95833
2593.463	515.29167
2595.8	520.29167
2598.135	507.95833
2600.469	503.29167
2602.802	525.95833
2605.133	526.625
2607.462	508.95833
2609.79	503.29167
2612.116	506.95833
2614.441	507.29167
2616.764	513.95833
2619.086	511.95833
2621.406	506.95833
2623.725	513.625
2626.042	513.29167
2628.358	504.29167
2630.672	502.95833
2632.985	522.29167
2635.296	506.29167
2637.606	513.95833
2639.914	493.625
2642.22	499.625
2644.525	506.29167
2646.829	518.95833
2649.131	515.625
2651.432	521.625
2653.731	517.29167
2656.028	522.29167
2658.324	522.625
2660.619	509.95833
2662.912	519.29167
2665.204	506.95833
2667.494	522.95833
2669.782	515.625
2672.07	517.29167
2674.355	526.29167
2676.639	509.95833
2678.922	507.625
2681.203	513.95833
2683.483	503.29167
2685.761	497.95833
2688.038	513.625
2690.313	528.29167
2692.587	520.29167
2694.859	497.625
2697.13	521.29167
2699.399	515.625
2701.667	522.95833
2703.933	536.625
2706.198	533.95833
2708.461	543.29167
2710.723	552.95833
2712.984	536.625
2715.243	544.625
2717.5	542.29167
2719.757	554.95833
2722.011	553.625
2724.264	561.625
2726.516	568.625
2728.766	549.29167
2731.015	554.29167
2733.262	551.29167
2735.508	552.625
2737.753	547.95833
2739.996	531.95833
2742.237	523.29167
2744.477	539.625
2746.716	537.29167
2748.953	532.29167
2751.189	533.95833
2753.423	515.29167
2755.656	511.625
2757.887	513.95833
2760.117	521.95833
2762.346	509.625
2764.573	502.625
2766.798	500.625
2769.022	510.625
2771.245	512.625
2773.467	521.29167
2775.686	516.625
2777.905	524.29167
2780.122	539.29167
2782.337	531.95833
2784.552	532.625
2786.764	541.29167
2788.976	538.625
2791.186	548.29167
2793.394	547.625
2795.601	562.29167
2797.807	566.29167
2800.011	567.29167
2802.214	577.625
2804.415	586.95833
2806.615	590.95833
2808.814	603.29167
2811.011	605.29167
2813.206	601.95833
2815.401	619.95833
2817.594	639.625
2819.785	654.29167
2821.975	642.95833
2824.164	660.625
2826.351	682.29167
2828.537	709.29167
2830.722	714.625
2832.905	726.29167
2835.086	757.625
2837.267	812.625
2839.445	836.625
2841.623	862.95833
2843.799	909.95833
2845.974	951.95833
2848.147	990.625
2850.319	1034.625
2852.489	1079.29167
2854.659	1079.29167
2856.826	1104.625
2858.993	1142.95833
2861.158	1127.625
2863.321	1119.95833
2865.483	1141.29167
2867.644	1150.95833
2869.804	1135.29167
2871.962	1140.625
2874.118	1116.95833
2876.274	1130.95833
2878.428	1114.625
2880.58	1121.29167
2882.731	1112.95833
2884.881	1113.625
2887.03	1115.29167
2889.177	1124.29167
2891.322	1144.95833
2893.467	1124.29167
2895.61	1145.625
2897.751	1159.95833
2899.892	1152.95833
2902.03	1177.625
2904.168	1187.95833
2906.304	1183.29167
2908.439	1210.95833
2910.572	1188.625
2912.704	1208.625
2914.835	1201.625
2916.965	1202.625
2919.093	1210.95833
2921.219	1176.625
2923.345	1184.625
2925.469	1158.95833
2927.591	1141.29167
2929.712	1109.625
2931.832	1103.625
2933.951	1065.95833
2936.068	1050.625
2938.184	1026.95833
2940.299	980.95833
2942.412	949.29167
2944.524	898.29167
2946.634	876.625
2948.744	827.625
2950.851	830.29167
2952.958	782.625
2955.063	769.29167
2957.167	745.625
2959.269	705.29167
2961.371	747.95833
2963.471	671.625
2965.569	668.95833
2967.666	647.625
2969.762	624.625
2971.857	598.625
2973.95	587.625
2976.042	577.95833
2978.133	561.95833
2980.222	547.29167
2982.31	518.625
2984.396	510.625
2986.482	493.95833
2988.566	493.29167
2990.648	479.95833
2992.73	475.625
2994.81	456.29167
2996.889	469.29167
2998.966	445.29167
3001.042	455.95833
3003.117	446.29167
3005.191	446.625
3007.263	430.95833
3009.334	428.625
3011.403	425.95833
3013.472	409.95833
3015.539	416.625
3017.604	424.29167
3019.669	378.625
3021.732	389.95833
3023.794	383.625
3025.854	362.625
3027.914	367.625
3029.971	376.29167
3032.028	366.95833
3034.083	374.625
3036.137	364.625
3038.19	348.95833
3040.242	341.29167
3042.292	331.29167
3044.341	318.625
3046.388	346.625
3048.435	313.625
3050.48	334.95833
3052.524	328.625
3054.566	297.625
3056.607	324.625
3058.647	318.95833
3060.686	299.95833
3062.723	286.95833
3064.759	269.95833
3066.794	-1.70833
3068.828	1.29167
3070.86	-2.04167
