-0.839	414.45833
3.438	432.79167
7.711	118.125
11.981	49.45833
16.247	50.79167
20.509	45.45833
24.768	48.45833
29.024	49.45833
33.276	45.79167
37.524	50.45833
41.769	42.79167
46.01	37.125
50.247	51.79167
54.481	63.125
58.712	69.125
62.939	54.79167
67.162	66.45833
71.382	64.125
75.599	48.79167
79.812	69.45833
84.021	90.79167
88.227	66.125
92.429	68.125
96.628	56.125
100.823	71.125
105.015	75.79167
109.204	81.45833
113.388	83.79167
117.57	82.125
121.748	92.79167
125.922	86.79167
130.093	105.125
134.261	116.79167
138.425	112.45833
142.585	154.125
146.742	163.79167
150.896	193.79167
155.046	234.45833
159.193	373.79167
163.336	653.79167
167.476	1204.45833
171.613	2193.125
175.746	3697.45833
179.875	5450.79167
184.002	7103.125
188.124	8249.125
192.244	8594.45833
196.36	8573.79167
200.472	8338.125
204.581	8158.79167
208.687	8048.45833
212.79	7979.45833
216.889	8098.125
220.984	8270.125
225.077	8392.45833
229.165	8586.79167
233.251	8719.125
237.333	8828.125
241.412	8828.125
245.487	8804.125
249.559	8773.125
253.628	8684.79167
257.694	8528.79167
261.756	8437.45833
265.814	8213.79167
269.87	7911.79167
273.922	7635.125
277.97	7387.125
282.016	7196.79167
286.058	7036.45833
290.097	6940.79167
294.132	6876.125
298.164	6712.125
302.193	6381.45833
306.219	5913.45833
310.241	5382.45833
314.26	4906.79167
318.276	4486.125
322.288	4231.45833
326.297	4013.45833
330.303	3849.79167
334.305	3701.79167
338.305	3651.125
342.301	3586.79167
346.294	3575.125
350.283	3509.45833
354.269	3470.45833
358.252	3473.79167
362.232	3421.45833
366.209	3417.79167
370.182	3369.45833
374.152	3359.125
378.119	3373.79167
382.083	3344.45833
386.043	3359.125
390	3309.79167
393.954	3283.45833
397.905	3264.79167
401.852	3235.45833
405.797	3165.79167
409.738	3132.125
413.676	3113.79167
417.61	3071.45833
421.542	3050.125
425.47	3016.125
429.396	2992.45833
433.318	2967.125
437.236	2959.125
441.152	2986.45833
445.065	2928.45833
448.974	2915.79167
452.88	2886.45833
456.783	2852.79167
460.683	2838.79167
464.58	2851.79167
468.473	2840.125
472.364	2849.79167
476.251	2858.79167
480.135	2896.125
484.016	2926.125
487.894	2914.125
491.769	2930.45833
495.641	2926.45833
499.509	2928.125
503.375	2934.79167
507.237	2938.45833
511.096	2889.125
514.952	2891.125
518.805	2907.45833
522.655	2918.79167
526.502	2878.45833
530.346	2902.45833
534.187	2899.125
538.024	2898.45833
541.859	2890.79167
545.69	2934.79167
549.519	2917.79167
553.344	2862.125
557.166	2826.125
560.985	2805.125
564.802	2776.79167
568.615	2752.79167
572.425	2711.45833
576.232	2682.45833
580.036	2670.125
583.836	2704.45833
587.634	2673.45833
591.429	2694.79167
595.221	2730.45833
599.01	2756.79167
602.796	2773.45833
606.578	2822.45833
610.358	2794.45833
614.135	2793.79167
617.909	2812.79167
621.679	2780.125
625.447	2796.45833
629.212	2787.125
632.973	2787.45833
636.732	2790.45833
640.488	2770.79167
644.241	2733.45833
647.991	2732.79167
651.737	2760.125
655.481	2717.79167
659.222	2731.45833
662.96	2722.125
666.695	2752.45833
670.427	2741.125
674.156	2745.79167
677.882	2756.125
681.605	2739.79167
685.325	2730.125
689.043	2723.45833
692.757	2721.125
696.468	2742.79167
700.177	2737.79167
703.882	2720.125
707.585	2726.45833
711.284	2699.45833
714.981	2726.125
718.675	2736.79167
722.366	2749.45833
726.054	2728.45833
729.739	2734.79167
733.421	2753.125
737.1	2750.45833
740.777	2785.79167
744.45	2788.125
748.121	2792.125
751.789	2860.79167
755.453	2852.45833
759.115	2896.125
762.774	2915.79167
766.431	2954.45833
770.084	2990.125
773.734	3005.45833
777.382	3072.45833
781.027	3103.125
784.669	3116.125
788.308	3123.79167
791.944	3154.125
795.577	3177.125
799.208	3202.79167
802.835	3230.45833
806.46	3244.45833
810.082	3275.79167
813.701	3308.125
817.317	3333.79167
820.931	3352.45833
824.542	3348.125
828.149	3337.45833
831.754	3306.45833
835.357	3291.79167
838.956	3285.125
842.553	3256.125
846.146	3261.45833
849.737	3262.125
853.326	3261.45833
856.911	3285.79167
860.493	3341.125
864.073	3368.125
867.65	3399.79167
871.225	3431.45833
874.796	3467.125
878.365	3487.125
881.931	3503.79167
885.494	3524.45833
889.054	3509.125
892.612	3541.45833
896.166	3511.125
899.719	3456.45833
903.268	3434.45833
906.814	3423.79167
910.358	3398.79167
913.899	3366.125
917.438	3385.79167
920.973	3369.125
924.506	3408.45833
928.036	3441.125
931.564	3479.45833
935.088	3491.125
938.61	3493.79167
942.129	3559.79167
945.646	3638.45833
949.16	3702.45833
952.671	3793.45833
956.179	3840.79167
959.685	3792.45833
963.188	3781.45833
966.688	3703.79167
970.185	3620.79167
973.68	3556.125
977.173	3551.79167
980.662	3535.125
984.149	3551.45833
987.633	3534.125
991.114	3637.79167
994.593	3732.45833
998.069	3874.125
1001.542	4007.125
1005.013	3880.45833
1008.481	3645.45833
1011.947	3612.125
1015.409	3593.45833
1018.869	3602.125
1022.327	3581.79167
1025.782	3536.45833
1029.234	3565.45833
1032.683	3479.79167
1036.13	3381.79167
1039.574	3250.125
1043.016	3169.45833
1046.455	3094.45833
1049.891	3053.45833
1053.325	3034.125
1056.756	3052.79167
1060.184	3085.125
1063.61	3094.45833
1067.033	3140.79167
1070.454	3106.79167
1073.872	3161.45833
1077.287	3133.79167
1080.7	3134.45833
1084.11	3161.79167
1087.517	3128.79167
1090.922	3088.125
1094.325	3078.45833
1097.724	3033.125
1101.122	3033.45833
1104.516	3030.45833
1107.908	3040.79167
1111.298	3075.125
1114.684	3140.45833
1118.069	3152.125
1121.45	3210.125
1124.83	3182.79167
1128.206	3219.79167
1131.58	3284.125
1134.951	3366.45833
1138.32	3501.125
1141.687	3631.45833
1145.05	3734.45833
1148.412	3778.45833
1151.77	3782.79167
1155.126	3817.45833
1158.48	3830.79167
1161.831	3869.125
1165.18	3893.45833
1168.525	3963.45833
1171.869	4036.125
1175.21	4075.79167
1178.548	4121.125
1181.884	4102.79167
1185.217	4157.79167
1188.548	4217.79167
1191.877	4281.45833
1195.202	4319.125
1198.526	4385.125
1201.846	4401.45833
1205.165	4350.125
1208.48	4306.79167
1211.794	4278.45833
1215.104	4267.79167
1218.413	4282.125
1221.719	4271.125
1225.022	4226.45833
1228.323	4179.125
1231.621	4204.125
1234.917	4173.125
1238.21	4193.125
1241.501	4200.45833
1244.79	4174.45833
1248.076	4219.45833
1251.359	4238.125
1254.64	4343.45833
1257.919	4325.79167
1261.195	4419.79167
1264.468	4503.79167
1267.74	4571.45833
1271.008	4583.79167
1274.275	4562.125
1277.538	4508.45833
1280.8	4492.125
1284.059	4502.125
1287.315	4520.45833
1290.569	4534.45833
1293.821	4572.45833
1297.07	4607.125
1300.317	4621.125
1303.562	4619.125
1306.803	4562.79167
1310.043	4502.125
1313.28	4449.125
1316.515	4402.125
1319.747	4355.79167
1322.977	4304.125
1326.204	4216.79167
1329.429	4166.79167
1332.652	4122.125
1335.872	4140.45833
1339.09	4099.45833
1342.306	4086.45833
1345.519	4072.125
1348.729	4067.125
1351.938	4053.45833
1355.144	3958.45833
1358.347	3911.79167
1361.548	3925.45833
1364.747	3937.125
1367.944	3902.79167
1371.138	3933.125
1374.329	3966.79167
1377.518	3980.79167
1380.705	4045.45833
1383.89	4005.45833
1387.072	3876.79167
1390.252	3758.45833
1393.429	3638.125
1396.605	3529.45833
1399.777	3431.79167
1402.948	3385.79167
1406.116	3370.79167
1409.282	3354.125
1412.445	3347.45833
1415.606	3401.79167
1418.765	3428.79167
1421.921	3502.45833
1425.075	3612.45833
1428.227	3716.125
1431.376	3887.79167
1434.524	4032.79167
1437.668	4126.79167
1440.811	4154.125
1443.951	4179.45833
1447.089	4209.79167
1450.224	4186.79167
1453.357	4175.125
1456.488	4169.45833
1459.617	4123.79167
1462.743	4093.79167
1465.867	4020.79167
1468.989	3949.125
1472.108	3912.45833
1475.225	3861.45833
1478.34	3807.79167
1481.453	3820.79167
1484.563	3838.125
1487.671	3908.79167
1490.776	3980.45833
1493.88	4057.125
1496.981	4148.45833
1500.08	4263.45833
1503.176	4337.125
1506.271	4408.79167
1509.363	4481.79167
1512.452	4529.79167
1515.54	4618.79167
1518.625	4767.125
1521.708	4946.125
1524.789	5192.79167
1527.867	5550.125
1530.944	5882.45833
1534.018	6140.79167
1537.089	6285.79167
1540.159	6212.125
1543.226	6083.45833
1546.291	5850.125
1549.354	5652.79167
1552.415	5510.125
1555.473	5341.79167
1558.529	5259.45833
1561.583	5218.79167
1564.634	5135.79167
1567.684	5186.45833
1570.731	5197.125
1573.776	5211.125
1576.819	5293.45833
1579.859	5350.125
1582.898	5421.79167
1585.934	5473.125
1588.968	5474.79167
1591.999	5450.79167
1595.029	5442.45833
1598.056	5444.125
1601.081	5444.45833
1604.104	5371.45833
1607.125	5345.45833
1610.144	5224.125
1613.16	5107.125
1616.174	4984.45833
1619.186	4851.125
1622.196	4707.45833
1625.203	4573.79167
1628.209	4508.125
1631.212	4438.45833
1634.213	4384.79167
1637.212	4346.45833
1640.209	4234.79167
1643.203	4144.79167
1646.196	3970.45833
1649.186	3815.45833
1652.174	3690.79167
1655.16	3551.79167
1658.144	3443.125
1661.125	3297.45833
1664.105	3130.45833
1667.082	2981.79167
1670.057	2802.45833
1673.03	2643.125
1676.001	2494.125
1678.97	2346.79167
1681.937	2193.45833
1684.901	2068.125
1687.863	2001.125
1690.824	1917.79167
1693.782	1894.45833
1696.738	1820.45833
1699.692	1794.79167
1702.643	1738.45833
1705.593	1716.45833
1708.54	1688.125
1711.486	1683.125
1714.429	1648.45833
1717.37	1654.79167
1720.309	1629.125
1723.246	1619.125
1726.181	1580.125
1729.113	1574.45833
1732.044	1559.125
1734.972	1533.79167
1737.899	1538.45833
1740.823	1527.79167
1743.745	1502.79167
1746.665	1451.125
1749.583	1437.45833
1752.499	1420.45833
1755.413	1393.79167
1758.325	1367.79167
1761.235	1369.125
1764.142	1332.125
1767.048	1328.79167
1769.951	1317.79167
1772.852	1307.45833
1775.752	1307.125
1778.649	1302.79167
1781.544	1306.45833
1784.437	1272.79167
1787.328	1279.79167
1790.217	1260.45833
1793.104	1226.79167
1795.989	1236.125
1798.872	1236.79167
1801.753	1256.79167
1804.631	1235.125
1807.508	1255.79167
1810.383	1237.45833
1813.255	1224.45833
1816.126	1210.45833
1818.994	1208.79167
1821.861	1202.125
1824.725	1199.45833
1827.587	1180.125
1830.448	1187.79167
1833.306	1164.125
1836.162	1187.79167
1839.017	1152.125
1841.869	1169.45833
1844.719	1162.79167
1847.567	1144.125
1850.414	1130.79167
1853.258	1136.125
1856.1	1143.125
1858.94	1165.45833
1861.778	1142.79167
1864.614	1125.79167
1867.448	1136.125
1870.28	1116.79167
1873.111	1156.125
1875.939	1125.45833
1878.765	1149.125
1881.589	1124.125
1884.411	1130.79167
1887.231	1142.79167
1890.049	1121.79167
1892.865	1107.45833
1895.68	1109.79167
1898.492	1106.125
1901.302	1100.45833
1904.11	1092.45833
1906.916	1081.125
1909.721	1069.125
1912.523	1090.45833
1915.323	1067.125
1918.122	1078.79167
1920.918	1081.125
1923.712	1063.125
1926.505	1068.45833
1929.295	1060.79167
1932.084	1076.79167
1934.87	1072.125
1937.655	1052.45833
1940.438	1053.125
1943.218	1069.125
1945.997	1066.125
1948.774	1076.79167
1951.549	1074.125
1954.322	1051.79167
1957.093	1053.79167
1959.862	1044.45833
1962.629	1033.125
1965.394	1028.79167
1968.157	1025.125
1970.918	1039.45833
1973.678	1029.79167
1976.435	1020.125
1979.19	1022.79167
1981.944	1013.125
1984.696	1008.45833
1987.445	1002.125
1990.193	1014.125
1992.939	1016.79167
1995.683	1001.79167
1998.425	986.45833
2001.165	1008.79167
2003.903	981.125
2006.639	1006.125
2009.374	995.79167
2012.106	995.79167
2014.837	972.125
2017.566	986.79167
2020.292	987.79167
2023.017	997.125
2025.74	974.45833
2028.461	966.125
2031.18	979.79167
2033.898	961.79167
2036.613	972.79167
2039.327	970.125
2042.038	954.125
2044.748	958.125
2047.456	945.79167
2050.162	942.79167
2052.866	951.125
2055.568	965.125
2058.268	949.125
2060.967	961.79167
2063.663	949.125
2066.358	951.125
2069.051	931.79167
2071.742	944.79167
2074.431	950.45833
2077.118	947.79167
2079.804	935.79167
2082.487	948.79167
2085.169	960.125
2087.849	976.45833
2090.527	945.45833
2093.203	966.125
2095.877	965.125
2098.55	958.79167
2101.22	989.79167
2103.889	992.79167
2106.556	989.79167
2109.221	1034.45833
2111.884	1064.45833
2114.546	1124.79167
2117.205	1216.125
2119.863	1306.45833
2122.519	1414.79167
2125.173	1553.125
2127.825	1643.45833
2130.475	1679.45833
2133.124	1668.79167
2135.771	1621.125
2138.416	1549.45833
2141.059	1445.79167
2143.7	1371.79167
2146.339	1291.79167
2148.977	1215.45833
2151.613	1189.79167
2154.247	1152.79167
2156.879	1130.125
2159.51	1096.125
2162.138	1093.45833
2164.765	1090.79167
2167.39	1078.125
2170.013	1084.125
2172.634	1108.45833
2175.254	1083.79167
2177.872	1102.45833
2180.488	1060.125
2183.102	1063.125
2185.714	1038.125
2188.325	1007.79167
2190.934	1017.45833
2193.541	998.79167
2196.146	981.125
2198.75	956.79167
2201.351	948.45833
2203.951	921.125
2206.549	933.79167
2209.146	904.125
2211.74	896.79167
2214.333	900.125
2216.924	871.45833
2219.514	872.45833
2222.101	862.45833
2224.687	875.45833
2227.271	850.125
2229.853	845.125
2232.433	832.79167
2235.012	840.45833
2237.589	834.125
2240.164	852.45833
2242.738	834.45833
2245.309	816.79167
2247.879	818.125
2250.448	814.45833
2253.014	791.45833
2255.579	765.125
2258.142	793.125
2260.703	765.45833
2263.262	764.125
2265.82	752.79167
2268.376	769.125
2270.93	742.79167
2273.483	742.79167
2276.033	743.79167
2278.583	734.79167
2281.13	724.79167
2283.675	725.79167
2286.219	717.45833
2288.761	725.125
2291.302	732.79167
2293.841	728.45833
2296.377	704.79167
2298.913	708.79167
2301.446	727.45833
2303.978	709.79167
2306.508	694.45833
2309.037	689.79167
2311.563	692.79167
2314.088	693.45833
2316.612	686.125
2319.133	700.79167
2321.653	695.45833
2324.171	680.45833
2326.688	686.45833
2329.202	672.79167
2331.715	677.79167
2334.227	677.125
2336.736	667.125
2339.244	661.125
2341.751	652.125
2344.255	670.125
2346.758	664.125
2349.259	661.45833
2351.759	652.45833
2354.257	647.79167
2356.753	653.79167
2359.247	656.45833
2361.74	647.79167
2364.231	657.45833
2366.721	654.125
2369.209	631.79167
2371.695	639.79167
2374.179	634.79167
2376.662	637.45833
2379.143	663.79167
2381.622	643.79167
2384.1	643.79167
2386.576	628.45833
2389.051	651.45833
2391.524	645.45833
2393.995	641.45833
2396.464	633.125
2398.932	618.79167
2401.398	621.125
2403.863	619.125
2406.325	625.125
2408.787	624.79167
2411.246	618.79167
2413.704	603.79167
2416.16	602.45833
2418.615	612.125
2421.068	624.45833
2423.519	609.79167
2425.969	605.45833
2428.417	610.45833
2430.863	629.45833
2433.308	619.45833
2435.751	601.125
2438.193	603.125
2440.633	607.125
2443.071	592.45833
2445.508	597.45833
2447.943	593.79167
2450.376	578.79167
2452.808	596.79167
2455.238	587.125
2457.667	611.125
2460.093	580.79167
2462.519	577.125
2464.942	581.45833
2467.365	598.45833
2469.785	594.79167
2472.204	575.125
2474.621	580.125
2477.037	606.79167
2479.451	552.45833
2481.863	565.125
2484.274	559.79167
2486.683	563.125
2489.091	577.45833
2491.497	574.79167
2493.901	568.45833
2496.304	561.45833
2498.705	572.125
2501.105	558.79167
2503.503	578.125
2505.899	552.125
2508.294	574.45833
2510.687	555.45833
2513.079	544.79167
2515.469	557.45833
2517.858	560.45833
2520.245	563.125
2522.63	544.45833
2525.014	542.125
2527.396	545.125
2529.776	542.45833
2532.156	555.125
2534.533	535.125
2536.909	539.125
2539.283	522.125
2541.656	527.45833
2544.027	553.125
2546.397	544.125
2548.765	545.79167
2551.131	532.79167
2553.496	537.79167
2555.86	545.45833
2558.221	533.45833
2560.582	529.125
2562.94	516.45833
2565.298	525.45833
2567.653	540.125
2570.007	516.45833
2572.36	528.125
2574.711	525.45833
2577.06	540.79167
2579.408	525.45833
2581.754	525.79167
2584.099	522.45833
2586.442	522.45833
2588.784	528.45833
2591.124	522.125
2593.463	525.79167
2595.8	513.45833
2598.135	503.45833
2600.469	513.45833
2602.802	517.79167
2605.133	522.79167
2607.462	510.79167
2609.79	514.125
2612.116	525.79167
2614.441	516.45833
2616.764	512.125
2619.086	510.45833
2621.406	506.45833
2623.725	518.45833
2626.042	522.125
2628.358	509.125
2630.672	505.79167
2632.985	516.45833
2635.296	513.79167
2637.606	503.79167
2639.914	501.45833
2642.22	514.125
2644.525	496.125
2646.829	505.45833
2649.131	529.125
2651.432	528.125
2653.731	517.125
2656.028	524.79167
2658.324	524.125
2660.619	504.45833
2662.912	532.79167
2665.204	508.125
2667.494	526.125
2669.782	503.79167
2672.07	519.125
2674.355	525.45833
2676.639	505.125
2678.922	510.79167
2681.203	525.79167
2683.483	499.45833
2685.761	503.45833
2688.038	518.125
2690.313	533.125
2692.587	521.45833
2694.859	508.79167
2697.13	516.45833
2699.399	527.45833
2701.667	534.45833
2703.933	534.45833
2706.198	531.79167
2708.461	534.125
2710.723	546.79167
2712.984	541.79167
2715.243	549.125
2717.5	549.125
2719.757	558.79167
2722.011	554.125
2724.264	558.79167
2726.516	576.45833
2728.766	548.125
2731.015	557.45833
2733.262	560.125
2735.508	554.45833
2737.753	544.125
2739.996	540.125
2742.237	534.125
2744.477	547.125
2746.716	540.79167
2748.953	545.45833
2751.189	548.45833
2753.423	522.125
2755.656	520.125
2757.887	514.125
2760.117	527.125
2762.346	508.79167
2764.573	517.45833
2766.798	511.125
2769.022	527.125
2771.245	516.45833
2773.467	518.125
2775.686	524.79167
2777.905	526.45833
2780.122	528.45833
2782.337	536.125
2784.552	532.125
2786.764	541.45833
2788.976	541.79167
2791.186	552.45833
2793.394	549.45833
2795.601	570.125
2797.807	568.125
2800.011	579.79167
2802.214	594.79167
2804.415	593.45833
2806.615	598.125
2808.814	620.45833
2811.011	607.125
2813.206	607.125
2815.401	640.45833
2817.594	649.45833
2819.785	656.79167
2821.975	649.45833
2824.164	662.125
2826.351	689.125
2828.537	702.125
2830.722	715.79167
2832.905	732.125
2835.086	771.45833
2837.267	808.125
2839.445	842.125
2841.623	875.125
2843.799	889.45833
2845.974	951.125
2848.147	983.125
2850.319	1010.45833
2852.489	1066.45833
2854.659	1056.125
2856.826	1097.45833
2858.993	1122.45833
2861.158	1097.45833
2863.321	1097.45833
2865.483	1135.79167
2867.644	1130.45833
2869.804	1119.45833
2871.962	1123.79167
2874.118	1113.79167
2876.274	1110.79167
2878.428	1117.125
2880.58	1106.45833
2882.731	1092.79167
2884.881	1098.45833
2887.03	1108.79167
2889.177	1105.79167
2891.322	1111.79167
2893.467	1108.125
2895.61	1122.79167
2897.751	1137.45833
2899.892	1147.125
2902.03	1155.125
2904.168	1148.125
2906.304	1157.45833
2908.439	1187.79167
2910.572	1166.45833
2912.704	1180.45833
2914.835	1189.79167
2916.965	1186.125
2919.093	1195.125
2921.219	1143.45833
2923.345	1169.125
2925.469	1143.45833
2927.591	1127.125
2929.712	1090.79167
2931.832	1094.125
2933.951	1053.79167
2936.068	1026.79167
2938.184	990.125
2940.299	953.79167
2942.412	945.79167
2944.524	890.79167
2946.634	870.45833
2948.744	819.79167
2950.851	819.125
2952.958	773.45833
2955.063	757.125
2957.167	739.125
2959.269	699.79167
2961.371	710.79167
2963.471	675.125
2965.569	669.45833
2967.666	636.45833
2969.762	616.79167
2971.857	599.79167
2973.95	583.45833
2976.042	569.45833
2978.133	552.45833
2980.222	535.79167
2982.31	498.45833
2984.396	501.125
2986.482	484.79167
2988.566	496.125
2990.648	470.125
2992.73	463.125
2994.81	452.125
2996.889	461.79167
2998.966	446.45833
3001.042	454.79167
3003.117	444.125
3005.191	437.125
3007.263	422.79167
3009.334	414.125
3011.403	417.79167
3013.472	393.125
3015.539	404.45833
3017.604	410.79167
3019.669	373.125
3021.732	385.79167
3023.794	384.45833
3025.854	362.45833
3027.914	358.125
3029.971	374.45833
3032.028	359.45833
3034.083	358.45833
3036.137	353.79167
3038.19	342.125
3040.242	333.125
3042.292	315.45833
3044.341	324.125
3046.388	336.79167
3048.435	311.125
3050.48	336.45833
3052.524	324.45833
3054.566	290.79167
3056.607	314.125
3058.647	304.125
3060.686	291.79167
3062.723	284.45833
3064.759	265.79167
3066.794	0.79167
3068.828	-2.54167
3070.86	-1.54167
