-0.839	436.66667
3.438	455.33333
7.711	118.66667
11.981	55
16.247	47.66667
20.509	45.66667
24.768	47.66667
29.024	48
33.276	45
37.524	52
41.769	41.66667
46.01	37.66667
50.247	51
54.481	62.33333
58.712	69
62.939	49.66667
67.162	64.33333
71.382	60.33333
75.599	48.33333
79.812	66
84.021	82.66667
88.227	61.66667
92.429	65
96.628	51.66667
100.823	72.66667
105.015	77.33333
109.204	75.33333
113.388	79.33333
117.57	77.33333
121.748	97.66667
125.922	85.66667
130.093	107.33333
134.261	111.66667
138.425	110.33333
142.585	150
146.742	156.33333
150.896	180.66667
155.046	232
159.193	366.66667
163.336	628.66667
167.476	1165.33333
171.613	2123.33333
175.746	3559
179.875	5299
184.002	6885.66667
188.124	7889.33333
192.244	8263
196.36	8111.33333
200.472	7877.33333
204.581	7687.66667
208.687	7482.66667
212.79	7422.33333
216.889	7449
220.984	7543.33333
225.077	7639.33333
229.165	7765.66667
233.251	7866.33333
237.333	7921.33333
241.412	7988
245.487	7951
249.559	7858.66667
253.628	7787.33333
257.694	7700
261.756	7583
265.814	7403.66667
269.87	7171.66667
273.922	6905.66667
277.97	6663
282.016	6440.33333
286.058	6259.33333
290.097	6195
294.132	6115.33333
298.164	6003.66667
302.193	5720
306.219	5266.66667
310.241	4798.33333
314.26	4339
318.276	3947.33333
322.288	3716
326.297	3528.33333
330.303	3346.66667
334.305	3273.33333
338.305	3197.66667
342.301	3153.66667
346.294	3107.66667
350.283	3074.66667
354.269	3051
358.252	3030.66667
362.232	2993
366.209	2977
370.182	2949.33333
374.152	2938
378.119	2935.33333
382.083	2913.33333
386.043	2935
390	2895.66667
393.954	2876
397.905	2843.33333
401.852	2827.33333
405.797	2782
409.738	2755
413.676	2746
417.61	2696
421.542	2682.66667
425.47	2643.66667
429.396	2614.33333
433.318	2608
437.236	2601.66667
441.152	2620
445.065	2579
448.974	2530.66667
452.88	2514.66667
456.783	2505.33333
460.683	2505.33333
464.58	2483
468.473	2482.33333
472.364	2494
476.251	2482
480.135	2505
484.016	2566.66667
487.894	2547.33333
491.769	2557
495.641	2573.33333
499.509	2557
503.375	2543.66667
507.237	2528.66667
511.096	2545.33333
514.952	2567
518.805	2579.66667
522.655	2605.66667
526.502	2535
530.346	2505.66667
534.187	2540
538.024	2524
541.859	2528.66667
545.69	2554.33333
549.519	2531
553.344	2484.66667
557.166	2467
560.985	2455.66667
564.802	2419.66667
568.615	2381.33333
572.425	2348
576.232	2329
580.036	2350.66667
583.836	2335.33333
587.634	2348
591.429	2325.33333
595.221	2388
599.01	2410
602.796	2422.66667
606.578	2451.33333
610.358	2474.66667
614.135	2459.66667
617.909	2435.66667
621.679	2430
625.447	2421.66667
629.212	2420
632.973	2418.66667
636.732	2410
640.488	2425.33333
644.241	2393.33333
647.991	2385.66667
651.737	2411
655.481	2391
659.222	2410.33333
662.96	2399.66667
666.695	2409.66667
670.427	2424.66667
674.156	2424
677.882	2443
681.605	2429.66667
685.325	2381
689.043	2410.33333
692.757	2389
696.468	2402.66667
700.177	2407.66667
703.882	2379.66667
707.585	2378.66667
711.284	2388.33333
714.981	2380.33333
718.675	2405.33333
722.366	2422.66667
726.054	2389.33333
729.739	2392
733.421	2394.33333
737.1	2389.33333
740.777	2433
744.45	2416
748.121	2444.66667
751.789	2490.33333
755.453	2481.33333
759.115	2499
762.774	2525.66667
766.431	2565.66667
770.084	2584.66667
773.734	2598.66667
777.382	2696
781.027	2715
784.669	2701
788.308	2740
791.944	2773.33333
795.577	2779.66667
799.208	2790
802.835	2788
806.46	2829.66667
810.082	2860
813.701	2877
817.317	2876.33333
820.931	2898.33333
824.542	2921.33333
828.149	2868
831.754	2834
835.357	2837.33333
838.956	2848.33333
842.553	2829
846.146	2808
849.737	2795.66667
853.326	2802
856.911	2816
860.493	2862.33333
864.073	2884.33333
867.65	2912
871.225	2944
874.796	2933.66667
878.365	2986.66667
881.931	2974
885.494	3011.33333
889.054	2985.33333
892.612	2985.33333
896.166	2946.33333
899.719	2927.33333
903.268	2909.33333
906.814	2901.66667
910.358	2885.33333
913.899	2864.66667
917.438	2914.66667
920.973	2875
924.506	2906.33333
928.036	2942
931.564	2996
935.088	3008.33333
938.61	3001
942.129	3042
945.646	3089
949.16	3185
952.671	3271.66667
956.179	3305.33333
959.685	3261.33333
963.188	3246.66667
966.688	3201
970.185	3130.66667
973.68	3083.66667
977.173	3049
980.662	3032.33333
984.149	3052
987.633	3070
991.114	3110.33333
994.593	3204.66667
998.069	3298.66667
1001.542	3415.33333
1005.013	3362
1008.481	3131
1011.947	3102.66667
1015.409	3069.33333
1018.869	3095.33333
1022.327	3099.33333
1025.782	3094.33333
1029.234	3069
1032.683	3046.66667
1036.13	2915.66667
1039.574	2823.33333
1043.016	2733.33333
1046.455	2685
1049.891	2631.33333
1053.325	2635.66667
1056.756	2645
1060.184	2656.33333
1063.61	2659.33333
1067.033	2702
1070.454	2666.33333
1073.872	2718.66667
1077.287	2722.66667
1080.7	2730.33333
1084.11	2722.33333
1087.517	2711
1090.922	2683
1094.325	2642.33333
1097.724	2593.33333
1101.122	2601
1104.516	2622.33333
1107.908	2616.66667
1111.298	2665
1114.684	2693.33333
1118.069	2729.66667
1121.45	2738.66667
1124.83	2719
1128.206	2750
1131.58	2794.33333
1134.951	2854.33333
1138.32	2943
1141.687	3070
1145.05	3158
1148.412	3213.66667
1151.77	3185
1155.126	3194.33333
1158.48	3202.33333
1161.831	3202.66667
1165.18	3242.33333
1168.525	3289.66667
1171.869	3347.66667
1175.21	3366.66667
1178.548	3411.66667
1181.884	3443.66667
1185.217	3478.33333
1188.548	3543.66667
1191.877	3602
1195.202	3630
1198.526	3699.66667
1201.846	3704.33333
1205.165	3686.66667
1208.48	3650.33333
1211.794	3656.33333
1215.104	3654.66667
1218.413	3620.66667
1221.719	3605.33333
1225.022	3592
1228.323	3550.66667
1231.621	3564.33333
1234.917	3551
1238.21	3567.66667
1241.501	3528.66667
1244.79	3537.33333
1248.076	3560.66667
1251.359	3576
1254.64	3659.33333
1257.919	3667.33333
1261.195	3730.66667
1264.468	3805
1267.74	3859
1271.008	3865
1274.275	3857.33333
1277.538	3814.66667
1280.8	3808.33333
1284.059	3806.66667
1287.315	3827.33333
1290.569	3838
1293.821	3901
1297.07	3889.66667
1300.317	3943.66667
1303.562	3916.33333
1306.803	3879.66667
1310.043	3839.66667
1313.28	3788.66667
1316.515	3737.66667
1319.747	3713.66667
1322.977	3659.66667
1326.204	3594.66667
1329.429	3574.66667
1332.652	3558.33333
1335.872	3567.33333
1339.09	3519
1342.306	3505
1345.519	3486.33333
1348.729	3466.66667
1351.938	3459.33333
1355.144	3391
1358.347	3350.33333
1361.548	3363.33333
1364.747	3347.33333
1367.944	3319.33333
1371.138	3362.33333
1374.329	3408
1377.518	3406.33333
1380.705	3475
1383.89	3430
1387.072	3326.33333
1390.252	3223
1393.429	3120.33333
1396.605	3010.33333
1399.777	2936.33333
1402.948	2915.33333
1406.116	2870
1409.282	2869
1412.445	2871.66667
1415.606	2905.66667
1418.765	2940.33333
1421.921	3014
1425.075	3054.66667
1428.227	3169.33333
1431.376	3330.33333
1434.524	3460
1437.668	3548.33333
1440.811	3558.66667
1443.951	3589.33333
1447.089	3619.33333
1450.224	3607.33333
1453.357	3591.66667
1456.488	3558
1459.617	3493.33333
1462.743	3460.66667
1465.867	3395
1468.989	3354.33333
1472.108	3312
1475.225	3274.33333
1478.34	3232
1481.453	3228.66667
1484.563	3223.66667
1487.671	3241.33333
1490.776	3311.33333
1493.88	3410
1496.981	3481
1500.08	3514.66667
1503.176	3603.33333
1506.271	3667.66667
1509.363	3724.66667
1512.452	3775.33333
1515.54	3853.66667
1518.625	3956.33333
1521.708	4124
1524.789	4376
1527.867	4647.33333
1530.944	4941.66667
1534.018	5218.33333
1537.089	5293.66667
1540.159	5254.33333
1543.226	5081
1546.291	4882
1549.354	4757.33333
1552.415	4569
1555.473	4440
1558.529	4368.66667
1561.583	4290.33333
1564.634	4275
1567.684	4276
1570.731	4274.66667
1573.776	4322
1576.819	4386.33333
1579.859	4440.33333
1582.898	4464.66667
1585.934	4514.66667
1588.968	4545
1591.999	4500.66667
1595.029	4497
1598.056	4508.33333
1601.081	4542.66667
1604.104	4534
1607.125	4441.66667
1610.144	4373.33333
1613.16	4239
1616.174	4145.33333
1619.186	4072.66667
1622.196	3952.66667
1625.203	3857
1628.209	3810.33333
1631.212	3784.33333
1634.213	3753
1637.212	3731.66667
1640.209	3682.66667
1643.203	3557
1646.196	3461.33333
1649.186	3304
1652.174	3196.66667
1655.16	3113.33333
1658.144	3013.66667
1661.125	2886
1664.105	2728.33333
1667.082	2603
1670.057	2471
1673.03	2329.66667
1676.001	2149.33333
1678.97	2032.66667
1681.937	1917
1684.901	1804
1687.863	1746.33333
1690.824	1677.66667
1693.782	1643.66667
1696.738	1581
1699.692	1547.33333
1702.643	1509.33333
1705.593	1487.66667
1708.54	1464.66667
1711.486	1463.33333
1714.429	1415.66667
1717.37	1412
1720.309	1394.33333
1723.246	1398
1726.181	1353
1729.113	1358.33333
1732.044	1339.33333
1734.972	1315.66667
1737.899	1323.33333
1740.823	1335
1743.745	1312
1746.665	1279
1749.583	1243.66667
1752.499	1239
1755.413	1225
1758.325	1171.66667
1761.235	1182.33333
1764.142	1153.66667
1767.048	1160
1769.951	1144
1772.852	1138.66667
1775.752	1119.66667
1778.649	1123
1781.544	1117.33333
1784.437	1105
1787.328	1093.33333
1790.217	1094
1793.104	1070.66667
1795.989	1071
1798.872	1062.33333
1801.753	1087
1804.631	1075.66667
1807.508	1079
1810.383	1072.33333
1813.255	1065.66667
1816.126	1047.66667
1818.994	1057
1821.861	1044
1824.725	1038.33333
1827.587	1041.33333
1830.448	1046.33333
1833.306	1000.66667
1836.162	1024
1839.017	1017
1841.869	1020.33333
1844.719	996.66667
1847.567	997.33333
1850.414	986.66667
1853.258	989
1856.1	997.66667
1858.94	1011
1861.778	993.66667
1864.614	980
1867.448	990.66667
1870.28	979.33333
1873.111	993
1875.939	982.33333
1878.765	989
1881.589	971.66667
1884.411	976
1887.231	978.33333
1890.049	973.33333
1892.865	969.33333
1895.68	963.66667
1898.492	968
1901.302	954.33333
1904.11	952.33333
1906.916	943.33333
1909.721	935.33333
1912.523	947.66667
1915.323	907
1918.122	929.66667
1920.918	934.66667
1923.712	931.66667
1926.505	927.66667
1929.295	908.66667
1932.084	929.33333
1934.87	928.66667
1937.655	907.33333
1940.438	917.66667
1943.218	915.66667
1945.997	924
1948.774	931
1951.549	915.66667
1954.322	899.66667
1957.093	923.33333
1959.862	912.66667
1962.629	913
1965.394	895.66667
1968.157	885.66667
1970.918	888.66667
1973.678	882.66667
1976.435	885.33333
1979.19	874
1981.944	869
1984.696	869
1987.445	867.66667
1990.193	876.66667
1992.939	882.33333
1995.683	875.66667
1998.425	855.33333
2001.165	887.66667
2003.903	859.66667
2006.639	865.66667
2009.374	866.66667
2012.106	860.66667
2014.837	832.66667
2017.566	857.33333
2020.292	856.33333
2023.017	864
2025.74	846.33333
2028.461	850.33333
2031.18	849
2033.898	845.33333
2036.613	848
2039.327	848.66667
2042.038	821
2044.748	840.66667
2047.456	843.33333
2050.162	821.33333
2052.866	827.66667
2055.568	826.66667
2058.268	828.66667
2060.967	816.66667
2063.663	804.33333
2066.358	814
2069.051	821.33333
2071.742	818.33333
2074.431	810.33333
2077.118	820
2079.804	799.66667
2082.487	811.33333
2085.169	827
2087.849	839.33333
2090.527	815.66667
2093.203	834.33333
2095.877	823.66667
2098.55	821
2101.22	842
2103.889	852.66667
2106.556	835.33333
2109.221	881.66667
2111.884	867
2114.546	931.66667
2117.205	977.33333
2119.863	1042.66667
2122.519	1119.33333
2125.173	1200
2127.825	1292.33333
2130.475	1340.33333
2133.124	1336
2135.771	1299.66667
2138.416	1256
2141.059	1180.33333
2143.7	1123.66667
2146.339	1075.33333
2148.977	1009.33333
2151.613	984.66667
2154.247	955.33333
2156.879	939.33333
2159.51	929
2162.138	911
2164.765	910.66667
2167.39	914.66667
2170.013	923.33333
2172.634	926.66667
2175.254	919.33333
2177.872	941
2180.488	899.33333
2183.102	890.66667
2185.714	885.33333
2188.325	865.66667
2190.934	871
2193.541	853.66667
2196.146	831.33333
2198.75	803.66667
2201.351	802.33333
2203.951	780.33333
2206.549	795
2209.146	766
2211.74	763.33333
2214.333	771.66667
2216.924	735.66667
2219.514	755.66667
2222.101	745.66667
2224.687	754.66667
2227.271	737.33333
2229.853	731.33333
2232.433	708
2235.012	732.33333
2237.589	735
2240.164	737
2242.738	720.66667
2245.309	704.66667
2247.879	713
2250.448	711.66667
2253.014	691
2255.579	676.33333
2258.142	674
2260.703	671.33333
2263.262	665.33333
2265.82	661
2268.376	655
2270.93	646.33333
2273.483	648.33333
2276.033	653.33333
2278.583	649
2281.13	655.66667
2283.675	625
2286.219	637.66667
2288.761	628.33333
2291.302	643
2293.841	635.33333
2296.377	617.33333
2298.913	632
2301.446	639
2303.978	620.33333
2306.508	616.33333
2309.037	617.66667
2311.563	618.66667
2314.088	618
2316.612	598.33333
2319.133	613.66667
2321.653	599.33333
2324.171	593
2326.688	611.33333
2329.202	591
2331.715	596
2334.227	597.66667
2336.736	599
2339.244	583
2341.751	584.66667
2344.255	596.66667
2346.758	580
2349.259	581.66667
2351.759	589.66667
2354.257	574
2356.753	582.33333
2359.247	577
2361.74	581.33333
2364.231	576
2366.721	583
2369.209	577.33333
2371.695	573
2374.179	570
2376.662	565
2379.143	583
2381.622	563
2384.1	569.66667
2386.576	563.66667
2389.051	587
2391.524	578
2393.995	576
2396.464	557
2398.932	557
2401.398	565.33333
2403.863	551
2406.325	555
2408.787	555.66667
2411.246	554
2413.704	554.66667
2416.16	553
2418.615	552.33333
2421.068	564
2423.519	552
2425.969	540
2428.417	552.33333
2430.863	561
2433.308	551.66667
2435.751	548.66667
2438.193	545.33333
2440.633	548.66667
2443.071	548.33333
2445.508	527.66667
2447.943	537.33333
2450.376	521.66667
2452.808	533.33333
2455.238	533.33333
2457.667	557.66667
2460.093	532
2462.519	517
2464.942	521.66667
2467.365	534.33333
2469.785	528.66667
2472.204	532.66667
2474.621	515.33333
2477.037	549.33333
2479.451	508.33333
2481.863	514.66667
2484.274	505.33333
2486.683	525
2489.091	527.33333
2491.497	519.33333
2493.901	519.33333
2496.304	516
2498.705	512.33333
2501.105	505
2503.503	529
2505.899	501
2508.294	530.66667
2510.687	508
2513.079	503.66667
2515.469	501.33333
2517.858	496.33333
2520.245	524.66667
2522.63	503
2525.014	502.66667
2527.396	490.66667
2529.776	496
2532.156	505.33333
2534.533	486
2536.909	499
2539.283	489
2541.656	496.33333
2544.027	517.66667
2546.397	503.66667
2548.765	483.66667
2551.131	501
2553.496	498.66667
2555.86	491
2558.221	501
2560.582	496
2562.94	468
2565.298	489.33333
2567.653	509
2570.007	478.33333
2572.36	493.66667
2574.711	474.66667
2577.06	500.66667
2579.408	483.33333
2581.754	486.66667
2584.099	489.66667
2586.442	478
2588.784	490.33333
2591.124	486
2593.463	482.66667
2595.8	476
2598.135	469
2600.469	474.66667
2602.802	491.66667
2605.133	487
2607.462	477.66667
2609.79	476.33333
2612.116	485
2614.441	476
2616.764	490.33333
2619.086	487.66667
2621.406	476.66667
2623.725	492.66667
2626.042	478.33333
2628.358	483
2630.672	481.66667
2632.985	489.66667
2635.296	486.33333
2637.606	486.33333
2639.914	469
2642.22	481.66667
2644.525	468
2646.829	489
2649.131	495
2651.432	487.66667
2653.731	490
2656.028	492.66667
2658.324	493.33333
2660.619	485.33333
2662.912	496.33333
2665.204	468
2667.494	498.66667
2669.782	483.33333
2672.07	492.33333
2674.355	497.33333
2676.639	477.66667
2678.922	481
2681.203	503.33333
2683.483	475.33333
2685.761	486.66667
2688.038	495
2690.313	511.33333
2692.587	485.66667
2694.859	482
2697.13	487
2699.399	492.66667
2701.667	513.33333
2703.933	510.33333
2706.198	506.33333
2708.461	519.66667
2710.723	520.33333
2712.984	516.66667
2715.243	528.66667
2717.5	510
2719.757	529
2722.011	523.33333
2724.264	537.33333
2726.516	551.66667
2728.766	527.33333
2731.015	530.33333
2733.262	528
2735.508	524.33333
2737.753	527.33333
2739.996	504.66667
2742.237	509
2744.477	528.66667
2746.716	523
2748.953	513
2751.189	518.66667
2753.423	507.33333
2755.656	493.66667
2757.887	499
2760.117	498.33333
2762.346	492.33333
2764.573	487
2766.798	492
2769.022	496.33333
2771.245	493.33333
2773.467	490
2775.686	500.33333
2777.905	505
2780.122	512.33333
2782.337	507.33333
2784.552	506
2786.764	517.66667
2788.976	515.66667
2791.186	524
2793.394	521.33333
2795.601	540
2797.807	535.33333
2800.011	556.66667
2802.214	545.66667
2804.415	562
2806.615	568
2808.814	578
2811.011	567.66667
2813.206	588.66667
2815.401	594.66667
2817.594	607.66667
2819.785	625
2821.975	608
2824.164	612.66667
2826.351	641
2828.537	648.33333
2830.722	671.66667
2832.905	668
2835.086	717.33333
2837.267	745
2839.445	773.33333
2841.623	797.33333
2843.799	840.66667
2845.974	879
2848.147	908.33333
2850.319	942.66667
2852.489	983.66667
2854.659	981.66667
2856.826	1013.66667
2858.993	1007.66667
2861.158	1008.66667
2863.321	1014.33333
2865.483	1041.66667
2867.644	1033.66667
2869.804	1030.33333
2871.962	1022.66667
2874.118	1025
2876.274	1030.33333
2878.428	1019.66667
2880.58	1010.66667
2882.731	1009
2884.881	1018.66667
2887.03	1021.66667
2889.177	1029.66667
2891.322	1038.33333
2893.467	1036.66667
2895.61	1040.33333
2897.751	1065.33333
2899.892	1052.66667
2902.03	1069.66667
2904.168	1066.33333
2906.304	1071
2908.439	1097.33333
2910.572	1080
2912.704	1098
2914.835	1074
2916.965	1088.66667
2919.093	1104
2921.219	1059.33333
2923.345	1086.66667
2925.469	1053.66667
2927.591	1052.66667
2929.712	1009.33333
2931.832	1008.33333
2933.951	979.33333
2936.068	948
2938.184	926.33333
2940.299	894
2942.412	895.66667
2944.524	831
2946.634	810
2948.744	762.33333
2950.851	791
2952.958	743.33333
2955.063	723
2957.167	697
2959.269	675
2961.371	690.66667
2963.471	645.33333
2965.569	652.66667
2967.666	612.66667
2969.762	599.33333
2971.857	588
2973.95	569
2976.042	570
2978.133	554.66667
2980.222	530.66667
2982.31	508
2984.396	491.33333
2986.482	498.66667
2988.566	493
2990.648	482.66667
2992.73	472.33333
2994.81	466.66667
2996.889	467
2998.966	461.33333
3001.042	457
3003.117	454.33333
3005.191	451.33333
3007.263	442.66667
3009.334	438.33333
3011.403	435.66667
3013.472	423.66667
3015.539	428
3017.604	429
3019.669	399.33333
3021.732	395.33333
3023.794	395
3025.854	387
3027.914	386.66667
3029.971	394.33333
3032.028	388.66667
3034.083	381
3036.137	381.33333
3038.19	360.33333
3040.242	358
3042.292	349.33333
3044.341	350
3046.388	359.66667
3048.435	330.66667
3050.48	362
3052.524	346
3054.566	318.66667
3056.607	338
3058.647	332.33333
3060.686	310.33333
3062.723	307.33333
3064.759	298.66667
3066.794	0.33333
3068.828	1.33333
3070.86	-2.66667
