-0.839	430.08333
3.438	447.41667
7.711	126.41667
11.981	54.08333
16.247	48.75
20.509	47.41667
24.768	47.75
29.024	48.75
33.276	46.75
37.524	55.08333
41.769	43.75
46.01	38.41667
50.247	51.75
54.481	65.41667
58.712	71.08333
62.939	54.08333
67.162	64.75
71.382	59.41667
75.599	51.41667
79.812	66.08333
84.021	88.75
88.227	64.08333
92.429	69.75
96.628	56.41667
100.823	75.41667
105.015	83.75
109.204	84.08333
113.388	89.41667
117.57	81.08333
121.748	101.75
125.922	95.75
130.093	108.75
134.261	119.75
138.425	115.41667
142.585	157.08333
146.742	162.75
150.896	191.75
155.046	237.75
159.193	382.75
163.336	657.75
167.476	1227.08333
171.613	2270.41667
175.746	3765.08333
179.875	5603.75
184.002	7286.08333
188.124	8418.08333
192.244	8810.75
196.36	8685.08333
200.472	8542.75
204.581	8317.75
208.687	8082.41667
212.79	8039.08333
216.889	8079.41667
220.984	8158.75
225.077	8292.08333
229.165	8394.08333
233.251	8530.41667
237.333	8615.08333
241.412	8626.75
245.487	8577.08333
249.559	8545.75
253.628	8459.08333
257.694	8348.41667
261.756	8245.75
265.814	8104.41667
269.87	7888.75
273.922	7584.75
277.97	7385.08333
282.016	7137.08333
286.058	6964.08333
290.097	6886.41667
294.132	6807.75
298.164	6700.08333
302.193	6452.75
306.219	6044.08333
310.241	5538.75
314.26	5043.41667
318.276	4636.75
322.288	4359.08333
326.297	4141.75
330.303	4008.08333
334.305	3873.75
338.305	3815.75
342.301	3748.08333
346.294	3732.08333
350.283	3724.41667
354.269	3660.41667
358.252	3648.75
362.232	3648.75
366.209	3626.08333
370.182	3573.08333
374.152	3566.75
378.119	3572.75
382.083	3545.75
386.043	3584.08333
390	3529.75
393.954	3533.41667
397.905	3493.41667
401.852	3457.41667
405.797	3420.08333
409.738	3385.08333
413.676	3410.75
417.61	3355.75
421.542	3295.41667
425.47	3290.08333
429.396	3241.41667
433.318	3201.75
437.236	3193.41667
441.152	3202.41667
445.065	3153.08333
448.974	3132.75
452.88	3112.08333
456.783	3084.08333
460.683	3069.41667
464.58	3071.41667
468.473	3065.41667
472.364	3086.41667
476.251	3081.08333
480.135	3112.75
484.016	3139.75
487.894	3187.41667
491.769	3169.08333
495.641	3171.75
499.509	3147.41667
503.375	3153.75
507.237	3136.08333
511.096	3126.41667
514.952	3140.08333
518.805	3175.41667
522.655	3175.41667
526.502	3102.41667
530.346	3093.41667
534.187	3108.08333
538.024	3115.08333
541.859	3098.08333
545.69	3124.41667
549.519	3103.75
553.344	3088.41667
557.166	3040.75
560.985	3009.41667
564.802	2996.75
568.615	2964.08333
572.425	2917.75
576.232	2879.08333
580.036	2884.08333
583.836	2894.08333
587.634	2890.08333
591.429	2885.75
595.221	2929.75
599.01	2979.75
602.796	2982.41667
606.578	3007.75
610.358	3023.08333
614.135	3010.75
617.909	3015.41667
621.679	2989.41667
625.447	2966.41667
629.212	2978.41667
632.973	2976.75
636.732	2986.08333
640.488	2982.75
644.241	2952.75
647.991	2914.08333
651.737	2972.75
655.481	2950.75
659.222	2962.75
662.96	2945.75
666.695	2974.41667
670.427	2970.75
674.156	2975.75
677.882	2947.41667
681.605	2942.41667
685.325	2934.41667
689.043	2940.41667
692.757	2944.08333
696.468	2940.08333
700.177	2941.41667
703.882	2911.75
707.585	2941.75
711.284	2898.41667
714.981	2935.41667
718.675	2916.08333
722.366	2933.75
726.054	2916.08333
729.739	2927.75
733.421	2919.08333
737.1	2922.41667
740.777	2924.41667
744.45	2961.08333
748.121	2969.75
751.789	3011.08333
755.453	3014.41667
759.115	3041.08333
762.774	3060.75
766.431	3066.41667
770.084	3097.08333
773.734	3092.75
777.382	3164.75
781.027	3173.08333
784.669	3178.75
788.308	3198.75
791.944	3231.08333
795.577	3239.08333
799.208	3294.75
802.835	3323.41667
806.46	3335.08333
810.082	3387.75
813.701	3393.75
817.317	3460.08333
820.931	3424.08333
824.542	3420.75
828.149	3386.08333
831.754	3329.08333
835.357	3294.41667
838.956	3286.75
842.553	3267.75
846.146	3254.75
849.737	3247.75
853.326	3242.41667
856.911	3249.08333
860.493	3290.41667
864.073	3329.41667
867.65	3363.75
871.225	3405.41667
874.796	3377.41667
878.365	3377.41667
881.931	3418.08333
885.494	3435.75
889.054	3448.08333
892.612	3414.08333
896.166	3379.08333
899.719	3359.75
903.268	3341.08333
906.814	3338.41667
910.358	3320.08333
913.899	3310.08333
917.438	3291.08333
920.973	3303.75
924.506	3341.75
928.036	3377.41667
931.564	3414.75
935.088	3442.08333
938.61	3447.75
942.129	3490.41667
945.646	3538.08333
949.16	3649.08333
952.671	3697.08333
956.179	3745.41667
959.685	3738.08333
963.188	3706.41667
966.688	3707.08333
970.185	3599.75
973.68	3538.41667
977.173	3491.75
980.662	3456.41667
984.149	3506.08333
987.633	3511.08333
991.114	3565.08333
994.593	3640.41667
998.069	3790.75
1001.542	3902.08333
1005.013	3807.75
1008.481	3579.41667
1011.947	3523.08333
1015.409	3503.41667
1018.869	3488.41667
1022.327	3518.08333
1025.782	3493.41667
1029.234	3467.75
1032.683	3439.75
1036.13	3344.08333
1039.574	3228.41667
1043.016	3140.08333
1046.455	3074.08333
1049.891	3059.08333
1053.325	3042.08333
1056.756	3052.75
1060.184	3050.41667
1063.61	3093.75
1067.033	3103.75
1070.454	3097.41667
1073.872	3111.75
1077.287	3132.75
1080.7	3130.08333
1084.11	3096.08333
1087.517	3107.08333
1090.922	3039.41667
1094.325	3002.08333
1097.724	3008.75
1101.122	2972.08333
1104.516	2984.41667
1107.908	2985.08333
1111.298	3018.08333
1114.684	3070.75
1118.069	3083.41667
1121.45	3127.41667
1124.83	3103.75
1128.206	3109.75
1131.58	3180.75
1134.951	3239.08333
1138.32	3308.41667
1141.687	3459.75
1145.05	3550.41667
1148.412	3579.08333
1151.77	3567.08333
1155.126	3556.41667
1158.48	3525.08333
1161.831	3559.08333
1165.18	3599.41667
1168.525	3628.75
1171.869	3658.75
1175.21	3711.41667
1178.548	3747.75
1181.884	3764.41667
1185.217	3798.08333
1188.548	3880.41667
1191.877	3941.75
1195.202	4030.75
1198.526	4067.75
1201.846	4078.41667
1205.165	4042.75
1208.48	4049.41667
1211.794	4035.08333
1215.104	4014.41667
1218.413	4030.08333
1221.719	4018.08333
1225.022	3975.08333
1228.323	3931.08333
1231.621	3923.41667
1234.917	3942.08333
1238.21	3965.41667
1241.501	3960.08333
1244.79	3911.08333
1248.076	3906.41667
1251.359	3975.08333
1254.64	4047.08333
1257.919	4060.08333
1261.195	4101.08333
1264.468	4232.08333
1267.74	4251.41667
1271.008	4275.41667
1274.275	4267.75
1277.538	4189.08333
1280.8	4219.75
1284.059	4224.41667
1287.315	4267.75
1290.569	4263.41667
1293.821	4282.08333
1297.07	4282.08333
1300.317	4292.75
1303.562	4278.75
1306.803	4221.75
1310.043	4213.08333
1313.28	4183.41667
1316.515	4127.75
1319.747	4099.75
1322.977	4100.75
1326.204	4012.41667
1329.429	3970.75
1332.652	3936.41667
1335.872	3935.75
1339.09	3941.08333
1342.306	3939.08333
1345.519	3915.75
1348.729	3897.75
1351.938	3889.41667
1355.144	3834.08333
1358.347	3764.08333
1361.548	3743.75
1364.747	3812.41667
1367.944	3790.08333
1371.138	3812.75
1374.329	3826.75
1377.518	3840.41667
1380.705	3883.41667
1383.89	3890.41667
1387.072	3773.41667
1390.252	3613.08333
1393.429	3518.75
1396.605	3384.08333
1399.777	3293.75
1402.948	3250.75
1406.116	3225.41667
1409.282	3246.08333
1412.445	3244.75
1415.606	3258.75
1418.765	3301.41667
1421.921	3351.41667
1425.075	3457.08333
1428.227	3543.41667
1431.376	3716.75
1434.524	3851.41667
1437.668	3939.75
1440.811	3966.75
1443.951	3989.08333
1447.089	4007.08333
1450.224	3999.08333
1453.357	3980.41667
1456.488	3924.08333
1459.617	3871.75
1462.743	3807.08333
1465.867	3734.75
1468.989	3702.41667
1472.108	3648.75
1475.225	3596.75
1478.34	3546.41667
1481.453	3568.08333
1484.563	3543.08333
1487.671	3576.75
1490.776	3620.08333
1493.88	3706.08333
1496.981	3783.08333
1500.08	3842.41667
1503.176	3925.08333
1506.271	3970.08333
1509.363	4048.08333
1512.452	4104.08333
1515.54	4182.08333
1518.625	4272.41667
1521.708	4449.08333
1524.789	4711.08333
1527.867	4992.41667
1530.944	5251.41667
1534.018	5498.75
1537.089	5597.08333
1540.159	5515.75
1543.226	5344.41667
1546.291	5162.08333
1549.354	4957.75
1552.415	4820.41667
1555.473	4725.41667
1558.529	4622.75
1561.583	4593.08333
1564.634	4545.08333
1567.684	4528.41667
1570.731	4537.08333
1573.776	4577.75
1576.819	4634.75
1579.859	4667.08333
1582.898	4745.41667
1585.934	4757.75
1588.968	4734.08333
1591.999	4768.75
1595.029	4761.41667
1598.056	4771.75
1601.081	4804.08333
1604.104	4786.08333
1607.125	4735.41667
1610.144	4656.75
1613.16	4557.08333
1616.174	4474.41667
1619.186	4376.08333
1622.196	4291.08333
1625.203	4182.75
1628.209	4168.41667
1631.212	4134.41667
1634.213	4169.41667
1637.212	4169.41667
1640.209	4119.08333
1643.203	4002.08333
1646.196	3882.41667
1649.186	3743.08333
1652.174	3625.75
1655.16	3510.08333
1658.144	3424.75
1661.125	3285.08333
1664.105	3127.08333
1667.082	3000.08333
1670.057	2831.75
1673.03	2666.75
1676.001	2500.41667
1678.97	2300.75
1681.937	2181.08333
1684.901	2052.75
1687.863	1998.08333
1690.824	1890.08333
1693.782	1871.75
1696.738	1819.75
1699.692	1781.75
1702.643	1748.75
1705.593	1704.41667
1708.54	1680.41667
1711.486	1680.41667
1714.429	1650.41667
1717.37	1644.75
1720.309	1614.08333
1723.246	1611.75
1726.181	1568.08333
1729.113	1584.75
1732.044	1577.41667
1734.972	1541.41667
1737.899	1542.08333
1740.823	1518.41667
1743.745	1529.41667
1746.665	1481.75
1749.583	1466.41667
1752.499	1439.08333
1755.413	1437.08333
1758.325	1393.75
1761.235	1413.41667
1764.142	1386.41667
1767.048	1349.41667
1769.951	1348.75
1772.852	1347.41667
1775.752	1335.08333
1778.649	1345.75
1781.544	1347.41667
1784.437	1307.41667
1787.328	1310.75
1790.217	1302.08333
1793.104	1282.08333
1795.989	1259.75
1798.872	1270.41667
1801.753	1288.41667
1804.631	1270.41667
1807.508	1281.41667
1810.383	1271.08333
1813.255	1265.41667
1816.126	1261.75
1818.994	1246.08333
1821.861	1243.08333
1824.725	1242.41667
1827.587	1235.08333
1830.448	1223.75
1833.306	1195.41667
1836.162	1209.08333
1839.017	1212.08333
1841.869	1201.75
1844.719	1185.75
1847.567	1189.08333
1850.414	1188.75
1853.258	1187.08333
1856.1	1198.08333
1858.94	1200.75
1861.778	1164.41667
1864.614	1165.41667
1867.448	1163.75
1870.28	1168.41667
1873.111	1188.08333
1875.939	1163.75
1878.765	1179.08333
1881.589	1169.75
1884.411	1149.41667
1887.231	1163.08333
1890.049	1141.08333
1892.865	1155.75
1895.68	1150.75
1898.492	1137.75
1901.302	1140.75
1904.11	1124.08333
1906.916	1128.08333
1909.721	1122.41667
1912.523	1130.41667
1915.323	1100.41667
1918.122	1095.08333
1920.918	1113.08333
1923.712	1089.75
1926.505	1104.75
1929.295	1083.75
1932.084	1112.08333
1934.87	1094.08333
1937.655	1083.08333
1940.438	1073.41667
1943.218	1084.41667
1945.997	1089.41667
1948.774	1108.08333
1951.549	1088.41667
1954.322	1064.75
1957.093	1085.08333
1959.862	1064.41667
1962.629	1065.75
1965.394	1050.75
1968.157	1038.75
1970.918	1054.41667
1973.678	1046.08333
1976.435	1050.41667
1979.19	1025.08333
1981.944	1005.08333
1984.696	1023.75
1987.445	1018.41667
1990.193	1024.75
1992.939	1039.08333
1995.683	1058.41667
1998.425	1013.75
2001.165	1034.08333
2003.903	1009.41667
2006.639	1013.08333
2009.374	1023.75
2012.106	1014.75
2014.837	999.08333
2017.566	1012.75
2020.292	1016.75
2023.017	996.08333
2025.74	997.08333
2028.461	990.75
2031.18	1006.08333
2033.898	984.41667
2036.613	986.75
2039.327	1005.08333
2042.038	968.75
2044.748	982.08333
2047.456	980.08333
2050.162	954.08333
2052.866	967.75
2055.568	966.75
2058.268	960.08333
2060.967	960.75
2063.663	947.75
2066.358	953.08333
2069.051	972.41667
2071.742	958.08333
2074.431	956.41667
2077.118	952.75
2079.804	949.75
2082.487	964.41667
2085.169	966.08333
2087.849	980.08333
2090.527	957.75
2093.203	977.41667
2095.877	971.41667
2098.55	970.41667
2101.22	983.75
2103.889	971.41667
2106.556	969.41667
2109.221	995.41667
2111.884	1014.75
2114.546	1056.41667
2117.205	1095.75
2119.863	1174.41667
2122.519	1244.75
2125.173	1317.41667
2127.825	1406.75
2130.475	1442.08333
2133.124	1436.08333
2135.771	1387.41667
2138.416	1356.08333
2141.059	1291.75
2143.7	1243.75
2146.339	1161.75
2148.977	1125.41667
2151.613	1112.41667
2154.247	1087.08333
2156.879	1056.75
2159.51	1039.08333
2162.138	1029.08333
2164.765	1027.75
2167.39	1024.08333
2170.013	1048.75
2172.634	1054.75
2175.254	1027.08333
2177.872	1055.08333
2180.488	1013.08333
2183.102	1011.75
2185.714	1010.41667
2188.325	964.75
2190.934	983.41667
2193.541	959.08333
2196.146	933.75
2198.75	910.41667
2201.351	916.41667
2203.951	893.75
2206.549	897.08333
2209.146	882.41667
2211.74	867.08333
2214.333	867.75
2216.924	842.41667
2219.514	862.75
2222.101	830.75
2224.687	864.08333
2227.271	840.75
2229.853	827.08333
2232.433	824.08333
2235.012	838.08333
2237.589	833.08333
2240.164	848.75
2242.738	833.75
2245.309	807.75
2247.879	810.41667
2250.448	813.41667
2253.014	793.08333
2255.579	785.41667
2258.142	780.75
2260.703	759.41667
2263.262	772.08333
2265.82	764.08333
2268.376	773.08333
2270.93	756.75
2273.483	748.75
2276.033	749.08333
2278.583	745.41667
2281.13	735.41667
2283.675	727.08333
2286.219	732.41667
2288.761	738.08333
2291.302	729.08333
2293.841	727.75
2296.377	706.41667
2298.913	715.08333
2301.446	724.75
2303.978	727.41667
2306.508	699.08333
2309.037	713.75
2311.563	710.75
2314.088	719.75
2316.612	707.75
2319.133	704.75
2321.653	694.75
2324.171	687.41667
2326.688	706.41667
2329.202	690.75
2331.715	685.75
2334.227	684.75
2336.736	675.41667
2339.244	673.08333
2341.751	669.08333
2344.255	683.08333
2346.758	674.75
2349.259	669.75
2351.759	667.41667
2354.257	649.75
2356.753	658.41667
2359.247	672.41667
2361.74	667.41667
2364.231	652.08333
2366.721	660.75
2369.209	659.41667
2371.695	652.75
2374.179	646.08333
2376.662	643.41667
2379.143	674.75
2381.622	646.08333
2384.1	656.41667
2386.576	645.41667
2389.051	651.41667
2391.524	671.75
2393.995	651.75
2396.464	639.75
2398.932	643.41667
2401.398	642.41667
2403.863	645.08333
2406.325	632.08333
2408.787	624.41667
2411.246	630.08333
2413.704	620.75
2416.16	628.08333
2418.615	618.75
2421.068	637.08333
2423.519	625.41667
2425.969	619.08333
2428.417	633.41667
2430.863	646.41667
2433.308	627.41667
2435.751	631.75
2438.193	625.08333
2440.633	622.75
2443.071	610.08333
2445.508	600.75
2447.943	603.75
2450.376	606.41667
2452.808	617.41667
2455.238	603.08333
2457.667	629.08333
2460.093	615.41667
2462.519	593.75
2464.942	601.75
2467.365	607.75
2469.785	609.08333
2472.204	588.41667
2474.621	584.75
2477.037	620.75
2479.451	584.41667
2481.863	575.08333
2484.274	586.75
2486.683	587.75
2489.091	609.41667
2491.497	587.08333
2493.901	580.08333
2496.304	575.75
2498.705	592.08333
2501.105	591.75
2503.503	613.08333
2505.899	564.75
2508.294	591.41667
2510.687	577.08333
2513.079	568.08333
2515.469	565.75
2517.858	564.75
2520.245	590.75
2522.63	569.41667
2525.014	560.41667
2527.396	560.41667
2529.776	567.08333
2532.156	578.08333
2534.533	553.08333
2536.909	565.08333
2539.283	550.41667
2541.656	557.08333
2544.027	588.08333
2546.397	560.75
2548.765	566.08333
2551.131	555.08333
2553.496	552.08333
2555.86	569.41667
2558.221	560.41667
2560.582	551.41667
2562.94	548.41667
2565.298	538.75
2567.653	577.41667
2570.007	538.75
2572.36	551.41667
2574.711	541.75
2577.06	571.41667
2579.408	555.08333
2581.754	545.75
2584.099	550.41667
2586.442	544.41667
2588.784	545.08333
2591.124	549.75
2593.463	537.08333
2595.8	546.08333
2598.135	531.08333
2600.469	537.75
2602.802	549.08333
2605.133	553.08333
2607.462	531.41667
2609.79	539.08333
2612.116	551.75
2614.441	538.08333
2616.764	542.75
2619.086	548.75
2621.406	529.41667
2623.725	544.75
2626.042	536.41667
2628.358	538.41667
2630.672	539.08333
2632.985	552.75
2635.296	544.08333
2637.606	537.75
2639.914	524.08333
2642.22	535.75
2644.525	530.08333
2646.829	539.41667
2649.131	539.75
2651.432	549.75
2653.731	550.41667
2656.028	555.41667
2658.324	545.41667
2660.619	539.08333
2662.912	549.08333
2665.204	535.41667
2667.494	550.75
2669.782	540.75
2672.07	545.75
2674.355	560.08333
2676.639	543.75
2678.922	542.08333
2681.203	542.75
2683.483	536.08333
2685.761	526.41667
2688.038	551.75
2690.313	551.75
2692.587	545.41667
2694.859	542.08333
2697.13	548.41667
2699.399	547.41667
2701.667	572.08333
2703.933	562.75
2706.198	551.41667
2708.461	569.75
2710.723	559.08333
2712.984	574.75
2715.243	579.08333
2717.5	572.08333
2719.757	581.08333
2722.011	575.41667
2724.264	599.08333
2726.516	602.08333
2728.766	592.75
2731.015	589.75
2733.262	582.41667
2735.508	587.08333
2737.753	585.41667
2739.996	556.41667
2742.237	571.41667
2744.477	575.08333
2746.716	571.75
2748.953	562.41667
2751.189	571.08333
2753.423	549.75
2755.656	547.41667
2757.887	547.75
2760.117	548.41667
2762.346	542.41667
2764.573	532.41667
2766.798	534.08333
2769.022	538.41667
2771.245	544.41667
2773.467	548.41667
2775.686	551.08333
2777.905	553.08333
2780.122	567.08333
2782.337	560.75
2784.552	564.08333
2786.764	566.41667
2788.976	566.41667
2791.186	572.41667
2793.394	581.75
2795.601	596.75
2797.807	590.75
2800.011	598.41667
2802.214	610.41667
2804.415	605.75
2806.615	608.41667
2808.814	618.75
2811.011	634.75
2813.206	633.75
2815.401	648.08333
2817.594	653.08333
2819.785	669.41667
2821.975	659.41667
2824.164	677.41667
2826.351	689.41667
2828.537	720.41667
2830.722	740.41667
2832.905	727.75
2835.086	772.08333
2837.267	810.75
2839.445	843.75
2841.623	859.41667
2843.799	907.41667
2845.974	945.75
2848.147	994.08333
2850.319	1016.75
2852.489	1070.41667
2854.659	1047.75
2856.826	1089.75
2858.993	1104.08333
2861.158	1095.08333
2863.321	1102.75
2865.483	1120.75
2867.644	1120.41667
2869.804	1107.75
2871.962	1114.41667
2874.118	1128.75
2876.274	1141.08333
2878.428	1127.41667
2880.58	1112.41667
2882.731	1093.41667
2884.881	1105.41667
2887.03	1103.75
2889.177	1095.75
2891.322	1101.75
2893.467	1102.41667
2895.61	1116.75
2897.751	1145.75
2899.892	1119.08333
2902.03	1143.75
2904.168	1143.08333
2906.304	1156.08333
2908.439	1176.41667
2910.572	1172.41667
2912.704	1167.08333
2914.835	1174.75
2916.965	1178.08333
2919.093	1182.75
2921.219	1148.75
2923.345	1157.08333
2925.469	1133.41667
2927.591	1116.75
2929.712	1082.08333
2931.832	1077.41667
2933.951	1063.41667
2936.068	1030.08333
2938.184	994.41667
2940.299	969.41667
2942.412	927.41667
2944.524	901.08333
2946.634	880.75
2948.744	818.75
2950.851	846.08333
2952.958	784.41667
2955.063	780.75
2957.167	755.75
2959.269	725.08333
2961.371	744.41667
2963.471	690.75
2965.569	712.41667
2967.666	674.75
2969.762	660.41667
2971.857	636.75
2973.95	615.75
2976.042	607.08333
2978.133	578.41667
2980.222	579.08333
2982.31	550.75
2984.396	539.41667
2986.482	535.08333
2988.566	535.75
2990.648	512.08333
2992.73	509.75
2994.81	500.08333
2996.889	509.75
2998.966	509.41667
3001.042	505.75
3003.117	488.08333
3005.191	493.08333
3007.263	486.41667
3009.334	476.08333
3011.403	475.08333
3013.472	451.75
3015.539	452.08333
3017.604	465.08333
3019.669	425.41667
3021.732	427.75
3023.794	434.08333
3025.854	421.41667
3027.914	423.08333
3029.971	422.41667
3032.028	405.08333
3034.083	419.41667
3036.137	406.08333
3038.19	386.08333
3040.242	387.75
3042.292	374.41667
3044.341	386.41667
3046.388	387.75
3048.435	363.75
3050.48	381.41667
3052.524	370.75
3054.566	351.41667
3056.607	356.75
3058.647	350.75
3060.686	334.41667
3062.723	325.08333
3064.759	313.41667
3066.794	-0.58333
3068.828	-0.91667
3070.86	-2.58333
