-0.839	144.91667
3.438	158.58333
7.711	63.91667
11.981	41.58333
16.247	30.25
20.509	35.58333
24.768	35.58333
29.024	42.91667
33.276	32.25
37.524	38.91667
41.769	31.25
46.01	26.58333
50.247	41.58333
54.481	46.58333
58.712	50.25
62.939	33.91667
67.162	53.58333
71.382	43.25
75.599	35.91667
79.812	43.91667
84.021	62.25
88.227	39.25
92.429	50.25
96.628	37.91667
100.823	49.25
105.015	52.58333
109.204	45.25
113.388	57.58333
117.57	44.91667
121.748	57.25
125.922	43.91667
130.093	63.91667
134.261	62.25
138.425	52.25
142.585	79.91667
146.742	63.58333
150.896	78.25
155.046	72.58333
159.193	107.91667
163.336	160.91667
167.476	281.25
171.613	489.25
175.746	805.25
179.875	1170.58333
184.002	1485.25
188.124	1772.25
192.244	1861.91667
196.36	1855.25
200.472	1835.91667
204.581	1815.58333
208.687	1740.25
212.79	1722.25
216.889	1734.91667
220.984	1751.25
225.077	1749.58333
229.165	1752.58333
233.251	1757.58333
237.333	1741.25
241.412	1726.25
245.487	1719.25
249.559	1679.91667
253.628	1676.58333
257.694	1663.58333
261.756	1660.91667
265.814	1630.58333
269.87	1590.91667
273.922	1528.91667
277.97	1521.58333
282.016	1524.91667
286.058	1494.91667
290.097	1550.58333
294.132	1545.25
298.164	1536.91667
302.193	1470.91667
306.219	1386.58333
310.241	1309.91667
314.26	1229.25
318.276	1152.58333
322.288	1116.25
326.297	1087.25
330.303	1063.25
334.305	1055.91667
338.305	1034.91667
342.301	1026.91667
346.294	1025.25
350.283	1034.25
354.269	1014.25
358.252	1011.91667
362.232	997.25
366.209	1011.58333
370.182	998.91667
374.152	977.58333
378.119	1000.58333
382.083	977.58333
386.043	1004.25
390	971.58333
393.954	996.58333
397.905	985.91667
401.852	1001.91667
405.797	990.25
409.738	987.91667
413.676	989.58333
417.61	994.58333
421.542	980.58333
425.47	970.91667
429.396	964.58333
433.318	959.58333
437.236	961.58333
441.152	977.25
445.065	946.58333
448.974	957.58333
452.88	937.25
456.783	930.58333
460.683	932.25
464.58	928.91667
468.473	945.25
472.364	945.91667
476.251	935.58333
480.135	945.58333
484.016	946.91667
487.894	975.91667
491.769	968.58333
495.641	962.58333
499.509	964.91667
503.375	958.91667
507.237	965.58333
511.096	976.25
514.952	996.58333
518.805	1023.58333
522.655	1023.91667
526.502	991.25
530.346	968.58333
534.187	964.25
538.024	955.25
541.859	934.25
545.69	983.25
549.519	956.58333
553.344	956.25
557.166	937.58333
560.985	941.25
564.802	939.25
568.615	926.91667
572.425	909.25
576.232	907.58333
580.036	908.58333
583.836	915.58333
587.634	914.25
591.429	916.58333
595.221	948.58333
599.01	923.58333
602.796	935.91667
606.578	932.91667
610.358	931.91667
614.135	930.25
617.909	934.25
621.679	925.25
625.447	909.91667
629.212	922.25
632.973	926.58333
636.732	907.25
640.488	928.58333
644.241	903.58333
647.991	900.58333
651.737	929.91667
655.481	892.25
659.222	897.91667
662.96	899.91667
666.695	920.25
670.427	915.91667
674.156	911.25
677.882	922.91667
681.605	928.91667
685.325	889.58333
689.043	923.91667
692.757	909.91667
696.468	901.58333
700.177	910.91667
703.882	888.58333
707.585	896.58333
711.284	884.58333
714.981	875.58333
718.675	869.58333
722.366	895.91667
726.054	876.58333
729.739	879.91667
733.421	890.58333
737.1	886.58333
740.777	891.25
744.45	889.58333
748.121	887.91667
751.789	924.25
755.453	897.58333
759.115	898.91667
762.774	907.58333
766.431	911.25
770.084	907.25
773.734	911.91667
777.382	925.91667
781.027	933.25
784.669	926.58333
788.308	931.58333
791.944	951.58333
795.577	956.58333
799.208	948.91667
802.835	934.25
806.46	964.25
810.082	955.91667
813.701	944.91667
817.317	955.91667
820.931	967.58333
824.542	970.91667
828.149	951.58333
831.754	944.25
835.357	942.91667
838.956	958.25
842.553	949.91667
846.146	946.58333
849.737	919.58333
853.326	944.58333
856.911	917.91667
860.493	936.58333
864.073	932.91667
867.65	959.25
871.225	966.25
874.796	955.25
878.365	952.91667
881.931	969.25
885.494	981.25
889.054	966.58333
892.612	980.25
896.166	969.91667
899.719	953.91667
903.268	933.25
906.814	927.58333
910.358	906.91667
913.899	920.58333
917.438	911.25
920.973	883.58333
924.506	922.25
928.036	923.91667
931.564	945.91667
935.088	949.91667
938.61	948.25
942.129	937.58333
945.646	968.58333
949.16	962.91667
952.671	969.58333
956.179	991.91667
959.685	972.25
963.188	985.25
966.688	963.58333
970.185	922.58333
973.68	916.91667
977.173	915.25
980.662	900.25
984.149	901.58333
987.633	876.58333
991.114	901.25
994.593	924.25
998.069	930.25
1001.542	945.91667
1005.013	932.58333
1008.481	890.25
1011.947	883.91667
1015.409	871.25
1018.869	878.91667
1022.327	875.91667
1025.782	871.58333
1029.234	863.25
1032.683	856.58333
1036.13	838.91667
1039.574	805.25
1043.016	791.58333
1046.455	784.25
1049.891	772.58333
1053.325	784.91667
1056.756	786.58333
1060.184	769.58333
1063.61	762.25
1067.033	769.25
1070.454	765.25
1073.872	804.25
1077.287	772.91667
1080.7	783.58333
1084.11	786.91667
1087.517	771.91667
1090.922	767.91667
1094.325	748.91667
1097.724	731.58333
1101.122	743.91667
1104.516	742.25
1107.908	731.25
1111.298	748.58333
1114.684	756.91667
1118.069	760.91667
1121.45	773.25
1124.83	761.58333
1128.206	782.25
1131.58	783.25
1134.951	806.58333
1138.32	816.58333
1141.687	846.91667
1145.05	864.58333
1148.412	863.58333
1151.77	856.58333
1155.126	851.91667
1158.48	852.91667
1161.831	851.91667
1165.18	844.58333
1168.525	866.25
1171.869	867.25
1175.21	872.91667
1178.548	894.25
1181.884	896.58333
1185.217	889.25
1188.548	922.25
1191.877	931.91667
1195.202	956.58333
1198.526	984.58333
1201.846	979.58333
1205.165	989.25
1208.48	983.25
1211.794	984.25
1215.104	997.91667
1218.413	990.58333
1221.719	992.58333
1225.022	968.25
1228.323	963.58333
1231.621	952.91667
1234.917	939.25
1238.21	969.91667
1241.501	939.58333
1244.79	930.91667
1248.076	912.58333
1251.359	934.91667
1254.64	974.58333
1257.919	962.25
1261.195	966.91667
1264.468	984.25
1267.74	997.58333
1271.008	990.91667
1274.275	977.25
1277.538	981.58333
1280.8	988.25
1284.059	985.25
1287.315	998.25
1290.569	994.25
1293.821	1018.58333
1297.07	1012.91667
1300.317	1015.25
1303.562	1033.25
1306.803	997.25
1310.043	999.58333
1313.28	986.91667
1316.515	989.91667
1319.747	994.25
1322.977	979.91667
1326.204	963.25
1329.429	964.58333
1332.652	965.91667
1335.872	963.25
1339.09	942.58333
1342.306	950.58333
1345.519	944.91667
1348.729	939.58333
1351.938	927.58333
1355.144	911.25
1358.347	920.58333
1361.548	921.91667
1364.747	914.25
1367.944	888.58333
1371.138	902.25
1374.329	892.91667
1377.518	908.25
1380.705	910.25
1383.89	906.58333
1387.072	868.58333
1390.252	850.25
1393.429	834.58333
1396.605	807.91667
1399.777	778.91667
1402.948	778.25
1406.116	772.25
1409.282	785.25
1412.445	765.91667
1415.606	778.91667
1418.765	784.25
1421.921	807.58333
1425.075	807.25
1428.227	827.91667
1431.376	849.91667
1434.524	875.58333
1437.668	895.91667
1440.811	903.25
1443.951	902.58333
1447.089	916.25
1450.224	914.25
1453.357	899.91667
1456.488	913.58333
1459.617	901.91667
1462.743	880.91667
1465.867	858.91667
1468.989	852.91667
1472.108	825.58333
1475.225	817.91667
1478.34	804.25
1481.453	804.91667
1484.563	803.91667
1487.671	829.58333
1490.776	825.25
1493.88	828.58333
1496.981	847.58333
1500.08	862.91667
1503.176	855.58333
1506.271	877.91667
1509.363	879.58333
1512.452	882.58333
1515.54	896.91667
1518.625	907.91667
1521.708	929.58333
1524.789	959.25
1527.867	972.58333
1530.944	1038.25
1534.018	1048.91667
1537.089	1098.91667
1540.159	1118.25
1543.226	1110.25
1546.291	1111.91667
1549.354	1080.58333
1552.415	1075.91667
1555.473	1042.91667
1558.529	1037.91667
1561.583	1024.25
1564.634	1004.91667
1567.684	1004.91667
1570.731	1006.58333
1573.776	1015.25
1576.819	1024.91667
1579.859	1015.58333
1582.898	1043.91667
1585.934	1060.25
1588.968	1067.25
1591.999	1040.91667
1595.029	1051.91667
1598.056	1063.25
1601.081	1073.58333
1604.104	1079.91667
1607.125	1048.58333
1610.144	1037.58333
1613.16	1003.25
1616.174	978.25
1619.186	962.58333
1622.196	938.25
1625.203	897.91667
1628.209	909.58333
1631.212	906.58333
1634.213	896.25
1637.212	903.58333
1640.209	900.91667
1643.203	865.25
1646.196	836.58333
1649.186	804.58333
1652.174	800.25
1655.16	765.58333
1658.144	752.58333
1661.125	728.25
1664.105	705.25
1667.082	687.58333
1670.057	635.58333
1673.03	606.58333
1676.001	575.25
1678.97	537.25
1681.937	520.91667
1684.901	492.25
1687.863	487.58333
1690.824	450.25
1693.782	461.58333
1696.738	432.91667
1699.692	442.58333
1702.643	411.91667
1705.593	417.25
1708.54	408.91667
1711.486	424.58333
1714.429	400.58333
1717.37	405.25
1720.309	405.58333
1723.246	403.58333
1726.181	388.58333
1729.113	386.25
1732.044	390.25
1734.972	376.58333
1737.899	394.91667
1740.823	393.58333
1743.745	422.25
1746.665	364.25
1749.583	367.25
1752.499	362.91667
1755.413	358.25
1758.325	342.91667
1761.235	362.58333
1764.142	346.25
1767.048	337.25
1769.951	347.58333
1772.852	332.91667
1775.752	346.58333
1778.649	342.58333
1781.544	359.91667
1784.437	331.91667
1787.328	336.91667
1790.217	335.25
1793.104	316.91667
1795.989	314.91667
1798.872	309.25
1801.753	330.91667
1804.631	323.25
1807.508	320.91667
1810.383	318.25
1813.255	318.58333
1816.126	312.58333
1818.994	316.91667
1821.861	312.91667
1824.725	318.58333
1827.587	324.58333
1830.448	308.25
1833.306	299.25
1836.162	310.25
1839.017	310.91667
1841.869	309.25
1844.719	315.58333
1847.567	297.25
1850.414	289.91667
1853.258	285.25
1856.1	298.58333
1858.94	315.25
1861.778	305.58333
1864.614	293.58333
1867.448	297.91667
1870.28	289.58333
1873.111	300.25
1875.939	293.58333
1878.765	316.91667
1881.589	296.91667
1884.411	301.58333
1887.231	309.91667
1890.049	296.25
1892.865	298.25
1895.68	289.25
1898.492	294.91667
1901.302	286.25
1904.11	291.25
1906.916	284.91667
1909.721	292.91667
1912.523	294.25
1915.323	283.91667
1918.122	277.91667
1920.918	298.25
1923.712	272.91667
1926.505	279.25
1929.295	263.58333
1932.084	281.91667
1934.87	280.58333
1937.655	274.25
1940.438	267.91667
1943.218	272.25
1945.997	281.25
1948.774	282.91667
1951.549	285.58333
1954.322	275.58333
1957.093	275.25
1959.862	269.91667
1962.629	267.25
1965.394	266.25
1968.157	256.25
1970.918	277.91667
1973.678	262.58333
1976.435	268.91667
1979.19	266.58333
1981.944	252.91667
1984.696	258.58333
1987.445	251.58333
1990.193	256.25
1992.939	268.58333
1995.683	267.58333
1998.425	246.58333
2001.165	274.58333
2003.903	252.91667
2006.639	331.25
2009.374	275.25
2012.106	260.58333
2014.837	236.58333
2017.566	257.58333
2020.292	254.58333
2023.017	253.91667
2025.74	248.58333
2028.461	243.25
2031.18	251.25
2033.898	242.25
2036.613	250.25
2039.327	254.25
2042.038	238.91667
2044.748	240.58333
2047.456	254.25
2050.162	236.91667
2052.866	238.25
2055.568	253.25
2058.268	242.25
2060.967	252.58333
2063.663	233.25
2066.358	242.25
2069.051	235.91667
2071.742	238.25
2074.431	256.25
2077.118	239.25
2079.804	226.91667
2082.487	234.91667
2085.169	246.25
2087.849	258.91667
2090.527	233.58333
2093.203	242.91667
2095.877	233.58333
2098.55	234.91667
2101.22	248.91667
2103.889	256.91667
2106.556	247.58333
2109.221	258.58333
2111.884	249.25
2114.546	279.58333
2117.205	286.25
2119.863	322.58333
2122.519	314.25
2125.173	333.91667
2127.825	370.25
2130.475	360.58333
2133.124	346.91667
2135.771	323.58333
2138.416	338.58333
2141.059	311.25
2143.7	298.91667
2146.339	281.58333
2148.977	260.25
2151.613	268.25
2154.247	265.58333
2156.879	253.25
2159.51	245.58333
2162.138	239.25
2164.765	242.25
2167.39	227.91667
2170.013	252.58333
2172.634	240.58333
2175.254	227.58333
2177.872	263.58333
2180.488	222.25
2183.102	228.58333
2185.714	227.91667
2188.325	214.58333
2190.934	226.91667
2193.541	226.91667
2196.146	221.25
2198.75	211.25
2201.351	213.91667
2203.951	203.91667
2206.549	218.58333
2209.146	215.58333
2211.74	201.91667
2214.333	217.25
2216.924	198.58333
2219.514	211.91667
2222.101	204.25
2224.687	218.25
2227.271	198.91667
2229.853	196.25
2232.433	186.58333
2235.012	209.58333
2237.589	202.25
2240.164	212.91667
2242.738	195.58333
2245.309	190.25
2247.879	214.58333
2250.448	210.58333
2253.014	187.25
2255.579	179.58333
2258.142	187.91667
2260.703	191.58333
2263.262	191.58333
2265.82	184.58333
2268.376	202.25
2270.93	184.25
2273.483	180.25
2276.033	193.91667
2278.583	183.58333
2281.13	179.91667
2283.675	174.91667
2286.219	179.91667
2288.761	197.91667
2291.302	192.58333
2293.841	199.25
2296.377	175.58333
2298.913	191.58333
2301.446	189.58333
2303.978	184.25
2306.508	183.25
2309.037	186.58333
2311.563	184.58333
2314.088	186.91667
2316.612	170.91667
2319.133	184.25
2321.653	185.91667
2324.171	171.58333
2326.688	190.91667
2329.202	181.91667
2331.715	185.58333
2334.227	177.91667
2336.736	178.25
2339.244	172.91667
2341.751	170.58333
2344.255	181.58333
2346.758	182.91667
2349.259	171.91667
2351.759	184.91667
2354.257	166.91667
2356.753	168.91667
2359.247	167.25
2361.74	174.58333
2364.231	169.91667
2366.721	181.25
2369.209	170.91667
2371.695	170.25
2374.179	161.58333
2376.662	161.58333
2379.143	182.58333
2381.622	171.25
2384.1	177.25
2386.576	166.91667
2389.051	177.91667
2391.524	180.25
2393.995	177.25
2396.464	169.91667
2398.932	164.91667
2401.398	175.25
2403.863	160.25
2406.325	166.58333
2408.787	172.58333
2411.246	162.25
2413.704	166.25
2416.16	165.25
2418.615	158.91667
2421.068	164.58333
2423.519	166.91667
2425.969	152.25
2428.417	177.25
2430.863	187.58333
2433.308	172.58333
2435.751	168.91667
2438.193	167.58333
2440.633	170.91667
2443.071	177.58333
2445.508	158.25
2447.943	167.58333
2450.376	156.91667
2452.808	171.25
2455.238	153.58333
2457.667	193.91667
2460.093	156.25
2462.519	149.91667
2464.942	157.91667
2467.365	167.25
2469.785	167.91667
2472.204	158.58333
2474.621	158.58333
2477.037	177.58333
2479.451	150.91667
2481.863	151.25
2484.274	150.58333
2486.683	158.58333
2489.091	175.58333
2491.497	165.25
2493.901	160.58333
2496.304	159.25
2498.705	170.91667
2501.105	157.25
2503.503	177.91667
2505.899	152.25
2508.294	175.58333
2510.687	157.91667
2513.079	151.91667
2515.469	147.58333
2517.858	153.58333
2520.245	173.91667
2522.63	158.91667
2525.014	154.25
2527.396	146.58333
2529.776	151.25
2532.156	158.58333
2534.533	147.58333
2536.909	147.25
2539.283	138.91667
2541.656	150.25
2544.027	169.91667
2546.397	157.25
2548.765	156.58333
2551.131	157.58333
2553.496	151.91667
2555.86	154.25
2558.221	158.91667
2560.582	155.25
2562.94	145.58333
2565.298	153.58333
2567.653	167.91667
2570.007	143.58333
2572.36	157.58333
2574.711	148.91667
2577.06	164.25
2579.408	161.58333
2581.754	152.25
2584.099	150.91667
2586.442	155.91667
2588.784	163.25
2591.124	156.58333
2593.463	153.58333
2595.8	152.58333
2598.135	142.25
2600.469	147.58333
2602.802	157.25
2605.133	164.58333
2607.462	147.58333
2609.79	140.91667
2612.116	158.58333
2614.441	148.25
2616.764	156.91667
2619.086	152.58333
2621.406	148.25
2623.725	162.58333
2626.042	149.91667
2628.358	148.25
2630.672	151.25
2632.985	164.91667
2635.296	149.58333
2637.606	150.25
2639.914	148.58333
2642.22	147.91667
2644.525	150.25
2646.829	154.58333
2649.131	166.25
2651.432	157.58333
2653.731	150.58333
2656.028	171.58333
2658.324	159.58333
2660.619	142.58333
2662.912	163.25
2665.204	144.25
2667.494	154.25
2669.782	148.25
2672.07	167.58333
2674.355	163.25
2676.639	158.25
2678.922	151.91667
2681.203	156.91667
2683.483	148.25
2685.761	144.58333
2688.038	161.58333
2690.313	162.91667
2692.587	156.58333
2694.859	152.25
2697.13	158.58333
2699.399	151.91667
2701.667	165.25
2703.933	160.58333
2706.198	166.58333
2708.461	161.91667
2710.723	165.25
2712.984	160.58333
2715.243	166.25
2717.5	169.25
2719.757	173.25
2722.011	162.91667
2724.264	173.91667
2726.516	181.25
2728.766	159.25
2731.015	162.91667
2733.262	161.91667
2735.508	163.58333
2737.753	170.91667
2739.996	151.58333
2742.237	159.58333
2744.477	172.25
2746.716	176.91667
2748.953	171.58333
2751.189	178.91667
2753.423	164.58333
2755.656	155.25
2757.887	152.58333
2760.117	157.58333
2762.346	152.91667
2764.573	140.58333
2766.798	155.91667
2769.022	160.25
2771.245	154.58333
2773.467	155.25
2775.686	148.25
2777.905	158.58333
2780.122	160.91667
2782.337	168.25
2784.552	156.91667
2786.764	160.25
2788.976	155.91667
2791.186	164.25
2793.394	162.91667
2795.601	167.58333
2797.807	164.25
2800.011	168.91667
2802.214	180.25
2804.415	173.58333
2806.615	166.91667
2808.814	175.25
2811.011	180.58333
2813.206	177.58333
2815.401	184.91667
2817.594	186.25
2819.785	188.91667
2821.975	174.91667
2824.164	183.91667
2826.351	183.58333
2828.537	194.25
2830.722	191.91667
2832.905	190.91667
2835.086	192.25
2837.267	214.91667
2839.445	208.91667
2841.623	211.58333
2843.799	215.91667
2845.974	218.91667
2848.147	222.25
2850.319	238.91667
2852.489	245.91667
2854.659	245.58333
2856.826	245.91667
2858.993	266.91667
2861.158	244.58333
2863.321	242.25
2865.483	272.58333
2867.644	263.58333
2869.804	255.58333
2871.962	252.58333
2874.118	257.58333
2876.274	251.91667
2878.428	255.58333
2880.58	255.58333
2882.731	251.91667
2884.881	251.91667
2887.03	262.58333
2889.177	259.25
2891.322	263.58333
2893.467	261.91667
2895.61	253.25
2897.751	270.91667
2899.892	254.25
2902.03	263.91667
2904.168	259.91667
2906.304	262.25
2908.439	281.91667
2910.572	253.91667
2912.704	265.58333
2914.835	278.25
2916.965	264.25
2919.093	284.25
2921.219	254.91667
2923.345	279.58333
2925.469	269.25
2927.591	262.25
2929.712	242.58333
2931.832	261.25
2933.951	255.91667
2936.068	247.91667
2938.184	244.58333
2940.299	240.25
2942.412	234.25
2944.524	219.25
2946.634	228.91667
2948.744	200.91667
2950.851	237.91667
2952.958	201.58333
2955.063	215.58333
2957.167	208.25
2959.269	191.58333
2961.371	223.25
2963.471	191.91667
2965.569	212.91667
2967.666	188.25
2969.762	191.58333
2971.857	184.25
2973.95	180.25
2976.042	189.58333
2978.133	175.91667
2980.222	174.58333
2982.31	168.58333
2984.396	153.91667
2986.482	161.25
2988.566	159.91667
2990.648	164.91667
2992.73	156.58333
2994.81	147.91667
2996.889	161.58333
2998.966	154.91667
3001.042	169.91667
3003.117	160.58333
3005.191	156.91667
3007.263	162.91667
3009.334	159.58333
3011.403	154.91667
3013.472	149.25
3015.539	164.25
3017.604	172.25
3019.669	142.25
3021.732	146.58333
3023.794	147.91667
3025.854	142.58333
3027.914	138.91667
3029.971	144.91667
3032.028	147.25
3034.083	151.91667
3036.137	143.25
3038.19	132.58333
3040.242	128.25
3042.292	121.58333
3044.341	133.25
3046.388	151.25
3048.435	125.58333
3050.48	142.25
3052.524	130.25
3054.566	119.58333
3056.607	131.58333
3058.647	121.58333
3060.686	112.25
3062.723	106.25
3064.759	105.91667
3066.794	0.58333
3068.828	0.58333
3070.86	3.25
