-0.839	133.58333
3.438	156.25
7.711	66.25
11.981	39.58333
16.247	30.25
20.509	38.25
24.768	33.25
29.024	42.91667
33.276	33.58333
37.524	39.91667
41.769	30.58333
46.01	25.25
50.247	39.91667
54.481	50.25
58.712	58.25
62.939	37.58333
67.162	50.58333
71.382	47.58333
75.599	37.25
79.812	43.58333
84.021	64.91667
88.227	44.25
92.429	53.91667
96.628	37.25
100.823	50.58333
105.015	52.58333
109.204	48.58333
113.388	56.58333
117.57	44.58333
121.748	62.58333
125.922	47.25
130.093	62.58333
134.261	67.91667
138.425	53.58333
142.585	83.25
146.742	66.25
150.896	79.25
155.046	71.25
159.193	109.91667
163.336	162.91667
167.476	280.58333
171.613	485.25
175.746	790.25
179.875	1157.25
184.002	1503.58333
188.124	1796.91667
192.244	1878.58333
196.36	1898.58333
200.472	1869.91667
204.581	1842.91667
208.687	1800.25
212.79	1784.58333
216.889	1804.25
220.984	1830.91667
225.077	1845.91667
229.165	1827.58333
233.251	1834.58333
237.333	1831.91667
241.412	1809.91667
245.487	1806.25
249.559	1788.91667
253.628	1769.91667
257.694	1759.25
261.756	1770.25
265.814	1731.25
269.87	1687.25
273.922	1662.58333
277.97	1642.25
282.016	1617.58333
286.058	1622.91667
290.097	1659.25
294.132	1692.58333
298.164	1667.25
302.193	1617.58333
306.219	1531.91667
310.241	1416.91667
314.26	1339.91667
318.276	1275.25
322.288	1237.58333
326.297	1211.91667
330.303	1184.25
334.305	1135.91667
338.305	1139.25
342.301	1146.25
346.294	1152.25
350.283	1131.25
354.269	1113.91667
358.252	1113.58333
362.232	1124.25
366.209	1122.58333
370.182	1119.58333
374.152	1101.58333
378.119	1121.91667
382.083	1108.58333
386.043	1118.25
390	1094.25
393.954	1124.91667
397.905	1116.25
401.852	1131.58333
405.797	1109.25
409.738	1106.58333
413.676	1127.25
417.61	1135.91667
421.542	1110.58333
425.47	1094.58333
429.396	1085.25
433.318	1076.58333
437.236	1074.91667
441.152	1112.58333
445.065	1067.25
448.974	1069.91667
452.88	1066.25
456.783	1053.91667
460.683	1050.58333
464.58	1061.91667
468.473	1075.25
472.364	1055.91667
476.251	1062.91667
480.135	1085.91667
484.016	1082.25
487.894	1098.91667
491.769	1092.25
495.641	1097.25
499.509	1101.25
503.375	1106.91667
507.237	1085.58333
511.096	1082.91667
514.952	1080.25
518.805	1080.58333
522.655	1081.58333
526.502	1081.58333
530.346	1080.58333
534.187	1098.91667
538.024	1076.91667
541.859	1081.25
545.69	1099.25
549.519	1100.25
553.344	1088.91667
557.166	1069.58333
560.985	1054.25
564.802	1055.58333
568.615	1051.91667
572.425	1039.25
576.232	1027.91667
580.036	1034.58333
583.836	1041.58333
587.634	1058.91667
591.429	1047.25
595.221	1069.91667
599.01	1069.91667
602.796	1063.25
606.578	1060.58333
610.358	1063.58333
614.135	1057.58333
617.909	1052.25
621.679	1059.58333
625.447	1057.58333
629.212	1032.25
632.973	1056.25
636.732	1047.58333
640.488	1045.58333
644.241	1027.91667
647.991	1026.91667
651.737	1060.91667
655.481	1013.58333
659.222	1019.58333
662.96	1018.91667
666.695	1022.25
670.427	1037.25
674.156	1031.91667
677.882	1042.25
681.605	1034.25
685.325	1019.91667
689.043	1042.91667
692.757	1015.91667
696.468	1030.25
700.177	1019.91667
703.882	1011.25
707.585	1006.91667
711.284	997.25
714.981	994.91667
718.675	997.91667
722.366	1012.58333
726.054	979.25
729.739	1006.91667
733.421	999.25
737.1	1000.91667
740.777	1005.25
744.45	1021.58333
748.121	1009.58333
751.789	1029.91667
755.453	1015.25
759.115	1033.58333
762.774	1016.25
766.431	1019.91667
770.084	1024.25
773.734	1021.25
777.382	1040.91667
781.027	1042.25
784.669	1046.91667
788.308	1039.58333
791.944	1059.58333
795.577	1051.25
799.208	1057.25
802.835	1056.58333
806.46	1062.91667
810.082	1065.25
813.701	1047.58333
817.317	1067.25
820.931	1061.91667
824.542	1077.58333
828.149	1047.58333
831.754	1052.25
835.357	1042.91667
838.956	1061.58333
842.553	1056.25
846.146	1034.25
849.737	1013.25
853.326	1025.25
856.911	1020.25
860.493	1029.58333
864.073	1044.58333
867.65	1047.58333
871.225	1074.91667
874.796	1061.91667
878.365	1039.25
881.931	1076.25
885.494	1078.91667
889.054	1063.58333
892.612	1077.91667
896.166	1059.91667
899.719	1046.58333
903.268	1019.58333
906.814	1021.91667
910.358	1007.91667
913.899	997.58333
917.438	1001.91667
920.973	988.58333
924.506	988.91667
928.036	1020.58333
931.564	1024.25
935.088	1023.25
938.61	1010.25
942.129	1017.58333
945.646	1035.91667
949.16	1054.58333
952.671	1055.25
956.179	1075.58333
959.685	1068.25
963.188	1068.91667
966.688	1043.25
970.185	1020.58333
973.68	1002.25
977.173	994.25
980.662	974.25
984.149	993.25
987.633	964.58333
991.114	979.58333
994.593	1004.91667
998.069	1010.25
1001.542	1037.25
1005.013	1025.58333
1008.481	968.91667
1011.947	965.91667
1015.409	953.25
1018.869	962.58333
1022.327	954.25
1025.782	934.91667
1029.234	922.25
1032.683	924.91667
1036.13	905.25
1039.574	876.25
1043.016	864.91667
1046.455	848.91667
1049.891	832.91667
1053.325	848.25
1056.756	839.25
1060.184	850.58333
1063.61	826.25
1067.033	841.91667
1070.454	841.91667
1073.872	857.58333
1077.287	823.58333
1080.7	838.58333
1084.11	839.58333
1087.517	836.58333
1090.922	832.25
1094.325	820.25
1097.724	807.58333
1101.122	805.91667
1104.516	817.91667
1107.908	792.58333
1111.298	807.58333
1114.684	812.91667
1118.069	812.91667
1121.45	833.25
1124.83	825.58333
1128.206	843.58333
1131.58	836.58333
1134.951	867.91667
1138.32	861.91667
1141.687	908.58333
1145.05	918.58333
1148.412	916.58333
1151.77	903.58333
1155.126	918.91667
1158.48	898.91667
1161.831	893.58333
1165.18	900.58333
1168.525	912.25
1171.869	929.25
1175.21	923.25
1178.548	940.91667
1181.884	944.91667
1185.217	931.58333
1188.548	969.91667
1191.877	979.91667
1195.202	1029.58333
1198.526	1046.91667
1201.846	1031.58333
1205.165	1037.25
1208.48	1037.25
1211.794	1029.58333
1215.104	1045.25
1218.413	1032.91667
1221.719	1027.58333
1225.022	1018.91667
1228.323	991.91667
1231.621	1007.25
1234.917	989.91667
1238.21	1007.25
1241.501	982.58333
1244.79	974.58333
1248.076	967.58333
1251.359	993.58333
1254.64	1021.58333
1257.919	1006.58333
1261.195	1011.25
1264.468	1028.58333
1267.74	1044.25
1271.008	1049.25
1274.275	1052.91667
1277.538	1040.58333
1280.8	1030.58333
1284.059	1036.58333
1287.315	1048.58333
1290.569	1035.58333
1293.821	1042.91667
1297.07	1049.25
1300.317	1068.25
1303.562	1059.91667
1306.803	1053.91667
1310.043	1052.91667
1313.28	1028.25
1316.515	1024.25
1319.747	1039.58333
1322.977	1022.91667
1326.204	1012.91667
1329.429	998.91667
1332.652	1009.91667
1335.872	1001.58333
1339.09	986.25
1342.306	987.25
1345.519	972.91667
1348.729	951.91667
1351.938	971.25
1355.144	940.58333
1358.347	944.91667
1361.548	949.91667
1364.747	954.91667
1367.944	925.58333
1371.138	925.91667
1374.329	923.25
1377.518	952.25
1380.705	937.91667
1383.89	943.91667
1387.072	920.91667
1390.252	885.25
1393.429	878.58333
1396.605	858.25
1399.777	825.58333
1402.948	815.91667
1406.116	812.91667
1409.282	812.25
1412.445	812.25
1415.606	818.25
1418.765	821.91667
1421.921	834.91667
1425.075	856.25
1428.227	862.91667
1431.376	888.91667
1434.524	921.25
1437.668	928.91667
1440.811	946.58333
1443.951	948.91667
1447.089	950.91667
1450.224	942.58333
1453.357	952.25
1456.488	936.58333
1459.617	930.58333
1462.743	912.91667
1465.867	874.58333
1468.989	889.91667
1472.108	872.91667
1475.225	848.25
1478.34	840.58333
1481.453	836.25
1484.563	832.58333
1487.671	825.91667
1490.776	849.58333
1493.88	861.91667
1496.981	876.58333
1500.08	879.58333
1503.176	881.25
1506.271	885.91667
1509.363	907.25
1512.452	904.58333
1515.54	910.25
1518.625	914.58333
1521.708	949.91667
1524.789	968.91667
1527.867	999.58333
1530.944	1040.58333
1534.018	1073.25
1537.089	1127.91667
1540.159	1144.25
1543.226	1138.58333
1546.291	1126.91667
1549.354	1101.58333
1552.415	1081.25
1555.473	1062.91667
1558.529	1048.91667
1561.583	1033.91667
1564.634	1018.58333
1567.684	1009.58333
1570.731	1001.25
1573.776	1030.91667
1576.819	1020.58333
1579.859	1027.91667
1582.898	1033.91667
1585.934	1040.25
1588.968	1067.25
1591.999	1042.91667
1595.029	1054.91667
1598.056	1055.58333
1601.081	1080.58333
1604.104	1080.58333
1607.125	1049.58333
1610.144	1021.58333
1613.16	1008.58333
1616.174	984.91667
1619.186	972.25
1622.196	949.58333
1625.203	925.25
1628.209	929.91667
1631.212	901.25
1634.213	891.58333
1637.212	892.25
1640.209	902.58333
1643.203	853.91667
1646.196	851.25
1649.186	823.91667
1652.174	818.58333
1655.16	783.91667
1658.144	782.58333
1661.125	754.25
1664.105	729.58333
1667.082	704.91667
1670.057	666.58333
1673.03	630.91667
1676.001	602.25
1678.97	570.58333
1681.937	555.91667
1684.901	523.91667
1687.863	503.91667
1690.824	486.91667
1693.782	495.25
1696.738	450.58333
1699.692	449.91667
1702.643	431.25
1705.593	449.25
1708.54	439.58333
1711.486	439.58333
1714.429	417.91667
1717.37	428.58333
1720.309	415.91667
1723.246	419.91667
1726.181	401.25
1729.113	407.25
1732.044	416.25
1734.972	408.25
1737.899	412.91667
1740.823	408.58333
1743.745	433.25
1746.665	393.58333
1749.583	389.25
1752.499	386.58333
1755.413	382.58333
1758.325	369.25
1761.235	379.25
1764.142	358.91667
1767.048	362.58333
1769.951	361.58333
1772.852	361.58333
1775.752	371.25
1778.649	367.91667
1781.544	372.91667
1784.437	349.25
1787.328	363.58333
1790.217	353.25
1793.104	337.25
1795.989	337.91667
1798.872	334.25
1801.753	346.91667
1804.631	339.25
1807.508	348.91667
1810.383	345.25
1813.255	340.25
1816.126	327.25
1818.994	333.58333
1821.861	333.25
1824.725	342.58333
1827.587	340.58333
1830.448	329.25
1833.306	316.91667
1836.162	332.25
1839.017	324.25
1841.869	325.58333
1844.719	325.58333
1847.567	313.25
1850.414	306.58333
1853.258	308.25
1856.1	328.25
1858.94	331.58333
1861.778	314.91667
1864.614	305.25
1867.448	317.58333
1870.28	296.91667
1873.111	329.25
1875.939	301.25
1878.765	333.58333
1881.589	301.25
1884.411	311.25
1887.231	320.58333
1890.049	312.25
1892.865	320.91667
1895.68	310.25
1898.492	321.58333
1901.302	313.91667
1904.11	298.91667
1906.916	303.58333
1909.721	292.25
1912.523	308.91667
1915.323	290.58333
1918.122	296.58333
1920.918	304.25
1923.712	292.91667
1926.505	302.91667
1929.295	270.25
1932.084	295.58333
1934.87	297.91667
1937.655	285.25
1940.438	283.25
1943.218	290.58333
1945.997	290.58333
1948.774	297.25
1951.549	297.25
1954.322	283.58333
1957.093	284.58333
1959.862	284.91667
1962.629	285.25
1965.394	277.58333
1968.157	267.25
1970.918	285.25
1973.678	271.58333
1976.435	283.91667
1979.19	268.91667
1981.944	268.58333
1984.696	275.58333
1987.445	267.25
1990.193	278.91667
1992.939	275.25
1995.683	277.58333
1998.425	257.58333
2001.165	292.58333
2003.903	255.91667
2006.639	277.91667
2009.374	273.58333
2012.106	271.58333
2014.837	250.25
2017.566	271.25
2020.292	267.25
2023.017	260.91667
2025.74	257.58333
2028.461	250.91667
2031.18	257.25
2033.898	241.58333
2036.613	261.58333
2039.327	263.58333
2042.038	249.58333
2044.748	255.25
2047.456	261.25
2050.162	244.58333
2052.866	241.91667
2055.568	266.58333
2058.268	245.91667
2060.967	258.58333
2063.663	246.25
2066.358	242.91667
2069.051	246.25
2071.742	247.25
2074.431	252.58333
2077.118	243.58333
2079.804	241.25
2082.487	242.91667
2085.169	249.58333
2087.849	266.58333
2090.527	239.58333
2093.203	248.58333
2095.877	246.58333
2098.55	250.58333
2101.22	255.91667
2103.889	252.25
2106.556	246.58333
2109.221	269.58333
2111.884	259.25
2114.546	280.25
2117.205	286.58333
2119.863	331.58333
2122.519	314.58333
2125.173	343.58333
2127.825	363.58333
2130.475	367.58333
2133.124	343.25
2135.771	333.58333
2138.416	340.58333
2141.059	306.25
2143.7	305.25
2146.339	287.58333
2148.977	258.91667
2151.613	268.58333
2154.247	265.25
2156.879	256.91667
2159.51	242.58333
2162.138	244.25
2164.765	232.25
2167.39	227.58333
2170.013	253.91667
2172.634	252.58333
2175.254	231.58333
2177.872	265.58333
2180.488	219.58333
2183.102	226.91667
2185.714	226.25
2188.325	208.25
2190.934	227.58333
2193.541	228.91667
2196.146	220.25
2198.75	213.91667
2201.351	209.91667
2203.951	199.25
2206.549	216.25
2209.146	215.58333
2211.74	203.91667
2214.333	217.91667
2216.924	196.91667
2219.514	203.58333
2222.101	206.25
2224.687	219.91667
2227.271	198.58333
2229.853	203.25
2232.433	185.91667
2235.012	209.25
2237.589	200.91667
2240.164	214.25
2242.738	196.91667
2245.309	191.25
2247.879	214.25
2250.448	203.25
2253.014	186.91667
2255.579	183.91667
2258.142	190.25
2260.703	186.91667
2263.262	184.91667
2265.82	176.91667
2268.376	193.91667
2270.93	192.58333
2273.483	177.58333
2276.033	196.25
2278.583	188.91667
2281.13	179.91667
2283.675	176.91667
2286.219	186.91667
2288.761	189.25
2291.302	183.25
2293.841	193.58333
2296.377	168.25
2298.913	185.91667
2301.446	198.25
2303.978	182.25
2306.508	177.91667
2309.037	179.25
2311.563	178.58333
2314.088	184.58333
2316.612	162.91667
2319.133	181.58333
2321.653	180.91667
2324.171	170.91667
2326.688	184.58333
2329.202	175.25
2331.715	172.25
2334.227	178.25
2336.736	173.91667
2339.244	170.58333
2341.751	157.91667
2344.255	171.91667
2346.758	169.25
2349.259	159.58333
2351.759	173.58333
2354.257	162.25
2356.753	163.25
2359.247	161.25
2361.74	165.91667
2364.231	159.25
2366.721	169.25
2369.209	157.25
2371.695	156.58333
2374.179	158.91667
2376.662	144.25
2379.143	173.91667
2381.622	159.25
2384.1	171.25
2386.576	157.91667
2389.051	170.91667
2391.524	174.25
2393.995	175.25
2396.464	157.25
2398.932	149.25
2401.398	159.58333
2403.863	151.91667
2406.325	149.91667
2408.787	159.58333
2411.246	154.58333
2413.704	154.58333
2416.16	153.91667
2418.615	155.91667
2421.068	156.91667
2423.519	148.91667
2425.969	149.58333
2428.417	165.91667
2430.863	179.91667
2433.308	158.91667
2435.751	154.91667
2438.193	156.58333
2440.633	153.58333
2443.071	159.58333
2445.508	145.58333
2447.943	149.25
2450.376	148.25
2452.808	152.25
2455.238	139.91667
2457.667	173.91667
2460.093	145.25
2462.519	134.91667
2464.942	135.91667
2467.365	147.58333
2469.785	150.91667
2472.204	147.25
2474.621	139.25
2477.037	157.91667
2479.451	135.25
2481.863	133.25
2484.274	138.91667
2486.683	145.58333
2489.091	152.25
2491.497	145.91667
2493.901	146.58333
2496.304	140.91667
2498.705	153.25
2501.105	144.58333
2503.503	157.25
2505.899	132.58333
2508.294	154.25
2510.687	135.91667
2513.079	134.25
2515.469	132.91667
2517.858	134.91667
2520.245	154.25
2522.63	139.25
2525.014	136.91667
2527.396	134.58333
2529.776	132.91667
2532.156	139.58333
2534.533	129.58333
2536.909	126.91667
2539.283	113.91667
2541.656	131.58333
2544.027	147.25
2546.397	140.25
2548.765	130.58333
2551.131	134.58333
2553.496	140.25
2555.86	137.58333
2558.221	140.91667
2560.582	125.25
2562.94	120.25
2565.298	135.91667
2567.653	139.58333
2570.007	119.25
2572.36	140.58333
2574.711	125.25
2577.06	142.25
2579.408	136.58333
2581.754	126.91667
2584.099	134.25
2586.442	128.91667
2588.784	129.91667
2591.124	128.58333
2593.463	125.58333
2595.8	129.58333
2598.135	121.91667
2600.469	119.91667
2602.802	137.58333
2605.133	134.91667
2607.462	123.91667
2609.79	117.91667
2612.116	135.91667
2614.441	126.91667
2616.764	127.25
2619.086	126.91667
2621.406	122.25
2623.725	140.58333
2626.042	122.91667
2628.358	123.58333
2630.672	125.25
2632.985	133.58333
2635.296	125.91667
2637.606	128.58333
2639.914	115.58333
2642.22	119.25
2644.525	122.91667
2646.829	123.58333
2649.131	135.25
2651.432	130.91667
2653.731	122.91667
2656.028	134.58333
2658.324	127.58333
2660.619	109.91667
2662.912	134.58333
2665.204	112.25
2667.494	131.58333
2669.782	116.58333
2672.07	131.91667
2674.355	133.25
2676.639	131.25
2678.922	120.25
2681.203	130.58333
2683.483	118.58333
2685.761	113.25
2688.038	136.91667
2690.313	138.91667
2692.587	127.25
2694.859	120.91667
2697.13	121.25
2699.399	129.58333
2701.667	131.25
2703.933	126.25
2706.198	141.91667
2708.461	133.58333
2710.723	133.58333
2712.984	131.58333
2715.243	133.58333
2717.5	127.58333
2719.757	135.58333
2722.011	124.25
2724.264	137.25
2726.516	146.91667
2728.766	121.91667
2731.015	130.58333
2733.262	127.91667
2735.508	126.91667
2737.753	132.25
2739.996	117.25
2742.237	125.25
2744.477	134.91667
2746.716	139.91667
2748.953	137.91667
2751.189	136.25
2753.423	132.58333
2755.656	124.91667
2757.887	117.91667
2760.117	122.91667
2762.346	118.25
2764.573	108.58333
2766.798	114.91667
2769.022	117.58333
2771.245	114.25
2773.467	125.58333
2775.686	120.25
2777.905	126.91667
2780.122	122.25
2782.337	130.25
2784.552	116.91667
2786.764	123.25
2788.976	118.25
2791.186	124.91667
2793.394	121.91667
2795.601	131.91667
2797.807	132.58333
2800.011	125.58333
2802.214	130.91667
2804.415	126.25
2806.615	128.25
2808.814	132.91667
2811.011	139.25
2813.206	138.58333
2815.401	144.25
2817.594	142.58333
2819.785	144.25
2821.975	134.91667
2824.164	136.91667
2826.351	132.91667
2828.537	148.91667
2830.722	154.58333
2832.905	150.25
2835.086	153.91667
2837.267	170.58333
2839.445	169.58333
2841.623	168.25
2843.799	170.25
2845.974	178.91667
2848.147	183.25
2850.319	193.25
2852.489	199.25
2854.659	200.91667
2856.826	195.25
2858.993	216.91667
2861.158	191.91667
2863.321	204.58333
2865.483	217.58333
2867.644	214.25
2869.804	217.58333
2871.962	205.25
2874.118	214.25
2876.274	210.58333
2878.428	207.58333
2880.58	213.58333
2882.731	197.58333
2884.881	202.91667
2887.03	215.91667
2889.177	213.25
2891.322	218.91667
2893.467	200.25
2895.61	201.25
2897.751	215.91667
2899.892	200.91667
2902.03	216.91667
2904.168	209.58333
2906.304	215.91667
2908.439	234.91667
2910.572	212.25
2912.704	213.58333
2914.835	225.91667
2916.965	220.25
2919.093	233.58333
2921.219	204.25
2923.345	235.25
2925.469	215.58333
2927.591	211.58333
2929.712	202.58333
2931.832	213.25
2933.951	202.58333
2936.068	194.58333
2938.184	196.91667
2940.299	184.91667
2942.412	186.25
2944.524	170.25
2946.634	179.25
2948.744	149.58333
2950.851	190.25
2952.958	155.25
2955.063	164.25
2957.167	152.58333
2959.269	144.58333
2961.371	170.58333
2963.471	147.25
2965.569	159.58333
2967.666	134.58333
2969.762	134.58333
2971.857	129.58333
2973.95	123.25
2976.042	137.25
2978.133	124.25
2980.222	127.91667
2982.31	113.25
2984.396	100.91667
2986.482	106.25
2988.566	109.91667
2990.648	113.91667
2992.73	109.91667
2994.81	94.25
2996.889	111.25
2998.966	104.58333
3001.042	121.58333
3003.117	100.58333
3005.191	108.25
3007.263	111.58333
3009.334	105.58333
3011.403	104.91667
3013.472	100.91667
3015.539	115.25
3017.604	124.58333
3019.669	95.25
3021.732	91.25
3023.794	98.91667
3025.854	87.25
3027.914	91.25
3029.971	91.25
3032.028	88.25
3034.083	99.91667
3036.137	99.25
3038.19	86.58333
3040.242	76.58333
3042.292	82.25
3044.341	89.58333
3046.388	104.25
3048.435	82.58333
3050.48	99.58333
3052.524	85.91667
3054.566	69.91667
3056.607	81.25
3058.647	82.91667
3060.686	68.58333
3062.723	65.58333
3064.759	66.58333
3066.794	0.91667
3068.828	0.25
3070.86	1.58333
