-0.839	130.95833
3.438	147.95833
7.711	62.29167
11.981	43.29167
16.247	26.29167
20.509	37.29167
24.768	37.625
29.024	45.95833
33.276	32.29167
37.524	41.29167
41.769	31.625
46.01	23.29167
50.247	45.625
54.481	50.29167
58.712	53.95833
62.939	34.29167
67.162	50.29167
71.382	42.95833
75.599	35.29167
79.812	38.625
84.021	62.625
88.227	41.625
92.429	49.95833
96.628	36.29167
100.823	50.95833
105.015	51.29167
109.204	43.625
113.388	56.625
117.57	42.95833
121.748	59.29167
125.922	50.29167
130.093	65.95833
134.261	63.95833
138.425	49.625
142.585	80.95833
146.742	59.95833
150.896	73.29167
155.046	65.625
159.193	97.625
163.336	145.95833
167.476	246.95833
171.613	436.625
175.746	713.29167
179.875	1025.95833
184.002	1340.29167
188.124	1572.29167
192.244	1638.625
196.36	1651.29167
200.472	1630.95833
204.581	1618.29167
208.687	1550.95833
212.79	1548.95833
216.889	1580.95833
220.984	1587.29167
225.077	1586.95833
229.165	1606.625
233.251	1612.29167
237.333	1616.29167
241.412	1595.95833
245.487	1595.625
249.559	1561.625
253.628	1566.95833
257.694	1558.29167
261.756	1566.29167
265.814	1521.95833
269.87	1486.95833
273.922	1434.625
277.97	1418.625
282.016	1429.29167
286.058	1398.29167
290.097	1431.625
294.132	1457.29167
298.164	1456.95833
302.193	1399.29167
306.219	1309.625
310.241	1222.95833
314.26	1138.29167
318.276	1066.95833
322.288	1030.29167
326.297	995.625
330.303	974.29167
334.305	942.95833
338.305	932.95833
342.301	922.95833
346.294	930.625
350.283	916.95833
354.269	900.95833
358.252	897.29167
362.232	887.95833
366.209	914.95833
370.182	881.625
374.152	890.29167
378.119	893.29167
382.083	874.29167
386.043	895.625
390	865.625
393.954	891.95833
397.905	878.95833
401.852	908.29167
405.797	885.625
409.738	876.95833
413.676	903.625
417.61	925.625
421.542	888.29167
425.47	863.95833
429.396	857.95833
433.318	846.625
437.236	837.95833
441.152	873.95833
445.065	845.95833
448.974	846.95833
452.88	839.29167
456.783	828.625
460.683	827.625
464.58	839.95833
468.473	837.95833
472.364	834.29167
476.251	825.95833
480.135	849.625
484.016	854.625
487.894	856.95833
491.769	869.625
495.641	851.95833
499.509	858.625
503.375	863.625
507.237	842.95833
511.096	862.29167
514.952	861.95833
518.805	872.29167
522.655	869.95833
526.502	851.625
530.346	857.95833
534.187	857.625
538.024	859.95833
541.859	844.95833
545.69	868.29167
549.519	856.95833
553.344	855.29167
557.166	842.625
560.985	825.625
564.802	837.625
568.615	812.95833
572.425	790.95833
576.232	805.29167
580.036	796.29167
583.836	813.95833
587.634	821.95833
591.429	808.29167
595.221	835.95833
599.01	826.95833
602.796	822.95833
606.578	831.95833
610.358	842.95833
614.135	826.29167
617.909	831.625
621.679	809.29167
625.447	816.625
629.212	798.29167
632.973	810.625
636.732	825.95833
640.488	825.95833
644.241	799.29167
647.991	809.625
651.737	826.95833
655.481	798.625
659.222	809.625
662.96	804.29167
666.695	808.95833
670.427	820.95833
674.156	819.625
677.882	821.29167
681.605	815.29167
685.325	794.29167
689.043	815.95833
692.757	796.625
696.468	799.625
700.177	801.29167
703.882	798.625
707.585	771.29167
711.284	792.95833
714.981	784.625
718.675	784.625
722.366	814.95833
726.054	777.625
729.739	795.29167
733.421	789.29167
737.1	779.625
740.777	797.625
744.45	790.29167
748.121	793.29167
751.789	837.625
755.453	799.95833
759.115	808.95833
762.774	804.625
766.431	820.95833
770.084	821.95833
773.734	820.29167
777.382	847.625
781.027	852.95833
784.669	853.95833
788.308	827.625
791.944	847.95833
795.577	858.625
799.208	846.29167
802.835	870.95833
806.46	855.29167
810.082	862.95833
813.701	860.29167
817.317	863.95833
820.931	879.625
824.542	869.95833
828.149	865.95833
831.754	846.625
835.357	847.29167
838.956	855.625
842.553	847.625
846.146	840.95833
849.737	818.625
853.326	845.29167
856.911	819.29167
860.493	855.95833
864.073	847.29167
867.65	875.29167
871.225	879.29167
874.796	851.625
878.365	858.95833
881.931	877.95833
885.494	885.95833
889.054	873.625
892.612	887.625
896.166	872.625
899.719	862.95833
903.268	841.29167
906.814	843.95833
910.358	830.95833
913.899	828.95833
917.438	829.625
920.973	798.625
924.506	823.29167
928.036	836.625
931.564	849.625
935.088	858.29167
938.61	839.95833
942.129	838.625
945.646	860.625
949.16	870.625
952.671	883.95833
956.179	893.29167
959.685	888.625
963.188	891.29167
966.688	877.95833
970.185	846.29167
973.68	833.625
977.173	822.29167
980.662	809.29167
984.149	822.95833
987.633	798.29167
991.114	818.29167
994.593	831.29167
998.069	821.29167
1001.542	860.625
1005.013	855.625
1008.481	805.625
1011.947	793.95833
1015.409	775.625
1018.869	792.29167
1022.327	806.625
1025.782	790.29167
1029.234	770.625
1032.683	766.95833
1036.13	752.95833
1039.574	731.625
1043.016	704.625
1046.455	700.95833
1049.891	695.29167
1053.325	703.95833
1056.756	692.625
1060.184	703.625
1063.61	688.625
1067.033	700.95833
1070.454	698.29167
1073.872	721.95833
1077.287	698.625
1080.7	700.95833
1084.11	690.95833
1087.517	706.29167
1090.922	697.95833
1094.325	679.625
1097.724	673.625
1101.122	672.29167
1104.516	674.625
1107.908	667.625
1111.298	680.95833
1114.684	690.95833
1118.069	679.29167
1121.45	712.29167
1124.83	684.95833
1128.206	703.625
1131.58	711.29167
1134.951	730.95833
1138.32	730.95833
1141.687	787.95833
1145.05	781.29167
1148.412	776.95833
1151.77	785.95833
1155.126	768.625
1158.48	759.625
1161.831	763.29167
1165.18	756.95833
1168.525	789.29167
1171.869	788.29167
1175.21	783.625
1178.548	805.29167
1181.884	800.625
1185.217	807.29167
1188.548	836.625
1191.877	829.29167
1195.202	876.29167
1198.526	897.95833
1201.846	898.95833
1205.165	896.29167
1208.48	877.29167
1211.794	902.29167
1215.104	905.625
1218.413	893.95833
1221.719	890.95833
1225.022	871.95833
1228.323	856.95833
1231.621	859.95833
1234.917	858.625
1238.21	873.625
1241.501	846.95833
1244.79	838.29167
1248.076	834.29167
1251.359	851.625
1254.64	899.29167
1257.919	868.29167
1261.195	878.29167
1264.468	901.625
1267.74	906.29167
1271.008	905.29167
1274.275	906.29167
1277.538	906.625
1280.8	889.95833
1284.059	886.29167
1287.315	901.625
1290.569	891.625
1293.821	914.95833
1297.07	915.95833
1300.317	923.95833
1303.562	928.95833
1306.803	908.625
1310.043	912.29167
1313.28	908.95833
1316.515	902.95833
1319.747	898.29167
1322.977	896.625
1326.204	890.625
1329.429	884.625
1332.652	881.625
1335.872	874.625
1339.09	844.625
1342.306	857.625
1345.519	850.625
1348.729	834.29167
1351.938	833.625
1355.144	824.29167
1358.347	826.625
1361.548	823.95833
1364.747	821.625
1367.944	817.95833
1371.138	803.95833
1374.329	809.29167
1377.518	804.29167
1380.705	821.625
1383.89	818.625
1387.072	790.625
1390.252	777.29167
1393.429	746.29167
1396.605	728.625
1399.777	699.29167
1402.948	705.625
1406.116	686.625
1409.282	698.625
1412.445	702.95833
1415.606	717.625
1418.765	705.29167
1421.921	725.625
1425.075	727.29167
1428.227	737.625
1431.376	780.625
1434.524	797.625
1437.668	817.95833
1440.811	824.625
1443.951	827.625
1447.089	837.95833
1450.224	832.95833
1453.357	819.95833
1456.488	829.625
1459.617	817.95833
1462.743	804.625
1465.867	762.29167
1468.989	778.625
1472.108	764.625
1475.225	750.95833
1478.34	736.95833
1481.453	735.29167
1484.563	732.95833
1487.671	743.625
1490.776	758.625
1493.88	766.625
1496.981	779.625
1500.08	778.95833
1503.176	782.625
1506.271	795.95833
1509.363	806.29167
1512.452	803.625
1515.54	806.95833
1518.625	811.29167
1521.708	850.29167
1524.789	874.29167
1527.867	887.95833
1530.944	929.625
1534.018	942.29167
1537.089	1001.625
1540.159	1004.625
1543.226	1029.625
1546.291	984.95833
1549.354	985.95833
1552.415	964.95833
1555.473	943.95833
1558.529	926.29167
1561.583	929.95833
1564.634	906.625
1567.684	918.29167
1570.731	904.625
1573.776	913.625
1576.819	930.625
1579.859	924.625
1582.898	948.95833
1585.934	949.95833
1588.968	963.95833
1591.999	941.625
1595.029	942.29167
1598.056	958.95833
1601.081	981.95833
1604.104	978.29167
1607.125	948.625
1610.144	921.95833
1613.16	905.29167
1616.174	888.95833
1619.186	876.625
1622.196	850.625
1625.203	831.29167
1628.209	817.29167
1631.212	816.95833
1634.213	823.29167
1637.212	823.29167
1640.209	825.29167
1643.203	783.625
1646.196	767.95833
1649.186	747.95833
1652.174	716.95833
1655.16	696.95833
1658.144	694.625
1661.125	654.29167
1664.105	640.95833
1667.082	615.95833
1670.057	578.95833
1673.03	546.625
1676.001	522.29167
1678.97	486.625
1681.937	466.95833
1684.901	446.625
1687.863	445.29167
1690.824	414.29167
1693.782	413.95833
1696.738	396.29167
1699.692	402.95833
1702.643	381.95833
1705.593	380.625
1708.54	373.625
1711.486	389.29167
1714.429	365.95833
1717.37	366.95833
1720.309	353.95833
1723.246	363.625
1726.181	352.95833
1729.113	345.625
1732.044	354.95833
1734.972	351.95833
1737.899	364.625
1740.823	360.29167
1743.745	377.29167
1746.665	332.625
1749.583	332.95833
1752.499	326.625
1755.413	325.625
1758.325	311.625
1761.235	325.29167
1764.142	310.29167
1767.048	306.95833
1769.951	311.95833
1772.852	311.95833
1775.752	324.625
1778.649	323.95833
1781.544	327.95833
1784.437	299.625
1787.328	309.29167
1790.217	307.29167
1793.104	285.29167
1795.989	295.29167
1798.872	283.95833
1801.753	298.29167
1804.631	293.29167
1807.508	299.625
1810.383	292.625
1813.255	294.95833
1816.126	297.625
1818.994	280.29167
1821.861	280.625
1824.725	294.29167
1827.587	288.95833
1830.448	292.625
1833.306	275.95833
1836.162	297.29167
1839.017	280.95833
1841.869	284.95833
1844.719	276.29167
1847.567	266.625
1850.414	264.29167
1853.258	267.29167
1856.1	280.625
1858.94	285.95833
1861.778	283.625
1864.614	263.95833
1867.448	270.625
1870.28	257.625
1873.111	273.95833
1875.939	278.625
1878.765	282.95833
1881.589	262.625
1884.411	269.95833
1887.231	273.95833
1890.049	270.29167
1892.865	278.625
1895.68	263.29167
1898.492	266.95833
1901.302	267.29167
1904.11	265.95833
1906.916	257.95833
1909.721	261.95833
1912.523	270.29167
1915.323	249.29167
1918.122	253.29167
1920.918	272.95833
1923.712	251.29167
1926.505	262.95833
1929.295	241.29167
1932.084	253.29167
1934.87	262.29167
1937.655	249.625
1940.438	244.95833
1943.218	247.95833
1945.997	254.625
1948.774	257.95833
1951.549	257.625
1954.322	247.29167
1957.093	249.625
1959.862	243.29167
1962.629	245.625
1965.394	243.95833
1968.157	234.625
1970.918	251.625
1973.678	240.95833
1976.435	246.95833
1979.19	236.29167
1981.944	229.95833
1984.696	234.29167
1987.445	228.29167
1990.193	236.29167
1992.939	250.625
1995.683	236.29167
1998.425	220.29167
2001.165	258.625
2003.903	219.625
2006.639	231.29167
2009.374	231.95833
2012.106	240.625
2014.837	218.625
2017.566	242.625
2020.292	227.95833
2023.017	236.29167
2025.74	225.625
2028.461	219.29167
2031.18	225.95833
2033.898	217.29167
2036.613	226.625
2039.327	222.95833
2042.038	214.625
2044.748	222.95833
2047.456	226.625
2050.162	211.29167
2052.866	217.29167
2055.568	231.95833
2058.268	220.95833
2060.967	226.625
2063.663	210.29167
2066.358	218.625
2069.051	209.625
2071.742	216.95833
2074.431	221.95833
2077.118	218.95833
2079.804	203.29167
2082.487	217.95833
2085.169	222.29167
2087.849	239.95833
2090.527	210.95833
2093.203	215.29167
2095.877	212.29167
2098.55	218.29167
2101.22	218.29167
2103.889	225.625
2106.556	207.625
2109.221	232.29167
2111.884	219.95833
2114.546	244.95833
2117.205	235.95833
2119.863	272.95833
2122.519	262.95833
2125.173	281.625
2127.825	303.95833
2130.475	303.95833
2133.124	284.625
2135.771	271.95833
2138.416	277.625
2141.059	262.29167
2143.7	257.95833
2146.339	245.29167
2148.977	217.29167
2151.613	237.625
2154.247	232.29167
2156.879	221.95833
2159.51	212.625
2162.138	207.625
2164.765	208.625
2167.39	199.625
2170.013	223.29167
2172.634	225.625
2175.254	204.625
2177.872	240.95833
2180.488	197.29167
2183.102	202.29167
2185.714	199.95833
2188.325	193.625
2190.934	201.625
2193.541	206.95833
2196.146	198.29167
2198.75	189.95833
2201.351	185.95833
2203.951	173.29167
2206.549	193.95833
2209.146	184.29167
2211.74	179.625
2214.333	192.29167
2216.924	177.29167
2219.514	185.29167
2222.101	179.625
2224.687	197.29167
2227.271	173.29167
2229.853	172.29167
2232.433	169.95833
2235.012	196.625
2237.589	183.95833
2240.164	196.625
2242.738	178.29167
2245.309	167.95833
2247.879	194.625
2250.448	187.29167
2253.014	164.29167
2255.579	164.29167
2258.142	171.625
2260.703	173.625
2263.262	165.95833
2265.82	162.29167
2268.376	175.95833
2270.93	170.29167
2273.483	160.625
2276.033	178.625
2278.583	157.625
2281.13	163.95833
2283.675	155.625
2286.219	163.95833
2288.761	166.29167
2291.302	165.625
2293.841	178.625
2296.377	151.29167
2298.913	167.95833
2301.446	173.625
2303.978	167.95833
2306.508	163.95833
2309.037	163.625
2311.563	154.95833
2314.088	164.29167
2316.612	143.29167
2319.133	163.625
2321.653	169.29167
2324.171	155.29167
2326.688	171.625
2329.202	160.29167
2331.715	158.29167
2334.227	161.625
2336.736	158.625
2339.244	149.95833
2341.751	148.95833
2344.255	162.95833
2346.758	159.95833
2349.259	144.95833
2351.759	158.29167
2354.257	145.29167
2356.753	152.29167
2359.247	153.29167
2361.74	153.95833
2364.231	146.625
2366.721	157.625
2369.209	150.95833
2371.695	151.625
2374.179	143.95833
2376.662	136.625
2379.143	160.29167
2381.622	151.625
2384.1	159.95833
2386.576	143.29167
2389.051	161.95833
2391.524	163.95833
2393.995	152.29167
2396.464	147.29167
2398.932	146.625
2401.398	147.29167
2403.863	136.625
2406.325	136.95833
2408.787	153.625
2411.246	146.29167
2413.704	144.29167
2416.16	135.625
2418.615	139.29167
2421.068	146.29167
2423.519	140.95833
2425.969	139.625
2428.417	152.29167
2430.863	162.29167
2433.308	150.95833
2435.751	149.29167
2438.193	147.29167
2440.633	148.95833
2443.071	150.95833
2445.508	138.95833
2447.943	139.95833
2450.376	132.95833
2452.808	147.95833
2455.238	127.625
2457.667	167.95833
2460.093	135.625
2462.519	132.625
2464.942	133.29167
2467.365	144.95833
2469.785	143.95833
2472.204	133.625
2474.621	140.95833
2477.037	155.95833
2479.451	124.625
2481.863	126.625
2484.274	132.29167
2486.683	135.29167
2489.091	149.29167
2491.497	146.29167
2493.901	141.29167
2496.304	140.29167
2498.705	141.625
2501.105	137.625
2503.503	152.29167
2505.899	124.625
2508.294	149.95833
2510.687	133.95833
2513.079	128.29167
2515.469	128.95833
2517.858	125.625
2520.245	142.95833
2522.63	133.625
2525.014	131.95833
2527.396	129.625
2529.776	133.625
2532.156	129.95833
2534.533	122.29167
2536.909	123.29167
2539.283	109.95833
2541.656	123.95833
2544.027	143.625
2546.397	133.29167
2548.765	121.95833
2551.131	136.95833
2553.496	138.95833
2555.86	137.95833
2558.221	129.29167
2560.582	123.625
2562.94	114.625
2565.298	128.29167
2567.653	141.625
2570.007	117.95833
2572.36	135.95833
2574.711	124.29167
2577.06	142.29167
2579.408	125.95833
2581.754	131.625
2584.099	124.625
2586.442	123.95833
2588.784	134.625
2591.124	125.625
2593.463	124.95833
2595.8	127.95833
2598.135	119.29167
2600.469	118.95833
2602.802	136.625
2605.133	139.95833
2607.462	120.625
2609.79	114.625
2612.116	135.95833
2614.441	125.29167
2616.764	127.95833
2619.086	123.29167
2621.406	123.625
2623.725	137.29167
2626.042	123.29167
2628.358	118.95833
2630.672	131.625
2632.985	135.29167
2635.296	124.95833
2637.606	125.95833
2639.914	120.95833
2642.22	122.95833
2644.525	122.95833
2646.829	125.29167
2649.131	134.29167
2651.432	130.95833
2653.731	119.95833
2656.028	140.625
2658.324	132.625
2660.619	112.29167
2662.912	136.625
2665.204	113.95833
2667.494	128.29167
2669.782	119.625
2672.07	136.29167
2674.355	138.95833
2676.639	129.625
2678.922	125.625
2681.203	131.29167
2683.483	119.625
2685.761	116.625
2688.038	133.29167
2690.313	139.29167
2692.587	123.625
2694.859	122.625
2697.13	125.29167
2699.399	131.95833
2701.667	132.95833
2703.933	131.625
2706.198	131.625
2708.461	137.95833
2710.723	132.625
2712.984	132.95833
2715.243	140.95833
2717.5	130.95833
2719.757	138.29167
2722.011	128.95833
2724.264	135.29167
2726.516	142.95833
2728.766	125.95833
2731.015	131.95833
2733.262	128.625
2735.508	127.95833
2737.753	135.29167
2739.996	118.95833
2742.237	124.29167
2744.477	138.95833
2746.716	143.95833
2748.953	137.95833
2751.189	136.29167
2753.423	134.625
2755.656	124.95833
2757.887	121.625
2760.117	128.625
2762.346	121.95833
2764.573	114.625
2766.798	123.625
2769.022	127.29167
2771.245	116.95833
2773.467	123.625
2775.686	120.625
2777.905	131.95833
2780.122	127.625
2782.337	131.29167
2784.552	121.95833
2786.764	125.29167
2788.976	120.625
2791.186	125.625
2793.394	120.625
2795.601	135.95833
2797.807	136.95833
2800.011	127.29167
2802.214	138.29167
2804.415	135.29167
2806.615	128.625
2808.814	138.95833
2811.011	138.625
2813.206	134.625
2815.401	149.29167
2817.594	144.95833
2819.785	150.625
2821.975	137.29167
2824.164	137.95833
2826.351	145.29167
2828.537	155.29167
2830.722	152.95833
2832.905	149.29167
2835.086	154.95833
2837.267	171.95833
2839.445	164.625
2841.623	168.29167
2843.799	170.625
2845.974	174.625
2848.147	180.29167
2850.319	185.625
2852.489	196.625
2854.659	199.95833
2856.826	200.625
2858.993	222.95833
2861.158	197.625
2863.321	206.95833
2865.483	215.95833
2867.644	210.625
2869.804	213.625
2871.962	207.625
2874.118	216.29167
2876.274	229.29167
2878.428	221.625
2880.58	225.625
2882.731	198.95833
2884.881	207.625
2887.03	213.29167
2889.177	210.95833
2891.322	222.29167
2893.467	209.95833
2895.61	209.625
2897.751	220.29167
2899.892	211.625
2902.03	213.29167
2904.168	211.29167
2906.304	212.625
2908.439	234.29167
2910.572	211.29167
2912.704	215.29167
2914.835	228.95833
2916.965	217.625
2919.093	231.95833
2921.219	206.625
2923.345	231.625
2925.469	212.95833
2927.591	209.29167
2929.712	205.29167
2931.832	209.625
2933.951	210.625
2936.068	204.625
2938.184	201.29167
2940.299	193.29167
2942.412	189.625
2944.524	172.625
2946.634	191.29167
2948.744	161.95833
2950.851	202.625
2952.958	171.625
2955.063	171.95833
2957.167	166.95833
2959.269	152.95833
2961.371	180.95833
2963.471	152.625
2965.569	171.95833
2967.666	146.29167
2969.762	148.29167
2971.857	142.29167
2973.95	132.29167
2976.042	148.625
2978.133	135.95833
2980.222	136.95833
2982.31	127.29167
2984.396	117.625
2986.482	123.625
2988.566	127.95833
2990.648	127.95833
2992.73	123.95833
2994.81	106.625
2996.889	122.95833
2998.966	122.95833
3001.042	135.29167
3003.117	114.29167
3005.191	126.29167
3007.263	128.29167
3009.334	121.29167
3011.403	125.29167
3013.472	118.95833
3015.539	134.29167
3017.604	135.29167
3019.669	108.29167
3021.732	108.625
3023.794	114.95833
3025.854	104.625
3027.914	101.95833
3029.971	106.625
3032.028	108.625
3034.083	118.29167
3036.137	109.29167
3038.19	107.29167
3040.242	93.95833
3042.292	93.625
3044.341	98.29167
3046.388	117.625
3048.435	92.95833
3050.48	114.95833
3052.524	101.625
3054.566	93.625
3056.607	101.625
3058.647	95.29167
3060.686	86.625
3062.723	82.29167
3064.759	79.95833
3066.794	-0.04167
3068.828	2.29167
3070.86	2.625
