-0.839	508.875
3.438	587.875
7.711	176.875
11.981	56.54167
16.247	45.54167
20.509	50.54167
24.768	43.54167
29.024	46.875
33.276	44.875
37.524	51.20833
41.769	44.54167
46.01	33.54167
50.247	45.20833
54.481	60.20833
58.712	59.20833
62.939	43.875
67.162	67.875
71.382	54.875
75.599	45.20833
79.812	61.875
84.021	79.54167
88.227	54.54167
92.429	59.875
96.628	50.875
100.823	71.54167
105.015	71.54167
109.204	62.20833
113.388	71.875
117.57	70.54167
121.748	81.20833
125.922	71.875
130.093	92.20833
134.261	88.54167
138.425	84.54167
142.585	128.54167
146.742	111.875
150.896	137.54167
155.046	169.875
159.193	264.54167
163.336	448.20833
167.476	795.20833
171.613	1462.875
175.746	2444.20833
179.875	3591.875
184.002	4704.54167
188.124	5483.875
192.244	5778.54167
196.36	5723.875
200.472	5578.54167
204.581	5442.875
208.687	5312.875
212.79	5233.875
216.889	5274.875
220.984	5247.20833
225.077	5293.20833
229.165	5319.20833
233.251	5309.20833
237.333	5290.54167
241.412	5246.20833
245.487	5194.54167
249.559	5136.875
253.628	5100.875
257.694	5019.875
261.756	4962.54167
265.814	4805.875
269.87	4684.20833
273.922	4515.54167
277.97	4408.875
282.016	4262.54167
286.058	4265.875
290.097	4334.20833
294.132	4319.875
298.164	4272.54167
302.193	4076.875
306.219	3785.54167
310.241	3469.20833
314.26	3197.875
318.276	3037.20833
322.288	2871.54167
326.297	2755.20833
330.303	2663.54167
334.305	2615.875
338.305	2562.20833
342.301	2495.54167
346.294	2509.20833
350.283	2496.54167
354.269	2459.54167
358.252	2438.54167
362.232	2432.875
366.209	2422.20833
370.182	2363.20833
374.152	2356.875
378.119	2379.20833
382.083	2378.20833
386.043	2369.875
390	2343.875
393.954	2361.875
397.905	2336.20833
401.852	2336.54167
405.797	2318.20833
409.738	2308.875
413.676	2293.20833
417.61	2296.20833
421.542	2295.54167
425.47	2268.875
429.396	2244.20833
433.318	2239.20833
437.236	2224.54167
441.152	2259.54167
445.065	2201.20833
448.974	2202.54167
452.88	2165.875
456.783	2161.875
460.683	2136.20833
464.58	2156.54167
468.473	2143.54167
472.364	2166.20833
476.251	2170.875
480.135	2174.54167
484.016	2208.875
487.894	2234.54167
491.769	2231.54167
495.641	2203.54167
499.509	2210.875
503.375	2213.20833
507.237	2232.20833
511.096	2303.875
514.952	2515.54167
518.805	2747.875
522.655	2832.20833
526.502	2537.54167
530.346	2293.20833
534.187	2255.875
538.024	2240.54167
541.859	2265.54167
545.69	2280.20833
549.519	2249.875
553.344	2235.875
557.166	2184.54167
560.985	2163.20833
564.802	2126.20833
568.615	2105.875
572.425	2044.875
576.232	2035.875
580.036	2030.875
583.836	2042.54167
587.634	2063.20833
591.429	2082.20833
595.221	2115.875
599.01	2137.875
602.796	2125.875
606.578	2167.54167
610.358	2163.20833
614.135	2131.875
617.909	2134.20833
621.679	2105.875
625.447	2094.20833
629.212	2110.875
632.973	2100.54167
636.732	2100.54167
640.488	2097.20833
644.241	2080.875
647.991	2046.20833
651.737	2092.20833
655.481	2044.875
659.222	2080.875
662.96	2068.875
666.695	2064.875
670.427	2085.20833
674.156	2089.54167
677.882	2089.875
681.605	2068.54167
685.325	2041.875
689.043	2050.20833
692.757	2029.20833
696.468	2047.875
700.177	2035.20833
703.882	2016.875
707.585	2000.875
711.284	1990.875
714.981	1999.54167
718.675	2013.875
722.366	2049.20833
726.054	1994.54167
729.739	2024.875
733.421	2018.20833
737.1	2005.875
740.777	2043.875
744.45	2032.20833
748.121	2052.20833
751.789	2080.20833
755.453	2061.20833
759.115	2111.875
762.774	2112.20833
766.431	2119.54167
770.084	2144.54167
773.734	2165.54167
777.382	2204.54167
781.027	2221.20833
784.669	2238.875
788.308	2230.875
791.944	2275.875
795.577	2267.54167
799.208	2283.20833
802.835	2304.54167
806.46	2320.54167
810.082	2315.875
813.701	2328.54167
817.317	2344.54167
820.931	2351.54167
824.542	2330.20833
828.149	2326.20833
831.754	2306.54167
835.357	2282.875
838.956	2304.875
842.553	2295.20833
846.146	2252.20833
849.737	2277.54167
853.326	2272.875
856.911	2280.875
860.493	2279.20833
864.073	2303.875
867.65	2336.54167
871.225	2341.54167
874.796	2363.20833
878.365	2362.20833
881.931	2373.20833
885.494	2391.875
889.054	2376.20833
892.612	2406.875
896.166	2363.875
899.719	2355.875
903.268	2323.54167
906.814	2280.54167
910.358	2261.20833
913.899	2264.54167
917.438	2258.875
920.973	2254.54167
924.506	2287.875
928.036	2343.54167
931.564	2384.875
935.088	2428.20833
938.61	2415.875
942.129	2453.54167
945.646	2504.875
949.16	2547.54167
952.671	2580.54167
956.179	2576.20833
959.685	2564.875
963.188	2557.54167
966.688	2534.20833
970.185	2473.875
973.68	2413.20833
977.173	2351.20833
980.662	2331.20833
984.149	2331.20833
987.633	2301.54167
991.114	2341.54167
994.593	2386.875
998.069	2463.875
1001.542	2522.875
1005.013	2466.54167
1008.481	2338.54167
1011.947	2320.20833
1015.409	2282.875
1018.869	2275.875
1022.327	2285.54167
1025.782	2261.20833
1029.234	2255.54167
1032.683	2238.20833
1036.13	2163.54167
1039.574	2060.875
1043.016	2033.54167
1046.455	2005.20833
1049.891	1945.54167
1053.325	1988.54167
1056.756	1970.20833
1060.184	2015.54167
1063.61	2018.54167
1067.033	2020.875
1070.454	2028.875
1073.872	2042.54167
1077.287	2046.875
1080.7	2051.20833
1084.11	2037.54167
1087.517	2009.875
1090.922	1980.54167
1094.325	1974.20833
1097.724	1969.875
1101.122	1950.20833
1104.516	1975.875
1107.908	1956.54167
1111.298	2011.54167
1114.684	2005.875
1118.069	2036.20833
1121.45	2077.54167
1124.83	2038.20833
1128.206	2062.20833
1131.58	2108.875
1134.951	2149.875
1138.32	2229.20833
1141.687	2304.54167
1145.05	2357.875
1148.412	2356.54167
1151.77	2370.875
1155.126	2351.875
1158.48	2340.875
1161.831	2345.875
1165.18	2357.875
1168.525	2401.54167
1171.869	2435.875
1175.21	2446.20833
1178.548	2449.875
1181.884	2490.54167
1185.217	2487.20833
1188.548	2547.875
1191.877	2609.20833
1195.202	2679.875
1198.526	2722.875
1201.846	2774.54167
1205.165	2735.20833
1208.48	2735.875
1211.794	2694.20833
1215.104	2693.20833
1218.413	2704.875
1221.719	2695.875
1225.022	2662.54167
1228.323	2608.20833
1231.621	2599.54167
1234.917	2561.20833
1238.21	2593.54167
1241.501	2575.875
1244.79	2558.875
1248.076	2549.54167
1251.359	2597.875
1254.64	2659.54167
1257.919	2658.54167
1261.195	2706.875
1264.468	2779.20833
1267.74	2796.54167
1271.008	2787.875
1274.275	2787.54167
1277.538	2755.20833
1280.8	2772.20833
1284.059	2742.54167
1287.315	2787.20833
1290.569	2788.54167
1293.821	2814.875
1297.07	2852.20833
1300.317	2835.20833
1303.562	2823.875
1306.803	2790.54167
1310.043	2811.20833
1313.28	2777.20833
1316.515	2746.54167
1319.747	2746.20833
1322.977	2717.20833
1326.204	2680.20833
1329.429	2623.875
1332.652	2625.54167
1335.872	2617.875
1339.09	2568.875
1342.306	2549.20833
1345.519	2503.54167
1348.729	2528.20833
1351.938	2525.875
1355.144	2474.54167
1358.347	2453.20833
1361.548	2442.875
1364.747	2419.875
1367.944	2380.20833
1371.138	2423.20833
1374.329	2398.875
1377.518	2451.20833
1380.705	2479.875
1383.89	2468.20833
1387.072	2383.20833
1390.252	2274.20833
1393.429	2201.20833
1396.605	2130.54167
1399.777	2073.20833
1402.948	2050.875
1406.116	2028.875
1409.282	2004.54167
1412.445	2019.54167
1415.606	2041.54167
1418.765	2043.875
1421.921	2104.875
1425.075	2138.875
1428.227	2235.54167
1431.376	2316.54167
1434.524	2418.875
1437.668	2480.54167
1440.811	2529.54167
1443.951	2555.875
1447.089	2534.20833
1450.224	2533.875
1453.357	2510.875
1456.488	2501.20833
1459.617	2469.875
1462.743	2413.54167
1465.867	2340.20833
1468.989	2318.875
1472.108	2287.875
1475.225	2238.875
1478.34	2231.54167
1481.453	2206.20833
1484.563	2221.20833
1487.671	2263.20833
1490.776	2297.875
1493.88	2339.54167
1496.981	2353.875
1500.08	2401.875
1503.176	2421.875
1506.271	2451.54167
1509.363	2488.875
1512.452	2509.20833
1515.54	2539.20833
1518.625	2591.20833
1521.708	2641.54167
1524.789	2731.54167
1527.867	2811.54167
1530.944	2976.20833
1534.018	3082.20833
1537.089	3203.54167
1540.159	3221.875
1543.226	3230.20833
1546.291	3165.875
1549.354	3075.54167
1552.415	2988.54167
1555.473	2944.54167
1558.529	2895.875
1561.583	2894.20833
1564.634	2876.20833
1567.684	2888.875
1570.731	2893.20833
1573.776	2936.54167
1576.819	2975.20833
1579.859	3009.20833
1582.898	3044.20833
1585.934	3094.20833
1588.968	3072.54167
1591.999	3066.20833
1595.029	3063.54167
1598.056	3084.54167
1601.081	3121.875
1604.104	3099.20833
1607.125	3104.54167
1610.144	3030.20833
1613.16	2952.20833
1616.174	2868.54167
1619.186	2840.54167
1622.196	2756.20833
1625.203	2682.875
1628.209	2645.875
1631.212	2603.54167
1634.213	2594.20833
1637.212	2569.54167
1640.209	2543.875
1643.203	2491.20833
1646.196	2404.54167
1649.186	2322.54167
1652.174	2224.20833
1655.16	2167.54167
1658.144	2096.875
1661.125	2011.875
1664.105	1913.54167
1667.082	1817.20833
1670.057	1726.875
1673.03	1636.20833
1676.001	1530.875
1678.97	1432.20833
1681.937	1344.54167
1684.901	1278.875
1687.863	1238.875
1690.824	1186.875
1693.782	1155.20833
1696.738	1103.875
1699.692	1078.875
1702.643	1041.20833
1705.593	1034.875
1708.54	1026.20833
1711.486	1036.54167
1714.429	994.875
1717.37	1000.20833
1720.309	975.54167
1723.246	989.54167
1726.181	963.20833
1729.113	970.54167
1732.044	959.20833
1734.972	942.54167
1737.899	955.54167
1740.823	954.20833
1743.745	946.54167
1746.665	903.20833
1749.583	884.54167
1752.499	883.875
1755.413	872.875
1758.325	861.875
1761.235	840.20833
1764.142	832.54167
1767.048	814.54167
1769.951	824.875
1772.852	820.875
1775.752	823.20833
1778.649	822.54167
1781.544	819.20833
1784.437	790.20833
1787.328	808.54167
1790.217	794.875
1793.104	777.54167
1795.989	783.54167
1798.872	778.20833
1801.753	784.875
1804.631	783.54167
1807.508	782.875
1810.383	776.20833
1813.255	784.54167
1816.126	769.875
1818.994	773.875
1821.861	764.20833
1824.725	767.875
1827.587	765.875
1830.448	753.20833
1833.306	735.20833
1836.162	754.875
1839.017	738.54167
1841.869	734.875
1844.719	736.54167
1847.567	725.20833
1850.414	708.54167
1853.258	726.875
1856.1	736.54167
1858.94	735.20833
1861.778	724.54167
1864.614	722.20833
1867.448	728.875
1870.28	705.875
1873.111	742.54167
1875.939	729.875
1878.765	735.875
1881.589	720.20833
1884.411	716.875
1887.231	727.54167
1890.049	724.20833
1892.865	711.875
1895.68	713.54167
1898.492	720.875
1901.302	708.20833
1904.11	718.54167
1906.916	707.20833
1909.721	703.54167
1912.523	715.875
1915.323	695.54167
1918.122	692.54167
1920.918	706.20833
1923.712	690.54167
1926.505	693.20833
1929.295	683.875
1932.084	720.54167
1934.87	698.875
1937.655	701.54167
1940.438	682.20833
1943.218	702.20833
1945.997	699.875
1948.774	713.875
1951.549	702.20833
1954.322	694.20833
1957.093	686.54167
1959.862	686.54167
1962.629	683.54167
1965.394	678.54167
1968.157	664.20833
1970.918	684.54167
1973.678	673.875
1976.435	690.54167
1979.19	671.875
1981.944	656.20833
1984.696	669.54167
1987.445	653.875
1990.193	666.875
1992.939	691.54167
1995.683	675.20833
1998.425	652.54167
2001.165	685.20833
2003.903	662.54167
2006.639	663.875
2009.374	682.54167
2012.106	673.20833
2014.837	644.875
2017.566	674.875
2020.292	671.875
2023.017	684.875
2025.74	662.875
2028.461	661.54167
2031.18	659.20833
2033.898	664.54167
2036.613	658.20833
2039.327	664.54167
2042.038	657.54167
2044.748	662.54167
2047.456	665.20833
2050.162	647.875
2052.866	654.875
2055.568	661.20833
2058.268	655.54167
2060.967	666.875
2063.663	639.54167
2066.358	663.54167
2069.051	656.20833
2071.742	660.54167
2074.431	653.875
2077.118	654.20833
2079.804	647.54167
2082.487	652.54167
2085.169	668.54167
2087.849	674.20833
2090.527	651.875
2093.203	656.20833
2095.877	671.20833
2098.55	668.20833
2101.22	675.875
2103.889	680.875
2106.556	681.54167
2109.221	694.875
2111.884	692.20833
2114.546	723.54167
2117.205	747.20833
2119.863	785.875
2122.519	807.20833
2125.173	850.875
2127.825	891.875
2130.475	887.875
2133.124	878.20833
2135.771	862.54167
2138.416	833.20833
2141.059	800.20833
2143.7	788.875
2146.339	745.875
2148.977	722.20833
2151.613	727.20833
2154.247	717.20833
2156.879	703.54167
2159.51	687.875
2162.138	679.54167
2164.765	685.875
2167.39	664.20833
2170.013	695.875
2172.634	677.875
2175.254	675.20833
2177.872	712.20833
2180.488	667.20833
2183.102	671.54167
2185.714	669.875
2188.325	655.54167
2190.934	656.54167
2193.541	659.54167
2196.146	654.875
2198.75	640.875
2201.351	639.54167
2203.951	632.54167
2206.549	652.875
2209.146	659.20833
2211.74	651.875
2214.333	643.54167
2216.924	634.875
2219.514	648.875
2222.101	630.875
2224.687	657.20833
2227.271	642.20833
2229.853	636.20833
2232.433	637.20833
2235.012	652.54167
2237.589	646.54167
2240.164	655.20833
2242.738	639.54167
2245.309	634.54167
2247.879	656.20833
2250.448	656.875
2253.014	640.875
2255.579	610.54167
2258.142	637.20833
2260.703	625.20833
2263.262	632.20833
2265.82	630.20833
2268.376	634.875
2270.93	620.20833
2273.483	632.875
2276.033	637.20833
2278.583	626.20833
2281.13	626.875
2283.675	615.54167
2286.219	625.54167
2288.761	625.20833
2291.302	639.20833
2293.841	635.20833
2296.377	622.20833
2298.913	632.20833
2301.446	652.54167
2303.978	638.20833
2306.508	625.20833
2309.037	629.875
2311.563	640.20833
2314.088	641.20833
2316.612	625.20833
2319.133	630.875
2321.653	642.20833
2324.171	634.20833
2326.688	647.875
2329.202	638.54167
2331.715	635.875
2334.227	632.54167
2336.736	641.54167
2339.244	634.54167
2341.751	626.20833
2344.255	648.20833
2346.758	639.875
2349.259	626.20833
2351.759	640.54167
2354.257	644.875
2356.753	632.875
2359.247	650.875
2361.74	661.20833
2364.231	650.875
2366.721	658.54167
2369.209	640.54167
2371.695	652.875
2374.179	644.20833
2376.662	643.54167
2379.143	661.54167
2381.622	655.54167
2384.1	657.20833
2386.576	661.875
2389.051	672.20833
2391.524	674.54167
2393.995	675.875
2396.464	672.875
2398.932	673.54167
2401.398	662.875
2403.863	671.54167
2406.325	660.54167
2408.787	678.54167
2411.246	669.54167
2413.704	666.54167
2416.16	661.20833
2418.615	674.20833
2421.068	681.875
2423.519	689.20833
2425.969	675.20833
2428.417	681.54167
2430.863	712.54167
2433.308	691.20833
2435.751	688.875
2438.193	694.20833
2440.633	691.875
2443.071	682.875
2445.508	694.20833
2447.943	686.54167
2450.376	690.875
2452.808	699.54167
2455.238	700.54167
2457.667	736.54167
2460.093	712.20833
2462.519	704.20833
2464.942	708.54167
2467.365	716.54167
2469.785	709.875
2472.204	718.54167
2474.621	709.20833
2477.037	731.54167
2479.451	694.20833
2481.863	702.875
2484.274	708.20833
2486.683	721.20833
2489.091	714.20833
2491.497	716.875
2493.901	736.54167
2496.304	726.20833
2498.705	739.875
2501.105	722.54167
2503.503	761.875
2505.899	724.875
2508.294	755.20833
2510.687	736.20833
2513.079	738.875
2515.469	736.20833
2517.858	741.54167
2520.245	745.54167
2522.63	737.54167
2525.014	738.20833
2527.396	736.54167
2529.776	748.54167
2532.156	760.875
2534.533	737.54167
2536.909	742.54167
2539.283	742.875
2541.656	756.54167
2544.027	768.20833
2546.397	764.54167
2548.765	750.20833
2551.131	757.875
2553.496	767.20833
2555.86	769.20833
2558.221	770.54167
2560.582	755.54167
2562.94	754.54167
2565.298	772.54167
2567.653	789.875
2570.007	767.20833
2572.36	792.875
2574.711	774.20833
2577.06	804.54167
2579.408	798.54167
2581.754	781.54167
2584.099	787.875
2586.442	791.54167
2588.784	806.20833
2591.124	811.54167
2593.463	812.875
2595.8	805.54167
2598.135	792.875
2600.469	799.20833
2602.802	828.875
2605.133	819.54167
2607.462	798.54167
2609.79	798.54167
2612.116	825.875
2614.441	822.20833
2616.764	829.20833
2619.086	826.875
2621.406	807.54167
2623.725	847.54167
2626.042	837.54167
2628.358	835.20833
2630.672	834.20833
2632.985	854.54167
2635.296	847.875
2637.606	847.20833
2639.914	834.54167
2642.22	854.875
2644.525	865.875
2646.829	863.875
2649.131	878.875
2651.432	881.20833
2653.731	884.20833
2656.028	889.875
2658.324	895.875
2660.619	876.20833
2662.912	905.875
2665.204	878.20833
2667.494	902.20833
2669.782	887.875
2672.07	907.54167
2674.355	921.20833
2676.639	893.20833
2678.922	904.20833
2681.203	887.54167
2683.483	896.20833
2685.761	905.875
2688.038	900.54167
2690.313	925.54167
2692.587	919.54167
2694.859	903.875
2697.13	925.875
2699.399	939.20833
2701.667	936.54167
2703.933	935.20833
2706.198	924.20833
2708.461	950.54167
2710.723	948.875
2712.984	947.20833
2715.243	960.875
2717.5	949.875
2719.757	963.875
2722.011	963.875
2724.264	983.875
2726.516	991.875
2728.766	977.875
2731.015	998.20833
2733.262	996.875
2735.508	989.875
2737.753	1005.20833
2739.996	1000.54167
2742.237	987.54167
2744.477	997.54167
2746.716	999.54167
2748.953	984.20833
2751.189	988.875
2753.423	976.20833
2755.656	979.875
2757.887	974.20833
2760.117	988.875
2762.346	984.20833
2764.573	973.20833
2766.798	984.875
2769.022	983.54167
2771.245	994.20833
2773.467	987.875
2775.686	1013.875
2777.905	1018.875
2780.122	1009.875
2782.337	1028.54167
2784.552	1009.875
2786.764	1026.875
2788.976	1026.20833
2791.186	1036.20833
2793.394	1034.875
2795.601	1048.875
2797.807	1061.875
2800.011	1075.54167
2802.214	1079.54167
2804.415	1077.54167
2806.615	1072.20833
2808.814	1078.875
2811.011	1076.54167
2813.206	1084.20833
2815.401	1088.54167
2817.594	1088.54167
2819.785	1097.54167
2821.975	1085.20833
2824.164	1106.54167
2826.351	1111.54167
2828.537	1120.54167
2830.722	1119.875
2832.905	1124.875
2835.086	1153.20833
2837.267	1170.20833
2839.445	1192.54167
2841.623	1197.20833
2843.799	1232.54167
2845.974	1247.20833
2848.147	1270.20833
2850.319	1289.54167
2852.489	1328.20833
2854.659	1334.875
2856.826	1327.875
2858.993	1364.20833
2861.158	1346.875
2863.321	1367.54167
2865.483	1378.20833
2867.644	1368.54167
2869.804	1363.875
2871.962	1357.54167
2874.118	1359.54167
2876.274	1353.20833
2878.428	1338.20833
2880.58	1325.54167
2882.731	1330.875
2884.881	1335.20833
2887.03	1346.54167
2889.177	1334.20833
2891.322	1345.20833
2893.467	1355.54167
2895.61	1360.54167
2897.751	1394.20833
2899.892	1372.20833
2902.03	1360.54167
2904.168	1397.54167
2906.304	1391.875
2908.439	1422.875
2910.572	1403.875
2912.704	1417.875
2914.835	1420.875
2916.965	1419.54167
2919.093	1437.875
2921.219	1414.20833
2923.345	1430.875
2925.469	1417.20833
2927.591	1417.54167
2929.712	1385.20833
2931.832	1387.875
2933.951	1373.875
2936.068	1360.875
2938.184	1352.54167
2940.299	1313.54167
2942.412	1315.875
2944.524	1276.875
2946.634	1304.54167
2948.744	1259.875
2950.851	1294.875
2952.958	1250.875
2955.063	1256.20833
2957.167	1255.20833
2959.269	1233.875
2961.371	1255.20833
2963.471	1227.875
2965.569	1241.20833
2967.666	1209.875
2969.762	1211.20833
2971.857	1198.54167
2973.95	1172.875
2976.042	1170.875
2978.133	1157.54167
2980.222	1153.20833
2982.31	1121.20833
2984.396	1099.20833
2986.482	1112.20833
2988.566	1116.54167
2990.648	1107.54167
2992.73	1120.54167
2994.81	1103.20833
2996.889	1118.20833
2998.966	1109.20833
3001.042	1134.54167
3003.117	1114.54167
3005.191	1116.20833
3007.263	1116.20833
3009.334	1106.20833
3011.403	1083.20833
3013.472	1079.54167
3015.539	1061.20833
3017.604	1076.20833
3019.669	1034.20833
3021.732	1049.875
3023.794	1052.875
3025.854	1034.54167
3027.914	1037.54167
3029.971	1058.20833
3032.028	1040.20833
3034.083	1048.54167
3036.137	1023.20833
3038.19	1004.54167
3040.242	999.54167
3042.292	960.875
3044.341	961.54167
3046.388	959.54167
3048.435	934.20833
3050.48	954.20833
3052.524	944.875
3054.566	926.54167
3056.607	929.20833
3058.647	913.20833
3060.686	886.875
3062.723	867.54167
3064.759	827.875
3066.794	0.20833
3068.828	3.20833
3070.86	2.875
