-0.839	407.16667
3.438	471.16667
7.711	149.83333
11.981	59.16667
16.247	45.83333
20.509	48.83333
24.768	47.16667
29.024	54.83333
33.276	44.83333
37.524	49.83333
41.769	45.5
46.01	33.83333
50.247	47.16667
54.481	59.5
58.712	62.5
62.939	49.5
67.162	62.5
71.382	57.5
75.599	45.5
79.812	69.83333
84.021	79.16667
88.227	62.16667
92.429	61.16667
96.628	51.5
100.823	72.5
105.015	78.16667
109.204	69.16667
113.388	75.16667
117.57	73.5
121.748	85.83333
125.922	76.5
130.093	98.83333
134.261	97.16667
138.425	91.16667
142.585	138.5
146.742	122.83333
150.896	157.5
155.046	201.5
159.193	308.83333
163.336	509.16667
167.476	923.83333
171.613	1687.5
175.746	2853.5
179.875	4208.16667
184.002	5523.16667
188.124	6447.16667
192.244	6802.83333
196.36	6806.83333
200.472	6646.83333
204.581	6540.83333
208.687	6409.83333
212.79	6389.83333
216.889	6423.83333
220.984	6488.83333
225.077	6537.83333
229.165	6629.5
233.251	6645.5
237.333	6668.16667
241.412	6662.16667
245.487	6590.5
249.559	6491.16667
253.628	6478.5
257.694	6438.16667
261.756	6371.16667
265.814	6218.16667
269.87	6034.5
273.922	5786.16667
277.97	5614.83333
282.016	5461.5
286.058	5471.16667
290.097	5527.16667
294.132	5552.16667
298.164	5491.5
302.193	5263.83333
306.219	4894.16667
310.241	4472.16667
314.26	4110.83333
318.276	3868.5
322.288	3679.5
326.297	3492.16667
330.303	3378.16667
334.305	3297.16667
338.305	3270.5
342.301	3202.83333
346.294	3184.16667
350.283	3147.83333
354.269	3114.83333
358.252	3097.83333
362.232	3094.83333
366.209	3030.83333
370.182	3029.16667
374.152	2999.83333
378.119	3018.5
382.083	3015.83333
386.043	2989.16667
390	2962.5
393.954	2968.5
397.905	2961.83333
401.852	2960.5
405.797	2936.16667
409.738	2929.83333
413.676	2933.5
417.61	2952.5
421.542	2896.5
425.47	2892.5
429.396	2851.83333
433.318	2831.83333
437.236	2842.16667
441.152	2858.5
445.065	2789.5
448.974	2809.83333
452.88	2744.16667
456.783	2758.16667
460.683	2711.5
464.58	2737.5
468.473	2727.16667
472.364	2731.83333
476.251	2740.16667
480.135	2769.16667
484.016	2792.83333
487.894	2825.16667
491.769	2815.16667
495.641	2831.5
499.509	2813.16667
503.375	2822.5
507.237	2829.5
511.096	2846.5
514.952	2898.16667
518.805	2972.5
522.655	3010.16667
526.502	2912.5
530.346	2824.16667
534.187	2834.16667
538.024	2825.83333
541.859	2854.83333
545.69	2884.83333
549.519	2850.83333
553.344	2820.5
557.166	2792.16667
560.985	2741.16667
564.802	2721.16667
568.615	2657.83333
572.425	2597.83333
576.232	2600.83333
580.036	2580.5
583.836	2580.83333
587.634	2615.5
591.429	2617.5
595.221	2692.83333
599.01	2711.16667
602.796	2727.16667
606.578	2746.16667
610.358	2747.16667
614.135	2734.16667
617.909	2717.16667
621.679	2689.83333
625.447	2648.5
629.212	2651.16667
632.973	2672.83333
636.732	2654.16667
640.488	2675.16667
644.241	2647.5
647.991	2650.5
651.737	2657.83333
655.481	2631.16667
659.222	2611.5
662.96	2604.5
666.695	2648.83333
670.427	2644.16667
674.156	2670.83333
677.882	2661.16667
681.605	2630.16667
685.325	2588.83333
689.043	2628.5
692.757	2591.16667
696.468	2587.83333
700.177	2604.83333
703.882	2569.5
707.585	2570.5
711.284	2575.16667
714.981	2566.83333
718.675	2577.16667
722.366	2569.83333
726.054	2546.16667
729.739	2563.16667
733.421	2565.83333
737.1	2555.83333
740.777	2582.5
744.45	2583.5
748.121	2606.16667
751.789	2661.5
755.453	2648.83333
759.115	2656.16667
762.774	2683.16667
766.431	2705.5
770.084	2750.83333
773.734	2753.83333
777.382	2810.16667
781.027	2821.5
784.669	2873.16667
788.308	2874.16667
791.944	2861.83333
795.577	2897.16667
799.208	2904.83333
802.835	2904.5
806.46	2934.5
810.082	2945.16667
813.701	2952.83333
817.317	2989.16667
820.931	2961.5
824.542	2969.16667
828.149	2932.5
831.754	2901.5
835.357	2912.16667
838.956	2939.5
842.553	2923.16667
846.146	2916.16667
849.737	2881.5
853.326	2899.83333
856.911	2885.16667
860.493	2918.16667
864.073	2953.5
867.65	2993.16667
871.225	3012.83333
874.796	2998.16667
878.365	3004.16667
881.931	3039.83333
885.494	3071.5
889.054	3053.5
892.612	3048.5
896.166	3032.16667
899.719	2975.83333
903.268	2930.16667
906.814	2930.16667
910.358	2891.16667
913.899	2915.16667
917.438	2900.16667
920.973	2894.83333
924.506	2944.83333
928.036	3007.16667
931.564	3031.16667
935.088	3063.16667
938.61	3074.5
942.129	3117.83333
945.646	3182.16667
949.16	3256.16667
952.671	3292.16667
956.179	3304.83333
959.685	3296.16667
963.188	3252.5
966.688	3213.16667
970.185	3125.83333
973.68	3054.5
977.173	3015.16667
980.662	2967.83333
984.149	2968.5
987.633	2923.16667
991.114	3000.83333
994.593	3025.83333
998.069	3144.5
1001.542	3214.5
1005.013	3197.16667
1008.481	3007.83333
1011.947	2975.83333
1015.409	2926.16667
1018.869	2922.16667
1022.327	2933.83333
1025.782	2905.83333
1029.234	2893.16667
1032.683	2861.16667
1036.13	2791.83333
1039.574	2653.5
1043.016	2588.5
1046.455	2548.5
1049.891	2522.83333
1053.325	2514.16667
1056.756	2548.16667
1060.184	2538.5
1063.61	2553.5
1067.033	2591.5
1070.454	2589.83333
1073.872	2617.83333
1077.287	2611.83333
1080.7	2601.5
1084.11	2584.83333
1087.517	2564.16667
1090.922	2525.16667
1094.325	2490.83333
1097.724	2498.5
1101.122	2492.16667
1104.516	2495.16667
1107.908	2493.83333
1111.298	2562.83333
1114.684	2568.5
1118.069	2604.16667
1121.45	2643.5
1124.83	2604.16667
1128.206	2669.5
1131.58	2705.16667
1134.951	2759.16667
1138.32	2863.83333
1141.687	2978.16667
1145.05	3041.16667
1148.412	3074.16667
1151.77	3092.5
1155.126	3060.16667
1158.48	3025.5
1161.831	3021.83333
1165.18	3057.5
1168.525	3124.5
1171.869	3143.5
1175.21	3146.16667
1178.548	3199.16667
1181.884	3173.83333
1185.217	3237.83333
1188.548	3328.16667
1191.877	3343.5
1195.202	3474.83333
1198.526	3520.83333
1201.846	3532.83333
1205.165	3506.5
1208.48	3473.5
1211.794	3441.5
1215.104	3454.5
1218.413	3461.83333
1221.719	3442.16667
1225.022	3404.5
1228.323	3349.5
1231.621	3332.5
1234.917	3311.16667
1238.21	3324.16667
1241.501	3280.83333
1244.79	3285.16667
1248.076	3284.16667
1251.359	3328.5
1254.64	3386.83333
1257.919	3402.5
1261.195	3481.5
1264.468	3540.5
1267.74	3581.83333
1271.008	3628.83333
1274.275	3576.16667
1277.538	3536.83333
1280.8	3564.83333
1284.059	3539.5
1287.315	3562.5
1290.569	3557.83333
1293.821	3583.5
1297.07	3632.83333
1300.317	3628.83333
1303.562	3620.83333
1306.803	3612.83333
1310.043	3590.5
1313.28	3549.83333
1316.515	3491.16667
1319.747	3487.83333
1322.977	3452.16667
1326.204	3408.83333
1329.429	3358.5
1332.652	3306.16667
1335.872	3300.5
1339.09	3257.16667
1342.306	3234.5
1345.519	3193.83333
1348.729	3182.5
1351.938	3176.5
1355.144	3100.16667
1358.347	3059.83333
1361.548	3077.16667
1364.747	3040.83333
1367.944	3031.16667
1371.138	3051.16667
1374.329	3032.5
1377.518	3066.16667
1380.705	3097.83333
1383.89	3065.83333
1387.072	2966.5
1390.252	2865.5
1393.429	2753.5
1396.605	2682.16667
1399.777	2589.16667
1402.948	2577.16667
1406.116	2559.5
1409.282	2538.5
1412.445	2533.5
1415.606	2558.83333
1418.765	2587.5
1421.921	2663.5
1425.075	2699.5
1428.227	2796.16667
1431.376	2901.83333
1434.524	3027.16667
1437.668	3124.5
1440.811	3168.16667
1443.951	3206.16667
1447.089	3192.83333
1450.224	3181.16667
1453.357	3163.16667
1456.488	3156.16667
1459.617	3086.16667
1462.743	3073.5
1465.867	3002.5
1468.989	2948.83333
1472.108	2889.16667
1475.225	2833.83333
1478.34	2805.83333
1481.453	2819.83333
1484.563	2839.83333
1487.671	2880.5
1490.776	2912.5
1493.88	2968.16667
1496.981	3016.16667
1500.08	3069.16667
1503.176	3106.83333
1506.271	3147.5
1509.363	3199.5
1512.452	3245.83333
1515.54	3272.5
1518.625	3329.83333
1521.708	3410.5
1524.789	3522.5
1527.867	3669.83333
1530.944	3852.83333
1534.018	4022.83333
1537.089	4186.16667
1540.159	4201.16667
1543.226	4168.5
1546.291	4098.5
1549.354	4011.5
1552.415	3925.83333
1555.473	3821.83333
1558.529	3759.83333
1561.583	3701.5
1564.634	3698.5
1567.684	3672.16667
1570.731	3708.5
1573.776	3745.5
1576.819	3796.16667
1579.859	3863.16667
1582.898	3893.5
1585.934	3929.83333
1588.968	3965.83333
1591.999	3912.16667
1595.029	3975.5
1598.056	3968.16667
1601.081	3973.16667
1604.104	3926.5
1607.125	3903.5
1610.144	3850.83333
1613.16	3771.16667
1616.174	3661.16667
1619.186	3581.5
1622.196	3474.5
1625.203	3410.5
1628.209	3327.16667
1631.212	3272.5
1634.213	3258.5
1637.212	3209.83333
1640.209	3162.16667
1643.203	3110.5
1646.196	2978.83333
1649.186	2851.16667
1652.174	2762.83333
1655.16	2644.83333
1658.144	2582.16667
1661.125	2436.16667
1664.105	2343.5
1667.082	2244.5
1670.057	2129.5
1673.03	1981.16667
1676.001	1879.5
1678.97	1750.5
1681.937	1642.5
1684.901	1578.16667
1687.863	1511.16667
1690.824	1427.16667
1693.782	1411.16667
1696.738	1353.16667
1699.692	1328.16667
1702.643	1296.16667
1705.593	1273.16667
1708.54	1256.5
1711.486	1253.83333
1714.429	1214.5
1717.37	1207.16667
1720.309	1189.83333
1723.246	1179.5
1726.181	1161.5
1729.113	1164.83333
1732.044	1146.16667
1734.972	1138.16667
1737.899	1144.16667
1740.823	1134.83333
1743.745	1136.16667
1746.665	1090.5
1749.583	1074.16667
1752.499	1037.16667
1755.413	1034.5
1758.325	1014.16667
1761.235	1004.83333
1764.142	992.5
1767.048	958.83333
1769.951	979.83333
1772.852	973.83333
1775.752	970.16667
1778.649	970.5
1781.544	968.16667
1784.437	940.83333
1787.328	946.5
1790.217	931.83333
1793.104	904.83333
1795.989	921.83333
1798.872	908.83333
1801.753	922.83333
1804.631	913.5
1807.508	925.5
1810.383	916.83333
1813.255	904.5
1816.126	907.16667
1818.994	908.16667
1821.861	886.83333
1824.725	898.5
1827.587	881.83333
1830.448	880.83333
1833.306	867.16667
1836.162	873.83333
1839.017	863.5
1841.869	862.16667
1844.719	855.16667
1847.567	840.16667
1850.414	841.5
1853.258	827.83333
1856.1	848.16667
1858.94	850.83333
1861.778	832.5
1864.614	832.16667
1867.448	830.5
1870.28	819.83333
1873.111	850.16667
1875.939	824.5
1878.765	846.5
1881.589	822.16667
1884.411	832.5
1887.231	820.5
1890.049	812.16667
1892.865	815.16667
1895.68	814.16667
1898.492	829.16667
1901.302	810.5
1904.11	797.5
1906.916	788.16667
1909.721	775.83333
1912.523	795.16667
1915.323	784.16667
1918.122	783.83333
1920.918	791.83333
1923.712	780.16667
1926.505	770.16667
1929.295	758.16667
1932.084	780.83333
1934.87	777.16667
1937.655	777.5
1940.438	764.83333
1943.218	771.83333
1945.997	777.16667
1948.774	782.16667
1951.549	778.16667
1954.322	764.83333
1957.093	755.5
1959.862	749.16667
1962.629	750.83333
1965.394	750.16667
1968.157	748.16667
1970.918	753.16667
1973.678	729.5
1976.435	758.5
1979.19	737.83333
1981.944	732.16667
1984.696	734.5
1987.445	716.16667
1990.193	733.83333
1992.939	735.83333
1995.683	724.83333
1998.425	700.16667
2001.165	741.5
2003.903	717.5
2006.639	712.83333
2009.374	722.83333
2012.106	712.16667
2014.837	696.5
2017.566	729.5
2020.292	723.83333
2023.017	717.16667
2025.74	705.5
2028.461	696.16667
2031.18	699.5
2033.898	693.5
2036.613	691.16667
2039.327	707.16667
2042.038	693.83333
2044.748	682.5
2047.456	694.83333
2050.162	680.83333
2052.866	689.83333
2055.568	696.83333
2058.268	685.83333
2060.967	693.5
2063.663	675.5
2066.358	679.16667
2069.051	679.83333
2071.742	684.5
2074.431	683.5
2077.118	683.16667
2079.804	669.16667
2082.487	678.16667
2085.169	695.5
2087.849	692.5
2090.527	669.16667
2093.203	679.83333
2095.877	686.16667
2098.55	693.83333
2101.22	701.5
2103.889	697.83333
2106.556	706.16667
2109.221	715.5
2111.884	711.5
2114.546	758.5
2117.205	781.5
2119.863	836.16667
2122.519	872.16667
2125.173	911.16667
2127.825	969.5
2130.475	984.16667
2133.124	961.83333
2135.771	935.16667
2138.416	911.16667
2141.059	841.5
2143.7	828.16667
2146.339	786.16667
2148.977	748.5
2151.613	739.16667
2154.247	728.5
2156.879	706.16667
2159.51	677.83333
2162.138	678.5
2164.765	679.16667
2167.39	654.5
2170.013	677.16667
2172.634	673.83333
2175.254	662.5
2177.872	684.16667
2180.488	642.83333
2183.102	656.83333
2185.714	642.16667
2188.325	621.16667
2190.934	636.16667
2193.541	644.5
2196.146	638.16667
2198.75	621.83333
2201.351	612.5
2203.951	597.5
2206.549	628.5
2209.146	607.5
2211.74	606.83333
2214.333	609.16667
2216.924	584.5
2219.514	593.5
2222.101	598.16667
2224.687	608.16667
2227.271	596.83333
2229.853	583.83333
2232.433	576.16667
2235.012	595.16667
2237.589	605.16667
2240.164	605.16667
2242.738	582.83333
2245.309	575.83333
2247.879	586.83333
2250.448	593.5
2253.014	563.5
2255.579	568.5
2258.142	565.83333
2260.703	559.16667
2263.262	556.16667
2265.82	557.83333
2268.376	555.16667
2270.93	539.5
2273.483	551.83333
2276.033	555.5
2278.583	544.16667
2281.13	542.16667
2283.675	543.83333
2286.219	541.16667
2288.761	551.5
2291.302	546.16667
2293.841	550.83333
2296.377	536.16667
2298.913	530.16667
2301.446	546.83333
2303.978	535.5
2306.508	528.5
2309.037	537.5
2311.563	529.5
2314.088	532.16667
2316.612	517.16667
2319.133	526.5
2321.653	532.5
2324.171	516.5
2326.688	532.83333
2329.202	528.5
2331.715	519.83333
2334.227	522.5
2336.736	520.83333
2339.244	522.16667
2341.751	514.16667
2344.255	527.83333
2346.758	514.83333
2349.259	507.5
2351.759	505.83333
2354.257	514.16667
2356.753	513.83333
2359.247	516.5
2361.74	515.5
2364.231	516.83333
2366.721	515.5
2369.209	507.16667
2371.695	523.83333
2374.179	509.16667
2376.662	498.16667
2379.143	524.83333
2381.622	510.5
2384.1	518.83333
2386.576	502.83333
2389.051	523.83333
2391.524	514.16667
2393.995	522.5
2396.464	507.83333
2398.932	514.16667
2401.398	503.5
2403.863	501.5
2406.325	507.5
2408.787	513.5
2411.246	502.16667
2413.704	495.5
2416.16	502.16667
2418.615	506.16667
2421.068	514.83333
2423.519	519.16667
2425.969	498.5
2428.417	508.16667
2430.863	524.5
2433.308	511.5
2435.751	502.16667
2438.193	498.5
2440.633	513.83333
2443.071	507.16667
2445.508	504.16667
2447.943	500.5
2450.376	499.5
2452.808	509.5
2455.238	492.5
2457.667	536.83333
2460.093	497.16667
2462.519	486.5
2464.942	507.16667
2467.365	514.5
2469.785	518.83333
2472.204	499.83333
2474.621	495.5
2477.037	513.16667
2479.451	489.16667
2481.863	495.83333
2484.274	489.83333
2486.683	493.83333
2489.091	508.5
2491.497	504.5
2493.901	511.5
2496.304	496.5
2498.705	512.83333
2501.105	497.5
2503.503	528.5
2505.899	486.5
2508.294	515.83333
2510.687	496.16667
2513.079	498.5
2515.469	502.83333
2517.858	508.83333
2520.245	508.83333
2522.63	501.5
2525.014	493.5
2527.396	490.16667
2529.776	483.16667
2532.156	503.16667
2534.533	503.5
2536.909	497.83333
2539.283	480.83333
2541.656	489.16667
2544.027	516.16667
2546.397	489.5
2548.765	491.83333
2551.131	501.83333
2553.496	501.16667
2555.86	503.83333
2558.221	496.83333
2560.582	497.16667
2562.94	490.5
2565.298	516.16667
2567.653	521.5
2570.007	485.83333
2572.36	516.5
2574.711	494.83333
2577.06	513.5
2579.408	502.5
2581.754	500.83333
2584.099	513.5
2586.442	501.83333
2588.784	505.16667
2591.124	512.5
2593.463	510.16667
2595.8	513.16667
2598.135	502.83333
2600.469	503.16667
2602.802	521.83333
2605.133	523.5
2607.462	500.83333
2609.79	499.83333
2612.116	515.5
2614.441	512.5
2616.764	510.83333
2619.086	513.83333
2621.406	507.83333
2623.725	523.83333
2626.042	528.83333
2628.358	510.16667
2630.672	514.83333
2632.985	531.83333
2635.296	513.16667
2637.606	526.16667
2639.914	512.83333
2642.22	520.5
2644.525	528.5
2646.829	526.83333
2649.131	543.5
2651.432	540.83333
2653.731	526.5
2656.028	547.5
2658.324	553.16667
2660.619	531.5
2662.912	543.83333
2665.204	528.5
2667.494	538.83333
2669.782	542.16667
2672.07	537.83333
2674.355	554.16667
2676.639	545.83333
2678.922	529.16667
2681.203	549.5
2683.483	537.83333
2685.761	532.16667
2688.038	550.5
2690.313	562.5
2692.587	548.83333
2694.859	543.83333
2697.13	551.83333
2699.399	566.5
2701.667	574.5
2703.933	559.16667
2706.198	556.83333
2708.461	568.16667
2710.723	579.16667
2712.984	571.16667
2715.243	579.83333
2717.5	566.5
2719.757	596.83333
2722.011	583.5
2724.264	595.83333
2726.516	598.5
2728.766	584.5
2731.015	596.83333
2733.262	593.5
2735.508	597.83333
2737.753	590.16667
2739.996	590.83333
2742.237	580.16667
2744.477	596.16667
2746.716	594.5
2748.953	591.5
2751.189	572.83333
2753.423	569.83333
2755.656	572.5
2757.887	572.83333
2760.117	565.83333
2762.346	567.5
2764.573	559.16667
2766.798	564.83333
2769.022	571.5
2771.245	570.16667
2773.467	578.83333
2775.686	590.16667
2777.905	583.83333
2780.122	588.83333
2782.337	612.16667
2784.552	591.16667
2786.764	584.83333
2788.976	599.5
2791.186	595.5
2793.394	607.5
2795.601	609.83333
2797.807	631.16667
2800.011	631.83333
2802.214	633.5
2804.415	636.5
2806.615	633.16667
2808.814	630.16667
2811.011	635.5
2813.206	649.5
2815.401	653.83333
2817.594	645.83333
2819.785	669.5
2821.975	670.83333
2824.164	658.5
2826.351	676.5
2828.537	685.5
2830.722	694.5
2832.905	706.5
2835.086	731.5
2837.267	762.83333
2839.445	760.16667
2841.623	783.83333
2843.799	807.5
2845.974	835.83333
2848.147	867.16667
2850.319	883.5
2852.489	912.5
2854.659	932.5
2856.826	936.5
2858.993	964.5
2861.158	949.5
2863.321	961.5
2865.483	958.83333
2867.644	962.16667
2869.804	962.16667
2871.962	952.5
2874.118	954.5
2876.274	962.83333
2878.428	954.83333
2880.58	951.16667
2882.731	941.83333
2884.881	945.5
2887.03	947.83333
2889.177	957.5
2891.322	963.5
2893.467	961.5
2895.61	962.83333
2897.751	997.5
2899.892	980.16667
2902.03	988.5
2904.168	996.5
2906.304	997.16667
2908.439	1022.5
2910.572	995.83333
2912.704	1019.83333
2914.835	1019.5
2916.965	1010.83333
2919.093	1033.16667
2921.219	999.5
2923.345	1023.83333
2925.469	1001.5
2927.591	989.83333
2929.712	944.16667
2931.832	961.16667
2933.951	954.5
2936.068	944.5
2938.184	922.5
2940.299	901.16667
2942.412	885.5
2944.524	856.83333
2946.634	852.16667
2948.744	805.83333
2950.851	833.16667
2952.958	800.83333
2955.063	788.16667
2957.167	785.83333
2959.269	765.83333
2961.371	787.16667
2963.471	759.83333
2965.569	759.16667
2967.666	734.16667
2969.762	720.5
2971.857	712.16667
2973.95	702.5
2976.042	694.16667
2978.133	683.5
2980.222	664.16667
2982.31	653.83333
2984.396	640.16667
2986.482	640.83333
2988.566	636.83333
2990.648	626.16667
2992.73	631.16667
2994.81	611.5
2996.889	622.16667
2998.966	634.16667
3001.042	623.5
3003.117	620.16667
3005.191	620.83333
3007.263	627.16667
3009.334	620.16667
3011.403	612.83333
3013.472	592.83333
3015.539	599.16667
3017.604	607.5
3019.669	575.16667
3021.732	564.83333
3023.794	574.16667
3025.854	560.83333
3027.914	556.5
3029.971	573.5
3032.028	567.83333
3034.083	567.16667
3036.137	561.83333
3038.19	544.83333
3040.242	533.83333
3042.292	513.5
3044.341	514.83333
3046.388	528.16667
3048.435	507.83333
3050.48	524.5
3052.524	517.16667
3054.566	492.5
3056.607	504.5
3058.647	491.5
3060.686	473.5
3062.723	463.83333
3064.759	443.83333
3066.794	-1.16667
3068.828	1.16667
3070.86	1.5
