-0.839	505.83333
3.438	590.5
7.711	170.83333
11.981	56.83333
16.247	47.16667
20.509	48.83333
24.768	45.16667
29.024	51.16667
33.276	41.5
37.524	48.16667
41.769	46.16667
46.01	29.83333
50.247	45.83333
54.481	55.5
58.712	56.16667
62.939	48.16667
67.162	57.5
71.382	53.5
75.599	43.5
79.812	59.83333
84.021	75.83333
88.227	58.16667
92.429	57.5
96.628	47.83333
100.823	67.83333
105.015	67.83333
109.204	59.16667
113.388	68.5
117.57	68.83333
121.748	79.83333
125.922	72.5
130.093	88.83333
134.261	91.83333
138.425	88.16667
142.585	124.16667
146.742	116.16667
150.896	140.5
155.046	170.16667
159.193	267.16667
163.336	437.83333
167.476	810.5
171.613	1467.83333
175.746	2450.83333
179.875	3629.5
184.002	4701.5
188.124	5489.5
192.244	5779.16667
196.36	5765.5
200.472	5596.5
204.581	5489.5
208.687	5362.5
212.79	5311.5
216.889	5281.16667
220.984	5297.83333
225.077	5352.16667
229.165	5367.5
233.251	5375.83333
237.333	5364.16667
241.412	5323.5
245.487	5257.16667
249.559	5213.16667
253.628	5174.5
257.694	5115.83333
261.756	5060.83333
265.814	4920.83333
269.87	4762.16667
273.922	4583.16667
277.97	4464.16667
282.016	4349.83333
286.058	4318.16667
290.097	4377.5
294.132	4368.83333
298.164	4302.5
302.193	4120.16667
306.219	3856.83333
310.241	3533.16667
314.26	3268.16667
318.276	3059.83333
322.288	2937.16667
326.297	2803.5
330.303	2695.5
334.305	2623.5
338.305	2616.5
342.301	2588.5
346.294	2554.5
350.283	2545.16667
354.269	2521.5
358.252	2494.83333
362.232	2477.5
366.209	2455.5
370.182	2419.16667
374.152	2403.83333
378.119	2448.83333
382.083	2409.16667
386.043	2423.5
390	2393.5
393.954	2410.16667
397.905	2404.83333
401.852	2417.5
405.797	2375.5
409.738	2359.5
413.676	2381.5
417.61	2386.16667
421.542	2357.16667
425.47	2323.5
429.396	2326.5
433.318	2299.5
437.236	2292.16667
441.152	2302.16667
445.065	2274.83333
448.974	2268.83333
452.88	2229.5
456.783	2218.16667
460.683	2192.16667
464.58	2211.83333
468.473	2210.83333
472.364	2229.83333
476.251	2221.16667
480.135	2256.5
484.016	2258.5
487.894	2285.5
491.769	2271.16667
495.641	2289.16667
499.509	2290.16667
503.375	2268.83333
507.237	2306.5
511.096	2365.5
514.952	2585.5
518.805	2798.16667
522.655	2871.16667
526.502	2605.5
530.346	2349.83333
534.187	2312.5
538.024	2302.83333
541.859	2326.83333
545.69	2318.83333
549.519	2307.16667
553.344	2316.83333
557.166	2254.16667
560.985	2232.83333
564.802	2173.83333
568.615	2163.5
572.425	2114.5
576.232	2104.16667
580.036	2092.5
583.836	2101.5
587.634	2108.5
591.429	2120.16667
595.221	2170.5
599.01	2187.83333
602.796	2193.83333
606.578	2221.16667
610.358	2227.5
614.135	2198.83333
617.909	2212.5
621.679	2187.16667
625.447	2139.83333
629.212	2129.83333
632.973	2145.5
636.732	2157.83333
640.488	2164.83333
644.241	2120.83333
647.991	2121.5
651.737	2146.16667
655.481	2122.16667
659.222	2140.5
662.96	2114.16667
666.695	2144.5
670.427	2146.83333
674.156	2171.5
677.882	2146.16667
681.605	2149.83333
685.325	2115.83333
689.043	2112.16667
692.757	2086.16667
696.468	2085.83333
700.177	2074.5
703.882	2076.16667
707.585	2069.83333
711.284	2059.83333
714.981	2046.83333
718.675	2082.83333
722.366	2078.83333
726.054	2065.5
729.739	2064.5
733.421	2071.5
737.1	2066.83333
740.777	2078.83333
744.45	2080.16667
748.121	2105.83333
751.789	2129.5
755.453	2129.83333
759.115	2161.16667
762.774	2160.83333
766.431	2182.83333
770.084	2196.83333
773.734	2218.5
777.382	2248.5
781.027	2246.5
784.669	2298.83333
788.308	2294.5
791.944	2311.5
795.577	2319.16667
799.208	2319.5
802.835	2351.5
806.46	2363.16667
810.082	2395.5
813.701	2396.5
817.317	2424.16667
820.931	2415.5
824.542	2402.83333
828.149	2381.83333
831.754	2336.5
835.357	2328.16667
838.956	2352.16667
842.553	2323.83333
846.146	2309.16667
849.737	2320.16667
853.326	2311.83333
856.911	2300.16667
860.493	2332.5
864.073	2352.16667
867.65	2353.83333
871.225	2388.83333
874.796	2380.5
878.365	2391.16667
881.931	2411.5
885.494	2437.16667
889.054	2428.5
892.612	2403.83333
896.166	2369.16667
899.719	2349.5
903.268	2329.16667
906.814	2312.83333
910.358	2306.83333
913.899	2270.16667
917.438	2294.83333
920.973	2307.83333
924.506	2319.83333
928.036	2384.16667
931.564	2422.16667
935.088	2465.5
938.61	2467.16667
942.129	2501.5
945.646	2551.5
949.16	2584.83333
952.671	2611.5
956.179	2625.83333
959.685	2618.83333
963.188	2627.83333
966.688	2597.16667
970.185	2490.16667
973.68	2464.5
977.173	2401.5
980.662	2375.5
984.149	2373.16667
987.633	2349.83333
991.114	2407.5
994.593	2439.5
998.069	2485.83333
1001.542	2575.83333
1005.013	2526.83333
1008.481	2388.83333
1011.947	2370.5
1015.409	2333.83333
1018.869	2307.5
1022.327	2317.5
1025.782	2318.5
1029.234	2290.83333
1032.683	2269.5
1036.13	2199.83333
1039.574	2121.83333
1043.016	2044.83333
1046.455	2025.83333
1049.891	2017.83333
1053.325	2029.16667
1056.756	2016.16667
1060.184	2033.83333
1063.61	2039.83333
1067.033	2055.16667
1070.454	2055.83333
1073.872	2090.83333
1077.287	2071.83333
1080.7	2071.5
1084.11	2077.5
1087.517	2053.5
1090.922	2023.5
1094.325	1997.5
1097.724	1976.16667
1101.122	1992.5
1104.516	1976.5
1107.908	2001.5
1111.298	2039.16667
1114.684	2064.5
1118.069	2085.5
1121.45	2078.5
1124.83	2082.5
1128.206	2091.5
1131.58	2135.5
1134.951	2189.83333
1138.32	2240.16667
1141.687	2326.5
1145.05	2380.83333
1148.412	2405.16667
1151.77	2391.83333
1155.126	2376.16667
1158.48	2331.83333
1161.831	2382.16667
1165.18	2370.5
1168.525	2428.16667
1171.869	2443.16667
1175.21	2452.16667
1178.548	2485.5
1181.884	2506.83333
1185.217	2501.83333
1188.548	2579.5
1191.877	2616.16667
1195.202	2674.16667
1198.526	2735.16667
1201.846	2734.5
1205.165	2755.5
1208.48	2738.83333
1211.794	2722.83333
1215.104	2729.16667
1218.413	2714.5
1221.719	2731.5
1225.022	2668.83333
1228.323	2619.16667
1231.621	2609.5
1234.917	2572.83333
1238.21	2621.83333
1241.501	2580.83333
1244.79	2602.83333
1248.076	2580.83333
1251.359	2621.83333
1254.64	2696.5
1257.919	2686.16667
1261.195	2750.5
1264.468	2799.16667
1267.74	2822.5
1271.008	2838.83333
1274.275	2825.16667
1277.538	2794.16667
1280.8	2778.16667
1284.059	2777.16667
1287.315	2811.83333
1290.569	2829.83333
1293.821	2846.83333
1297.07	2856.16667
1300.317	2881.5
1303.562	2864.16667
1306.803	2851.16667
1310.043	2838.16667
1313.28	2807.83333
1316.515	2803.83333
1319.747	2769.5
1322.977	2745.16667
1326.204	2704.16667
1329.429	2657.16667
1332.652	2671.5
1335.872	2626.83333
1339.09	2606.83333
1342.306	2589.83333
1345.519	2550.16667
1348.729	2547.5
1351.938	2569.83333
1355.144	2550.83333
1358.347	2504.5
1361.548	2477.16667
1364.747	2471.16667
1367.944	2452.16667
1371.138	2462.5
1374.329	2470.16667
1377.518	2486.16667
1380.705	2496.5
1383.89	2482.16667
1387.072	2418.5
1390.252	2308.5
1393.429	2214.5
1396.605	2159.5
1399.777	2090.83333
1402.948	2073.16667
1406.116	2051.83333
1409.282	2055.5
1412.445	2026.16667
1415.606	2065.83333
1418.765	2088.5
1421.921	2127.16667
1425.075	2173.5
1428.227	2245.83333
1431.376	2346.16667
1434.524	2442.83333
1437.668	2500.16667
1440.811	2549.5
1443.951	2554.83333
1447.089	2565.5
1450.224	2558.5
1453.357	2544.16667
1456.488	2516.5
1459.617	2465.5
1462.743	2461.5
1465.867	2392.5
1468.989	2357.83333
1472.108	2316.5
1475.225	2269.16667
1478.34	2251.83333
1481.453	2253.83333
1484.563	2255.5
1487.671	2296.83333
1490.776	2328.16667
1493.88	2354.16667
1496.981	2392.16667
1500.08	2411.16667
1503.176	2444.83333
1506.271	2488.5
1509.363	2524.83333
1512.452	2531.83333
1515.54	2559.16667
1518.625	2618.16667
1521.708	2663.16667
1524.789	2751.5
1527.867	2838.83333
1530.944	2993.83333
1534.018	3110.16667
1537.089	3215.5
1540.159	3255.83333
1543.226	3226.16667
1546.291	3156.83333
1549.354	3092.5
1552.415	3032.5
1555.473	2959.16667
1558.529	2904.16667
1561.583	2892.5
1564.634	2853.83333
1567.684	2880.5
1570.731	2895.83333
1573.776	2961.83333
1576.819	2972.83333
1579.859	3027.5
1582.898	3032.83333
1585.934	3107.5
1588.968	3083.16667
1591.999	3079.83333
1595.029	3097.5
1598.056	3104.83333
1601.081	3141.16667
1604.104	3105.83333
1607.125	3088.16667
1610.144	3031.16667
1613.16	2981.16667
1616.174	2898.83333
1619.186	2835.5
1622.196	2782.83333
1625.203	2707.83333
1628.209	2672.16667
1631.212	2634.5
1634.213	2626.83333
1637.212	2649.16667
1640.209	2639.83333
1643.203	2569.5
1646.196	2486.5
1649.186	2375.5
1652.174	2293.83333
1655.16	2225.83333
1658.144	2157.83333
1661.125	2031.83333
1664.105	1937.16667
1667.082	1856.5
1670.057	1769.83333
1673.03	1666.5
1676.001	1545.83333
1678.97	1463.5
1681.937	1378.83333
1684.901	1303.5
1687.863	1252.16667
1690.824	1190.16667
1693.782	1177.16667
1696.738	1127.83333
1699.692	1112.16667
1702.643	1074.5
1705.593	1074.83333
1708.54	1061.16667
1711.486	1048.5
1714.429	1018.83333
1717.37	1010.16667
1720.309	998.16667
1723.246	1006.5
1726.181	982.5
1729.113	981.16667
1732.044	965.16667
1734.972	970.5
1737.899	965.16667
1740.823	964.16667
1743.745	952.16667
1746.665	921.16667
1749.583	905.5
1752.499	913.83333
1755.413	910.16667
1758.325	861.16667
1761.235	871.16667
1764.142	849.5
1767.048	857.5
1769.951	844.5
1772.852	838.83333
1775.752	844.83333
1778.649	834.83333
1781.544	847.83333
1784.437	812.16667
1787.328	814.5
1790.217	813.83333
1793.104	783.83333
1795.989	786.16667
1798.872	789.83333
1801.753	800.83333
1804.631	793.16667
1807.508	807.5
1810.383	802.16667
1813.255	784.83333
1816.126	794.83333
1818.994	777.83333
1821.861	778.5
1824.725	779.5
1827.587	790.5
1830.448	781.5
1833.306	746.5
1836.162	774.83333
1839.017	763.83333
1841.869	758.5
1844.719	747.16667
1847.567	739.5
1850.414	743.5
1853.258	740.83333
1856.1	740.16667
1858.94	751.83333
1861.778	745.5
1864.614	745.83333
1867.448	745.83333
1870.28	732.16667
1873.111	766.5
1875.939	739.16667
1878.765	752.5
1881.589	734.16667
1884.411	727.16667
1887.231	738.16667
1890.049	734.5
1892.865	736.5
1895.68	726.16667
1898.492	740.16667
1901.302	734.5
1904.11	722.16667
1906.916	726.16667
1909.721	723.16667
1912.523	721.83333
1915.323	709.5
1918.122	692.83333
1920.918	721.5
1923.712	711.16667
1926.505	693.16667
1929.295	695.83333
1932.084	718.16667
1934.87	706.5
1937.655	705.5
1940.438	711.16667
1943.218	695.5
1945.997	713.5
1948.774	714.5
1951.549	710.83333
1954.322	700.83333
1957.093	692.16667
1959.862	691.5
1962.629	700.5
1965.394	688.83333
1968.157	685.5
1970.918	690.5
1973.678	678.5
1976.435	695.83333
1979.19	695.5
1981.944	675.83333
1984.696	678.5
1987.445	671.5
1990.193	684.5
1992.939	693.5
1995.683	676.16667
1998.425	661.83333
2001.165	706.5
2003.903	676.5
2006.639	674.83333
2009.374	685.5
2012.106	686.83333
2014.837	666.5
2017.566	679.5
2020.292	688.5
2023.017	691.83333
2025.74	670.5
2028.461	673.5
2031.18	683.16667
2033.898	668.83333
2036.613	673.83333
2039.327	677.5
2042.038	676.16667
2044.748	672.5
2047.456	677.83333
2050.162	658.83333
2052.866	658.5
2055.568	676.83333
2058.268	664.16667
2060.967	670.83333
2063.663	654.16667
2066.358	665.83333
2069.051	664.16667
2071.742	669.16667
2074.431	667.83333
2077.118	675.5
2079.804	658.83333
2082.487	665.83333
2085.169	675.16667
2087.849	688.83333
2090.527	655.5
2093.203	674.16667
2095.877	678.83333
2098.55	687.83333
2101.22	695.16667
2103.889	690.5
2106.556	690.5
2109.221	701.16667
2111.884	695.5
2114.546	733.5
2117.205	753.83333
2119.863	792.16667
2122.519	831.16667
2125.173	857.5
2127.825	890.5
2130.475	901.5
2133.124	882.83333
2135.771	862.83333
2138.416	854.5
2141.059	799.16667
2143.7	787.5
2146.339	756.83333
2148.977	722.83333
2151.613	732.16667
2154.247	719.83333
2156.879	706.83333
2159.51	689.16667
2162.138	690.83333
2164.765	693.83333
2167.39	675.16667
2170.013	700.16667
2172.634	680.83333
2175.254	680.16667
2177.872	716.16667
2180.488	669.5
2183.102	680.83333
2185.714	663.83333
2188.325	662.16667
2190.934	662.5
2193.541	690.16667
2196.146	661.83333
2198.75	646.83333
2201.351	659.83333
2203.951	635.5
2206.549	663.83333
2209.146	655.16667
2211.74	656.83333
2214.333	667.5
2216.924	634.16667
2219.514	655.5
2222.101	638.5
2224.687	663.83333
2227.271	645.83333
2229.853	645.16667
2232.433	638.16667
2235.012	654.83333
2237.589	656.5
2240.164	669.16667
2242.738	646.5
2245.309	646.5
2247.879	654.16667
2250.448	658.83333
2253.014	646.16667
2255.579	631.83333
2258.142	644.5
2260.703	632.16667
2263.262	632.16667
2265.82	636.83333
2268.376	645.83333
2270.93	632.16667
2273.483	630.83333
2276.033	634.5
2278.583	638.5
2281.13	640.5
2283.675	626.16667
2286.219	627.5
2288.761	633.5
2291.302	636.83333
2293.841	650.16667
2296.377	634.83333
2298.913	628.16667
2301.446	649.16667
2303.978	640.16667
2306.508	624.16667
2309.037	640.83333
2311.563	632.83333
2314.088	643.83333
2316.612	626.16667
2319.133	626.16667
2321.653	636.5
2324.171	633.83333
2326.688	650.5
2329.202	631.5
2331.715	639.16667
2334.227	641.5
2336.736	646.16667
2339.244	644.5
2341.751	630.5
2344.255	647.5
2346.758	647.16667
2349.259	634.83333
2351.759	654.5
2354.257	648.5
2356.753	638.5
2359.247	650.5
2361.74	653.16667
2364.231	647.16667
2366.721	648.16667
2369.209	652.83333
2371.695	654.83333
2374.179	649.5
2376.662	640.83333
2379.143	676.5
2381.622	654.16667
2384.1	662.16667
2386.576	664.83333
2389.051	674.83333
2391.524	685.16667
2393.995	680.83333
2396.464	673.5
2398.932	675.83333
2401.398	676.16667
2403.863	673.16667
2406.325	674.83333
2408.787	674.83333
2411.246	666.83333
2413.704	675.5
2416.16	672.5
2418.615	676.16667
2421.068	678.83333
2423.519	684.83333
2425.969	677.5
2428.417	695.5
2430.863	702.16667
2433.308	688.5
2435.751	687.16667
2438.193	684.5
2440.633	695.5
2443.071	695.5
2445.508	687.16667
2447.943	694.16667
2450.376	695.5
2452.808	701.83333
2455.238	702.5
2457.667	736.5
2460.093	710.83333
2462.519	701.83333
2464.942	702.83333
2467.365	712.5
2469.785	710.5
2472.204	712.5
2474.621	700.5
2477.037	729.16667
2479.451	700.16667
2481.863	702.16667
2484.274	702.16667
2486.683	718.83333
2489.091	725.16667
2491.497	722.5
2493.901	729.5
2496.304	719.16667
2498.705	727.83333
2501.105	727.16667
2503.503	758.83333
2505.899	713.5
2508.294	752.16667
2510.687	737.5
2513.079	748.16667
2515.469	746.5
2517.858	736.5
2520.245	747.5
2522.63	748.83333
2525.014	737.83333
2527.396	748.5
2529.776	738.5
2532.156	755.83333
2534.533	745.83333
2536.909	747.5
2539.283	734.16667
2541.656	739.16667
2544.027	778.83333
2546.397	762.5
2548.765	752.16667
2551.131	772.5
2553.496	763.83333
2555.86	785.16667
2558.221	777.5
2560.582	769.5
2562.94	758.83333
2565.298	779.5
2567.653	793.5
2570.007	771.5
2572.36	798.5
2574.711	785.83333
2577.06	790.5
2579.408	796.83333
2581.754	788.5
2584.099	787.16667
2586.442	790.16667
2588.784	796.16667
2591.124	811.16667
2593.463	805.83333
2595.8	814.5
2598.135	796.5
2600.469	797.16667
2602.802	812.83333
2605.133	825.16667
2607.462	815.5
2609.79	797.5
2612.116	819.16667
2614.441	822.83333
2616.764	823.5
2619.086	826.16667
2621.406	815.16667
2623.725	848.5
2626.042	844.83333
2628.358	820.5
2630.672	827.5
2632.985	859.83333
2635.296	840.5
2637.606	849.83333
2639.914	837.83333
2642.22	853.83333
2644.525	855.16667
2646.829	870.5
2649.131	868.5
2651.432	887.83333
2653.731	878.5
2656.028	896.83333
2658.324	893.5
2660.619	879.16667
2662.912	892.83333
2665.204	887.5
2667.494	897.16667
2669.782	888.16667
2672.07	909.83333
2674.355	906.5
2676.639	905.5
2678.922	900.16667
2681.203	911.83333
2683.483	888.16667
2685.761	898.5
2688.038	903.16667
2690.313	915.5
2692.587	917.16667
2694.859	905.5
2697.13	919.16667
2699.399	923.83333
2701.667	946.83333
2703.933	949.83333
2706.198	933.16667
2708.461	953.83333
2710.723	939.5
2712.984	940.5
2715.243	953.83333
2717.5	945.16667
2719.757	979.5
2722.011	961.16667
2724.264	981.5
2726.516	987.16667
2728.766	984.5
2731.015	994.16667
2733.262	1003.5
2735.508	992.16667
2737.753	999.83333
2739.996	982.16667
2742.237	983.5
2744.477	1004.5
2746.716	999.83333
2748.953	985.16667
2751.189	976.5
2753.423	997.83333
2755.656	982.83333
2757.887	965.5
2760.117	987.5
2762.346	975.83333
2764.573	973.16667
2766.798	986.5
2769.022	991.83333
2771.245	985.16667
2773.467	999.5
2775.686	995.83333
2777.905	1002.83333
2780.122	1019.16667
2782.337	1012.16667
2784.552	1007.5
2786.764	1012.5
2788.976	1020.83333
2791.186	1020.16667
2793.394	1043.83333
2795.601	1053.83333
2797.807	1058.5
2800.011	1063.5
2802.214	1064.16667
2804.415	1072.83333
2806.615	1053.16667
2808.814	1080.83333
2811.011	1069.83333
2813.206	1079.5
2815.401	1068.83333
2817.594	1085.16667
2819.785	1099.5
2821.975	1088.5
2824.164	1082.5
2826.351	1102.83333
2828.537	1115.5
2830.722	1097.16667
2832.905	1125.5
2835.086	1160.16667
2837.267	1182.83333
2839.445	1201.83333
2841.623	1214.5
2843.799	1229.5
2845.974	1249.83333
2848.147	1254.16667
2850.319	1283.16667
2852.489	1303.83333
2854.659	1308.83333
2856.826	1326.83333
2858.993	1365.5
2861.158	1354.5
2863.321	1344.16667
2865.483	1383.83333
2867.644	1349.5
2869.804	1345.16667
2871.962	1361.16667
2874.118	1345.5
2876.274	1337.83333
2878.428	1357.16667
2880.58	1337.5
2882.731	1330.5
2884.881	1325.83333
2887.03	1332.5
2889.177	1332.16667
2891.322	1356.83333
2893.467	1357.5
2895.61	1346.83333
2897.751	1377.5
2899.892	1369.83333
2902.03	1362.83333
2904.168	1379.16667
2906.304	1381.16667
2908.439	1408.16667
2910.572	1394.83333
2912.704	1403.5
2914.835	1425.83333
2916.965	1424.5
2919.093	1428.5
2921.219	1415.5
2923.345	1435.5
2925.469	1411.83333
2927.591	1406.83333
2929.712	1368.83333
2931.832	1377.5
2933.951	1365.16667
2936.068	1359.83333
2938.184	1347.16667
2940.299	1315.5
2942.412	1304.83333
2944.524	1278.83333
2946.634	1285.16667
2948.744	1232.83333
2950.851	1298.5
2952.958	1245.16667
2955.063	1258.83333
2957.167	1251.83333
2959.269	1210.83333
2961.371	1264.83333
2963.471	1238.5
2965.569	1233.16667
2967.666	1217.5
2969.762	1193.83333
2971.857	1195.16667
2973.95	1172.83333
2976.042	1173.5
2978.133	1171.16667
2980.222	1145.83333
2982.31	1122.5
2984.396	1107.16667
2986.482	1099.83333
2988.566	1108.16667
2990.648	1107.5
2992.73	1116.5
2994.81	1100.5
2996.889	1110.16667
2998.966	1104.5
3001.042	1107.83333
3003.117	1115.83333
3005.191	1117.5
3007.263	1115.16667
3009.334	1093.16667
3011.403	1100.5
3013.472	1069.83333
3015.539	1079.16667
3017.604	1070.5
3019.669	1026.83333
3021.732	1033.5
3023.794	1052.16667
3025.854	1039.5
3027.914	1036.83333
3029.971	1056.16667
3032.028	1037.16667
3034.083	1044.16667
3036.137	1020.83333
3038.19	1006.83333
3040.242	981.5
3042.292	969.5
3044.341	957.83333
3046.388	964.83333
3048.435	926.5
3050.48	958.83333
3052.524	935.5
3054.566	920.5
3056.607	928.83333
3058.647	917.16667
3060.686	887.16667
3062.723	859.16667
3064.759	833.83333
3066.794	0.16667
3068.828	2.16667
3070.86	2.83333
