-0.839	498.33333
3.438	590.33333
7.711	173
11.981	58.66667
16.247	41.33333
20.509	49
24.768	46.66667
29.024	54.33333
33.276	41
37.524	47
41.769	50.33333
46.01	32.66667
50.247	46.33333
54.481	61.66667
58.712	59.33333
62.939	54
67.162	63.66667
71.382	54.33333
75.599	43
79.812	61.33333
84.021	81.33333
88.227	56.66667
92.429	58.66667
96.628	48.66667
100.823	65.66667
105.015	72
109.204	66.66667
113.388	73.66667
117.57	73.33333
121.748	82
125.922	72.66667
130.093	87.66667
134.261	89.66667
138.425	89.33333
142.585	132.33333
146.742	115.66667
150.896	142.66667
155.046	174.66667
159.193	276.66667
163.336	453.66667
167.476	811.66667
171.613	1472.33333
175.746	2517.33333
179.875	3689.33333
184.002	4855.33333
188.124	5661.33333
192.244	5989.66667
196.36	5955
200.472	5804.33333
204.581	5677
208.687	5554.33333
212.79	5510.33333
216.889	5521
220.984	5534
225.077	5597.66667
229.165	5594.33333
233.251	5648.66667
237.333	5682.33333
241.412	5599.66667
245.487	5548.33333
249.559	5469.66667
253.628	5436.66667
257.694	5377.33333
261.756	5362
265.814	5204.33333
269.87	5057.33333
273.922	4846.66667
277.97	4693.66667
282.016	4609
286.058	4555.33333
290.097	4590.66667
294.132	4592.33333
298.164	4549.66667
302.193	4362.33333
306.219	4103.33333
310.241	3779
314.26	3472.33333
318.276	3281.33333
322.288	3118.33333
326.297	2987.33333
330.303	2911.33333
334.305	2863.33333
338.305	2817
342.301	2782.33333
346.294	2747.66667
350.283	2752.33333
354.269	2721
358.252	2691
362.232	2702
366.209	2681.33333
370.182	2644.33333
374.152	2648.66667
378.119	2664.33333
382.083	2642
386.043	2645
390	2615.33333
393.954	2649.33333
397.905	2625.66667
401.852	2626.33333
405.797	2613.33333
409.738	2593.33333
413.676	2597.33333
417.61	2607.33333
421.542	2585.33333
425.47	2549
429.396	2545.66667
433.318	2533
437.236	2529.33333
441.152	2553.66667
445.065	2491.33333
448.974	2480.66667
452.88	2443
456.783	2441.66667
460.683	2431.33333
464.58	2421
468.473	2423.66667
472.364	2459.66667
476.251	2449.33333
480.135	2467.33333
484.016	2500.33333
487.894	2511
491.769	2513.66667
495.641	2518.66667
499.509	2503.66667
503.375	2520.66667
507.237	2530
511.096	2594.66667
514.952	2807
518.805	3040.66667
522.655	3131.66667
526.502	2818.33333
530.346	2576.33333
534.187	2529.66667
538.024	2519.33333
541.859	2505.33333
545.69	2531.33333
549.519	2522
553.344	2479.66667
557.166	2467
560.985	2424
564.802	2408
568.615	2353.33333
572.425	2325.66667
576.232	2308.33333
580.036	2303.66667
583.836	2315.66667
587.634	2319
591.429	2337.33333
595.221	2385.33333
599.01	2395.33333
602.796	2417
606.578	2423
610.358	2444
614.135	2427.33333
617.909	2405
621.679	2390.66667
625.447	2343
629.212	2344.33333
632.973	2345
636.732	2357
640.488	2356
644.241	2334
647.991	2338.66667
651.737	2362
655.481	2337
659.222	2378.33333
662.96	2381
666.695	2378.33333
670.427	2366.33333
674.156	2361
677.882	2362.33333
681.605	2350.66667
685.325	2321.66667
689.043	2319
692.757	2300.66667
696.468	2283.66667
700.177	2293.33333
703.882	2266
707.585	2257.66667
711.284	2271.66667
714.981	2266
718.675	2256
722.366	2288
726.054	2243.66667
729.739	2249.66667
733.421	2281.66667
737.1	2240.33333
740.777	2267.33333
744.45	2275.66667
748.121	2304
751.789	2335.33333
755.453	2315.33333
759.115	2344.33333
762.774	2362
766.431	2354.33333
770.084	2384.66667
773.734	2387
777.382	2445.66667
781.027	2475.33333
784.669	2469.33333
788.308	2488
791.944	2497.66667
795.577	2507.33333
799.208	2529
802.835	2560.33333
806.46	2577.66667
810.082	2590
813.701	2614
817.317	2632.33333
820.931	2637.33333
824.542	2612.66667
828.149	2587.66667
831.754	2527
835.357	2535
838.956	2523
842.553	2519.66667
846.146	2483.66667
849.737	2461
853.326	2467
856.911	2467
860.493	2494.33333
864.073	2500.66667
867.65	2552
871.225	2556
874.796	2541.33333
878.365	2557.66667
881.931	2578.33333
885.494	2569.66667
889.054	2604.66667
892.612	2571.66667
896.166	2564.66667
899.719	2534.66667
903.268	2490
906.814	2498
910.358	2484.33333
913.899	2473.33333
917.438	2467.66667
920.973	2438.66667
924.506	2477.66667
928.036	2549.66667
931.564	2589.33333
935.088	2606.66667
938.61	2620.66667
942.129	2663.33333
945.646	2682.33333
949.16	2746
952.671	2783.66667
956.179	2793.66667
959.685	2797.66667
963.188	2840
966.688	2805.66667
970.185	2728.66667
973.68	2638.33333
977.173	2602
980.662	2531
984.149	2542
987.633	2533.66667
991.114	2586
994.593	2618.66667
998.069	2684
1001.542	2744.33333
1005.013	2676.33333
1008.481	2552.66667
1011.947	2505
1015.409	2490.66667
1018.869	2482
1022.327	2488
1025.782	2454.66667
1029.234	2496.33333
1032.683	2434
1036.13	2368
1039.574	2287.66667
1043.016	2224
1046.455	2187
1049.891	2171
1053.325	2169.66667
1056.756	2188
1060.184	2204
1063.61	2198.66667
1067.033	2209.33333
1070.454	2216.66667
1073.872	2239
1077.287	2230.33333
1080.7	2233.33333
1084.11	2230
1087.517	2215.33333
1090.922	2159
1094.325	2149.66667
1097.724	2133.66667
1101.122	2133.33333
1104.516	2113.66667
1107.908	2115
1111.298	2175.66667
1114.684	2184.66667
1118.069	2175.66667
1121.45	2223.66667
1124.83	2204.33333
1128.206	2226.66667
1131.58	2267
1134.951	2308.33333
1138.32	2388.66667
1141.687	2464
1145.05	2516
1148.412	2551.66667
1151.77	2534
1155.126	2520.66667
1158.48	2500.66667
1161.831	2487
1165.18	2492
1168.525	2530.66667
1171.869	2581.33333
1175.21	2561
1178.548	2571.66667
1181.884	2619.66667
1185.217	2623
1188.548	2663.33333
1191.877	2743.66667
1195.202	2814.33333
1198.526	2876
1201.846	2867.66667
1205.165	2865
1208.48	2871.66667
1211.794	2851
1215.104	2856.33333
1218.413	2853
1221.719	2862.33333
1225.022	2798
1228.323	2785.66667
1231.621	2746.66667
1234.917	2704.33333
1238.21	2736.66667
1241.501	2742
1244.79	2696
1248.076	2714
1251.359	2743.33333
1254.64	2821
1257.919	2837
1261.195	2854.33333
1264.468	2922.66667
1267.74	2932.33333
1271.008	2934.33333
1274.275	2939.33333
1277.538	2933.66667
1280.8	2913
1284.059	2911.33333
1287.315	2945.33333
1290.569	2971
1293.821	2985.66667
1297.07	2990.33333
1300.317	3003.66667
1303.562	2972.33333
1306.803	2974.66667
1310.043	2945.66667
1313.28	2925.33333
1316.515	2900.66667
1319.747	2908.66667
1322.977	2883
1326.204	2836.66667
1329.429	2837.66667
1332.652	2825.66667
1335.872	2788
1339.09	2763
1342.306	2776
1345.519	2745.66667
1348.729	2742.33333
1351.938	2755
1355.144	2705
1358.347	2685
1361.548	2652.66667
1364.747	2627
1367.944	2606
1371.138	2625
1374.329	2622
1377.518	2657.33333
1380.705	2658
1383.89	2670.66667
1387.072	2551
1390.252	2455.33333
1393.429	2374
1396.605	2307.66667
1399.777	2211.33333
1402.948	2184
1406.116	2183.33333
1409.282	2162.33333
1412.445	2165.33333
1415.606	2191
1418.765	2208.33333
1421.921	2247.66667
1425.075	2291.66667
1428.227	2365
1431.376	2463
1434.524	2555
1437.668	2648
1440.811	2703.33333
1443.951	2678.66667
1447.089	2679.66667
1450.224	2685.66667
1453.357	2662
1456.488	2667
1459.617	2615
1462.743	2569
1465.867	2501.33333
1468.989	2480
1472.108	2449
1475.225	2403
1478.34	2382.33333
1481.453	2396
1484.563	2392.66667
1487.671	2419.66667
1490.776	2434.66667
1493.88	2461.66667
1496.981	2498.33333
1500.08	2535.33333
1503.176	2563.66667
1506.271	2596.33333
1509.363	2638.66667
1512.452	2641
1515.54	2672.66667
1518.625	2742
1521.708	2776.33333
1524.789	2853
1527.867	2941
1530.944	3128.66667
1534.018	3248.33333
1537.089	3347.66667
1540.159	3395
1543.226	3344.33333
1546.291	3254.66667
1549.354	3191
1552.415	3125
1555.473	3043.33333
1558.529	3003
1561.583	2955
1564.634	2963.66667
1567.684	2955.66667
1570.731	3005.33333
1573.776	3034
1576.819	3121.66667
1579.859	3139.66667
1582.898	3168
1585.934	3201
1588.968	3241.66667
1591.999	3190.66667
1595.029	3190
1598.056	3207.66667
1601.081	3230.66667
1604.104	3181.33333
1607.125	3199.66667
1610.144	3123
1613.16	3067.66667
1616.174	3008
1619.186	2950.66667
1622.196	2910.66667
1625.203	2866.66667
1628.209	2815.33333
1631.212	2788
1634.213	2828
1637.212	2871.33333
1640.209	2863.33333
1643.203	2813
1646.196	2699.66667
1649.186	2583.33333
1652.174	2492
1655.16	2379
1658.144	2308.33333
1661.125	2209
1664.105	2088.33333
1667.082	1970.66667
1670.057	1871.66667
1673.03	1775.66667
1676.001	1652.66667
1678.97	1550
1681.937	1457.66667
1684.901	1378.66667
1687.863	1340
1690.824	1273.33333
1693.782	1255.33333
1696.738	1192.33333
1699.692	1170
1702.643	1144
1705.593	1132.33333
1708.54	1136.66667
1711.486	1111.66667
1714.429	1081.66667
1717.37	1097.66667
1720.309	1071.66667
1723.246	1064.33333
1726.181	1062.66667
1729.113	1052.33333
1732.044	1045.66667
1734.972	1041.66667
1737.899	1037.66667
1740.823	1040.33333
1743.745	1035.66667
1746.665	994.66667
1749.583	980.66667
1752.499	962.33333
1755.413	958.33333
1758.325	946.66667
1761.235	941.66667
1764.142	913.33333
1767.048	913
1769.951	911.33333
1772.852	910.33333
1775.752	904.33333
1778.649	904
1781.544	906.66667
1784.437	883
1787.328	899
1790.217	881
1793.104	857.33333
1795.989	857
1798.872	867.66667
1801.753	865.66667
1804.631	869.33333
1807.508	875.66667
1810.383	873
1813.255	859.66667
1816.126	848.66667
1818.994	856.66667
1821.861	847
1824.725	855.66667
1827.587	840.66667
1830.448	842.66667
1833.306	820
1836.162	836
1839.017	830
1841.869	827.66667
1844.719	824.66667
1847.567	801
1850.414	797.33333
1853.258	793.66667
1856.1	818.66667
1858.94	824.33333
1861.778	809.33333
1864.614	807.66667
1867.448	798
1870.28	786.66667
1873.111	822.66667
1875.939	806
1878.765	813.66667
1881.589	801
1884.411	799.66667
1887.231	806.33333
1890.049	798.33333
1892.865	796.66667
1895.68	779.66667
1898.492	796
1901.302	777.66667
1904.11	781.66667
1906.916	778
1909.721	775.66667
1912.523	791.33333
1915.323	771.33333
1918.122	759.33333
1920.918	776.33333
1923.712	760.33333
1926.505	758.33333
1929.295	768
1932.084	769.33333
1934.87	756.66667
1937.655	762.33333
1940.438	752.66667
1943.218	760
1945.997	766
1948.774	774
1951.549	767.66667
1954.322	766.33333
1957.093	757
1959.862	756.66667
1962.629	751.33333
1965.394	757.33333
1968.157	733.33333
1970.918	744
1973.678	720.33333
1976.435	756.33333
1979.19	737
1981.944	726.66667
1984.696	734
1987.445	730.66667
1990.193	736
1992.939	740.33333
1995.683	729
1998.425	720
2001.165	741.33333
2003.903	714.66667
2006.639	721.66667
2009.374	740.33333
2012.106	729
2014.837	706.66667
2017.566	723.66667
2020.292	731.66667
2023.017	733.66667
2025.74	728
2028.461	722
2031.18	715
2033.898	720
2036.613	723
2039.327	715.33333
2042.038	698.33333
2044.748	717
2047.456	709.33333
2050.162	704.66667
2052.866	712
2055.568	721.66667
2058.268	699.33333
2060.967	711.66667
2063.663	709.66667
2066.358	711
2069.051	705.66667
2071.742	711.33333
2074.431	723.33333
2077.118	709.33333
2079.804	710.33333
2082.487	708
2085.169	719
2087.849	729.66667
2090.527	720.66667
2093.203	720.33333
2095.877	724
2098.55	711
2101.22	723.66667
2103.889	729.33333
2106.556	718.33333
2109.221	733
2111.884	735
2114.546	767.33333
2117.205	789
2119.863	823.33333
2122.519	844
2125.173	887.33333
2127.825	922.66667
2130.475	932.33333
2133.124	927
2135.771	899
2138.416	891
2141.059	833.33333
2143.7	822.33333
2146.339	797.66667
2148.977	764
2151.613	767.33333
2154.247	740.66667
2156.879	743.33333
2159.51	727.66667
2162.138	724.66667
2164.765	729.33333
2167.39	711.33333
2170.013	728
2172.634	724
2175.254	718
2177.872	740
2180.488	711.66667
2183.102	723.33333
2185.714	708.66667
2188.325	687.66667
2190.934	693.66667
2193.541	709
2196.146	691
2198.75	682
2201.351	680
2203.951	683
2206.549	694
2209.146	686.66667
2211.74	689.33333
2214.333	689.66667
2216.924	672.33333
2219.514	678
2222.101	672.33333
2224.687	683.66667
2227.271	681
2229.853	669.33333
2232.433	662.66667
2235.012	701
2237.589	687.33333
2240.164	701.66667
2242.738	694
2245.309	671.66667
2247.879	683
2250.448	691.66667
2253.014	668
2255.579	658
2258.142	671.33333
2260.703	661.33333
2263.262	662.33333
2265.82	666.66667
2268.376	667
2270.93	649.33333
2273.483	646
2276.033	668.66667
2278.583	649
2281.13	668.33333
2283.675	643.66667
2286.219	652.33333
2288.761	660
2291.302	657
2293.841	674
2296.377	653.66667
2298.913	655.33333
2301.446	669.66667
2303.978	654.66667
2306.508	663.33333
2309.037	659.33333
2311.563	656
2314.088	668
2316.612	656.33333
2319.133	668.66667
2321.653	669.33333
2324.171	661.33333
2326.688	680
2329.202	663.33333
2331.715	667.33333
2334.227	669.33333
2336.736	673.33333
2339.244	664.66667
2341.751	659.33333
2344.255	668
2346.758	665
2349.259	646.66667
2351.759	664.66667
2354.257	661
2356.753	660
2359.247	672.66667
2361.74	671.33333
2364.231	674.66667
2366.721	668.33333
2369.209	657.66667
2371.695	677
2374.179	676.33333
2376.662	662.33333
2379.143	688.66667
2381.622	674
2384.1	682.66667
2386.576	678
2389.051	690.66667
2391.524	689.66667
2393.995	694.66667
2396.464	687.66667
2398.932	683.66667
2401.398	685.33333
2403.863	693.33333
2406.325	678.33333
2408.787	678
2411.246	680.33333
2413.704	688
2416.16	689.33333
2418.615	693
2421.068	697.66667
2423.519	701
2425.969	681
2428.417	714.66667
2430.863	723
2433.308	708.33333
2435.751	699.66667
2438.193	695
2440.633	707.33333
2443.071	718.66667
2445.508	710.66667
2447.943	716
2450.376	703.66667
2452.808	721
2455.238	714.66667
2457.667	754
2460.093	717.66667
2462.519	725.66667
2464.942	724.66667
2467.365	719.33333
2469.785	723.66667
2472.204	724
2474.621	725.66667
2477.037	735
2479.451	710
2481.863	714.33333
2484.274	725.66667
2486.683	739.33333
2489.091	729
2491.497	743
2493.901	734
2496.304	731.66667
2498.705	743.66667
2501.105	738
2503.503	777
2505.899	738.33333
2508.294	755
2510.687	735.66667
2513.079	754.66667
2515.469	741.33333
2517.858	753
2520.245	759.66667
2522.63	742.33333
2525.014	751.33333
2527.396	737
2529.776	747
2532.156	772.33333
2534.533	753.33333
2536.909	764.66667
2539.283	745
2541.656	766.66667
2544.027	786.66667
2546.397	765.33333
2548.765	757.33333
2551.131	765
2553.496	770.66667
2555.86	771.66667
2558.221	771.66667
2560.582	775.33333
2562.94	775
2565.298	776.33333
2567.653	789.33333
2570.007	772.33333
2572.36	800.66667
2574.711	780.33333
2577.06	801.33333
2579.408	806.66667
2581.754	792.66667
2584.099	808.33333
2586.442	800
2588.784	807.33333
2591.124	809.33333
2593.463	812.66667
2595.8	808.33333
2598.135	811.33333
2600.469	800.66667
2602.802	816
2605.133	831
2607.462	806.66667
2609.79	799
2612.116	833.66667
2614.441	836
2616.764	842
2619.086	832.66667
2621.406	823
2623.725	852.33333
2626.042	832
2628.358	833
2630.672	843
2632.985	857.33333
2635.296	851.33333
2637.606	855
2639.914	844.33333
2642.22	859.66667
2644.525	862.33333
2646.829	872
2649.131	884.33333
2651.432	890.33333
2653.731	884.66667
2656.028	899
2658.324	890.66667
2660.619	885
2662.912	897.33333
2665.204	877.66667
2667.494	896.66667
2669.782	901.33333
2672.07	907.33333
2674.355	896.33333
2676.639	907.66667
2678.922	894.66667
2681.203	912
2683.483	874.33333
2685.761	895.33333
2688.038	911.66667
2690.313	925.66667
2692.587	905.66667
2694.859	915.33333
2697.13	911.66667
2699.399	925.66667
2701.667	931.66667
2703.933	932.33333
2706.198	937
2708.461	956.33333
2710.723	951
2712.984	946
2715.243	947.66667
2717.5	951.33333
2719.757	977
2722.011	959.66667
2724.264	985.33333
2726.516	987.33333
2728.766	975.66667
2731.015	996.33333
2733.262	987
2735.508	990
2737.753	999.33333
2739.996	983.33333
2742.237	989.66667
2744.477	991
2746.716	1002.66667
2748.953	982.66667
2751.189	996
2753.423	976.33333
2755.656	983
2757.887	973
2760.117	975
2762.346	960
2764.573	965.33333
2766.798	974.33333
2769.022	977.66667
2771.245	996.33333
2773.467	983.33333
2775.686	986
2777.905	997
2780.122	999
2782.337	1016.33333
2784.552	1000.33333
2786.764	1008.66667
2788.976	1028.66667
2791.186	1037
2793.394	1030.33333
2795.601	1027.66667
2797.807	1052.33333
2800.011	1052.33333
2802.214	1050.33333
2804.415	1058.33333
2806.615	1057.66667
2808.814	1057.33333
2811.011	1069.66667
2813.206	1061.66667
2815.401	1078.33333
2817.594	1062
2819.785	1081
2821.975	1082
2824.164	1085.66667
2826.351	1092.66667
2828.537	1111.33333
2830.722	1105
2832.905	1101.33333
2835.086	1139.66667
2837.267	1168
2839.445	1179.66667
2841.623	1185.33333
2843.799	1202.33333
2845.974	1251.33333
2848.147	1257.33333
2850.319	1284.66667
2852.489	1317.66667
2854.659	1320.33333
2856.826	1357.66667
2858.993	1360
2861.158	1339.66667
2863.321	1331.33333
2865.483	1362.33333
2867.644	1351.33333
2869.804	1334.33333
2871.962	1343.66667
2874.118	1346.33333
2876.274	1342.33333
2878.428	1335.33333
2880.58	1319
2882.731	1313
2884.881	1346
2887.03	1324.66667
2889.177	1322
2891.322	1352.33333
2893.467	1346.33333
2895.61	1347.66667
2897.751	1377
2899.892	1369.66667
2902.03	1389.66667
2904.168	1382.33333
2906.304	1382.66667
2908.439	1406.33333
2910.572	1393
2912.704	1421.66667
2914.835	1415.33333
2916.965	1421
2919.093	1431.66667
2921.219	1403.33333
2923.345	1430
2925.469	1402
2927.591	1411
2929.712	1375.33333
2931.832	1378.66667
2933.951	1364
2936.068	1348.66667
2938.184	1312.33333
2940.299	1309
2942.412	1298.33333
2944.524	1267.33333
2946.634	1285.66667
2948.744	1230.66667
2950.851	1270
2952.958	1237
2955.063	1246.66667
2957.167	1253.66667
2959.269	1216.33333
2961.371	1241
2963.471	1212.33333
2965.569	1232.33333
2967.666	1191.66667
2969.762	1195.66667
2971.857	1182.33333
2973.95	1169.66667
2976.042	1162
2978.133	1148.66667
2980.222	1122.66667
2982.31	1112
2984.396	1092.33333
2986.482	1112.33333
2988.566	1104
2990.648	1095.66667
2992.73	1114.33333
2994.81	1082.33333
2996.889	1101.33333
2998.966	1099
3001.042	1108.66667
3003.117	1097
3005.191	1096.33333
3007.263	1105
3009.334	1084
3011.403	1077
3013.472	1064.66667
3015.539	1072.33333
3017.604	1067.33333
3019.669	1031.66667
3021.732	1042.66667
3023.794	1028
3025.854	1028.33333
3027.914	1042.33333
3029.971	1035.66667
3032.028	1026.66667
3034.083	1030.33333
3036.137	1017.33333
3038.19	989.33333
3040.242	963.66667
3042.292	950
3044.341	941
3046.388	946.66667
3048.435	915.33333
3050.48	936.33333
3052.524	930.66667
3054.566	912
3056.607	922
3058.647	902
3060.686	860.66667
3062.723	841.33333
3064.759	823.33333
3066.794	-0
3068.828	3.33333
3070.86	1.33333
