-0.839	458.83333
3.438	559.5
7.711	166.83333
11.981	64.5
16.247	47.83333
20.509	53.16667
24.768	47.16667
29.024	58.16667
33.276	47.5
37.524	50.83333
41.769	49.5
46.01	35.5
50.247	50.5
54.481	60.83333
58.712	66.16667
62.939	51.83333
67.162	66.5
71.382	62.83333
75.599	46.5
79.812	63.5
84.021	81.16667
88.227	66.5
92.429	67.83333
96.628	55.83333
100.823	75.5
105.015	77.83333
109.204	71.83333
113.388	81.16667
117.57	85.16667
121.748	92.16667
125.922	86.83333
130.093	105.16667
134.261	103.16667
138.425	107.16667
142.585	145.16667
146.742	141.5
150.896	169.16667
155.046	215.83333
159.193	332.5
163.336	558.16667
167.476	1025.16667
171.613	1852.5
175.746	3100.5
179.875	4620.5
184.002	6091.5
188.124	7127.5
192.244	7588.16667
196.36	7639.5
200.472	7538.5
204.581	7394.5
208.687	7335.83333
212.79	7345.16667
216.889	7370.83333
220.984	7488.16667
225.077	7627.83333
229.165	7696.16667
233.251	7755.5
237.333	7793.5
241.412	7740.83333
245.487	7720.5
249.559	7652.5
253.628	7611.16667
257.694	7512.83333
261.756	7444.5
265.814	7271.16667
269.87	7013.83333
273.922	6776.5
277.97	6586.16667
282.016	6426.16667
286.058	6402.16667
290.097	6477.5
294.132	6482.5
298.164	6384.5
302.193	6082.83333
306.219	5710.16667
310.241	5268.5
314.26	4922.16667
318.276	4619.16667
322.288	4446.16667
326.297	4218.83333
330.303	4134.5
334.305	4027.83333
338.305	3959.83333
342.301	3935.5
346.294	3894.16667
350.283	3887.83333
354.269	3874.16667
358.252	3846.5
362.232	3816.83333
366.209	3810.16667
370.182	3778.83333
374.152	3737.83333
378.119	3778.16667
382.083	3778.16667
386.043	3784.83333
390	3746.5
393.954	3797.16667
397.905	3721.5
401.852	3757.5
405.797	3706.83333
409.738	3702.5
413.676	3724.16667
417.61	3730.83333
421.542	3689.83333
425.47	3638.16667
429.396	3619.16667
433.318	3610.5
437.236	3605.5
441.152	3621.83333
445.065	3564.83333
448.974	3534.16667
452.88	3540.16667
456.783	3507.83333
460.683	3500.83333
464.58	3515.16667
468.473	3521.16667
472.364	3516.5
476.251	3518.16667
480.135	3541.5
484.016	3595.16667
487.894	3591.5
491.769	3614.5
495.641	3604.16667
499.509	3626.5
503.375	3567.16667
507.237	3606.5
511.096	3580.5
514.952	3607.16667
518.805	3578.83333
522.655	3592.5
526.502	3593.16667
530.346	3579.16667
534.187	3590.16667
538.024	3596.5
541.859	3637.16667
545.69	3664.83333
549.519	3631.16667
553.344	3606.5
557.166	3576.83333
560.985	3547.83333
564.802	3482.83333
568.615	3419.83333
572.425	3352.5
576.232	3357.16667
580.036	3353.83333
583.836	3338.83333
587.634	3377.5
591.429	3383.5
595.221	3463.83333
599.01	3487.83333
602.796	3523.5
606.578	3541.16667
610.358	3522.5
614.135	3492.16667
617.909	3495.83333
621.679	3484.16667
625.447	3446.5
629.212	3420.83333
632.973	3443.5
636.732	3430.5
640.488	3413.5
644.241	3412.16667
647.991	3403.16667
651.737	3436.16667
655.481	3373.83333
659.222	3365.83333
662.96	3364.83333
666.695	3376.16667
670.427	3397.83333
674.156	3406.83333
677.882	3407.83333
681.605	3392.5
685.325	3351.83333
689.043	3360.5
692.757	3353.5
696.468	3330.83333
700.177	3305.5
703.882	3330.5
707.585	3296.5
711.284	3292.16667
714.981	3308.83333
718.675	3312.5
722.366	3297.5
726.054	3306.83333
729.739	3295.83333
733.421	3301.16667
737.1	3285.5
740.777	3309.16667
744.45	3334.16667
748.121	3364.83333
751.789	3415.16667
755.453	3403.5
759.115	3416.5
762.774	3470.83333
766.431	3470.83333
770.084	3506.16667
773.734	3530.16667
777.382	3594.83333
781.027	3608.83333
784.669	3672.83333
788.308	3663.16667
791.944	3666.16667
795.577	3633.16667
799.208	3664.5
802.835	3691.5
806.46	3701.5
810.082	3712.5
813.701	3723.5
817.317	3767.16667
820.931	3777.16667
824.542	3732.16667
828.149	3732.5
831.754	3707.5
835.357	3668.83333
838.956	3704.16667
842.553	3701.16667
846.146	3681.16667
849.737	3647.5
853.326	3658.83333
856.911	3658.16667
860.493	3694.5
864.073	3727.16667
867.65	3763.5
871.225	3816.5
874.796	3800.16667
878.365	3787.83333
881.931	3813.83333
885.494	3864.83333
889.054	3829.16667
892.612	3860.5
896.166	3821.83333
899.719	3787.83333
903.268	3732.5
906.814	3711.5
910.358	3678.5
913.899	3649.83333
917.438	3655.83333
920.973	3645.83333
924.506	3667.83333
928.036	3748.5
931.564	3786.16667
935.088	3810.5
938.61	3804.5
942.129	3867.5
945.646	3963.83333
949.16	3973.83333
952.671	4037.16667
956.179	4044.5
959.685	4002.16667
963.188	3998.83333
966.688	3940.5
970.185	3847.5
973.68	3789.16667
977.173	3737.83333
980.662	3713.83333
984.149	3745.16667
987.633	3686.5
991.114	3785.16667
994.593	3846.5
998.069	3946.83333
1001.542	4070.16667
1005.013	4002.16667
1008.481	3774.5
1011.947	3705.83333
1015.409	3678.16667
1018.869	3669.83333
1022.327	3681.5
1025.782	3638.83333
1029.234	3621.83333
1032.683	3581.5
1036.13	3461.5
1039.574	3356.16667
1043.016	3264.5
1046.455	3206.5
1049.891	3167.16667
1053.325	3184.83333
1056.756	3192.5
1060.184	3209.5
1063.61	3234.16667
1067.033	3252.83333
1070.454	3244.16667
1073.872	3268.16667
1077.287	3248.16667
1080.7	3282.5
1084.11	3244.5
1087.517	3223.5
1090.922	3175.16667
1094.325	3159.83333
1097.724	3142.16667
1101.122	3140.16667
1104.516	3155.5
1107.908	3121.83333
1111.298	3189.83333
1114.684	3212.5
1118.069	3248.83333
1121.45	3293.16667
1124.83	3258.83333
1128.206	3310.83333
1131.58	3360.16667
1134.951	3403.5
1138.32	3495.16667
1141.687	3617.16667
1145.05	3705.5
1148.412	3743.16667
1151.77	3736.5
1155.126	3722.5
1158.48	3688.5
1161.831	3683.5
1165.18	3761.5
1168.525	3795.16667
1171.869	3826.83333
1175.21	3845.16667
1178.548	3903.83333
1181.884	3949.5
1185.217	3962.83333
1188.548	4045.83333
1191.877	4091.5
1195.202	4188.16667
1198.526	4271.16667
1201.846	4283.5
1205.165	4293.5
1208.48	4230.83333
1211.794	4192.83333
1215.104	4242.83333
1218.413	4210.83333
1221.719	4230.5
1225.022	4158.83333
1228.323	4112.5
1231.621	4072.5
1234.917	4065.5
1238.21	4076.5
1241.501	4067.83333
1244.79	4084.5
1248.076	4032.83333
1251.359	4105.83333
1254.64	4167.5
1257.919	4199.16667
1261.195	4281.16667
1264.468	4374.83333
1267.74	4414.5
1271.008	4420.5
1274.275	4397.16667
1277.538	4365.5
1280.8	4352.16667
1284.059	4312.5
1287.315	4365.16667
1290.569	4340.16667
1293.821	4398.16667
1297.07	4438.5
1300.317	4427.16667
1303.562	4408.16667
1306.803	4374.83333
1310.043	4356.83333
1313.28	4315.16667
1316.515	4270.5
1319.747	4213.83333
1322.977	4194.5
1326.204	4119.5
1329.429	4050.16667
1332.652	4037.16667
1335.872	4018.16667
1339.09	4007.5
1342.306	3945.16667
1345.519	3939.83333
1348.729	3918.16667
1351.938	3887.5
1355.144	3842.83333
1358.347	3780.83333
1361.548	3768.5
1364.747	3769.83333
1367.944	3705.5
1371.138	3729.16667
1374.329	3708.83333
1377.518	3753.83333
1380.705	3799.5
1383.89	3785.5
1387.072	3662.16667
1390.252	3523.16667
1393.429	3404.5
1396.605	3318.83333
1399.777	3224.83333
1402.948	3179.5
1406.116	3169.5
1409.282	3146.16667
1412.445	3145.16667
1415.606	3183.16667
1418.765	3231.16667
1421.921	3277.83333
1425.075	3383.5
1428.227	3462.5
1431.376	3620.16667
1434.524	3732.16667
1437.668	3816.83333
1440.811	3884.16667
1443.951	3895.83333
1447.089	3916.83333
1450.224	3880.5
1453.357	3871.83333
1456.488	3856.83333
1459.617	3799.5
1462.743	3747.16667
1465.867	3644.83333
1468.989	3608.83333
1472.108	3542.5
1475.225	3483.5
1478.34	3429.83333
1481.453	3417.5
1484.563	3451.83333
1487.671	3506.16667
1490.776	3561.83333
1493.88	3618.16667
1496.981	3646.5
1500.08	3724.5
1503.176	3763.5
1506.271	3839.5
1509.363	3864.16667
1512.452	3876.5
1515.54	3924.16667
1518.625	4014.5
1521.708	4084.5
1524.789	4219.83333
1527.867	4415.16667
1530.944	4627.83333
1534.018	4836.83333
1537.089	5024.83333
1540.159	5079.83333
1543.226	5032.16667
1546.291	4981.83333
1549.354	4841.5
1552.415	4771.16667
1555.473	4611.5
1558.529	4554.83333
1561.583	4511.5
1564.634	4473.5
1567.684	4453.5
1570.731	4463.5
1573.776	4518.16667
1576.819	4579.16667
1579.859	4602.83333
1582.898	4654.83333
1585.934	4668.83333
1588.968	4692.83333
1591.999	4704.16667
1595.029	4713.83333
1598.056	4753.5
1601.081	4777.83333
1604.104	4740.83333
1607.125	4727.16667
1610.144	4583.16667
1613.16	4485.83333
1616.174	4395.83333
1619.186	4294.5
1622.196	4172.83333
1625.203	4115.5
1628.209	4001.16667
1631.212	3949.83333
1634.213	3916.83333
1637.212	3919.83333
1640.209	3855.16667
1643.203	3771.16667
1646.196	3635.16667
1649.186	3511.83333
1652.174	3355.5
1655.16	3237.5
1658.144	3140.16667
1661.125	3004.83333
1664.105	2857.5
1667.082	2762.5
1670.057	2630.16667
1673.03	2471.5
1676.001	2322.5
1678.97	2201.16667
1681.937	2075.83333
1684.901	1958.5
1687.863	1878.83333
1690.824	1811.5
1693.782	1775.83333
1696.738	1710.83333
1699.692	1671.83333
1702.643	1622.5
1705.593	1608.83333
1708.54	1584.16667
1711.486	1571.16667
1714.429	1534.83333
1717.37	1539.5
1720.309	1514.5
1723.246	1500.16667
1726.181	1471.16667
1729.113	1486.5
1732.044	1445.5
1734.972	1420.83333
1737.899	1433.16667
1740.823	1439.83333
1743.745	1415.5
1746.665	1375.83333
1749.583	1343.83333
1752.499	1320.83333
1755.413	1308.5
1758.325	1303.5
1761.235	1285.83333
1764.142	1262.16667
1767.048	1242.83333
1769.951	1241.5
1772.852	1242.83333
1775.752	1232.83333
1778.649	1218.16667
1781.544	1213.5
1784.437	1188.83333
1787.328	1204.5
1790.217	1167.83333
1793.104	1165.5
1795.989	1168.16667
1798.872	1161.83333
1801.753	1172.83333
1804.631	1166.83333
1807.508	1166.5
1810.383	1153.5
1813.255	1135.5
1816.126	1140.83333
1818.994	1133.83333
1821.861	1135.16667
1824.725	1129.83333
1827.587	1110.5
1830.448	1113.5
1833.306	1077.5
1836.162	1097.16667
1839.017	1078.5
1841.869	1077.16667
1844.719	1084.83333
1847.567	1063.5
1850.414	1057.5
1853.258	1060.16667
1856.1	1075.16667
1858.94	1063.83333
1861.778	1053.83333
1864.614	1047.5
1867.448	1048.5
1870.28	1036.83333
1873.111	1073.83333
1875.939	1048.16667
1878.765	1068.16667
1881.589	1049.16667
1884.411	1038.83333
1887.231	1041.83333
1890.049	1028.5
1892.865	1016.5
1895.68	1013.16667
1898.492	1029.83333
1901.302	1021.5
1904.11	1012.16667
1906.916	999.5
1909.721	972.83333
1912.523	996.16667
1915.323	978.16667
1918.122	983.16667
1920.918	987.5
1923.712	977.83333
1926.505	965.5
1929.295	953.83333
1932.084	979.16667
1934.87	975.16667
1937.655	957.16667
1940.438	960.5
1943.218	956.16667
1945.997	963.83333
1948.774	971.83333
1951.549	967.5
1954.322	951.83333
1957.093	937.83333
1959.862	934.5
1962.629	943.5
1965.394	937.83333
1968.157	919.83333
1970.918	925.16667
1973.678	910.5
1976.435	922.16667
1979.19	916.16667
1981.944	899.83333
1984.696	917.5
1987.445	889.83333
1990.193	903.5
1992.939	910.16667
1995.683	894.5
1998.425	879.16667
2001.165	904.16667
2003.903	878.83333
2006.639	883.5
2009.374	899.5
2012.106	891.5
2014.837	866.16667
2017.566	890.5
2020.292	877.16667
2023.017	875.5
2025.74	864.5
2028.461	874.16667
2031.18	860.5
2033.898	854.83333
2036.613	862.5
2039.327	864.83333
2042.038	849.83333
2044.748	837.83333
2047.456	857.16667
2050.162	827.16667
2052.866	833.83333
2055.568	843.83333
2058.268	835.5
2060.967	846.16667
2063.663	819.16667
2066.358	820.83333
2069.051	821.16667
2071.742	822.83333
2074.431	837.5
2077.118	827.16667
2079.804	820.83333
2082.487	830.16667
2085.169	837.16667
2087.849	855.5
2090.527	820.16667
2093.203	818.83333
2095.877	848.83333
2098.55	827.5
2101.22	836.5
2103.889	850.5
2106.556	856.83333
2109.221	875.5
2111.884	893.16667
2114.546	951.83333
2117.205	999.5
2119.863	1078.83333
2122.519	1132.83333
2125.173	1218.16667
2127.825	1287.5
2130.475	1305.16667
2133.124	1274.5
2135.771	1230.5
2138.416	1182.83333
2141.059	1102.83333
2143.7	1066.83333
2146.339	1004.5
2148.977	944.16667
2151.613	927.16667
2154.247	901.5
2156.879	874.83333
2159.51	855.16667
2162.138	844.83333
2164.765	833.83333
2167.39	815.83333
2170.013	818.83333
2172.634	804.16667
2175.254	792.5
2177.872	812.83333
2180.488	772.5
2183.102	784.16667
2185.714	763.83333
2188.325	738.16667
2190.934	741.5
2193.541	754.16667
2196.146	736.5
2198.75	718.83333
2201.351	715.16667
2203.951	701.16667
2206.549	725.83333
2209.146	707.16667
2211.74	708.16667
2214.333	705.83333
2216.924	682.16667
2219.514	690.5
2222.101	681.5
2224.687	697.16667
2227.271	680.16667
2229.853	670.83333
2232.433	661.83333
2235.012	684.83333
2237.589	673.83333
2240.164	676.5
2242.738	655.83333
2245.309	652.16667
2247.879	659.5
2250.448	659.5
2253.014	641.16667
2255.579	620.16667
2258.142	621.5
2260.703	623.16667
2263.262	621.16667
2265.82	606.5
2268.376	628.83333
2270.93	602.16667
2273.483	598.83333
2276.033	614.83333
2278.583	595.16667
2281.13	598.16667
2283.675	576.83333
2286.219	596.5
2288.761	603.5
2291.302	595.16667
2293.841	598.83333
2296.377	573.83333
2298.913	580.16667
2301.446	580.83333
2303.978	576.5
2306.508	564.16667
2309.037	569.16667
2311.563	573.16667
2314.088	581.5
2316.612	558.5
2319.133	565.16667
2321.653	558.16667
2324.171	549.83333
2326.688	577.16667
2329.202	541.83333
2331.715	558.5
2334.227	543.16667
2336.736	547.16667
2339.244	541.83333
2341.751	534.16667
2344.255	542.5
2346.758	542.16667
2349.259	517.16667
2351.759	542.16667
2354.257	529.83333
2356.753	520.83333
2359.247	535.5
2361.74	535.5
2364.231	527.5
2366.721	525.5
2369.209	524.5
2371.695	526.83333
2374.179	521.16667
2376.662	505.83333
2379.143	528.16667
2381.622	514.83333
2384.1	524.5
2386.576	512.16667
2389.051	523.16667
2391.524	517.5
2393.995	522.16667
2396.464	496.5
2398.932	507.5
2401.398	495.5
2403.863	498.16667
2406.325	489.16667
2408.787	500.5
2411.246	492.5
2413.704	494.83333
2416.16	489.83333
2418.615	482.5
2421.068	496.83333
2423.519	489.83333
2425.969	477.83333
2428.417	487.83333
2430.863	498.16667
2433.308	495.5
2435.751	487.83333
2438.193	488.83333
2440.633	485.83333
2443.071	489.83333
2445.508	474.83333
2447.943	469.83333
2450.376	465.5
2452.808	476.5
2455.238	460.5
2457.667	499.5
2460.093	465.16667
2462.519	450.16667
2464.942	461.5
2467.365	463.16667
2469.785	476.16667
2472.204	457.16667
2474.621	448.16667
2477.037	476.83333
2479.451	445.16667
2481.863	430.83333
2484.274	451.16667
2486.683	449.5
2489.091	455.16667
2491.497	444.83333
2493.901	444.5
2496.304	452.16667
2498.705	449.83333
2501.105	440.83333
2503.503	476.83333
2505.899	425.16667
2508.294	452.16667
2510.687	440.16667
2513.079	434.83333
2515.469	433.83333
2517.858	442.83333
2520.245	445.5
2522.63	427.83333
2525.014	427.5
2527.396	431.16667
2529.776	412.5
2532.156	434.83333
2534.533	419.16667
2536.909	419.83333
2539.283	410.16667
2541.656	412.83333
2544.027	433.83333
2546.397	419.16667
2548.765	414.5
2551.131	413.16667
2553.496	418.16667
2555.86	420.83333
2558.221	409.16667
2560.582	407.16667
2562.94	397.5
2565.298	408.83333
2567.653	419.83333
2570.007	401.16667
2572.36	410.16667
2574.711	395.83333
2577.06	413.5
2579.408	410.16667
2581.754	401.5
2584.099	410.16667
2586.442	403.5
2588.784	405.16667
2591.124	404.16667
2593.463	392.5
2595.8	409.83333
2598.135	390.5
2600.469	401.16667
2602.802	406.5
2605.133	410.5
2607.462	392.16667
2609.79	385.16667
2612.116	401.16667
2614.441	393.5
2616.764	397.16667
2619.086	390.83333
2621.406	380.5
2623.725	402.5
2626.042	399.83333
2628.358	385.16667
2630.672	374.16667
2632.985	396.16667
2635.296	391.83333
2637.606	390.5
2639.914	377.83333
2642.22	387.5
2644.525	385.83333
2646.829	384.16667
2649.131	402.83333
2651.432	403.83333
2653.731	385.5
2656.028	396.5
2658.324	398.83333
2660.619	391.83333
2662.912	407.83333
2665.204	379.5
2667.494	395.83333
2669.782	382.83333
2672.07	388.5
2674.355	395.83333
2676.639	386.83333
2678.922	374.5
2681.203	384.16667
2683.483	374.16667
2685.761	376.16667
2688.038	384.16667
2690.313	404.5
2692.587	393.5
2694.859	392.5
2697.13	391.5
2699.399	403.5
2701.667	406.83333
2703.933	401.5
2706.198	399.83333
2708.461	414.5
2710.723	417.83333
2712.984	409.5
2715.243	403.83333
2717.5	401.5
2719.757	421.83333
2722.011	411.5
2724.264	419.16667
2726.516	421.5
2728.766	418.16667
2731.015	413.5
2733.262	417.16667
2735.508	421.83333
2737.753	412.5
2739.996	398.83333
2742.237	401.83333
2744.477	410.83333
2746.716	408.83333
2748.953	392.83333
2751.189	397.83333
2753.423	398.5
2755.656	391.83333
2757.887	392.5
2760.117	390.83333
2762.346	374.16667
2764.573	370.83333
2766.798	383.16667
2769.022	379.83333
2771.245	396.16667
2773.467	379.5
2775.686	389.83333
2777.905	387.5
2780.122	389.5
2782.337	398.5
2784.552	391.16667
2786.764	400.16667
2788.976	392.83333
2791.186	399.16667
2793.394	415.5
2795.601	406.16667
2797.807	421.5
2800.011	422.83333
2802.214	429.5
2804.415	429.16667
2806.615	433.83333
2808.814	423.16667
2811.011	441.83333
2813.206	448.16667
2815.401	465.16667
2817.594	464.5
2819.785	476.5
2821.975	463.5
2824.164	473.16667
2826.351	488.5
2828.537	499.16667
2830.722	513.16667
2832.905	525.16667
2835.086	544.83333
2837.267	584.83333
2839.445	585.83333
2841.623	618.5
2843.799	639.5
2845.974	671.5
2848.147	701.83333
2850.319	730.83333
2852.489	761.5
2854.659	765.16667
2856.826	781.5
2858.993	819.5
2861.158	799.16667
2863.321	789.83333
2865.483	807.16667
2867.644	812.16667
2869.804	803.5
2871.962	806.16667
2874.118	811.16667
2876.274	804.16667
2878.428	808.5
2880.58	795.83333
2882.731	795.16667
2884.881	795.5
2887.03	797.83333
2889.177	798.83333
2891.322	816.16667
2893.467	805.5
2895.61	815.16667
2897.751	840.83333
2899.892	823.16667
2902.03	828.5
2904.168	848.5
2906.304	834.5
2908.439	859.5
2910.572	833.5
2912.704	861.83333
2914.835	858.5
2916.965	858.16667
2919.093	865.16667
2921.219	845.16667
2923.345	858.83333
2925.469	825.5
2927.591	820.83333
2929.712	803.16667
2931.832	797.5
2933.951	782.83333
2936.068	767.5
2938.184	737.5
2940.299	723.16667
2942.412	697.5
2944.524	672.5
2946.634	660.5
2948.744	601.83333
2950.851	628.5
2952.958	583.16667
2955.063	581.83333
2957.167	559.83333
2959.269	528.5
2961.371	553.16667
2963.471	497.5
2965.569	516.16667
2967.666	481.5
2969.762	470.5
2971.857	459.5
2973.95	446.83333
2976.042	438.5
2978.133	431.16667
2980.222	414.16667
2982.31	404.5
2984.396	385.16667
2986.482	383.83333
2988.566	378.83333
2990.648	373.83333
2992.73	362.16667
2994.81	359.16667
2996.889	357.16667
2998.966	351.5
3001.042	357.16667
3003.117	350.16667
3005.191	343.83333
3007.263	335.83333
3009.334	336.83333
3011.403	336.83333
3013.472	319.83333
3015.539	323.16667
3017.604	331.5
3019.669	299.5
3021.732	303.16667
3023.794	305.16667
3025.854	311.5
3027.914	285.83333
3029.971	305.5
3032.028	298.5
3034.083	296.16667
3036.137	286.16667
3038.19	281.5
3040.242	268.83333
3042.292	266.5
3044.341	261.5
3046.388	278.83333
3048.435	247.5
3050.48	273.83333
3052.524	261.16667
3054.566	254.16667
3056.607	262.83333
3058.647	245.16667
3060.686	241.83333
3062.723	227.16667
3064.759	218.83333
3066.794	-0.83333
3068.828	2.83333
3070.86	2.83333
