-0.839	464.45833
3.438	566.45833
7.711	163.45833
11.981	65.45833
16.247	49.125
20.509	52.79167
24.768	47.45833
29.024	56.45833
33.276	47.79167
37.524	56.125
41.769	53.45833
46.01	34.45833
50.247	51.125
54.481	65.79167
58.712	61.45833
62.939	51.125
67.162	65.125
71.382	62.45833
75.599	51.45833
79.812	66.45833
84.021	79.79167
88.227	59.125
92.429	65.79167
96.628	54.125
100.823	73.45833
105.015	78.45833
109.204	68.45833
113.388	75.79167
117.57	82.125
121.748	89.125
125.922	84.45833
130.093	107.79167
134.261	110.125
138.425	102.45833
142.585	144.79167
146.742	140.45833
150.896	172.79167
155.046	211.45833
159.193	324.125
163.336	549.79167
167.476	998.45833
171.613	1849.79167
175.746	3097.45833
179.875	4633.45833
184.002	6072.45833
188.124	7106.79167
192.244	7590.45833
196.36	7561.79167
200.472	7505.45833
204.581	7337.125
208.687	7307.125
212.79	7290.45833
216.889	7357.125
220.984	7459.79167
225.077	7543.45833
229.165	7701.45833
233.251	7683.79167
237.333	7742.79167
241.412	7693.45833
245.487	7675.125
249.559	7547.79167
253.628	7580.125
257.694	7474.45833
261.756	7422.79167
265.814	7194.79167
269.87	6980.125
273.922	6689.45833
277.97	6541.79167
282.016	6395.125
286.058	6368.125
290.097	6401.45833
294.132	6426.79167
298.164	6344.125
302.193	6036.79167
306.219	5616.45833
310.241	5236.45833
314.26	4861.45833
318.276	4573.125
322.288	4357.45833
326.297	4181.45833
330.303	4097.79167
334.305	3982.45833
338.305	3949.79167
342.301	3879.125
346.294	3832.79167
350.283	3835.79167
354.269	3824.125
358.252	3784.125
362.232	3782.125
366.209	3771.79167
370.182	3735.45833
374.152	3707.125
378.119	3721.45833
382.083	3710.45833
386.043	3724.125
390	3711.79167
393.954	3696.125
397.905	3672.125
401.852	3676.45833
405.797	3638.125
409.738	3641.79167
413.676	3638.45833
417.61	3642.79167
421.542	3628.45833
425.47	3592.125
429.396	3547.79167
433.318	3536.79167
437.236	3527.79167
441.152	3563.79167
445.065	3495.45833
448.974	3479.125
452.88	3481.125
456.783	3436.79167
460.683	3413.125
464.58	3458.125
468.473	3433.79167
472.364	3459.79167
476.251	3452.45833
480.135	3499.79167
484.016	3521.45833
487.894	3516.79167
491.769	3561.79167
495.641	3530.45833
499.509	3533.125
503.375	3551.79167
507.237	3540.79167
511.096	3509.79167
514.952	3542.125
518.805	3549.79167
522.655	3531.45833
526.502	3489.45833
530.346	3531.45833
534.187	3543.45833
538.024	3538.45833
541.859	3579.45833
545.69	3592.125
549.519	3584.125
553.344	3546.125
557.166	3515.79167
560.985	3464.79167
564.802	3431.125
568.615	3355.45833
572.425	3300.45833
576.232	3298.79167
580.036	3274.45833
583.836	3297.79167
587.634	3306.79167
591.429	3324.79167
595.221	3398.79167
599.01	3454.79167
602.796	3449.45833
606.578	3482.79167
610.358	3487.45833
614.135	3450.125
617.909	3416.125
621.679	3409.79167
625.447	3354.79167
629.212	3366.79167
632.973	3341.45833
636.732	3367.45833
640.488	3372.125
644.241	3341.45833
647.991	3340.79167
651.737	3339.79167
655.481	3318.79167
659.222	3310.125
662.96	3317.45833
666.695	3329.125
670.427	3325.79167
674.156	3356.45833
677.882	3350.79167
681.605	3328.125
685.325	3306.45833
689.043	3306.125
692.757	3301.79167
696.468	3314.45833
700.177	3293.125
703.882	3254.125
707.585	3263.79167
711.284	3244.45833
714.981	3254.45833
718.675	3253.45833
722.366	3266.79167
726.054	3225.45833
729.739	3261.125
733.421	3244.125
737.1	3241.125
740.777	3269.45833
744.45	3262.125
748.121	3329.45833
751.789	3361.45833
755.453	3378.45833
759.115	3357.79167
762.774	3377.45833
766.431	3424.79167
770.084	3455.79167
773.734	3473.125
777.382	3550.45833
781.027	3579.79167
784.669	3571.45833
788.308	3581.45833
791.944	3612.79167
795.577	3613.79167
799.208	3628.45833
802.835	3640.125
806.46	3664.79167
810.082	3669.125
813.701	3698.45833
817.317	3702.79167
820.931	3688.79167
824.542	3695.79167
828.149	3663.45833
831.754	3644.45833
835.357	3654.79167
838.956	3652.125
842.553	3647.125
846.146	3647.45833
849.737	3623.125
853.326	3607.125
856.911	3606.45833
860.493	3658.125
864.073	3698.79167
867.65	3737.125
871.225	3769.125
874.796	3747.79167
878.365	3767.79167
881.931	3777.45833
885.494	3821.45833
889.054	3821.125
892.612	3816.125
896.166	3814.125
899.719	3757.125
903.268	3718.45833
906.814	3669.125
910.358	3656.79167
913.899	3605.79167
917.438	3585.79167
920.973	3598.45833
924.506	3626.79167
928.036	3704.125
931.564	3738.45833
935.088	3785.125
938.61	3782.79167
942.129	3786.79167
945.646	3906.79167
949.16	3952.45833
952.671	4005.79167
956.179	3995.45833
959.685	3941.79167
963.188	3933.79167
966.688	3905.125
970.185	3775.79167
973.68	3737.79167
977.173	3702.125
980.662	3679.125
984.149	3663.79167
987.633	3649.79167
991.114	3724.125
994.593	3797.125
998.069	3873.125
1001.542	4041.125
1005.013	3939.125
1008.481	3749.79167
1011.947	3671.125
1015.409	3666.45833
1018.869	3640.45833
1022.327	3635.45833
1025.782	3635.125
1029.234	3590.45833
1032.683	3541.45833
1036.13	3421.79167
1039.574	3292.125
1043.016	3225.79167
1046.455	3196.125
1049.891	3130.125
1053.325	3137.125
1056.756	3164.45833
1060.184	3175.45833
1063.61	3219.79167
1067.033	3219.45833
1070.454	3200.45833
1073.872	3258.79167
1077.287	3235.125
1080.7	3213.45833
1084.11	3223.125
1087.517	3199.79167
1090.922	3170.125
1094.325	3103.125
1097.724	3121.79167
1101.122	3120.125
1104.516	3085.125
1107.908	3091.125
1111.298	3148.125
1114.684	3175.79167
1118.069	3213.45833
1121.45	3271.79167
1124.83	3236.79167
1128.206	3287.125
1131.58	3311.125
1134.951	3393.125
1138.32	3461.45833
1141.687	3606.45833
1145.05	3680.79167
1148.412	3736.79167
1151.77	3709.125
1155.126	3679.79167
1158.48	3694.79167
1161.831	3700.79167
1165.18	3719.45833
1168.525	3777.79167
1171.869	3812.125
1175.21	3840.125
1178.548	3857.125
1181.884	3896.45833
1185.217	3924.125
1188.548	4005.125
1191.877	4094.79167
1195.202	4168.79167
1198.526	4236.45833
1201.846	4243.79167
1205.165	4221.79167
1208.48	4213.79167
1211.794	4169.79167
1215.104	4179.45833
1218.413	4172.45833
1221.719	4176.45833
1225.022	4136.79167
1228.323	4068.79167
1231.621	4057.45833
1234.917	4056.79167
1238.21	4061.79167
1241.501	4051.125
1244.79	4036.45833
1248.076	4051.79167
1251.359	4079.79167
1254.64	4162.79167
1257.919	4183.45833
1261.195	4241.125
1264.468	4330.125
1267.74	4378.79167
1271.008	4382.45833
1274.275	4371.79167
1277.538	4330.79167
1280.8	4306.45833
1284.059	4289.125
1287.315	4321.79167
1290.569	4338.79167
1293.821	4356.45833
1297.07	4370.79167
1300.317	4370.45833
1303.562	4349.79167
1306.803	4336.79167
1310.043	4342.125
1313.28	4294.125
1316.515	4245.45833
1319.747	4207.45833
1322.977	4151.45833
1326.204	4100.125
1329.429	4026.79167
1332.652	4035.125
1335.872	3994.45833
1339.09	3959.125
1342.306	3942.45833
1345.519	3895.125
1348.729	3879.125
1351.938	3866.125
1355.144	3772.125
1358.347	3758.79167
1361.548	3726.45833
1364.747	3714.45833
1367.944	3674.125
1371.138	3674.125
1374.329	3705.79167
1377.518	3745.45833
1380.705	3773.79167
1383.89	3728.79167
1387.072	3633.79167
1390.252	3503.45833
1393.429	3394.125
1396.605	3288.45833
1399.777	3218.79167
1402.948	3163.125
1406.116	3139.125
1409.282	3128.125
1412.445	3112.79167
1415.606	3152.79167
1418.765	3205.45833
1421.921	3285.45833
1425.075	3325.45833
1428.227	3444.125
1431.376	3587.79167
1434.524	3680.79167
1437.668	3814.45833
1440.811	3864.45833
1443.951	3866.45833
1447.089	3878.125
1450.224	3892.45833
1453.357	3846.79167
1456.488	3827.79167
1459.617	3760.45833
1462.743	3725.45833
1465.867	3656.125
1468.989	3580.125
1472.108	3519.79167
1475.225	3439.45833
1478.34	3409.79167
1481.453	3406.125
1484.563	3432.125
1487.671	3483.45833
1490.776	3552.125
1493.88	3595.45833
1496.981	3661.79167
1500.08	3718.79167
1503.176	3780.45833
1506.271	3831.79167
1509.363	3850.45833
1512.452	3885.125
1515.54	3904.79167
1518.625	3953.45833
1521.708	4084.79167
1524.789	4222.45833
1527.867	4364.125
1530.944	4607.125
1534.018	4821.125
1537.089	5012.125
1540.159	5065.79167
1543.226	5021.45833
1546.291	4931.125
1549.354	4846.79167
1552.415	4715.79167
1555.473	4584.79167
1558.529	4533.45833
1561.583	4455.125
1564.634	4446.45833
1567.684	4418.45833
1570.731	4447.125
1573.776	4493.125
1576.819	4537.79167
1579.859	4568.79167
1582.898	4645.79167
1585.934	4697.45833
1588.968	4710.79167
1591.999	4698.45833
1595.029	4737.125
1598.056	4743.79167
1601.081	4756.45833
1604.104	4733.79167
1607.125	4702.45833
1610.144	4599.125
1613.16	4483.125
1616.174	4419.79167
1619.186	4278.125
1622.196	4148.79167
1625.203	4032.125
1628.209	3986.79167
1631.212	3918.125
1634.213	3888.45833
1637.212	3876.45833
1640.209	3798.79167
1643.203	3708.79167
1646.196	3635.79167
1649.186	3450.125
1652.174	3354.45833
1655.16	3194.45833
1658.144	3117.45833
1661.125	2976.45833
1664.105	2823.45833
1667.082	2742.125
1670.057	2596.125
1673.03	2458.125
1676.001	2311.45833
1678.97	2193.125
1681.937	2068.125
1684.901	1925.79167
1687.863	1873.79167
1690.824	1802.45833
1693.782	1764.125
1696.738	1684.79167
1699.692	1673.79167
1702.643	1610.79167
1705.593	1586.45833
1708.54	1551.79167
1711.486	1567.79167
1714.429	1531.45833
1717.37	1504.125
1720.309	1498.125
1723.246	1489.45833
1726.181	1475.45833
1729.113	1441.125
1732.044	1437.45833
1734.972	1428.125
1737.899	1432.45833
1740.823	1419.45833
1743.745	1423.125
1746.665	1375.79167
1749.583	1333.125
1752.499	1305.45833
1755.413	1295.45833
1758.325	1272.45833
1761.235	1263.125
1764.142	1247.79167
1767.048	1231.45833
1769.951	1236.125
1772.852	1236.79167
1775.752	1214.79167
1778.649	1221.125
1781.544	1218.45833
1784.437	1185.79167
1787.328	1197.79167
1790.217	1171.125
1793.104	1150.125
1795.989	1162.79167
1798.872	1142.79167
1801.753	1165.125
1804.631	1147.125
1807.508	1154.79167
1810.383	1151.125
1813.255	1132.45833
1816.126	1145.125
1818.994	1124.125
1821.861	1119.125
1824.725	1110.125
1827.587	1104.79167
1830.448	1102.45833
1833.306	1089.79167
1836.162	1093.79167
1839.017	1074.79167
1841.869	1071.125
1844.719	1052.79167
1847.567	1053.79167
1850.414	1030.45833
1853.258	1040.45833
1856.1	1061.125
1858.94	1057.79167
1861.778	1042.45833
1864.614	1039.79167
1867.448	1043.45833
1870.28	1034.79167
1873.111	1053.79167
1875.939	1045.79167
1878.765	1049.45833
1881.589	1023.125
1884.411	1028.125
1887.231	1010.79167
1890.049	1017.79167
1892.865	1029.125
1895.68	997.79167
1898.492	1019.45833
1901.302	998.45833
1904.11	999.125
1906.916	987.125
1909.721	976.79167
1912.523	982.125
1915.323	963.45833
1918.122	974.45833
1920.918	978.79167
1923.712	964.45833
1926.505	949.125
1929.295	954.125
1932.084	972.45833
1934.87	950.125
1937.655	965.125
1940.438	946.125
1943.218	945.79167
1945.997	965.45833
1948.774	969.79167
1951.549	958.125
1954.322	935.45833
1957.093	950.79167
1959.862	930.79167
1962.629	935.45833
1965.394	927.45833
1968.157	910.79167
1970.918	899.125
1973.678	896.45833
1976.435	926.125
1979.19	901.45833
1981.944	889.45833
1984.696	892.125
1987.445	894.79167
1990.193	897.45833
1992.939	909.79167
1995.683	896.125
1998.425	868.125
2001.165	908.125
2003.903	885.125
2006.639	878.79167
2009.374	889.125
2012.106	874.79167
2014.837	859.79167
2017.566	867.79167
2020.292	876.125
2023.017	874.79167
2025.74	869.79167
2028.461	858.79167
2031.18	859.45833
2033.898	845.125
2036.613	848.45833
2039.327	855.79167
2042.038	831.79167
2044.748	841.125
2047.456	839.79167
2050.162	830.45833
2052.866	827.79167
2055.568	850.79167
2058.268	828.45833
2060.967	833.45833
2063.663	811.45833
2066.358	810.45833
2069.051	811.125
2071.742	812.79167
2074.431	823.45833
2077.118	835.79167
2079.804	805.125
2082.487	820.79167
2085.169	824.79167
2087.849	844.45833
2090.527	808.125
2093.203	810.125
2095.877	827.45833
2098.55	825.79167
2101.22	846.45833
2103.889	836.45833
2106.556	834.79167
2109.221	864.45833
2111.884	892.79167
2114.546	952.125
2117.205	998.125
2119.863	1073.125
2122.519	1141.79167
2125.173	1213.79167
2127.825	1282.45833
2130.475	1298.79167
2133.124	1268.79167
2135.771	1218.79167
2138.416	1180.79167
2141.059	1101.45833
2143.7	1056.125
2146.339	989.45833
2148.977	944.79167
2151.613	926.125
2154.247	896.79167
2156.879	874.45833
2159.51	844.79167
2162.138	839.45833
2164.765	826.125
2167.39	800.125
2170.013	821.125
2172.634	801.45833
2175.254	785.125
2177.872	803.79167
2180.488	758.45833
2183.102	769.45833
2185.714	749.45833
2188.325	732.125
2190.934	745.79167
2193.541	736.45833
2196.146	736.125
2198.75	710.79167
2201.351	702.45833
2203.951	696.45833
2206.549	734.125
2209.146	705.45833
2211.74	697.45833
2214.333	697.79167
2216.924	676.125
2219.514	691.79167
2222.101	670.79167
2224.687	685.45833
2227.271	672.45833
2229.853	654.45833
2232.433	660.79167
2235.012	677.125
2237.589	667.79167
2240.164	680.45833
2242.738	653.45833
2245.309	652.125
2247.879	648.45833
2250.448	644.45833
2253.014	621.79167
2255.579	620.125
2258.142	626.79167
2260.703	609.45833
2263.262	616.125
2265.82	605.79167
2268.376	622.45833
2270.93	599.45833
2273.483	594.79167
2276.033	598.125
2278.583	601.125
2281.13	583.79167
2283.675	584.125
2286.219	588.45833
2288.761	589.45833
2291.302	587.125
2293.841	589.125
2296.377	572.125
2298.913	567.79167
2301.446	586.45833
2303.978	571.79167
2306.508	553.125
2309.037	566.79167
2311.563	561.79167
2314.088	577.125
2316.612	545.125
2319.133	556.45833
2321.653	551.125
2324.171	548.125
2326.688	556.45833
2329.202	544.125
2331.715	548.45833
2334.227	554.125
2336.736	540.45833
2339.244	529.79167
2341.751	524.125
2344.255	531.79167
2346.758	532.45833
2349.259	520.45833
2351.759	531.45833
2354.257	520.45833
2356.753	519.45833
2359.247	519.45833
2361.74	522.45833
2364.231	519.125
2366.721	530.125
2369.209	513.79167
2371.695	524.125
2374.179	513.79167
2376.662	509.125
2379.143	521.125
2381.622	510.125
2384.1	516.125
2386.576	505.125
2389.051	515.79167
2391.524	519.79167
2393.995	513.79167
2396.464	508.125
2398.932	500.125
2401.398	499.125
2403.863	498.79167
2406.325	480.45833
2408.787	498.125
2411.246	497.125
2413.704	480.45833
2416.16	489.45833
2418.615	483.125
2421.068	499.79167
2423.519	485.45833
2425.969	477.125
2428.417	482.45833
2430.863	502.45833
2433.308	487.125
2435.751	478.79167
2438.193	474.79167
2440.633	474.125
2443.071	478.125
2445.508	476.79167
2447.943	463.79167
2450.376	468.79167
2452.808	466.125
2455.238	463.45833
2457.667	498.125
2460.093	464.125
2462.519	454.125
2464.942	460.45833
2467.365	468.79167
2469.785	465.45833
2472.204	459.79167
2474.621	448.45833
2477.037	468.45833
2479.451	446.125
2481.863	430.79167
2484.274	437.45833
2486.683	443.45833
2489.091	447.125
2491.497	449.79167
2493.901	440.125
2496.304	439.125
2498.705	454.45833
2501.105	433.45833
2503.503	467.125
2505.899	427.79167
2508.294	450.125
2510.687	429.79167
2513.079	429.125
2515.469	431.45833
2517.858	426.45833
2520.245	437.45833
2522.63	429.125
2525.014	427.45833
2527.396	420.125
2529.776	415.45833
2532.156	427.79167
2534.533	413.45833
2536.909	405.125
2539.283	414.45833
2541.656	407.125
2544.027	437.45833
2546.397	416.79167
2548.765	409.45833
2551.131	408.45833
2553.496	409.79167
2555.86	419.79167
2558.221	402.45833
2560.582	401.125
2562.94	393.125
2565.298	405.79167
2567.653	418.79167
2570.007	394.125
2572.36	419.125
2574.711	399.45833
2577.06	413.45833
2579.408	402.79167
2581.754	402.45833
2584.099	407.45833
2586.442	397.45833
2588.784	401.45833
2591.124	401.45833
2593.463	395.45833
2595.8	411.45833
2598.135	381.45833
2600.469	391.45833
2602.802	404.79167
2605.133	405.45833
2607.462	393.45833
2609.79	379.45833
2612.116	396.125
2614.441	395.45833
2616.764	396.125
2619.086	383.79167
2621.406	376.79167
2623.725	407.79167
2626.042	399.125
2628.358	377.45833
2630.672	380.125
2632.985	405.79167
2635.296	392.45833
2637.606	386.45833
2639.914	371.79167
2642.22	376.45833
2644.525	379.45833
2646.829	395.125
2649.131	400.125
2651.432	394.45833
2653.731	391.79167
2656.028	404.45833
2658.324	394.45833
2660.619	382.79167
2662.912	395.45833
2665.204	382.79167
2667.494	387.79167
2669.782	382.45833
2672.07	392.79167
2674.355	396.79167
2676.639	388.45833
2678.922	379.45833
2681.203	386.79167
2683.483	371.79167
2685.761	373.125
2688.038	388.45833
2690.313	397.79167
2692.587	396.45833
2694.859	377.45833
2697.13	389.79167
2699.399	395.125
2701.667	410.79167
2703.933	395.45833
2706.198	398.79167
2708.461	408.125
2710.723	407.125
2712.984	409.125
2715.243	405.125
2717.5	403.125
2719.757	414.45833
2722.011	406.79167
2724.264	410.45833
2726.516	427.45833
2728.766	408.79167
2731.015	415.45833
2733.262	412.79167
2735.508	410.45833
2737.753	409.45833
2739.996	397.125
2742.237	391.125
2744.477	408.125
2746.716	406.125
2748.953	394.125
2751.189	402.79167
2753.423	383.125
2755.656	381.125
2757.887	385.79167
2760.117	385.79167
2762.346	382.79167
2764.573	374.125
2766.798	375.45833
2769.022	380.79167
2771.245	391.79167
2773.467	385.125
2775.686	387.45833
2777.905	389.45833
2780.122	394.79167
2782.337	399.125
2784.552	397.125
2786.764	393.79167
2788.976	395.45833
2791.186	394.79167
2793.394	411.125
2795.601	416.125
2797.807	424.79167
2800.011	431.45833
2802.214	419.79167
2804.415	429.45833
2806.615	434.125
2808.814	433.125
2811.011	447.125
2813.206	451.125
2815.401	465.45833
2817.594	470.79167
2819.785	480.79167
2821.975	472.79167
2824.164	476.45833
2826.351	482.125
2828.537	509.45833
2830.722	505.45833
2832.905	524.45833
2835.086	554.125
2837.267	576.45833
2839.445	580.125
2841.623	606.125
2843.799	639.125
2845.974	670.79167
2848.147	706.125
2850.319	723.45833
2852.489	762.125
2854.659	788.45833
2856.826	783.79167
2858.993	816.125
2861.158	808.45833
2863.321	796.45833
2865.483	815.79167
2867.644	808.45833
2869.804	803.79167
2871.962	815.125
2874.118	806.125
2876.274	804.79167
2878.428	814.79167
2880.58	794.125
2882.731	791.79167
2884.881	786.79167
2887.03	812.79167
2889.177	808.45833
2891.322	814.125
2893.467	806.125
2895.61	831.45833
2897.751	834.45833
2899.892	823.79167
2902.03	826.125
2904.168	828.45833
2906.304	838.45833
2908.439	854.79167
2910.572	846.125
2912.704	867.45833
2914.835	860.79167
2916.965	843.125
2919.093	869.125
2921.219	833.45833
2923.345	863.125
2925.469	828.45833
2927.591	817.45833
2929.712	806.45833
2931.832	796.125
2933.951	772.79167
2936.068	759.45833
2938.184	741.125
2940.299	718.79167
2942.412	699.125
2944.524	661.45833
2946.634	659.45833
2948.744	604.79167
2950.851	618.79167
2952.958	580.125
2955.063	571.45833
2957.167	562.45833
2959.269	532.79167
2961.371	556.79167
2963.471	506.79167
2965.569	504.125
2967.666	478.45833
2969.762	473.125
2971.857	466.45833
2973.95	443.45833
2976.042	441.45833
2978.133	424.125
2980.222	418.125
2982.31	401.79167
2984.396	384.45833
2986.482	382.125
2988.566	373.79167
2990.648	363.79167
2992.73	364.45833
2994.81	358.45833
2996.889	355.45833
2998.966	351.79167
3001.042	349.79167
3003.117	347.125
3005.191	347.125
3007.263	332.79167
3009.334	327.125
3011.403	331.45833
3013.472	321.79167
3015.539	327.79167
3017.604	335.79167
3019.669	290.125
3021.732	302.79167
3023.794	293.125
3025.854	291.79167
3027.914	290.79167
3029.971	305.79167
3032.028	282.45833
3034.083	292.79167
3036.137	284.79167
3038.19	277.45833
3040.242	269.125
3042.292	264.125
3044.341	266.45833
3046.388	282.45833
3048.435	251.45833
3050.48	268.125
3052.524	253.45833
3054.566	239.79167
3056.607	260.79167
3058.647	251.125
3060.686	240.125
3062.723	232.79167
3064.759	221.125
3066.794	0.79167
3068.828	2.45833
3070.86	3.79167
