-0.839	444.875
3.438	539.20833
7.711	169.54167
11.981	61.54167
16.247	42.875
20.509	45.54167
24.768	47.54167
29.024	56.20833
33.276	47.54167
37.524	55.54167
41.769	45.54167
46.01	32.875
50.247	47.54167
54.481	60.54167
58.712	60.54167
62.939	47.20833
67.162	66.54167
71.382	58.54167
75.599	47.54167
79.812	60.875
84.021	82.875
88.227	60.54167
92.429	60.20833
96.628	54.54167
100.823	71.54167
105.015	74.875
109.204	65.54167
113.388	74.20833
117.57	76.875
121.748	87.20833
125.922	80.20833
130.093	102.54167
134.261	101.20833
138.425	96.20833
142.585	139.54167
146.742	128.54167
150.896	159.54167
155.046	201.54167
159.193	305.54167
163.336	510.54167
167.476	940.54167
171.613	1716.20833
175.746	2867.20833
179.875	4244.20833
184.002	5554.875
188.124	6511.875
192.244	6906.54167
196.36	6863.54167
200.472	6727.20833
204.581	6655.20833
208.687	6509.54167
212.79	6452.875
216.889	6497.875
220.984	6561.20833
225.077	6615.20833
229.165	6671.54167
233.251	6682.875
237.333	6740.875
241.412	6695.54167
245.487	6678.20833
249.559	6621.54167
253.628	6583.875
257.694	6509.20833
261.756	6450.54167
265.814	6306.54167
269.87	6091.54167
273.922	5858.54167
277.97	5728.54167
282.016	5566.20833
286.058	5570.875
290.097	5565.875
294.132	5621.20833
298.164	5550.875
302.193	5301.54167
306.219	4950.875
310.241	4588.20833
314.26	4226.20833
318.276	3961.875
322.288	3786.875
326.297	3629.20833
330.303	3526.875
334.305	3435.20833
338.305	3390.54167
342.301	3344.54167
346.294	3293.20833
350.283	3292.875
354.269	3253.54167
358.252	3239.20833
362.232	3216.875
366.209	3213.875
370.182	3177.54167
374.152	3164.20833
378.119	3176.875
382.083	3159.54167
386.043	3205.20833
390	3150.54167
393.954	3174.875
397.905	3151.54167
401.852	3168.20833
405.797	3128.875
409.738	3192.20833
413.676	3261.875
417.61	3294.20833
421.542	3139.54167
425.47	3049.54167
429.396	3032.20833
433.318	2999.875
437.236	2997.875
441.152	3023.54167
445.065	2940.54167
448.974	2952.54167
452.88	2933.54167
456.783	2928.875
460.683	2907.875
464.58	2911.20833
468.473	2907.54167
472.364	2910.20833
476.251	2927.20833
480.135	2953.54167
484.016	2975.20833
487.894	3003.20833
491.769	2982.54167
495.641	3009.875
499.509	3006.875
503.375	2994.20833
507.237	2996.875
511.096	2967.20833
514.952	3037.875
518.805	3052.875
522.655	3097.875
526.502	3027.20833
530.346	2987.54167
534.187	3007.54167
538.024	3022.54167
541.859	3044.20833
545.69	3033.20833
549.519	3027.54167
553.344	2993.20833
557.166	2968.20833
560.985	2917.20833
564.802	2854.875
568.615	2834.20833
572.425	2801.875
576.232	2779.20833
580.036	2788.20833
583.836	2776.54167
587.634	2825.54167
591.429	2819.875
595.221	2886.875
599.01	2885.20833
602.796	2925.54167
606.578	2933.20833
610.358	2915.54167
614.135	2917.54167
617.909	2912.875
621.679	2902.20833
625.447	2861.54167
629.212	2838.20833
632.973	2851.875
636.732	2852.54167
640.488	2880.54167
644.241	2846.20833
647.991	2827.54167
651.737	2838.875
655.481	2806.20833
659.222	2802.875
662.96	2783.54167
666.695	2838.875
670.427	2840.20833
674.156	2841.20833
677.882	2830.875
681.605	2824.875
685.325	2783.875
689.043	2795.54167
692.757	2793.54167
696.468	2769.875
700.177	2775.54167
703.882	2745.875
707.585	2722.20833
711.284	2752.54167
714.981	2723.875
718.675	2727.875
722.366	2754.54167
726.054	2718.20833
729.739	2725.20833
733.421	2745.54167
737.1	2724.20833
740.777	2759.54167
744.45	2738.54167
748.121	2784.875
751.789	2836.20833
755.453	2816.54167
759.115	2834.875
762.774	2860.20833
766.431	2879.875
770.084	2892.20833
773.734	2913.54167
777.382	2995.54167
781.027	3009.20833
784.669	3026.875
788.308	3005.20833
791.944	3042.875
795.577	3028.54167
799.208	3036.875
802.835	3034.54167
806.46	3071.875
810.082	3108.54167
813.701	3104.54167
817.317	3124.54167
820.931	3132.875
824.542	3107.875
828.149	3071.875
831.754	3070.875
835.357	3086.875
838.956	3059.54167
842.553	3094.54167
846.146	3082.54167
849.737	3067.54167
853.326	3023.20833
856.911	3045.875
860.493	3072.54167
864.073	3098.20833
867.65	3183.875
871.225	3235.54167
874.796	3160.20833
878.365	3143.875
881.931	3153.20833
885.494	3181.20833
889.054	3194.20833
892.612	3192.54167
896.166	3172.20833
899.719	3138.54167
903.268	3116.875
906.814	3045.20833
910.358	3051.54167
913.899	3044.875
917.438	3028.20833
920.973	3005.875
924.506	3052.875
928.036	3086.20833
931.564	3151.54167
935.088	3184.875
938.61	3161.875
942.129	3229.54167
945.646	3299.20833
949.16	3365.54167
952.671	3404.20833
956.179	3401.54167
959.685	3362.54167
963.188	3367.54167
966.688	3328.54167
970.185	3242.20833
973.68	3150.20833
977.173	3113.54167
980.662	3061.875
984.149	3068.54167
987.633	3055.20833
991.114	3102.54167
994.593	3131.20833
998.069	3235.20833
1001.542	3370.54167
1005.013	3316.54167
1008.481	3118.875
1011.947	3039.20833
1015.409	3033.875
1018.869	3016.875
1022.327	3024.54167
1025.782	2993.20833
1029.234	3005.875
1032.683	2968.54167
1036.13	2888.875
1039.574	2756.875
1043.016	2690.20833
1046.455	2661.875
1049.891	2606.54167
1053.325	2631.20833
1056.756	2628.20833
1060.184	2632.20833
1063.61	2641.54167
1067.033	2680.20833
1070.454	2659.20833
1073.872	2686.875
1077.287	2708.54167
1080.7	2677.54167
1084.11	2663.20833
1087.517	2637.875
1090.922	2624.20833
1094.325	2587.875
1097.724	2575.54167
1101.122	2592.875
1104.516	2570.875
1107.908	2575.54167
1111.298	2617.54167
1114.684	2663.20833
1118.069	2693.20833
1121.45	2703.875
1124.83	2714.875
1128.206	2748.875
1131.58	2755.875
1134.951	2844.875
1138.32	2907.54167
1141.687	3016.54167
1145.05	3092.54167
1148.412	3106.875
1151.77	3104.54167
1155.126	3094.20833
1158.48	3097.54167
1161.831	3089.20833
1165.18	3091.20833
1168.525	3146.875
1171.869	3189.54167
1175.21	3212.20833
1178.548	3258.875
1181.884	3281.20833
1185.217	3299.875
1188.548	3370.20833
1191.877	3441.20833
1195.202	3542.875
1198.526	3602.875
1201.846	3631.54167
1205.165	3605.54167
1208.48	3584.54167
1211.794	3576.875
1215.104	3567.875
1218.413	3539.875
1221.719	3556.20833
1225.022	3471.20833
1228.323	3429.54167
1231.621	3410.54167
1234.917	3371.20833
1238.21	3405.54167
1241.501	3359.54167
1244.79	3381.20833
1248.076	3360.54167
1251.359	3408.54167
1254.64	3488.20833
1257.919	3500.54167
1261.195	3562.20833
1264.468	3616.54167
1267.74	3636.875
1271.008	3663.54167
1274.275	3637.54167
1277.538	3631.20833
1280.8	3619.20833
1284.059	3608.54167
1287.315	3637.54167
1290.569	3656.54167
1293.821	3646.875
1297.07	3696.875
1300.317	3690.875
1303.562	3701.20833
1306.803	3686.875
1310.043	3649.20833
1313.28	3622.54167
1316.515	3605.54167
1319.747	3574.54167
1322.977	3538.875
1326.204	3488.54167
1329.429	3465.875
1332.652	3407.20833
1335.872	3420.54167
1339.09	3369.20833
1342.306	3330.54167
1345.519	3280.875
1348.729	3254.54167
1351.938	3203.875
1355.144	3171.54167
1358.347	3146.20833
1361.548	3131.54167
1364.747	3112.54167
1367.944	3064.54167
1371.138	3110.54167
1374.329	3105.20833
1377.518	3117.20833
1380.705	3131.54167
1383.89	3110.875
1387.072	3032.54167
1390.252	2929.20833
1393.429	2842.54167
1396.605	2729.875
1399.777	2668.875
1402.948	2639.875
1406.116	2616.54167
1409.282	2606.875
1412.445	2620.875
1415.606	2656.875
1418.765	2686.54167
1421.921	2710.875
1425.075	2808.20833
1428.227	2848.54167
1431.376	3005.20833
1434.524	3093.54167
1437.668	3199.20833
1440.811	3249.875
1443.951	3271.20833
1447.089	3291.875
1450.224	3268.875
1453.357	3243.20833
1456.488	3247.20833
1459.617	3180.20833
1462.743	3141.20833
1465.867	3050.54167
1468.989	3046.54167
1472.108	2987.875
1475.225	2933.20833
1478.34	2902.54167
1481.453	2887.54167
1484.563	2898.54167
1487.671	2958.875
1490.776	2988.875
1493.88	3063.875
1496.981	3066.54167
1500.08	3124.875
1503.176	3146.875
1506.271	3197.20833
1509.363	3239.20833
1512.452	3259.20833
1515.54	3305.875
1518.625	3346.20833
1521.708	3433.20833
1524.789	3539.875
1527.867	3684.20833
1530.944	3867.875
1534.018	4002.54167
1537.089	4161.875
1540.159	4201.20833
1543.226	4163.20833
1546.291	4123.54167
1549.354	4029.20833
1552.415	3962.54167
1555.473	3862.54167
1558.529	3780.20833
1561.583	3757.875
1564.634	3724.20833
1567.684	3709.20833
1570.731	3758.20833
1573.776	3779.20833
1576.819	3833.54167
1579.859	3871.20833
1582.898	3913.20833
1585.934	3960.54167
1588.968	3954.875
1591.999	3970.875
1595.029	3986.20833
1598.056	4023.54167
1601.081	4053.54167
1604.104	3992.875
1607.125	3986.875
1610.144	3895.20833
1613.16	3823.875
1616.174	3735.20833
1619.186	3642.875
1622.196	3587.20833
1625.203	3469.875
1628.209	3417.20833
1631.212	3348.54167
1634.213	3302.20833
1637.212	3311.54167
1640.209	3258.875
1643.203	3163.20833
1646.196	3040.54167
1649.186	2895.875
1652.174	2809.20833
1655.16	2694.20833
1658.144	2626.875
1661.125	2498.20833
1664.105	2398.54167
1667.082	2280.20833
1670.057	2176.54167
1673.03	2035.20833
1676.001	1925.20833
1678.97	1814.20833
1681.937	1707.20833
1684.901	1622.54167
1687.863	1560.20833
1690.824	1492.875
1693.782	1465.875
1696.738	1397.54167
1699.692	1364.875
1702.643	1333.20833
1705.593	1331.20833
1708.54	1310.20833
1711.486	1298.20833
1714.429	1258.54167
1717.37	1258.20833
1720.309	1236.20833
1723.246	1243.875
1726.181	1203.54167
1729.113	1213.20833
1732.044	1186.875
1734.972	1180.875
1737.899	1187.875
1740.823	1180.54167
1743.745	1179.875
1746.665	1135.20833
1749.583	1111.875
1752.499	1089.20833
1755.413	1094.54167
1758.325	1068.54167
1761.235	1067.875
1764.142	1047.20833
1767.048	1040.20833
1769.951	1030.875
1772.852	1024.875
1775.752	1046.54167
1778.649	1093.54167
1781.544	1048.875
1784.437	993.20833
1787.328	977.20833
1790.217	978.20833
1793.104	959.54167
1795.989	956.20833
1798.872	947.875
1801.753	972.20833
1804.631	948.20833
1807.508	958.20833
1810.383	942.875
1813.255	945.875
1816.126	931.20833
1818.994	944.20833
1821.861	921.54167
1824.725	932.54167
1827.587	933.20833
1830.448	913.875
1833.306	892.875
1836.162	914.20833
1839.017	901.20833
1841.869	896.875
1844.719	894.54167
1847.567	877.875
1850.414	875.20833
1853.258	871.875
1856.1	885.875
1858.94	881.54167
1861.778	867.54167
1864.614	865.875
1867.448	859.875
1870.28	858.54167
1873.111	886.20833
1875.939	862.54167
1878.765	885.875
1881.589	849.54167
1884.411	867.875
1887.231	867.20833
1890.049	847.20833
1892.865	862.54167
1895.68	849.54167
1898.492	866.20833
1901.302	846.875
1904.11	837.20833
1906.916	815.875
1909.721	817.20833
1912.523	815.20833
1915.323	811.20833
1918.122	806.20833
1920.918	810.875
1923.712	789.20833
1926.505	797.875
1929.295	794.54167
1932.084	809.54167
1934.87	798.20833
1937.655	794.20833
1940.438	789.54167
1943.218	788.875
1945.997	801.54167
1948.774	806.54167
1951.549	793.20833
1954.322	782.20833
1957.093	788.54167
1959.862	785.875
1962.629	771.875
1965.394	775.54167
1968.157	760.20833
1970.918	767.54167
1973.678	756.54167
1976.435	760.54167
1979.19	764.54167
1981.944	754.20833
1984.696	740.20833
1987.445	734.875
1990.193	738.875
1992.939	750.20833
1995.683	747.20833
1998.425	723.875
2001.165	754.875
2003.903	736.54167
2006.639	738.20833
2009.374	734.875
2012.106	735.20833
2014.837	707.20833
2017.566	725.20833
2020.292	732.20833
2023.017	724.875
2025.74	732.20833
2028.461	705.875
2031.18	711.20833
2033.898	704.875
2036.613	715.54167
2039.327	711.20833
2042.038	705.20833
2044.748	702.875
2047.456	714.54167
2050.162	695.54167
2052.866	703.20833
2055.568	697.20833
2058.268	690.875
2060.967	693.875
2063.663	680.54167
2066.358	680.20833
2069.051	681.875
2071.742	677.875
2074.431	684.875
2077.118	667.54167
2079.804	670.875
2082.487	676.875
2085.169	685.54167
2087.849	707.54167
2090.527	659.54167
2093.203	680.875
2095.877	688.54167
2098.55	682.20833
2101.22	690.20833
2103.889	697.875
2106.556	696.20833
2109.221	708.875
2111.884	710.875
2114.546	760.875
2117.205	788.875
2119.863	846.54167
2122.519	871.54167
2125.173	931.54167
2127.825	988.20833
2130.475	1003.20833
2133.124	976.54167
2135.771	940.875
2138.416	908.54167
2141.059	847.20833
2143.7	822.875
2146.339	779.20833
2148.977	717.20833
2151.613	721.875
2154.247	712.20833
2156.879	688.20833
2159.51	675.20833
2162.138	672.875
2164.765	668.875
2167.39	649.54167
2170.013	665.20833
2172.634	657.875
2175.254	650.20833
2177.872	675.54167
2180.488	624.54167
2183.102	636.875
2185.714	636.54167
2188.325	606.20833
2190.934	622.54167
2193.541	625.875
2196.146	612.875
2198.75	600.875
2201.351	585.54167
2203.951	581.20833
2206.549	610.875
2209.146	582.54167
2211.74	583.875
2214.333	589.875
2216.924	581.875
2219.514	583.54167
2222.101	567.875
2224.687	593.20833
2227.271	555.875
2229.853	565.54167
2232.433	559.20833
2235.012	577.54167
2237.589	574.54167
2240.164	583.875
2242.738	564.54167
2245.309	548.20833
2247.879	549.875
2250.448	555.20833
2253.014	531.875
2255.579	519.20833
2258.142	531.54167
2260.703	528.20833
2263.262	528.54167
2265.82	524.875
2268.376	531.20833
2270.93	503.875
2273.483	510.20833
2276.033	514.54167
2278.583	506.54167
2281.13	505.875
2283.675	501.54167
2286.219	506.20833
2288.761	505.875
2291.302	508.54167
2293.841	520.20833
2296.377	481.20833
2298.913	492.20833
2301.446	511.20833
2303.978	499.875
2306.508	498.54167
2309.037	499.54167
2311.563	489.875
2314.088	484.875
2316.612	470.54167
2319.133	481.54167
2321.653	470.54167
2324.171	465.875
2326.688	487.20833
2329.202	467.54167
2331.715	480.20833
2334.227	474.54167
2336.736	468.20833
2339.244	464.20833
2341.751	450.875
2344.255	468.20833
2346.758	468.875
2349.259	454.875
2351.759	458.54167
2354.257	458.20833
2356.753	456.54167
2359.247	463.20833
2361.74	469.20833
2364.231	459.875
2366.721	455.875
2369.209	444.20833
2371.695	451.875
2374.179	449.875
2376.662	437.54167
2379.143	461.20833
2381.622	453.54167
2384.1	459.875
2386.576	450.875
2389.051	456.875
2391.524	458.20833
2393.995	450.20833
2396.464	443.54167
2398.932	435.875
2401.398	437.20833
2403.863	438.20833
2406.325	430.54167
2408.787	433.54167
2411.246	433.875
2413.704	428.875
2416.16	432.20833
2418.615	428.875
2421.068	436.875
2423.519	436.875
2425.969	415.54167
2428.417	426.54167
2430.863	444.875
2433.308	437.20833
2435.751	429.875
2438.193	418.875
2440.633	428.54167
2443.071	419.20833
2445.508	421.54167
2447.943	417.20833
2450.376	426.20833
2452.808	417.54167
2455.238	416.20833
2457.667	454.875
2460.093	417.54167
2462.519	410.20833
2464.942	414.875
2467.365	418.20833
2469.785	425.54167
2472.204	416.20833
2474.621	404.20833
2477.037	428.875
2479.451	392.875
2481.863	399.875
2484.274	407.54167
2486.683	412.20833
2489.091	408.875
2491.497	408.20833
2493.901	412.54167
2496.304	401.54167
2498.705	413.54167
2501.105	400.54167
2503.503	433.875
2505.899	393.54167
2508.294	411.20833
2510.687	402.875
2513.079	400.54167
2515.469	394.875
2517.858	400.20833
2520.245	398.20833
2522.63	386.20833
2525.014	392.20833
2527.396	377.54167
2529.776	378.20833
2532.156	398.875
2534.533	386.20833
2536.909	385.875
2539.283	375.20833
2541.656	383.875
2544.027	400.54167
2546.397	379.875
2548.765	372.20833
2551.131	379.54167
2553.496	379.54167
2555.86	388.20833
2558.221	385.875
2560.582	373.875
2562.94	368.54167
2565.298	379.875
2567.653	403.20833
2570.007	370.54167
2572.36	392.875
2574.711	376.875
2577.06	390.875
2579.408	385.20833
2581.754	374.875
2584.099	375.875
2586.442	384.875
2588.784	380.20833
2591.124	380.20833
2593.463	376.54167
2595.8	378.54167
2598.135	369.54167
2600.469	367.54167
2602.802	382.54167
2605.133	380.54167
2607.462	364.20833
2609.79	365.875
2612.116	378.20833
2614.441	371.54167
2616.764	375.54167
2619.086	377.875
2621.406	362.20833
2623.725	387.54167
2626.042	371.54167
2628.358	364.20833
2630.672	358.20833
2632.985	381.875
2635.296	379.20833
2637.606	369.20833
2639.914	363.20833
2642.22	366.20833
2644.525	369.20833
2646.829	370.875
2649.131	378.875
2651.432	386.20833
2653.731	379.54167
2656.028	386.875
2658.324	391.54167
2660.619	370.20833
2662.912	383.54167
2665.204	370.54167
2667.494	378.20833
2669.782	369.54167
2672.07	381.54167
2674.355	382.20833
2676.639	382.20833
2678.922	371.875
2681.203	378.54167
2683.483	367.875
2685.761	367.54167
2688.038	381.875
2690.313	398.875
2692.587	376.875
2694.859	376.20833
2697.13	382.20833
2699.399	387.20833
2701.667	391.875
2703.933	389.54167
2706.198	391.875
2708.461	393.20833
2710.723	390.875
2712.984	390.875
2715.243	408.54167
2717.5	396.20833
2719.757	404.875
2722.011	394.54167
2724.264	408.54167
2726.516	420.20833
2728.766	401.875
2731.015	404.20833
2733.262	401.875
2735.508	405.875
2737.753	407.875
2739.996	395.20833
2742.237	386.54167
2744.477	397.54167
2746.716	400.20833
2748.953	390.875
2751.189	394.54167
2753.423	385.875
2755.656	379.20833
2757.887	374.875
2760.117	377.54167
2762.346	371.54167
2764.573	381.20833
2766.798	379.20833
2769.022	371.54167
2771.245	380.875
2773.467	379.54167
2775.686	385.20833
2777.905	389.875
2780.122	391.20833
2782.337	392.875
2784.552	386.875
2786.764	390.875
2788.976	391.54167
2791.186	400.875
2793.394	401.20833
2795.601	405.54167
2797.807	417.875
2800.011	424.54167
2802.214	425.875
2804.415	416.875
2806.615	423.20833
2808.814	428.54167
2811.011	427.875
2813.206	431.54167
2815.401	442.875
2817.594	446.875
2819.785	459.875
2821.975	447.54167
2824.164	453.54167
2826.351	468.20833
2828.537	486.875
2830.722	487.20833
2832.905	490.54167
2835.086	521.54167
2837.267	548.875
2839.445	559.875
2841.623	577.20833
2843.799	600.20833
2845.974	627.875
2848.147	662.875
2850.319	680.875
2852.489	706.875
2854.659	726.20833
2856.826	739.20833
2858.993	774.20833
2861.158	738.54167
2863.321	732.875
2865.483	761.875
2867.644	769.875
2869.804	752.20833
2871.962	756.20833
2874.118	767.875
2876.274	803.875
2878.428	776.20833
2880.58	766.54167
2882.731	757.20833
2884.881	750.875
2887.03	754.20833
2889.177	754.54167
2891.322	764.20833
2893.467	760.20833
2895.61	759.20833
2897.751	789.875
2899.892	771.54167
2902.03	784.20833
2904.168	789.54167
2906.304	785.875
2908.439	808.875
2910.572	796.54167
2912.704	803.54167
2914.835	802.875
2916.965	805.54167
2919.093	813.875
2921.219	785.54167
2923.345	808.20833
2925.469	776.54167
2927.591	776.20833
2929.712	756.54167
2931.832	757.875
2933.951	745.20833
2936.068	729.54167
2938.184	701.875
2940.299	693.54167
2942.412	674.875
2944.524	634.875
2946.634	627.20833
2948.744	583.54167
2950.851	627.20833
2952.958	569.20833
2955.063	565.54167
2957.167	555.20833
2959.269	530.875
2961.371	561.54167
2963.471	514.54167
2965.569	517.54167
2967.666	488.54167
2969.762	488.875
2971.857	480.54167
2973.95	460.20833
2976.042	456.20833
2978.133	445.875
2980.222	429.54167
2982.31	425.20833
2984.396	402.875
2986.482	401.54167
2988.566	398.20833
2990.648	397.20833
2992.73	390.54167
2994.81	384.20833
2996.889	389.20833
2998.966	385.875
3001.042	391.54167
3003.117	376.20833
3005.191	374.54167
3007.263	378.54167
3009.334	364.875
3011.403	375.20833
3013.472	356.20833
3015.539	361.54167
3017.604	368.20833
3019.669	335.875
3021.732	342.54167
3023.794	348.20833
3025.854	338.54167
3027.914	326.54167
3029.971	345.20833
3032.028	334.20833
3034.083	328.54167
3036.137	327.20833
3038.19	312.54167
3040.242	313.20833
3042.292	299.54167
3044.341	304.54167
3046.388	316.54167
3048.435	299.20833
3050.48	313.875
3052.524	302.20833
3054.566	289.875
3056.607	303.20833
3058.647	290.54167
3060.686	279.54167
3062.723	269.875
3064.759	253.20833
3066.794	-0.45833
3068.828	1.20833
3070.86	3.875
