-0.839	448.16667
3.438	529.83333
7.711	165.83333
11.981	59.83333
16.247	46.5
20.509	50.16667
24.768	46.5
29.024	55.5
33.276	42.5
37.524	48.83333
41.769	45.5
46.01	32.16667
50.247	46.5
54.481	56.83333
58.712	61.83333
62.939	49.83333
67.162	63.83333
71.382	54.83333
75.599	43.5
79.812	64.83333
84.021	78.83333
88.227	63.16667
92.429	61.5
96.628	54.5
100.823	75.5
105.015	76.83333
109.204	66.16667
113.388	72.83333
117.57	74.83333
121.748	85.16667
125.922	75.16667
130.093	97.83333
134.261	98.5
138.425	96.16667
142.585	138.16667
146.742	128.16667
150.896	158.16667
155.046	193.5
159.193	300.16667
163.336	513.16667
167.476	936.16667
171.613	1723.5
175.746	2885.5
179.875	4271.5
184.002	5567.5
188.124	6509.16667
192.244	6884.5
196.36	6844.83333
200.472	6706.83333
204.581	6606.5
208.687	6508.83333
212.79	6441.5
216.889	6515.83333
220.984	6515.16667
225.077	6594.83333
229.165	6618.16667
233.251	6697.16667
237.333	6701.83333
241.412	6656.83333
245.487	6608.5
249.559	6534.16667
253.628	6513.16667
257.694	6487.16667
261.756	6414.83333
265.814	6284.16667
269.87	6038.5
273.922	5834.5
277.97	5707.16667
282.016	5552.16667
286.058	5498.5
290.097	5626.83333
294.132	5591.16667
298.164	5552.5
302.193	5300.5
306.219	4960.5
310.241	4546.16667
314.26	4173.5
318.276	3944.5
322.288	3740.83333
326.297	3591.16667
330.303	3475.16667
334.305	3392.5
338.305	3334.83333
342.301	3307.16667
346.294	3260.16667
350.283	3247.83333
354.269	3236.83333
358.252	3202.16667
362.232	3193.83333
366.209	3174.83333
370.182	3146.83333
374.152	3133.83333
378.119	3143.83333
382.083	3106.16667
386.043	3150.5
390	3084.16667
393.954	3135.5
397.905	3136.16667
401.852	3135.16667
405.797	3089.16667
409.738	3163.83333
413.676	3203.16667
417.61	3238.5
421.542	3107.16667
425.47	3033.5
429.396	2984.5
433.318	2954.16667
437.236	2945.83333
441.152	2995.5
445.065	2930.83333
448.974	2916.16667
452.88	2896.16667
456.783	2885.16667
460.683	2866.83333
464.58	2870.5
468.473	2882.83333
472.364	2887.5
476.251	2889.16667
480.135	2903.16667
484.016	2940.83333
487.894	2944.83333
491.769	2960.5
495.641	2988.16667
499.509	2943.5
503.375	2951.16667
507.237	2948.16667
511.096	2958.83333
514.952	2972.83333
518.805	3029.83333
522.655	3035.16667
526.502	2970.5
530.346	2937.83333
534.187	2983.83333
538.024	2981.16667
541.859	3000.16667
545.69	3022.5
549.519	2971.16667
553.344	2970.83333
557.166	2932.16667
560.985	2907.16667
564.802	2857.5
568.615	2810.83333
572.425	2762.83333
576.232	2757.16667
580.036	2763.5
583.836	2756.16667
587.634	2755.83333
591.429	2765.5
595.221	2842.16667
599.01	2866.83333
602.796	2873.83333
606.578	2887.16667
610.358	2896.16667
614.135	2879.83333
617.909	2874.83333
621.679	2824.16667
625.447	2811.83333
629.212	2811.5
632.973	2834.16667
636.732	2818.83333
640.488	2840.83333
644.241	2807.83333
647.991	2784.83333
651.737	2801.16667
655.481	2758.83333
659.222	2769.83333
662.96	2771.16667
666.695	2794.5
670.427	2802.5
674.156	2834.83333
677.882	2797.16667
681.605	2783.83333
685.325	2755.5
689.043	2785.16667
692.757	2753.83333
696.468	2722.16667
700.177	2747.83333
703.882	2714.16667
707.585	2695.83333
711.284	2704.5
714.981	2681.16667
718.675	2684.16667
722.366	2713.83333
726.054	2692.16667
729.739	2698.5
733.421	2704.5
737.1	2679.5
740.777	2720.83333
744.45	2739.83333
748.121	2732.5
751.789	2800.16667
755.453	2762.16667
759.115	2799.83333
762.774	2832.83333
766.431	2860.16667
770.084	2869.16667
773.734	2871.5
777.382	2960.16667
781.027	2978.83333
784.669	2996.5
788.308	2997.83333
791.944	3004.5
795.577	2998.5
799.208	3012.83333
802.835	3045.16667
806.46	3036.83333
810.082	3066.16667
813.701	3079.5
817.317	3082.83333
820.931	3110.83333
824.542	3080.5
828.149	3063.5
831.754	3034.5
835.357	3035.83333
838.956	3059.83333
842.553	3074.83333
846.146	3082.5
849.737	3016.83333
853.326	3024.5
856.911	3005.16667
860.493	3042.83333
864.073	3104.16667
867.65	3184.5
871.225	3202.16667
874.796	3125.5
878.365	3124.16667
881.931	3140.83333
885.494	3173.5
889.054	3191.16667
892.612	3171.5
896.166	3141.16667
899.719	3124.5
903.268	3089.5
906.814	3041.16667
910.358	3020.16667
913.899	2993.5
917.438	3015.83333
920.973	2986.83333
924.506	3052.16667
928.036	3076.83333
931.564	3123.83333
935.088	3148.83333
938.61	3155.5
942.129	3200.5
945.646	3281.83333
949.16	3332.83333
952.671	3383.5
956.179	3383.5
959.685	3350.5
963.188	3345.83333
966.688	3286.16667
970.185	3200.83333
973.68	3137.16667
977.173	3118.83333
980.662	3059.83333
984.149	3054.83333
987.633	3004.83333
991.114	3068.5
994.593	3122.83333
998.069	3223.5
1001.542	3329.16667
1005.013	3275.16667
1008.481	3095.83333
1011.947	3025.5
1015.409	3001.16667
1018.869	3002.16667
1022.327	3017.5
1025.782	2986.16667
1029.234	2977.16667
1032.683	2943.16667
1036.13	2852.83333
1039.574	2776.83333
1043.016	2668.83333
1046.455	2627.83333
1049.891	2618.16667
1053.325	2610.5
1056.756	2636.83333
1060.184	2638.83333
1063.61	2653.5
1067.033	2674.83333
1070.454	2657.16667
1073.872	2676.83333
1077.287	2676.16667
1080.7	2657.16667
1084.11	2661.5
1087.517	2641.16667
1090.922	2610.5
1094.325	2572.16667
1097.724	2564.83333
1101.122	2574.5
1104.516	2580.16667
1107.908	2570.5
1111.298	2612.16667
1114.684	2647.5
1118.069	2675.16667
1121.45	2714.83333
1124.83	2699.83333
1128.206	2718.5
1131.58	2753.16667
1134.951	2830.5
1138.32	2922.5
1141.687	2998.5
1145.05	3085.16667
1148.412	3099.16667
1151.77	3107.5
1155.126	3098.5
1158.48	3075.83333
1161.831	3101.83333
1165.18	3102.5
1168.525	3151.5
1171.869	3190.5
1175.21	3200.83333
1178.548	3246.83333
1181.884	3279.5
1185.217	3302.16667
1188.548	3369.83333
1191.877	3438.83333
1195.202	3539.83333
1198.526	3584.83333
1201.846	3625.16667
1205.165	3610.5
1208.48	3569.5
1211.794	3552.83333
1215.104	3571.83333
1218.413	3557.5
1221.719	3533.83333
1225.022	3492.5
1228.323	3448.16667
1231.621	3388.16667
1234.917	3382.5
1238.21	3410.5
1241.501	3385.5
1244.79	3360.16667
1248.076	3360.16667
1251.359	3381.16667
1254.64	3475.16667
1257.919	3494.16667
1261.195	3549.16667
1264.468	3607.16667
1267.74	3662.83333
1271.008	3658.16667
1274.275	3640.83333
1277.538	3620.16667
1280.8	3602.83333
1284.059	3620.5
1287.315	3660.16667
1290.569	3649.5
1293.821	3668.16667
1297.07	3683.5
1300.317	3685.16667
1303.562	3712.83333
1306.803	3694.83333
1310.043	3663.5
1313.28	3614.16667
1316.515	3613.83333
1319.747	3572.5
1322.977	3514.83333
1326.204	3462.5
1329.429	3424.16667
1332.652	3394.16667
1335.872	3372.83333
1339.09	3342.83333
1342.306	3319.16667
1345.519	3260.5
1348.729	3238.5
1351.938	3221.83333
1355.144	3167.83333
1358.347	3112.5
1361.548	3115.16667
1364.747	3101.83333
1367.944	3060.83333
1371.138	3100.83333
1374.329	3092.16667
1377.518	3115.83333
1380.705	3143.16667
1383.89	3121.5
1387.072	3012.16667
1390.252	2907.5
1393.429	2819.5
1396.605	2753.5
1399.777	2648.16667
1402.948	2633.16667
1406.116	2623.5
1409.282	2625.5
1412.445	2611.83333
1415.606	2645.16667
1418.765	2648.83333
1421.921	2702.5
1425.075	2781.16667
1428.227	2865.83333
1431.376	2997.83333
1434.524	3096.83333
1437.668	3179.16667
1440.811	3250.83333
1443.951	3281.5
1447.089	3255.83333
1450.224	3265.16667
1453.357	3234.16667
1456.488	3244.83333
1459.617	3158.83333
1462.743	3143.83333
1465.867	3061.83333
1468.989	3021.83333
1472.108	2958.83333
1475.225	2921.83333
1478.34	2888.5
1481.453	2877.5
1484.563	2905.5
1487.671	2944.5
1490.776	2970.83333
1493.88	3026.5
1496.981	3066.16667
1500.08	3112.16667
1503.176	3155.83333
1506.271	3203.83333
1509.363	3225.83333
1512.452	3265.16667
1515.54	3299.5
1518.625	3347.16667
1521.708	3429.5
1524.789	3532.5
1527.867	3690.83333
1530.944	3847.16667
1534.018	3995.83333
1537.089	4175.16667
1540.159	4191.5
1543.226	4175.5
1546.291	4126.83333
1549.354	4022.5
1552.415	3913.5
1555.473	3863.83333
1558.529	3765.16667
1561.583	3744.5
1564.634	3729.16667
1567.684	3704.16667
1570.731	3725.83333
1573.776	3788.83333
1576.819	3851.5
1579.859	3896.5
1582.898	3926.5
1585.934	3965.83333
1588.968	3977.5
1591.999	4007.83333
1595.029	4006.16667
1598.056	4015.5
1601.081	4037.83333
1604.104	4003.16667
1607.125	4003.16667
1610.144	3894.16667
1613.16	3792.5
1616.174	3717.16667
1619.186	3626.16667
1622.196	3530.83333
1625.203	3468.5
1628.209	3399.83333
1631.212	3326.83333
1634.213	3300.16667
1637.212	3271.5
1640.209	3221.83333
1643.203	3114.5
1646.196	3019.83333
1649.186	2869.83333
1652.174	2785.16667
1655.16	2661.83333
1658.144	2619.5
1661.125	2466.16667
1664.105	2379.5
1667.082	2281.16667
1670.057	2164.5
1673.03	2036.5
1676.001	1926.5
1678.97	1807.83333
1681.937	1693.83333
1684.901	1613.5
1687.863	1546.5
1690.824	1475.83333
1693.782	1462.5
1696.738	1398.83333
1699.692	1377.83333
1702.643	1330.83333
1705.593	1315.5
1708.54	1304.16667
1711.486	1294.83333
1714.429	1244.83333
1717.37	1253.83333
1720.309	1222.16667
1723.246	1227.16667
1726.181	1204.83333
1729.113	1214.83333
1732.044	1174.16667
1734.972	1185.83333
1737.899	1183.83333
1740.823	1157.5
1743.745	1170.5
1746.665	1130.16667
1749.583	1098.5
1752.499	1088.5
1755.413	1071.83333
1758.325	1059.83333
1761.235	1035.83333
1764.142	1033.16667
1767.048	1031.16667
1769.951	1004.16667
1772.852	1018.16667
1775.752	1041.16667
1778.649	1077.16667
1781.544	1012.83333
1784.437	986.16667
1787.328	983.83333
1790.217	972.5
1793.104	951.16667
1795.989	944.5
1798.872	941.83333
1801.753	964.83333
1804.631	953.16667
1807.508	963.83333
1810.383	941.83333
1813.255	933.5
1816.126	934.83333
1818.994	919.16667
1821.861	926.83333
1824.725	909.83333
1827.587	920.5
1830.448	913.5
1833.306	879.5
1836.162	892.16667
1839.017	887.5
1841.869	877.5
1844.719	894.5
1847.567	869.16667
1850.414	860.83333
1853.258	859.5
1856.1	871.83333
1858.94	854.5
1861.778	863.83333
1864.614	866.83333
1867.448	865.5
1870.28	853.5
1873.111	872.16667
1875.939	854.5
1878.765	882.83333
1881.589	844.83333
1884.411	849.5
1887.231	848.16667
1890.049	845.5
1892.865	852.5
1895.68	831.16667
1898.492	846.16667
1901.302	829.83333
1904.11	819.5
1906.916	818.83333
1909.721	813.5
1912.523	809.5
1915.323	810.16667
1918.122	790.83333
1920.918	815.5
1923.712	793.83333
1926.505	777.83333
1929.295	779.16667
1932.084	795.5
1934.87	788.16667
1937.655	785.5
1940.438	785.16667
1943.218	786.83333
1945.997	789.16667
1948.774	795.5
1951.549	786.83333
1954.322	778.5
1957.093	768.16667
1959.862	777.5
1962.629	755.5
1965.394	758.83333
1968.157	750.16667
1970.918	753.5
1973.678	746.83333
1976.435	756.83333
1979.19	751.5
1981.944	740.83333
1984.696	742.5
1987.445	735.5
1990.193	732.83333
1992.939	767.5
1995.683	735.5
1998.425	728.5
2001.165	740.83333
2003.903	720.83333
2006.639	712.5
2009.374	739.16667
2012.106	718.5
2014.837	714.83333
2017.566	725.83333
2020.292	718.16667
2023.017	725.83333
2025.74	707.5
2028.461	710.5
2031.18	710.83333
2033.898	707.83333
2036.613	710.83333
2039.327	710.16667
2042.038	696.83333
2044.748	703.83333
2047.456	702.16667
2050.162	688.5
2052.866	688.16667
2055.568	698.83333
2058.268	686.16667
2060.967	701.5
2063.663	681.16667
2066.358	687.16667
2069.051	667.16667
2071.742	673.83333
2074.431	683.5
2077.118	673.16667
2079.804	669.16667
2082.487	673.5
2085.169	684.16667
2087.849	702.83333
2090.527	669.16667
2093.203	676.16667
2095.877	689.83333
2098.55	682.16667
2101.22	693.16667
2103.889	697.83333
2106.556	693.83333
2109.221	714.16667
2111.884	709.5
2114.546	749.5
2117.205	785.5
2119.863	854.16667
2122.519	877.83333
2125.173	933.16667
2127.825	1000.5
2130.475	1007.5
2133.124	965.5
2135.771	944.5
2138.416	919.16667
2141.059	856.83333
2143.7	812.16667
2146.339	766.16667
2148.977	727.5
2151.613	719.83333
2154.247	716.5
2156.879	692.16667
2159.51	676.5
2162.138	655.83333
2164.765	665.16667
2167.39	647.16667
2170.013	649.16667
2172.634	653.5
2175.254	646.83333
2177.872	668.5
2180.488	634.83333
2183.102	632.83333
2185.714	627.16667
2188.325	601.16667
2190.934	610.5
2193.541	614.5
2196.146	602.16667
2198.75	594.5
2201.351	584.5
2203.951	577.16667
2206.549	595.83333
2209.146	586.16667
2211.74	581.5
2214.333	588.5
2216.924	566.83333
2219.514	573.16667
2222.101	559.5
2224.687	575.16667
2227.271	562.5
2229.853	561.16667
2232.433	557.16667
2235.012	569.83333
2237.589	571.5
2240.164	568.16667
2242.738	558.5
2245.309	548.5
2247.879	557.16667
2250.448	556.16667
2253.014	529.16667
2255.579	522.5
2258.142	533.83333
2260.703	517.83333
2263.262	521.83333
2265.82	513.5
2268.376	519.5
2270.93	495.5
2273.483	509.83333
2276.033	506.16667
2278.583	500.83333
2281.13	499.5
2283.675	493.83333
2286.219	503.16667
2288.761	504.5
2291.302	512.16667
2293.841	504.83333
2296.377	479.83333
2298.913	491.83333
2301.446	498.16667
2303.978	489.5
2306.508	479.16667
2309.037	481.5
2311.563	496.83333
2314.088	492.5
2316.612	462.16667
2319.133	474.83333
2321.653	479.83333
2324.171	466.83333
2326.688	489.83333
2329.202	472.5
2331.715	470.16667
2334.227	475.5
2336.736	482.16667
2339.244	467.5
2341.751	458.5
2344.255	470.83333
2346.758	467.16667
2349.259	450.16667
2351.759	455.16667
2354.257	449.16667
2356.753	450.16667
2359.247	452.83333
2361.74	459.5
2364.231	455.16667
2366.721	459.5
2369.209	442.16667
2371.695	445.5
2374.179	444.83333
2376.662	433.83333
2379.143	452.83333
2381.622	444.83333
2384.1	453.16667
2386.576	438.5
2389.051	460.83333
2391.524	456.83333
2393.995	448.83333
2396.464	429.5
2398.932	437.83333
2401.398	435.83333
2403.863	442.16667
2406.325	434.83333
2408.787	425.5
2411.246	432.16667
2413.704	426.5
2416.16	424.5
2418.615	423.16667
2421.068	431.83333
2423.519	434.5
2425.969	423.5
2428.417	432.16667
2430.863	454.5
2433.308	421.16667
2435.751	432.83333
2438.193	424.5
2440.633	422.5
2443.071	433.16667
2445.508	419.83333
2447.943	418.83333
2450.376	414.5
2452.808	412.16667
2455.238	414.5
2457.667	455.5
2460.093	409.5
2462.519	405.16667
2464.942	415.5
2467.365	418.5
2469.785	426.83333
2472.204	409.83333
2474.621	399.5
2477.037	417.5
2479.451	392.83333
2481.863	399.16667
2484.274	406.5
2486.683	395.5
2489.091	411.5
2491.497	390.5
2493.901	409.83333
2496.304	392.83333
2498.705	416.83333
2501.105	392.16667
2503.503	432.5
2505.899	382.5
2508.294	411.16667
2510.687	393.16667
2513.079	395.83333
2515.469	390.83333
2517.858	395.83333
2520.245	403.16667
2522.63	383.83333
2525.014	390.16667
2527.396	387.83333
2529.776	381.83333
2532.156	399.83333
2534.533	382.16667
2536.909	374.5
2539.283	369.16667
2541.656	381.16667
2544.027	400.16667
2546.397	379.83333
2548.765	376.16667
2551.131	379.5
2553.496	375.5
2555.86	382.83333
2558.221	386.5
2560.582	376.16667
2562.94	375.16667
2565.298	378.16667
2567.653	391.83333
2570.007	373.5
2572.36	388.16667
2574.711	374.16667
2577.06	391.16667
2579.408	383.5
2581.754	374.83333
2584.099	378.83333
2586.442	375.5
2588.784	381.5
2591.124	376.5
2593.463	374.83333
2595.8	381.5
2598.135	367.16667
2600.469	376.16667
2602.802	381.16667
2605.133	381.5
2607.462	362.5
2609.79	363.83333
2612.116	366.16667
2614.441	364.5
2616.764	365.83333
2619.086	371.83333
2621.406	360.5
2623.725	383.5
2626.042	371.5
2628.358	360.16667
2630.672	357.83333
2632.985	380.16667
2635.296	382.83333
2637.606	366.16667
2639.914	365.16667
2642.22	364.83333
2644.525	371.5
2646.829	369.16667
2649.131	384.16667
2651.432	385.16667
2653.731	372.5
2656.028	382.16667
2658.324	384.83333
2660.619	375.16667
2662.912	383.83333
2665.204	362.83333
2667.494	380.5
2669.782	377.16667
2672.07	382.16667
2674.355	389.5
2676.639	380.5
2678.922	365.5
2681.203	369.83333
2683.483	367.5
2685.761	371.83333
2688.038	378.16667
2690.313	389.16667
2692.587	374.83333
2694.859	364.5
2697.13	379.83333
2699.399	380.83333
2701.667	388.83333
2703.933	386.83333
2706.198	388.83333
2708.461	390.83333
2710.723	397.83333
2712.984	399.16667
2715.243	401.5
2717.5	392.83333
2719.757	413.83333
2722.011	395.16667
2724.264	408.16667
2726.516	419.16667
2728.766	403.16667
2731.015	402.83333
2733.262	409.5
2735.508	405.5
2737.753	400.5
2739.996	409.5
2742.237	387.16667
2744.477	400.5
2746.716	402.5
2748.953	388.5
2751.189	390.16667
2753.423	383.83333
2755.656	383.16667
2757.887	383.83333
2760.117	383.5
2762.346	374.16667
2764.573	366.5
2766.798	371.5
2769.022	377.5
2771.245	386.5
2773.467	378.83333
2775.686	382.16667
2777.905	377.5
2780.122	387.5
2782.337	393.83333
2784.552	386.83333
2786.764	390.16667
2788.976	394.16667
2791.186	396.83333
2793.394	402.5
2795.601	406.83333
2797.807	421.16667
2800.011	419.16667
2802.214	418.5
2804.415	421.83333
2806.615	423.16667
2808.814	420.16667
2811.011	433.5
2813.206	435.5
2815.401	445.5
2817.594	442.16667
2819.785	465.16667
2821.975	447.5
2824.164	455.5
2826.351	476.83333
2828.537	480.83333
2830.722	494.83333
2832.905	494.5
2835.086	518.5
2837.267	544.83333
2839.445	555.5
2841.623	567.5
2843.799	605.83333
2845.974	626.83333
2848.147	664.5
2850.319	690.83333
2852.489	701.5
2854.659	725.5
2856.826	733.16667
2858.993	763.5
2861.158	742.16667
2863.321	751.5
2865.483	762.83333
2867.644	763.16667
2869.804	755.16667
2871.962	759.5
2874.118	771.16667
2876.274	809.16667
2878.428	787.5
2880.58	768.5
2882.731	752.5
2884.881	750.5
2887.03	772.16667
2889.177	758.16667
2891.322	766.5
2893.467	772.16667
2895.61	756.83333
2897.751	781.83333
2899.892	771.5
2902.03	771.16667
2904.168	782.5
2906.304	782.16667
2908.439	805.5
2910.572	790.83333
2912.704	797.83333
2914.835	808.5
2916.965	805.16667
2919.093	812.16667
2921.219	792.16667
2923.345	828.5
2925.469	783.5
2927.591	780.5
2929.712	765.16667
2931.832	763.83333
2933.951	734.16667
2936.068	733.83333
2938.184	699.5
2940.299	686.5
2942.412	678.83333
2944.524	641.5
2946.634	639.83333
2948.744	595.83333
2950.851	605.83333
2952.958	588.5
2955.063	573.83333
2957.167	561.16667
2959.269	540.16667
2961.371	548.83333
2963.471	513.83333
2965.569	529.83333
2967.666	487.5
2969.762	487.5
2971.857	484.16667
2973.95	463.16667
2976.042	457.16667
2978.133	449.83333
2980.222	433.83333
2982.31	413.5
2984.396	399.83333
2986.482	409.83333
2988.566	396.5
2990.648	392.16667
2992.73	384.5
2994.81	386.83333
2996.889	389.83333
2998.966	385.16667
3001.042	397.83333
3003.117	381.5
3005.191	377.5
3007.263	374.5
3009.334	363.83333
3011.403	369.83333
3013.472	351.5
3015.539	367.16667
3017.604	368.16667
3019.669	335.16667
3021.732	336.83333
3023.794	337.83333
3025.854	332.5
3027.914	333.83333
3029.971	340.16667
3032.028	336.5
3034.083	323.16667
3036.137	326.5
3038.19	318.83333
3040.242	305.83333
3042.292	305.16667
3044.341	304.5
3046.388	316.16667
3048.435	297.16667
3050.48	313.16667
3052.524	303.83333
3054.566	285.5
3056.607	297.83333
3058.647	285.5
3060.686	278.16667
3062.723	269.83333
3064.759	254.5
3066.794	0.16667
3068.828	2.16667
3070.86	2.5
