-0.839	440.375
3.438	522.04167
7.711	163.375
11.981	60.04167
16.247	43.04167
20.509	51.70833
24.768	45.04167
29.024	54.04167
33.276	46.04167
37.524	52.375
41.769	47.70833
46.01	33.04167
50.247	48.04167
54.481	59.70833
58.712	66.375
62.939	49.375
67.162	68.04167
71.382	55.70833
75.599	49.375
79.812	63.70833
84.021	82.70833
88.227	60.70833
92.429	62.375
96.628	53.70833
100.823	69.70833
105.015	76.70833
109.204	70.375
113.388	78.375
117.57	75.70833
121.748	92.04167
125.922	78.375
130.093	99.70833
134.261	104.375
138.425	100.375
142.585	139.375
146.742	133.375
150.896	157.70833
155.046	200.70833
159.193	308.375
163.336	519.375
167.476	948.04167
171.613	1745.04167
175.746	2896.375
179.875	4323.04167
184.002	5653.70833
188.124	6658.70833
192.244	7046.04167
196.36	7033.04167
200.472	6954.04167
204.581	6822.70833
208.687	6741.375
212.79	6714.70833
216.889	6702.04167
220.984	6809.375
225.077	6838.375
229.165	6925.375
233.251	6968.04167
237.333	6946.04167
241.412	6962.04167
245.487	6919.375
249.559	6850.375
253.628	6825.04167
257.694	6751.04167
261.756	6660.04167
265.814	6534.70833
269.87	6337.04167
273.922	6099.04167
277.97	5920.375
282.016	5786.375
286.058	5733.70833
290.097	5789.375
294.132	5825.04167
298.164	5765.04167
302.193	5587.375
306.219	5239.04167
310.241	4818.04167
314.26	4489.04167
318.276	4213.375
322.288	4046.04167
326.297	3840.375
330.303	3754.04167
334.305	3687.70833
338.305	3634.375
342.301	3583.375
346.294	3553.375
350.283	3533.375
354.269	3539.70833
358.252	3505.375
362.232	3480.70833
366.209	3483.70833
370.182	3473.375
374.152	3457.70833
378.119	3451.70833
382.083	3474.04167
386.043	3477.70833
390	3447.375
393.954	3489.70833
397.905	3465.04167
401.852	3468.375
405.797	3437.375
409.738	3505.70833
413.676	3556.04167
417.61	3597.375
421.542	3464.375
425.47	3365.70833
429.396	3337.375
433.318	3315.375
437.236	3307.375
441.152	3309.70833
445.065	3283.375
448.974	3271.04167
452.88	3242.70833
456.783	3248.375
460.683	3223.04167
464.58	3227.04167
468.473	3238.04167
472.364	3246.375
476.251	3245.70833
480.135	3288.70833
484.016	3323.375
487.894	3329.04167
491.769	3318.70833
495.641	3340.70833
499.509	3342.70833
503.375	3331.70833
507.237	3323.375
511.096	3330.04167
514.952	3362.04167
518.805	3404.375
522.655	3395.70833
526.502	3350.04167
530.346	3333.04167
534.187	3319.375
538.024	3318.70833
541.859	3348.375
545.69	3374.70833
549.519	3343.70833
553.344	3297.70833
557.166	3276.04167
560.985	3248.375
564.802	3192.04167
568.615	3169.04167
572.425	3105.70833
576.232	3094.375
580.036	3091.04167
583.836	3099.04167
587.634	3102.70833
591.429	3130.375
595.221	3162.70833
599.01	3181.70833
602.796	3217.70833
606.578	3236.70833
610.358	3261.04167
614.135	3239.70833
617.909	3215.04167
621.679	3216.375
625.447	3157.375
629.212	3160.04167
632.973	3169.04167
636.732	3132.375
640.488	3163.70833
644.241	3125.375
647.991	3113.70833
651.737	3126.04167
655.481	3105.375
659.222	3138.70833
662.96	3141.375
666.695	3137.375
670.427	3163.375
674.156	3169.70833
677.882	3130.70833
681.605	3117.70833
685.325	3092.04167
689.043	3108.375
692.757	3088.70833
696.468	3102.70833
700.177	3083.70833
703.882	3049.375
707.585	3051.04167
711.284	3012.375
714.981	3024.04167
718.675	3023.375
722.366	3031.04167
726.054	2985.70833
729.739	3012.375
733.421	3021.04167
737.1	3015.375
740.777	3049.04167
744.45	3045.70833
748.121	3071.04167
751.789	3104.04167
755.453	3092.04167
759.115	3122.04167
762.774	3143.04167
766.431	3156.04167
770.084	3177.70833
773.734	3191.375
777.382	3245.70833
781.027	3246.70833
784.669	3285.70833
788.308	3307.04167
791.944	3320.70833
795.577	3287.375
799.208	3319.04167
802.835	3331.04167
806.46	3346.04167
810.082	3368.375
813.701	3393.04167
817.317	3413.375
820.931	3409.70833
824.542	3390.375
828.149	3364.375
831.754	3328.04167
835.357	3332.70833
838.956	3308.04167
842.553	3325.375
846.146	3357.375
849.737	3282.04167
853.326	3270.375
856.911	3266.70833
860.493	3298.04167
864.073	3344.04167
867.65	3423.70833
871.225	3453.70833
874.796	3395.375
878.365	3348.04167
881.931	3391.375
885.494	3425.04167
889.054	3410.70833
892.612	3402.70833
896.166	3370.70833
899.719	3340.375
903.268	3302.70833
906.814	3275.70833
910.358	3242.70833
913.899	3242.375
917.438	3251.04167
920.973	3205.04167
924.506	3261.375
928.036	3323.70833
931.564	3393.375
935.088	3409.375
938.61	3391.70833
942.129	3443.04167
945.646	3510.375
949.16	3577.04167
952.671	3601.70833
956.179	3624.04167
959.685	3603.04167
963.188	3627.70833
966.688	3592.04167
970.185	3473.04167
973.68	3419.04167
977.173	3342.70833
980.662	3304.375
984.149	3292.375
987.633	3273.375
991.114	3324.375
994.593	3385.375
998.069	3475.375
1001.542	3572.04167
1005.013	3521.04167
1008.481	3322.70833
1011.947	3268.375
1015.409	3227.04167
1018.869	3206.375
1022.327	3234.04167
1025.782	3215.04167
1029.234	3198.04167
1032.683	3176.04167
1036.13	3084.375
1039.574	2960.04167
1043.016	2896.375
1046.455	2835.70833
1049.891	2817.375
1053.325	2819.70833
1056.756	2833.375
1060.184	2837.04167
1063.61	2848.70833
1067.033	2863.70833
1070.454	2861.70833
1073.872	2883.375
1077.287	2881.70833
1080.7	2879.70833
1084.11	2862.04167
1087.517	2850.04167
1090.922	2806.04167
1094.325	2789.375
1097.724	2777.375
1101.122	2768.375
1104.516	2759.375
1107.908	2753.375
1111.298	2811.70833
1114.684	2817.375
1118.069	2857.70833
1121.45	2894.70833
1124.83	2867.04167
1128.206	2887.04167
1131.58	2945.375
1134.951	2987.375
1138.32	3063.70833
1141.687	3169.375
1145.05	3240.70833
1148.412	3262.375
1151.77	3260.04167
1155.126	3238.375
1158.48	3235.04167
1161.831	3247.375
1165.18	3236.375
1168.525	3295.375
1171.869	3357.70833
1175.21	3345.375
1178.548	3383.375
1181.884	3429.375
1185.217	3447.70833
1188.548	3532.04167
1191.877	3572.70833
1195.202	3705.04167
1198.526	3751.04167
1201.846	3791.04167
1205.165	3785.04167
1208.48	3743.70833
1211.794	3708.70833
1215.104	3730.04167
1218.413	3724.375
1221.719	3715.04167
1225.022	3622.04167
1228.323	3573.04167
1231.621	3555.375
1234.917	3531.375
1238.21	3549.375
1241.501	3516.70833
1244.79	3532.375
1248.076	3512.375
1251.359	3554.04167
1254.64	3608.70833
1257.919	3636.70833
1261.195	3712.04167
1264.468	3783.04167
1267.74	3818.375
1271.008	3820.375
1274.275	3825.375
1277.538	3745.04167
1280.8	3779.70833
1284.059	3775.375
1287.315	3795.70833
1290.569	3808.375
1293.821	3812.70833
1297.07	3822.375
1300.317	3832.04167
1303.562	3810.375
1306.803	3798.375
1310.043	3770.70833
1313.28	3778.70833
1316.515	3768.04167
1319.747	3736.70833
1322.977	3700.70833
1326.204	3658.04167
1329.429	3631.375
1332.652	3588.70833
1335.872	3579.04167
1339.09	3555.70833
1342.306	3521.04167
1345.519	3461.375
1348.729	3438.04167
1351.938	3415.375
1355.144	3363.04167
1358.347	3336.04167
1361.548	3290.70833
1364.747	3294.70833
1367.944	3246.70833
1371.138	3250.70833
1374.329	3270.70833
1377.518	3281.375
1380.705	3313.70833
1383.89	3278.375
1387.072	3184.375
1390.252	3109.70833
1393.429	2990.375
1396.605	2896.375
1399.777	2832.70833
1402.948	2790.70833
1406.116	2756.375
1409.282	2746.04167
1412.445	2750.70833
1415.606	2778.04167
1418.765	2817.70833
1421.921	2863.375
1425.075	2911.04167
1428.227	3009.375
1431.376	3114.375
1434.524	3229.04167
1437.668	3341.70833
1440.811	3386.375
1443.951	3375.375
1447.089	3415.04167
1450.224	3395.375
1453.357	3385.70833
1456.488	3366.375
1459.617	3329.375
1462.743	3275.70833
1465.867	3196.375
1468.989	3170.70833
1472.108	3132.70833
1475.225	3067.70833
1478.34	3030.70833
1481.453	3030.70833
1484.563	3024.375
1487.671	3043.375
1490.776	3096.70833
1493.88	3139.04167
1496.981	3167.375
1500.08	3217.70833
1503.176	3279.04167
1506.271	3303.04167
1509.363	3336.04167
1512.452	3369.375
1515.54	3417.375
1518.625	3463.70833
1521.708	3573.04167
1524.789	3648.375
1527.867	3806.375
1530.944	3991.70833
1534.018	4123.375
1537.089	4276.70833
1540.159	4326.375
1543.226	4304.70833
1546.291	4220.04167
1549.354	4156.70833
1552.415	4058.375
1555.473	3931.375
1558.529	3884.04167
1561.583	3807.70833
1564.634	3826.70833
1567.684	3797.70833
1570.731	3824.70833
1573.776	3859.375
1576.819	3913.375
1579.859	3981.04167
1582.898	4009.375
1585.934	4049.70833
1588.968	4073.04167
1591.999	4075.70833
1595.029	4084.375
1598.056	4106.70833
1601.081	4117.04167
1604.104	4104.375
1607.125	4070.70833
1610.144	4000.04167
1613.16	3926.04167
1616.174	3849.375
1619.186	3739.70833
1622.196	3684.04167
1625.203	3605.04167
1628.209	3544.04167
1631.212	3506.375
1634.213	3530.70833
1637.212	3519.70833
1640.209	3477.375
1643.203	3384.04167
1646.196	3259.70833
1649.186	3119.70833
1652.174	2989.70833
1655.16	2878.04167
1658.144	2781.04167
1661.125	2658.375
1664.105	2562.04167
1667.082	2435.70833
1670.057	2302.04167
1673.03	2210.70833
1676.001	2057.70833
1678.97	1930.375
1681.937	1816.04167
1684.901	1712.375
1687.863	1679.04167
1690.824	1591.375
1693.782	1540.70833
1696.738	1511.04167
1699.692	1469.375
1702.643	1428.70833
1705.593	1420.04167
1708.54	1398.70833
1711.486	1399.04167
1714.429	1350.04167
1717.37	1367.04167
1720.309	1324.04167
1723.246	1338.04167
1726.181	1304.375
1729.113	1314.375
1732.044	1285.70833
1734.972	1283.375
1737.899	1290.70833
1740.823	1269.70833
1743.745	1275.375
1746.665	1221.375
1749.583	1194.375
1752.499	1199.04167
1755.413	1188.04167
1758.325	1154.375
1761.235	1134.375
1764.142	1131.375
1767.048	1112.70833
1769.951	1121.375
1772.852	1127.04167
1775.752	1156.04167
1778.649	1190.04167
1781.544	1121.70833
1784.437	1086.375
1787.328	1078.375
1790.217	1075.04167
1793.104	1052.70833
1795.989	1044.375
1798.872	1053.04167
1801.753	1058.70833
1804.631	1053.375
1807.508	1062.375
1810.383	1051.375
1813.255	1042.04167
1816.126	1035.375
1818.994	1022.04167
1821.861	1009.70833
1824.725	1023.375
1827.587	1003.70833
1830.448	986.375
1833.306	979.375
1836.162	994.70833
1839.017	983.70833
1841.869	974.04167
1844.719	984.04167
1847.567	960.04167
1850.414	946.375
1853.258	953.70833
1856.1	973.04167
1858.94	970.375
1861.778	961.70833
1864.614	953.04167
1867.448	960.04167
1870.28	940.70833
1873.111	958.04167
1875.939	949.70833
1878.765	972.04167
1881.589	940.375
1884.411	944.04167
1887.231	944.70833
1890.049	928.70833
1892.865	929.375
1895.68	919.70833
1898.492	947.375
1901.302	936.375
1904.11	919.375
1906.916	909.375
1909.721	890.375
1912.523	902.375
1915.323	887.70833
1918.122	887.375
1920.918	898.375
1923.712	875.70833
1926.505	875.70833
1929.295	859.70833
1932.084	885.70833
1934.87	878.70833
1937.655	862.375
1940.438	874.04167
1943.218	878.04167
1945.997	878.375
1948.774	871.375
1951.549	880.375
1954.322	863.70833
1957.093	867.04167
1959.862	854.70833
1962.629	846.375
1965.394	844.375
1968.157	824.375
1970.918	836.375
1973.678	836.04167
1976.435	837.70833
1979.19	821.70833
1981.944	812.04167
1984.696	817.375
1987.445	802.04167
1990.193	818.375
1992.939	829.04167
1995.683	811.70833
1998.425	800.04167
2001.165	816.375
2003.903	804.70833
2006.639	807.04167
2009.374	805.04167
2012.106	807.375
2014.837	781.70833
2017.566	802.04167
2020.292	798.04167
2023.017	786.375
2025.74	781.375
2028.461	771.375
2031.18	784.70833
2033.898	781.70833
2036.613	766.375
2039.327	782.04167
2042.038	751.375
2044.748	767.04167
2047.456	768.70833
2050.162	750.04167
2052.866	760.04167
2055.568	768.04167
2058.268	751.04167
2060.967	759.70833
2063.663	744.375
2066.358	758.375
2069.051	741.04167
2071.742	746.04167
2074.431	742.70833
2077.118	746.04167
2079.804	725.375
2082.487	735.04167
2085.169	753.70833
2087.849	770.375
2090.527	742.375
2093.203	745.375
2095.877	752.70833
2098.55	747.70833
2101.22	746.04167
2103.889	760.375
2106.556	738.04167
2109.221	770.04167
2111.884	766.375
2114.546	810.70833
2117.205	834.04167
2119.863	889.04167
2122.519	907.70833
2125.173	986.04167
2127.825	1016.70833
2130.475	1038.70833
2133.124	1007.04167
2135.771	984.70833
2138.416	961.375
2141.059	888.04167
2143.7	875.04167
2146.339	827.375
2148.977	775.04167
2151.613	776.70833
2154.247	765.04167
2156.879	755.375
2159.51	724.375
2162.138	720.04167
2164.765	729.70833
2167.39	692.04167
2170.013	721.04167
2172.634	697.70833
2175.254	698.04167
2177.872	726.04167
2180.488	682.375
2183.102	687.04167
2185.714	675.70833
2188.325	655.70833
2190.934	665.70833
2193.541	667.70833
2196.146	653.70833
2198.75	640.375
2201.351	649.04167
2203.951	635.04167
2206.549	644.375
2209.146	630.04167
2211.74	628.04167
2214.333	632.04167
2216.924	615.70833
2219.514	628.04167
2222.101	612.375
2224.687	636.70833
2227.271	604.375
2229.853	606.375
2232.433	595.375
2235.012	622.04167
2237.589	615.70833
2240.164	623.375
2242.738	606.375
2245.309	589.375
2247.879	603.70833
2250.448	600.70833
2253.014	583.70833
2255.579	563.70833
2258.142	580.04167
2260.703	567.04167
2263.262	571.375
2265.82	565.70833
2268.376	564.04167
2270.93	544.70833
2273.483	550.375
2276.033	553.70833
2278.583	552.04167
2281.13	544.375
2283.675	533.70833
2286.219	535.70833
2288.761	540.04167
2291.302	538.375
2293.841	551.70833
2296.377	526.04167
2298.913	534.375
2301.446	533.375
2303.978	528.375
2306.508	528.04167
2309.037	518.70833
2311.563	526.04167
2314.088	518.375
2316.612	507.375
2319.133	523.04167
2321.653	529.375
2324.171	502.04167
2326.688	520.04167
2329.202	516.375
2331.715	511.04167
2334.227	504.04167
2336.736	516.375
2339.244	499.04167
2341.751	496.04167
2344.255	503.375
2346.758	506.70833
2349.259	492.375
2351.759	494.04167
2354.257	481.70833
2356.753	481.70833
2359.247	488.375
2361.74	488.70833
2364.231	486.70833
2366.721	484.04167
2369.209	479.70833
2371.695	489.70833
2374.179	477.375
2376.662	473.04167
2379.143	488.375
2381.622	477.04167
2384.1	491.04167
2386.576	476.70833
2389.051	496.70833
2391.524	494.70833
2393.995	488.375
2396.464	462.04167
2398.932	469.375
2401.398	464.04167
2403.863	470.70833
2406.325	462.70833
2408.787	463.375
2411.246	464.04167
2413.704	459.375
2416.16	459.70833
2418.615	463.70833
2421.068	468.04167
2423.519	468.04167
2425.969	456.375
2428.417	456.70833
2430.863	478.04167
2433.308	467.70833
2435.751	459.70833
2438.193	458.375
2440.633	450.70833
2443.071	445.04167
2445.508	446.70833
2447.943	449.04167
2450.376	439.70833
2452.808	445.375
2455.238	440.375
2457.667	479.04167
2460.093	439.70833
2462.519	433.70833
2464.942	440.375
2467.365	449.375
2469.785	444.70833
2472.204	435.70833
2474.621	422.04167
2477.037	453.375
2479.451	419.70833
2481.863	420.04167
2484.274	425.70833
2486.683	431.04167
2489.091	433.04167
2491.497	432.04167
2493.901	439.04167
2496.304	433.375
2498.705	437.375
2501.105	423.70833
2503.503	450.375
2505.899	412.04167
2508.294	444.04167
2510.687	418.70833
2513.079	420.70833
2515.469	410.375
2517.858	418.375
2520.245	420.04167
2522.63	414.70833
2525.014	413.04167
2527.396	416.70833
2529.776	408.70833
2532.156	423.70833
2534.533	408.04167
2536.909	410.70833
2539.283	384.70833
2541.656	403.375
2544.027	427.375
2546.397	403.04167
2548.765	405.04167
2551.131	406.04167
2553.496	402.04167
2555.86	406.70833
2558.221	401.70833
2560.582	403.04167
2562.94	395.70833
2565.298	402.04167
2567.653	415.70833
2570.007	388.375
2572.36	404.04167
2574.711	392.04167
2577.06	413.70833
2579.408	403.04167
2581.754	402.04167
2584.099	405.04167
2586.442	396.70833
2588.784	393.70833
2591.124	397.375
2593.463	399.70833
2595.8	399.70833
2598.135	390.375
2600.469	385.70833
2602.802	389.70833
2605.133	395.375
2607.462	387.04167
2609.79	378.70833
2612.116	385.04167
2614.441	391.70833
2616.764	395.70833
2619.086	389.04167
2621.406	393.70833
2623.725	406.375
2626.042	394.70833
2628.358	379.04167
2630.672	378.70833
2632.985	408.70833
2635.296	391.04167
2637.606	393.375
2639.914	378.375
2642.22	390.04167
2644.525	382.04167
2646.829	391.375
2649.131	394.70833
2651.432	398.70833
2653.731	396.375
2656.028	401.375
2658.324	403.04167
2660.619	384.04167
2662.912	409.70833
2665.204	382.04167
2667.494	396.04167
2669.782	378.70833
2672.07	399.375
2674.355	399.04167
2676.639	397.70833
2678.922	380.04167
2681.203	387.375
2683.483	379.04167
2685.761	385.04167
2688.038	385.70833
2690.313	407.70833
2692.587	390.04167
2694.859	389.375
2697.13	395.70833
2699.399	404.375
2701.667	402.375
2703.933	403.04167
2706.198	408.04167
2708.461	419.70833
2710.723	406.70833
2712.984	404.375
2715.243	411.04167
2717.5	403.04167
2719.757	422.04167
2722.011	405.04167
2724.264	414.375
2726.516	432.04167
2728.766	403.04167
2731.015	413.70833
2733.262	419.375
2735.508	416.70833
2737.753	418.04167
2739.996	414.375
2742.237	402.375
2744.477	416.04167
2746.716	408.70833
2748.953	408.04167
2751.189	409.70833
2753.423	392.04167
2755.656	392.04167
2757.887	396.04167
2760.117	390.04167
2762.346	380.04167
2764.573	374.04167
2766.798	387.04167
2769.022	390.04167
2771.245	397.70833
2773.467	391.375
2775.686	395.70833
2777.905	391.04167
2780.122	395.04167
2782.337	400.375
2784.552	403.70833
2786.764	402.70833
2788.976	406.04167
2791.186	404.04167
2793.394	411.375
2795.601	408.70833
2797.807	417.70833
2800.011	422.70833
2802.214	421.04167
2804.415	423.70833
2806.615	420.04167
2808.814	430.70833
2811.011	434.70833
2813.206	434.375
2815.401	442.04167
2817.594	458.70833
2819.785	457.70833
2821.975	447.04167
2824.164	458.04167
2826.351	477.375
2828.537	484.04167
2830.722	493.04167
2832.905	481.70833
2835.086	526.70833
2837.267	543.70833
2839.445	562.70833
2841.623	573.70833
2843.799	603.375
2845.974	627.70833
2848.147	657.04167
2850.319	692.375
2852.489	714.70833
2854.659	733.70833
2856.826	731.04167
2858.993	760.375
2861.158	740.04167
2863.321	749.04167
2865.483	754.04167
2867.644	763.04167
2869.804	769.04167
2871.962	749.04167
2874.118	768.70833
2876.274	799.375
2878.428	790.375
2880.58	777.70833
2882.731	757.375
2884.881	763.70833
2887.03	765.375
2889.177	767.375
2891.322	763.375
2893.467	773.70833
2895.61	776.04167
2897.751	803.04167
2899.892	766.04167
2902.03	773.375
2904.168	798.375
2906.304	788.70833
2908.439	808.04167
2910.572	800.375
2912.704	812.04167
2914.835	804.04167
2916.965	800.375
2919.093	828.375
2921.219	813.04167
2923.345	815.04167
2925.469	779.70833
2927.591	794.04167
2929.712	763.375
2931.832	766.70833
2933.951	749.70833
2936.068	732.375
2938.184	718.04167
2940.299	684.04167
2942.412	682.70833
2944.524	642.375
2946.634	646.70833
2948.744	588.04167
2950.851	615.70833
2952.958	576.04167
2955.063	576.375
2957.167	567.04167
2959.269	529.70833
2961.371	571.70833
2963.471	523.70833
2965.569	528.04167
2967.666	501.04167
2969.762	497.375
2971.857	481.04167
2973.95	466.375
2976.042	468.04167
2978.133	455.375
2980.222	434.70833
2982.31	420.04167
2984.396	411.70833
2986.482	414.70833
2988.566	409.70833
2990.648	407.375
2992.73	402.375
2994.81	389.04167
2996.889	394.375
2998.966	384.70833
3001.042	394.04167
3003.117	385.04167
3005.191	383.04167
3007.263	380.04167
3009.334	370.375
3011.403	383.375
3013.472	358.04167
3015.539	365.04167
3017.604	371.04167
3019.669	329.375
3021.732	345.70833
3023.794	345.04167
3025.854	342.375
3027.914	345.375
3029.971	346.375
3032.028	333.70833
3034.083	332.04167
3036.137	342.04167
3038.19	320.04167
3040.242	319.375
3042.292	304.70833
3044.341	303.04167
3046.388	322.04167
3048.435	301.375
3050.48	314.70833
3052.524	305.70833
3054.566	295.70833
3056.607	303.70833
3058.647	294.70833
3060.686	283.04167
3062.723	274.04167
3064.759	262.375
3066.794	-0.29167
3068.828	3.375
3070.86	1.375
