-0.839	403.08333
3.438	482.75
7.711	150.08333
11.981	52.75
16.247	44.75
20.509	52.41667
24.768	48.75
29.024	54.41667
33.276	43.08333
37.524	49.08333
41.769	43.41667
46.01	35.08333
50.247	45.08333
54.481	60.08333
58.712	65.75
62.939	49.08333
67.162	67.41667
71.382	62.08333
75.599	48.75
79.812	60.75
84.021	80.08333
88.227	62.08333
92.429	60.41667
96.628	58.08333
100.823	72.08333
105.015	78.75
109.204	67.75
113.388	75.08333
117.57	74.41667
121.748	89.08333
125.922	80.75
130.093	102.41667
134.261	98.08333
138.425	98.75
142.585	140.41667
146.742	132.08333
150.896	155.41667
155.046	195.41667
159.193	303.75
163.336	517.08333
167.476	924.75
171.613	1719.08333
175.746	2873.08333
179.875	4266.41667
184.002	5576.08333
188.124	6546.75
192.244	6883.75
196.36	6904.75
200.472	6749.08333
204.581	6649.41667
208.687	6563.08333
212.79	6494.75
216.889	6552.75
220.984	6609.08333
225.077	6669.75
229.165	6773.75
233.251	6833.08333
237.333	6842.41667
241.412	6822.75
245.487	6759.75
249.559	6669.41667
253.628	6656.08333
257.694	6572.75
261.756	6543.75
265.814	6385.75
269.87	6180.75
273.922	5941.41667
277.97	5757.08333
282.016	5618.41667
286.058	5534.75
290.097	5627.08333
294.132	5616.08333
298.164	5630.75
302.193	5375.75
306.219	4998.41667
310.241	4608.41667
314.26	4240.08333
318.276	3975.41667
322.288	3792.08333
326.297	3611.08333
330.303	3501.08333
334.305	3410.75
338.305	3400.08333
342.301	3366.75
346.294	3288.08333
350.283	3281.08333
354.269	3264.08333
358.252	3211.75
362.232	3224.75
366.209	3219.08333
370.182	3154.75
374.152	3133.75
378.119	3169.41667
382.083	3147.75
386.043	3160.41667
390	3124.41667
393.954	3136.41667
397.905	3128.75
401.852	3123.75
405.797	3098.08333
409.738	3080.08333
413.676	3116.08333
417.61	3079.41667
421.542	3050.41667
425.47	3041.08333
429.396	3005.08333
433.318	2988.08333
437.236	2979.08333
441.152	3011.08333
445.065	2949.41667
448.974	2954.08333
452.88	2930.75
456.783	2917.41667
460.683	2905.41667
464.58	2875.08333
468.473	2892.75
472.364	2919.75
476.251	2897.41667
480.135	2944.75
484.016	2960.08333
487.894	3017.08333
491.769	3005.08333
495.641	2998.08333
499.509	2989.75
503.375	3008.41667
507.237	3001.41667
511.096	3013.41667
514.952	3081.41667
518.805	3155.41667
522.655	3198.08333
526.502	3080.08333
530.346	2993.08333
534.187	2999.08333
538.024	2986.75
541.859	3024.75
545.69	3042.41667
549.519	3022.08333
553.344	2993.75
557.166	2956.41667
560.985	2922.75
564.802	2868.08333
568.615	2814.41667
572.425	2770.75
576.232	2763.08333
580.036	2760.41667
583.836	2764.08333
587.634	2777.75
591.429	2785.08333
595.221	2846.41667
599.01	2879.75
602.796	2905.41667
606.578	2912.41667
610.358	2941.41667
614.135	2885.08333
617.909	2872.41667
621.679	2829.08333
625.447	2823.75
629.212	2810.41667
632.973	2812.75
636.732	2809.41667
640.488	2803.41667
644.241	2784.08333
647.991	2788.75
651.737	2810.41667
655.481	2789.75
659.222	2810.75
662.96	2782.75
666.695	2838.75
670.427	2835.41667
674.156	2834.08333
677.882	2828.41667
681.605	2804.41667
685.325	2766.41667
689.043	2782.41667
692.757	2740.41667
696.468	2749.41667
700.177	2746.08333
703.882	2714.08333
707.585	2726.41667
711.284	2721.08333
714.981	2696.08333
718.675	2716.08333
722.366	2741.08333
726.054	2690.41667
729.739	2692.75
733.421	2703.08333
737.1	2706.08333
740.777	2736.08333
744.45	2744.41667
748.121	2767.08333
751.789	2792.75
755.453	2787.41667
759.115	2822.75
762.774	2844.08333
766.431	2854.75
770.084	2894.08333
773.734	2898.75
777.382	2941.75
781.027	2992.08333
784.669	3021.75
788.308	2997.41667
791.944	3012.75
795.577	3006.41667
799.208	3031.41667
802.835	3040.08333
806.46	3057.08333
810.082	3091.08333
813.701	3145.75
817.317	3136.08333
820.931	3153.75
824.542	3118.75
828.149	3106.75
831.754	3065.08333
835.357	3037.41667
838.956	3033.41667
842.553	3056.41667
846.146	3046.75
849.737	3017.08333
853.326	3020.41667
856.911	3006.08333
860.493	3038.75
864.073	3033.75
867.65	3105.41667
871.225	3122.08333
874.796	3124.41667
878.365	3133.75
881.931	3139.08333
885.494	3175.75
889.054	3164.75
892.612	3145.08333
896.166	3123.41667
899.719	3088.08333
903.268	3078.75
906.814	3040.75
910.358	3008.75
913.899	3015.08333
917.438	3004.75
920.973	2976.08333
924.506	3012.41667
928.036	3090.75
931.564	3137.41667
935.088	3182.75
938.61	3178.75
942.129	3204.08333
945.646	3262.08333
949.16	3325.08333
952.671	3376.41667
956.179	3391.08333
959.685	3370.41667
963.188	3372.75
966.688	3359.41667
970.185	3233.41667
973.68	3185.08333
977.173	3127.08333
980.662	3074.08333
984.149	3069.75
987.633	3067.08333
991.114	3124.75
994.593	3153.41667
998.069	3248.08333
1001.542	3341.75
1005.013	3274.41667
1008.481	3100.41667
1011.947	3061.08333
1015.409	3030.08333
1018.869	3013.08333
1022.327	3022.75
1025.782	2999.75
1029.234	3017.41667
1032.683	2951.41667
1036.13	2882.41667
1039.574	2794.41667
1043.016	2705.75
1046.455	2624.08333
1049.891	2624.08333
1053.325	2634.08333
1056.756	2635.08333
1060.184	2662.08333
1063.61	2657.08333
1067.033	2672.41667
1070.454	2677.41667
1073.872	2703.08333
1077.287	2689.75
1080.7	2700.41667
1084.11	2695.75
1087.517	2676.08333
1090.922	2617.41667
1094.325	2589.75
1097.724	2577.75
1101.122	2590.08333
1104.516	2589.41667
1107.908	2577.75
1111.298	2614.75
1114.684	2659.08333
1118.069	2679.41667
1121.45	2694.75
1124.83	2689.41667
1128.206	2729.08333
1131.58	2770.75
1134.951	2814.75
1138.32	2927.08333
1141.687	3044.75
1145.05	3111.41667
1148.412	3124.41667
1151.77	3108.08333
1155.126	3119.75
1158.48	3085.75
1161.831	3090.41667
1165.18	3109.75
1168.525	3143.75
1171.869	3182.75
1175.21	3197.08333
1178.548	3234.75
1181.884	3250.08333
1185.217	3274.08333
1188.548	3372.41667
1191.877	3400.08333
1195.202	3505.08333
1198.526	3570.75
1201.846	3579.41667
1205.165	3593.08333
1208.48	3563.41667
1211.794	3525.41667
1215.104	3544.08333
1218.413	3539.08333
1221.719	3548.75
1225.022	3487.41667
1228.323	3431.75
1231.621	3407.08333
1234.917	3357.75
1238.21	3405.08333
1241.501	3376.75
1244.79	3361.08333
1248.076	3347.41667
1251.359	3398.75
1254.64	3482.41667
1257.919	3496.41667
1261.195	3555.75
1264.468	3595.08333
1267.74	3636.41667
1271.008	3639.41667
1274.275	3686.08333
1277.538	3621.41667
1280.8	3590.08333
1284.059	3604.08333
1287.315	3632.08333
1290.569	3645.41667
1293.821	3667.41667
1297.07	3685.08333
1300.317	3681.75
1303.562	3699.41667
1306.803	3663.41667
1310.043	3663.41667
1313.28	3595.41667
1316.515	3574.08333
1319.747	3568.75
1322.977	3539.41667
1326.204	3487.08333
1329.429	3417.41667
1332.652	3438.41667
1335.872	3420.08333
1339.09	3352.75
1342.306	3336.08333
1345.519	3315.08333
1348.729	3301.08333
1351.938	3300.41667
1355.144	3238.08333
1358.347	3184.75
1361.548	3177.08333
1364.747	3159.08333
1367.944	3122.08333
1371.138	3138.75
1374.329	3120.75
1377.518	3132.41667
1380.705	3156.75
1383.89	3152.41667
1387.072	3043.08333
1390.252	2959.75
1393.429	2838.75
1396.605	2767.08333
1399.777	2661.41667
1402.948	2625.08333
1406.116	2625.08333
1409.282	2597.41667
1412.445	2619.75
1415.606	2636.75
1418.765	2659.41667
1421.921	2691.75
1425.075	2794.41667
1428.227	2866.41667
1431.376	2970.75
1434.524	3085.41667
1437.668	3180.08333
1440.811	3238.75
1443.951	3260.41667
1447.089	3272.41667
1450.224	3279.41667
1453.357	3258.75
1456.488	3241.41667
1459.617	3188.08333
1462.743	3136.08333
1465.867	3046.08333
1468.989	3032.41667
1472.108	2969.41667
1475.225	2940.75
1478.34	2884.41667
1481.453	2899.41667
1484.563	2878.41667
1487.671	2936.75
1490.776	2977.75
1493.88	3012.41667
1496.981	3051.75
1500.08	3102.75
1503.176	3144.41667
1506.271	3204.08333
1509.363	3258.41667
1512.452	3270.75
1515.54	3306.75
1518.625	3369.41667
1521.708	3432.08333
1524.789	3544.75
1527.867	3687.41667
1530.944	3895.41667
1534.018	4073.75
1537.089	4211.75
1540.159	4236.08333
1543.226	4208.41667
1546.291	4104.41667
1549.354	4031.08333
1552.415	3950.75
1555.473	3858.41667
1558.529	3770.75
1561.583	3717.41667
1564.634	3676.75
1567.684	3696.41667
1570.731	3721.75
1573.776	3757.08333
1576.819	3816.08333
1579.859	3878.41667
1582.898	3915.08333
1585.934	3972.41667
1588.968	3952.08333
1591.999	3946.41667
1595.029	3932.41667
1598.056	3949.75
1601.081	4002.41667
1604.104	3975.41667
1607.125	3948.41667
1610.144	3868.75
1613.16	3760.41667
1616.174	3685.08333
1619.186	3631.41667
1622.196	3550.75
1625.203	3471.75
1628.209	3430.08333
1631.212	3403.41667
1634.213	3386.75
1637.212	3409.41667
1640.209	3345.41667
1643.203	3278.41667
1646.196	3136.41667
1649.186	2984.08333
1652.174	2894.08333
1655.16	2792.08333
1658.144	2710.08333
1661.125	2558.75
1664.105	2436.75
1667.082	2325.08333
1670.057	2208.41667
1673.03	2070.41667
1676.001	1947.75
1678.97	1829.41667
1681.937	1704.75
1684.901	1608.08333
1687.863	1581.08333
1690.824	1488.75
1693.782	1458.75
1696.738	1402.08333
1699.692	1382.08333
1702.643	1335.08333
1705.593	1318.08333
1708.54	1306.75
1711.486	1309.08333
1714.429	1280.41667
1717.37	1266.41667
1720.309	1228.75
1723.246	1241.75
1726.181	1213.75
1729.113	1224.08333
1732.044	1202.08333
1734.972	1190.08333
1737.899	1174.08333
1740.823	1194.75
1743.745	1180.08333
1746.665	1139.08333
1749.583	1119.75
1752.499	1100.75
1755.413	1089.41667
1758.325	1060.08333
1761.235	1058.41667
1764.142	1044.08333
1767.048	1044.41667
1769.951	1046.08333
1772.852	1038.75
1775.752	1028.41667
1778.649	1023.41667
1781.544	1017.75
1784.437	981.41667
1787.328	990.41667
1790.217	996.08333
1793.104	978.75
1795.989	963.41667
1798.872	956.75
1801.753	969.08333
1804.631	964.41667
1807.508	961.41667
1810.383	973.41667
1813.255	951.08333
1816.126	953.75
1818.994	958.08333
1821.861	941.75
1824.725	934.08333
1827.587	931.08333
1830.448	923.08333
1833.306	911.41667
1836.162	907.41667
1839.017	914.08333
1841.869	901.41667
1844.719	912.75
1847.567	884.08333
1850.414	882.75
1853.258	875.41667
1856.1	896.41667
1858.94	905.75
1861.778	878.75
1864.614	878.41667
1867.448	882.08333
1870.28	874.75
1873.111	906.08333
1875.939	882.08333
1878.765	892.41667
1881.589	863.75
1884.411	868.41667
1887.231	877.08333
1890.049	863.41667
1892.865	867.08333
1895.68	847.08333
1898.492	861.41667
1901.302	858.75
1904.11	858.75
1906.916	842.08333
1909.721	823.08333
1912.523	853.41667
1915.323	822.41667
1918.122	825.08333
1920.918	828.08333
1923.712	824.41667
1926.505	827.75
1929.295	806.08333
1932.084	827.08333
1934.87	821.41667
1937.655	813.75
1940.438	810.41667
1943.218	804.75
1945.997	828.75
1948.774	828.08333
1951.549	821.08333
1954.322	812.41667
1957.093	804.41667
1959.862	809.08333
1962.629	805.08333
1965.394	776.75
1968.157	783.75
1970.918	786.75
1973.678	774.41667
1976.435	801.08333
1979.19	777.75
1981.944	764.08333
1984.696	777.75
1987.445	760.75
1990.193	771.41667
1992.939	786.08333
1995.683	760.08333
1998.425	755.41667
2001.165	783.41667
2003.903	754.41667
2006.639	753.41667
2009.374	764.08333
2012.106	760.75
2014.837	746.75
2017.566	760.75
2020.292	756.08333
2023.017	755.41667
2025.74	742.41667
2028.461	746.41667
2031.18	744.41667
2033.898	746.75
2036.613	738.41667
2039.327	747.75
2042.038	728.08333
2044.748	733.75
2047.456	744.41667
2050.162	714.75
2052.866	734.08333
2055.568	735.08333
2058.268	721.75
2060.967	727.08333
2063.663	711.75
2066.358	723.41667
2069.051	699.08333
2071.742	724.08333
2074.431	716.08333
2077.118	711.75
2079.804	709.41667
2082.487	708.08333
2085.169	723.08333
2087.849	725.75
2090.527	701.75
2093.203	705.75
2095.877	719.41667
2098.55	729.75
2101.22	730.08333
2103.889	732.75
2106.556	727.08333
2109.221	743.41667
2111.884	739.41667
2114.546	780.08333
2117.205	811.75
2119.863	856.41667
2122.519	875.08333
2125.173	934.75
2127.825	993.41667
2130.475	994.41667
2133.124	983.41667
2135.771	947.41667
2138.416	924.41667
2141.059	875.08333
2143.7	856.41667
2146.339	802.08333
2148.977	764.75
2151.613	776.41667
2154.247	740.08333
2156.879	725.08333
2159.51	714.41667
2162.138	707.41667
2164.765	705.41667
2167.39	690.08333
2170.013	708.75
2172.634	693.08333
2175.254	694.08333
2177.872	719.41667
2180.488	673.41667
2183.102	688.41667
2185.714	670.41667
2188.325	651.41667
2190.934	661.41667
2193.541	664.75
2196.146	653.75
2198.75	644.08333
2201.351	631.08333
2203.951	633.41667
2206.549	648.41667
2209.146	630.41667
2211.74	633.08333
2214.333	631.41667
2216.924	619.41667
2219.514	637.08333
2222.101	622.08333
2224.687	635.41667
2227.271	628.75
2229.853	617.08333
2232.433	605.75
2235.012	621.41667
2237.589	629.41667
2240.164	642.75
2242.738	611.75
2245.309	597.41667
2247.879	612.08333
2250.448	621.08333
2253.014	593.08333
2255.579	574.08333
2258.142	587.41667
2260.703	571.75
2263.262	586.08333
2265.82	580.75
2268.376	580.75
2270.93	568.41667
2273.483	573.75
2276.033	569.08333
2278.583	564.08333
2281.13	561.08333
2283.675	551.75
2286.219	564.08333
2288.761	556.08333
2291.302	575.08333
2293.841	582.08333
2296.377	550.08333
2298.913	547.75
2301.446	576.75
2303.978	567.08333
2306.508	548.41667
2309.037	569.08333
2311.563	559.75
2314.088	567.75
2316.612	540.75
2319.133	555.41667
2321.653	550.08333
2324.171	539.75
2326.688	544.75
2329.202	549.08333
2331.715	550.08333
2334.227	544.08333
2336.736	551.41667
2339.244	537.75
2341.751	524.75
2344.255	551.08333
2346.758	551.75
2349.259	524.75
2351.759	535.08333
2354.257	537.08333
2356.753	520.08333
2359.247	530.75
2361.74	538.75
2364.231	533.08333
2366.721	541.41667
2369.209	536.08333
2371.695	535.41667
2374.179	528.41667
2376.662	526.08333
2379.143	541.08333
2381.622	522.08333
2384.1	529.75
2386.576	523.75
2389.051	538.08333
2391.524	545.08333
2393.995	536.75
2396.464	523.41667
2398.932	524.08333
2401.398	521.75
2403.863	517.08333
2406.325	526.08333
2408.787	533.41667
2411.246	529.75
2413.704	518.08333
2416.16	526.75
2418.615	526.41667
2421.068	528.08333
2423.519	538.75
2425.969	512.08333
2428.417	539.41667
2430.863	536.08333
2433.308	533.08333
2435.751	533.08333
2438.193	530.08333
2440.633	526.08333
2443.071	524.75
2445.508	518.41667
2447.943	523.41667
2450.376	506.41667
2452.808	527.41667
2455.238	516.75
2457.667	559.75
2460.093	516.75
2462.519	510.08333
2464.942	523.75
2467.365	525.08333
2469.785	533.08333
2472.204	519.08333
2474.621	513.75
2477.037	536.08333
2479.451	504.41667
2481.863	497.41667
2484.274	510.41667
2486.683	500.08333
2489.091	526.08333
2491.497	516.08333
2493.901	523.41667
2496.304	508.75
2498.705	535.75
2501.105	518.75
2503.503	542.08333
2505.899	508.08333
2508.294	530.75
2510.687	523.75
2513.079	515.75
2515.469	503.08333
2517.858	519.08333
2520.245	531.08333
2522.63	509.41667
2525.014	511.75
2527.396	501.08333
2529.776	516.75
2532.156	521.75
2534.533	500.08333
2536.909	512.75
2539.283	498.75
2541.656	501.08333
2544.027	523.41667
2546.397	513.41667
2548.765	505.08333
2551.131	510.75
2553.496	519.08333
2555.86	514.41667
2558.221	515.41667
2560.582	511.41667
2562.94	494.75
2565.298	515.41667
2567.653	528.41667
2570.007	510.08333
2572.36	528.75
2574.711	506.75
2577.06	527.41667
2579.408	518.41667
2581.754	514.08333
2584.099	519.41667
2586.442	510.75
2588.784	523.75
2591.124	526.08333
2593.463	525.41667
2595.8	529.41667
2598.135	521.75
2600.469	511.08333
2602.802	526.41667
2605.133	527.75
2607.462	515.41667
2609.79	509.41667
2612.116	527.41667
2614.441	523.75
2616.764	522.41667
2619.086	524.41667
2621.406	518.08333
2623.725	535.08333
2626.042	529.75
2628.358	519.08333
2630.672	522.08333
2632.985	550.08333
2635.296	532.08333
2637.606	531.75
2639.914	528.75
2642.22	531.08333
2644.525	544.75
2646.829	537.75
2649.131	550.08333
2651.432	550.08333
2653.731	541.41667
2656.028	550.41667
2658.324	563.08333
2660.619	542.41667
2662.912	559.41667
2665.204	542.08333
2667.494	558.75
2669.782	538.41667
2672.07	549.08333
2674.355	555.08333
2676.639	546.08333
2678.922	537.41667
2681.203	562.08333
2683.483	539.41667
2685.761	550.41667
2688.038	557.75
2690.313	573.41667
2692.587	556.75
2694.859	550.08333
2697.13	558.08333
2699.399	575.08333
2701.667	571.41667
2703.933	567.08333
2706.198	563.41667
2708.461	583.08333
2710.723	580.75
2712.984	582.75
2715.243	580.08333
2717.5	575.08333
2719.757	591.08333
2722.011	580.08333
2724.264	592.08333
2726.516	610.41667
2728.766	584.08333
2731.015	599.75
2733.262	602.75
2735.508	596.41667
2737.753	601.08333
2739.996	592.75
2742.237	578.75
2744.477	608.08333
2746.716	606.75
2748.953	581.75
2751.189	589.41667
2753.423	590.41667
2755.656	579.41667
2757.887	577.75
2760.117	574.75
2762.346	572.08333
2764.573	566.41667
2766.798	573.41667
2769.022	578.75
2771.245	591.75
2773.467	583.41667
2775.686	595.41667
2777.905	590.75
2780.122	583.41667
2782.337	601.08333
2784.552	589.41667
2786.764	596.08333
2788.976	604.08333
2791.186	612.41667
2793.394	608.41667
2795.601	621.08333
2797.807	623.08333
2800.011	635.75
2802.214	617.41667
2804.415	630.75
2806.615	633.41667
2808.814	633.41667
2811.011	641.75
2813.206	633.75
2815.401	652.41667
2817.594	654.41667
2819.785	671.08333
2821.975	658.41667
2824.164	659.75
2826.351	681.75
2828.537	693.08333
2830.722	687.08333
2832.905	700.08333
2835.086	723.41667
2837.267	766.08333
2839.445	775.08333
2841.623	785.08333
2843.799	791.08333
2845.974	844.75
2848.147	862.08333
2850.319	879.08333
2852.489	916.75
2854.659	926.08333
2856.826	929.75
2858.993	966.75
2861.158	935.41667
2863.321	947.41667
2865.483	945.75
2867.644	971.08333
2869.804	948.41667
2871.962	953.75
2874.118	954.41667
2876.274	965.41667
2878.428	966.08333
2880.58	939.08333
2882.731	935.75
2884.881	954.75
2887.03	948.41667
2889.177	971.08333
2891.322	973.41667
2893.467	959.75
2895.61	960.41667
2897.751	986.41667
2899.892	965.75
2902.03	978.75
2904.168	985.41667
2906.304	990.41667
2908.439	1009.08333
2910.572	997.08333
2912.704	1015.08333
2914.835	1038.41667
2916.965	1016.08333
2919.093	1021.41667
2921.219	1001.41667
2923.345	1014.75
2925.469	1001.41667
2927.591	996.41667
2929.712	961.75
2931.832	979.08333
2933.951	954.08333
2936.068	930.41667
2938.184	908.08333
2940.299	894.08333
2942.412	888.75
2944.524	854.08333
2946.634	854.08333
2948.744	805.75
2950.851	822.41667
2952.958	811.41667
2955.063	802.41667
2957.167	795.08333
2959.269	758.75
2961.371	794.08333
2963.471	742.08333
2965.569	749.08333
2967.666	732.41667
2969.762	730.08333
2971.857	714.41667
2973.95	706.75
2976.042	688.75
2978.133	684.41667
2980.222	671.41667
2982.31	649.08333
2984.396	639.41667
2986.482	643.41667
2988.566	632.75
2990.648	627.75
2992.73	631.75
2994.81	629.08333
2996.889	621.75
2998.966	629.75
3001.042	630.08333
3003.117	625.08333
3005.191	618.41667
3007.263	614.75
3009.334	608.75
3011.403	624.41667
3013.472	593.75
3015.539	599.08333
3017.604	600.08333
3019.669	568.08333
3021.732	566.08333
3023.794	568.75
3025.854	570.41667
3027.914	558.75
3029.971	571.41667
3032.028	569.75
3034.083	566.75
3036.137	559.08333
3038.19	545.08333
3040.242	526.41667
3042.292	526.08333
3044.341	514.75
3046.388	525.41667
3048.435	511.41667
3050.48	522.41667
3052.524	505.41667
3054.566	495.75
3056.607	501.75
3058.647	491.08333
3060.686	478.75
3062.723	459.75
3064.759	452.41667
3066.794	1.08333
3068.828	1.08333
3070.86	2.08333
