-0.839	465.54167
3.438	569.54167
7.711	171.875
11.981	61.875
16.247	46.875
20.509	52.20833
24.768	46.875
29.024	59.875
33.276	45.20833
37.524	53.20833
41.769	47.20833
46.01	36.875
50.247	51.875
54.481	59.875
58.712	63.875
62.939	53.20833
67.162	69.20833
71.382	62.54167
75.599	49.875
79.812	64.20833
84.021	86.875
88.227	64.54167
92.429	61.20833
96.628	54.54167
100.823	77.20833
105.015	79.875
109.204	72.20833
113.388	78.875
117.57	86.875
121.748	98.875
125.922	88.20833
130.093	103.20833
134.261	101.54167
138.425	110.875
142.585	149.875
146.742	140.20833
150.896	174.54167
155.046	212.20833
159.193	332.54167
163.336	560.875
167.476	1010.54167
171.613	1870.875
175.746	3151.54167
179.875	4663.875
184.002	6147.54167
188.124	7200.20833
192.244	7674.875
196.36	7704.875
200.472	7588.20833
204.581	7484.20833
208.687	7454.54167
212.79	7472.20833
216.889	7516.54167
220.984	7629.54167
225.077	7733.875
229.165	7840.875
233.251	7914.54167
237.333	7939.54167
241.412	7887.20833
245.487	7837.20833
249.559	7800.20833
253.628	7765.875
257.694	7688.20833
261.756	7585.875
265.814	7414.875
269.87	7201.875
273.922	6910.54167
277.97	6709.20833
282.016	6540.875
286.058	6524.20833
290.097	6599.20833
294.132	6596.875
298.164	6494.54167
302.193	6242.20833
306.219	5799.20833
310.241	5415.875
314.26	5016.54167
318.276	4758.875
322.288	4544.20833
326.297	4370.20833
330.303	4260.54167
334.305	4163.20833
338.305	4124.20833
342.301	4072.875
346.294	4042.875
350.283	4011.20833
354.269	4008.875
358.252	3970.875
362.232	3975.20833
366.209	3948.875
370.182	3918.54167
374.152	3918.875
378.119	3923.20833
382.083	3912.875
386.043	3921.20833
390	3906.20833
393.954	3890.875
397.905	3893.20833
401.852	3861.20833
405.797	3844.875
409.738	3860.20833
413.676	3885.20833
417.61	3879.54167
421.542	3846.875
425.47	3783.20833
429.396	3787.54167
433.318	3757.20833
437.236	3738.54167
441.152	3759.875
445.065	3710.875
448.974	3711.875
452.88	3678.875
456.783	3671.54167
460.683	3643.54167
464.58	3670.875
468.473	3645.20833
472.364	3687.875
476.251	3690.20833
480.135	3730.875
484.016	3761.54167
487.894	3748.54167
491.769	3800.875
495.641	3758.20833
499.509	3790.54167
503.375	3797.875
507.237	3774.875
511.096	3737.54167
514.952	3738.20833
518.805	3745.875
522.655	3720.20833
526.502	3746.54167
530.346	3745.54167
534.187	3755.54167
538.024	3771.54167
541.859	3788.20833
545.69	3835.875
549.519	3812.54167
553.344	3758.20833
557.166	3751.54167
560.985	3694.875
564.802	3649.20833
568.615	3573.20833
572.425	3510.875
576.232	3505.875
580.036	3525.54167
583.836	3508.54167
587.634	3548.54167
591.429	3553.54167
595.221	3618.54167
599.01	3632.875
602.796	3673.54167
606.578	3682.54167
610.358	3682.20833
614.135	3643.54167
617.909	3625.875
621.679	3611.875
625.447	3566.875
629.212	3599.54167
632.973	3598.875
636.732	3577.20833
640.488	3571.20833
644.241	3566.54167
647.991	3527.54167
651.737	3554.54167
655.481	3553.54167
659.222	3531.875
662.96	3520.20833
666.695	3531.54167
670.427	3561.20833
674.156	3560.875
677.882	3563.20833
681.605	3518.54167
685.325	3523.54167
689.043	3503.54167
692.757	3487.875
696.468	3495.875
700.177	3499.875
703.882	3446.20833
707.585	3434.875
711.284	3453.54167
714.981	3428.20833
718.675	3449.20833
722.366	3439.54167
726.054	3428.20833
729.739	3454.54167
733.421	3433.54167
737.1	3434.54167
740.777	3459.875
744.45	3452.875
748.121	3501.875
751.789	3538.54167
755.453	3544.875
759.115	3586.20833
762.774	3580.54167
766.431	3605.54167
770.084	3623.875
773.734	3658.875
777.382	3691.54167
781.027	3733.875
784.669	3770.20833
788.308	3752.54167
791.944	3799.20833
795.577	3783.875
799.208	3791.20833
802.835	3820.875
806.46	3826.20833
810.082	3854.20833
813.701	3849.875
817.317	3902.20833
820.931	3907.20833
824.542	3896.20833
828.149	3859.875
831.754	3825.54167
835.357	3814.54167
838.956	3823.875
842.553	3803.875
846.146	3773.54167
849.737	3753.54167
853.326	3767.875
856.911	3768.875
860.493	3799.875
864.073	3845.54167
867.65	3892.875
871.225	3915.875
874.796	3879.54167
878.365	3912.875
881.931	3961.20833
885.494	3938.20833
889.054	3979.54167
892.612	3954.54167
896.166	3915.20833
899.719	3887.20833
903.268	3830.20833
906.814	3801.20833
910.358	3766.875
913.899	3726.54167
917.438	3730.54167
920.973	3742.54167
924.506	3769.20833
928.036	3860.54167
931.564	3868.54167
935.088	3898.54167
938.61	3902.20833
942.129	3959.20833
945.646	4039.54167
949.16	4115.20833
952.671	4130.20833
956.179	4145.875
959.685	4118.875
963.188	4101.20833
966.688	4030.54167
970.185	3969.20833
973.68	3865.875
977.173	3884.54167
980.662	3809.875
984.149	3824.20833
987.633	3816.54167
991.114	3864.54167
994.593	3935.875
998.069	4054.20833
1001.542	4163.875
1005.013	4093.875
1008.481	3899.875
1011.947	3828.54167
1015.409	3781.54167
1018.869	3769.20833
1022.327	3775.54167
1025.782	3725.875
1029.234	3737.20833
1032.683	3675.54167
1036.13	3560.875
1039.574	3448.875
1043.016	3375.875
1046.455	3305.54167
1049.891	3252.875
1053.325	3263.54167
1056.756	3279.875
1060.184	3301.875
1063.61	3321.875
1067.033	3361.875
1070.454	3330.875
1073.872	3344.20833
1077.287	3337.20833
1080.7	3342.54167
1084.11	3343.20833
1087.517	3305.875
1090.922	3255.54167
1094.325	3237.875
1097.724	3222.54167
1101.122	3201.54167
1104.516	3204.20833
1107.908	3214.20833
1111.298	3249.875
1114.684	3278.20833
1118.069	3341.20833
1121.45	3353.20833
1124.83	3327.54167
1128.206	3378.54167
1131.58	3392.875
1134.951	3457.20833
1138.32	3578.875
1141.687	3696.20833
1145.05	3763.54167
1148.412	3785.875
1151.77	3782.20833
1155.126	3798.54167
1158.48	3757.20833
1161.831	3778.20833
1165.18	3781.875
1168.525	3892.875
1171.869	3916.20833
1175.21	3947.20833
1178.548	3944.20833
1181.884	3998.20833
1185.217	4014.54167
1188.548	4101.54167
1191.877	4165.54167
1195.202	4258.875
1198.526	4335.875
1201.846	4391.54167
1205.165	4334.875
1208.48	4336.54167
1211.794	4285.20833
1215.104	4303.20833
1218.413	4299.20833
1221.719	4297.54167
1225.022	4262.54167
1228.323	4159.54167
1231.621	4174.54167
1234.917	4129.875
1238.21	4158.54167
1241.501	4130.20833
1244.79	4130.875
1248.076	4148.54167
1251.359	4163.20833
1254.64	4237.875
1257.919	4286.875
1261.195	4331.20833
1264.468	4435.875
1267.74	4474.875
1271.008	4481.54167
1274.275	4445.54167
1277.538	4415.875
1280.8	4371.20833
1284.059	4390.875
1287.315	4413.54167
1290.569	4430.875
1293.821	4479.20833
1297.07	4475.875
1300.317	4489.875
1303.562	4454.20833
1306.803	4426.54167
1310.043	4416.20833
1313.28	4367.20833
1316.515	4345.875
1319.747	4304.20833
1322.977	4266.20833
1326.204	4225.54167
1329.429	4156.875
1332.652	4127.875
1335.872	4107.54167
1339.09	4055.20833
1342.306	4024.54167
1345.519	4015.54167
1348.729	3980.20833
1351.938	4008.875
1355.144	3909.875
1358.347	3862.875
1361.548	3848.875
1364.747	3813.875
1367.944	3794.54167
1371.138	3806.20833
1374.329	3814.54167
1377.518	3846.20833
1380.705	3872.20833
1383.89	3842.54167
1387.072	3737.54167
1390.252	3616.20833
1393.429	3471.875
1396.605	3389.875
1399.777	3295.54167
1402.948	3251.20833
1406.116	3221.875
1409.282	3198.54167
1412.445	3204.54167
1415.606	3238.20833
1418.765	3249.20833
1421.921	3342.54167
1425.075	3411.875
1428.227	3516.20833
1431.376	3636.54167
1434.524	3756.875
1437.668	3867.54167
1440.811	3926.20833
1443.951	3962.875
1447.089	3967.54167
1450.224	3986.875
1453.357	3942.875
1456.488	3903.20833
1459.617	3861.20833
1462.743	3802.54167
1465.867	3697.20833
1468.989	3656.54167
1472.108	3596.54167
1475.225	3529.20833
1478.34	3504.875
1481.453	3496.875
1484.563	3497.20833
1487.671	3551.875
1490.776	3585.54167
1493.88	3639.20833
1496.981	3693.20833
1500.08	3770.20833
1503.176	3794.54167
1506.271	3854.20833
1509.363	3901.54167
1512.452	3897.54167
1515.54	3964.875
1518.625	4016.875
1521.708	4134.54167
1524.789	4256.54167
1527.867	4438.875
1530.944	4688.54167
1534.018	4858.875
1537.089	5083.20833
1540.159	5113.20833
1543.226	5081.20833
1546.291	4993.20833
1549.354	4894.875
1552.415	4760.875
1555.473	4672.20833
1558.529	4607.54167
1561.583	4544.875
1564.634	4483.54167
1567.684	4498.875
1570.731	4551.875
1573.776	4566.54167
1576.819	4607.54167
1579.859	4647.54167
1582.898	4681.54167
1585.934	4751.54167
1588.968	4742.875
1591.999	4722.54167
1595.029	4758.875
1598.056	4759.20833
1601.081	4800.54167
1604.104	4781.54167
1607.125	4733.20833
1610.144	4647.54167
1613.16	4544.875
1616.174	4469.54167
1619.186	4367.875
1622.196	4242.875
1625.203	4170.20833
1628.209	4087.20833
1631.212	4010.20833
1634.213	4039.875
1637.212	4017.875
1640.209	3958.54167
1643.203	3852.54167
1646.196	3736.875
1649.186	3582.875
1652.174	3451.54167
1655.16	3334.875
1658.144	3222.54167
1661.125	3080.875
1664.105	2946.20833
1667.082	2795.20833
1670.057	2675.875
1673.03	2557.875
1676.001	2393.20833
1678.97	2257.20833
1681.937	2127.875
1684.901	2000.875
1687.863	1941.20833
1690.824	1854.54167
1693.782	1817.20833
1696.738	1748.20833
1699.692	1692.875
1702.643	1663.20833
1705.593	1652.20833
1708.54	1620.20833
1711.486	1607.20833
1714.429	1573.54167
1717.37	1572.20833
1720.309	1530.20833
1723.246	1547.875
1726.181	1525.54167
1729.113	1505.54167
1732.044	1499.875
1734.972	1472.54167
1737.899	1488.875
1740.823	1468.20833
1743.745	1463.54167
1746.665	1406.54167
1749.583	1391.20833
1752.499	1364.875
1755.413	1369.20833
1758.325	1328.20833
1761.235	1333.20833
1764.142	1323.20833
1767.048	1284.875
1769.951	1283.54167
1772.852	1285.875
1775.752	1271.875
1778.649	1269.54167
1781.544	1276.54167
1784.437	1226.54167
1787.328	1253.20833
1790.217	1225.875
1793.104	1204.875
1795.989	1203.20833
1798.872	1198.54167
1801.753	1209.20833
1804.631	1206.875
1807.508	1210.875
1810.383	1196.54167
1813.255	1178.54167
1816.126	1183.875
1818.994	1174.54167
1821.861	1180.875
1824.725	1162.875
1827.587	1154.875
1830.448	1149.54167
1833.306	1111.20833
1836.162	1138.875
1839.017	1109.54167
1841.869	1105.875
1844.719	1115.875
1847.567	1104.875
1850.414	1095.54167
1853.258	1093.875
1856.1	1107.20833
1858.94	1101.875
1861.778	1094.54167
1864.614	1090.54167
1867.448	1085.54167
1870.28	1081.875
1873.111	1102.875
1875.939	1087.20833
1878.765	1086.875
1881.589	1080.875
1884.411	1074.54167
1887.231	1074.20833
1890.049	1070.54167
1892.865	1083.54167
1895.68	1051.20833
1898.492	1066.20833
1901.302	1058.875
1904.11	1028.875
1906.916	1030.20833
1909.721	1000.875
1912.523	1026.875
1915.323	1017.875
1918.122	1010.875
1920.918	1012.875
1923.712	1000.20833
1926.505	997.54167
1929.295	990.54167
1932.084	1012.20833
1934.87	1004.875
1937.655	996.54167
1940.438	995.875
1943.218	997.20833
1945.997	1006.875
1948.774	1000.875
1951.549	990.20833
1954.322	987.875
1957.093	995.54167
1959.862	968.20833
1962.629	971.875
1965.394	960.54167
1968.157	948.20833
1970.918	959.875
1973.678	945.20833
1976.435	952.20833
1979.19	954.54167
1981.944	928.20833
1984.696	939.20833
1987.445	940.875
1990.193	922.54167
1992.939	950.20833
1995.683	935.54167
1998.425	910.20833
2001.165	943.54167
2003.903	913.54167
2006.639	920.54167
2009.374	922.20833
2012.106	913.20833
2014.837	890.20833
2017.566	909.20833
2020.292	916.875
2023.017	909.54167
2025.74	907.875
2028.461	899.54167
2031.18	903.54167
2033.898	882.875
2036.613	872.54167
2039.327	883.875
2042.038	873.20833
2044.748	873.54167
2047.456	885.20833
2050.162	856.20833
2052.866	855.20833
2055.568	877.875
2058.268	850.875
2060.967	864.875
2063.663	867.20833
2066.358	851.875
2069.051	847.875
2071.742	854.875
2074.431	848.54167
2077.118	841.54167
2079.804	848.20833
2082.487	848.875
2085.169	859.54167
2087.849	868.20833
2090.527	841.54167
2093.203	859.875
2095.877	864.875
2098.55	856.54167
2101.22	868.875
2103.889	860.54167
2106.556	875.20833
2109.221	905.20833
2111.884	917.54167
2114.546	973.54167
2117.205	1015.875
2119.863	1091.875
2122.519	1151.20833
2125.173	1244.875
2127.825	1301.20833
2130.475	1335.20833
2133.124	1284.875
2135.771	1241.875
2138.416	1214.54167
2141.059	1119.875
2143.7	1085.875
2146.339	1018.875
2148.977	970.875
2151.613	950.54167
2154.247	924.20833
2156.879	885.875
2159.51	878.54167
2162.138	863.20833
2164.765	861.54167
2167.39	828.54167
2170.013	869.20833
2172.634	823.875
2175.254	817.20833
2177.872	838.54167
2180.488	787.54167
2183.102	802.875
2185.714	787.54167
2188.325	747.20833
2190.934	771.20833
2193.541	771.54167
2196.146	751.54167
2198.75	739.875
2201.351	739.54167
2203.951	719.20833
2206.549	743.875
2209.146	724.20833
2211.74	718.875
2214.333	726.20833
2216.924	709.875
2219.514	703.20833
2222.101	691.875
2224.687	711.875
2227.271	705.54167
2229.853	693.875
2232.433	680.54167
2235.012	695.20833
2237.589	686.54167
2240.164	714.54167
2242.738	673.54167
2245.309	679.875
2247.879	688.54167
2250.448	683.875
2253.014	658.54167
2255.579	638.54167
2258.142	648.875
2260.703	635.875
2263.262	641.54167
2265.82	636.20833
2268.376	642.54167
2270.93	622.875
2273.483	620.875
2276.033	628.20833
2278.583	614.875
2281.13	621.54167
2283.675	596.54167
2286.219	602.54167
2288.761	609.875
2291.302	614.875
2293.841	617.875
2296.377	579.20833
2298.913	595.875
2301.446	606.54167
2303.978	590.54167
2306.508	586.20833
2309.037	599.20833
2311.563	591.54167
2314.088	582.20833
2316.612	574.54167
2319.133	576.875
2321.653	567.54167
2324.171	562.20833
2326.688	581.875
2329.202	555.875
2331.715	566.54167
2334.227	571.875
2336.736	566.875
2339.244	556.20833
2341.751	550.20833
2344.255	554.54167
2346.758	564.20833
2349.259	543.20833
2351.759	550.54167
2354.257	542.54167
2356.753	533.875
2359.247	544.875
2361.74	544.20833
2364.231	535.875
2366.721	548.20833
2369.209	528.875
2371.695	535.875
2374.179	532.875
2376.662	512.54167
2379.143	533.20833
2381.622	526.54167
2384.1	526.54167
2386.576	517.54167
2389.051	531.54167
2391.524	529.875
2393.995	523.875
2396.464	515.54167
2398.932	521.54167
2401.398	508.875
2403.863	513.20833
2406.325	509.20833
2408.787	513.20833
2411.246	502.54167
2413.704	507.20833
2416.16	497.20833
2418.615	505.54167
2421.068	515.54167
2423.519	505.54167
2425.969	485.875
2428.417	488.54167
2430.863	521.54167
2433.308	508.20833
2435.751	489.54167
2438.193	492.20833
2440.633	499.54167
2443.071	503.20833
2445.508	489.20833
2447.943	489.54167
2450.376	475.875
2452.808	482.20833
2455.238	482.54167
2457.667	507.54167
2460.093	484.54167
2462.519	465.875
2464.942	476.875
2467.365	485.54167
2469.785	478.875
2472.204	470.54167
2474.621	464.875
2477.037	481.20833
2479.451	454.20833
2481.863	451.54167
2484.274	462.54167
2486.683	460.875
2489.091	475.54167
2491.497	472.20833
2493.901	467.54167
2496.304	465.20833
2498.705	465.20833
2501.105	459.54167
2503.503	477.54167
2505.899	436.20833
2508.294	481.20833
2510.687	454.20833
2513.079	454.20833
2515.469	437.875
2517.858	444.20833
2520.245	451.875
2522.63	443.20833
2525.014	441.54167
2527.396	434.875
2529.776	430.20833
2532.156	440.54167
2534.533	427.20833
2536.909	428.20833
2539.283	407.20833
2541.656	430.20833
2544.027	446.875
2546.397	429.54167
2548.765	418.875
2551.131	429.20833
2553.496	421.54167
2555.86	426.875
2558.221	420.54167
2560.582	418.20833
2562.94	411.54167
2565.298	414.54167
2567.653	440.875
2570.007	418.20833
2572.36	419.54167
2574.711	401.875
2577.06	422.875
2579.408	422.20833
2581.754	411.54167
2584.099	422.54167
2586.442	409.54167
2588.784	412.20833
2591.124	405.20833
2593.463	410.20833
2595.8	420.54167
2598.135	402.54167
2600.469	405.20833
2602.802	413.875
2605.133	410.20833
2607.462	403.875
2609.79	384.875
2612.116	406.20833
2614.441	407.20833
2616.764	413.54167
2619.086	405.54167
2621.406	392.875
2623.725	405.875
2626.042	398.875
2628.358	399.54167
2630.672	384.54167
2632.985	414.54167
2635.296	407.875
2637.606	401.54167
2639.914	385.875
2642.22	392.875
2644.525	397.875
2646.829	402.54167
2649.131	412.875
2651.432	408.20833
2653.731	398.54167
2656.028	405.875
2658.324	414.20833
2660.619	394.54167
2662.912	406.54167
2665.204	392.20833
2667.494	411.20833
2669.782	391.875
2672.07	401.875
2674.355	410.54167
2676.639	397.20833
2678.922	391.20833
2681.203	393.20833
2683.483	379.54167
2685.761	387.20833
2688.038	399.875
2690.313	413.875
2692.587	403.875
2694.859	402.20833
2697.13	396.54167
2699.399	410.54167
2701.667	406.875
2703.933	406.20833
2706.198	411.20833
2708.461	407.875
2710.723	418.20833
2712.984	416.20833
2715.243	422.54167
2717.5	407.875
2719.757	426.875
2722.011	415.875
2724.264	438.20833
2726.516	432.54167
2728.766	426.54167
2731.015	427.875
2733.262	420.54167
2735.508	417.20833
2737.753	421.20833
2739.996	411.20833
2742.237	396.20833
2744.477	415.875
2746.716	416.54167
2748.953	405.54167
2751.189	420.875
2753.423	391.54167
2755.656	387.20833
2757.887	389.20833
2760.117	386.875
2762.346	385.54167
2764.573	377.54167
2766.798	385.54167
2769.022	382.54167
2771.245	389.875
2773.467	389.20833
2775.686	392.875
2777.905	387.875
2780.122	403.20833
2782.337	409.20833
2784.552	397.54167
2786.764	392.20833
2788.976	404.54167
2791.186	404.54167
2793.394	406.875
2795.601	414.20833
2797.807	429.54167
2800.011	429.20833
2802.214	432.875
2804.415	428.875
2806.615	440.20833
2808.814	444.875
2811.011	444.875
2813.206	455.875
2815.401	468.20833
2817.594	467.54167
2819.785	485.875
2821.975	464.875
2824.164	477.54167
2826.351	505.875
2828.537	515.54167
2830.722	522.54167
2832.905	527.875
2835.086	554.54167
2837.267	579.875
2839.445	595.20833
2841.623	614.875
2843.799	640.875
2845.974	668.875
2848.147	706.54167
2850.319	742.54167
2852.489	765.20833
2854.659	775.20833
2856.826	776.54167
2858.993	822.54167
2861.158	799.875
2863.321	797.54167
2865.483	808.54167
2867.644	820.875
2869.804	817.54167
2871.962	815.54167
2874.118	803.875
2876.274	811.875
2878.428	818.54167
2880.58	800.875
2882.731	803.54167
2884.881	814.20833
2887.03	808.20833
2889.177	802.54167
2891.322	816.875
2893.467	811.20833
2895.61	814.875
2897.751	846.54167
2899.892	823.875
2902.03	837.20833
2904.168	846.54167
2906.304	850.875
2908.439	874.54167
2910.572	842.20833
2912.704	856.20833
2914.835	859.875
2916.965	858.20833
2919.093	881.875
2921.219	847.54167
2923.345	869.20833
2925.469	836.54167
2927.591	832.20833
2929.712	807.54167
2931.832	801.20833
2933.951	795.20833
2936.068	771.20833
2938.184	747.20833
2940.299	729.875
2942.412	707.54167
2944.524	666.875
2946.634	660.54167
2948.744	607.20833
2950.851	633.875
2952.958	587.54167
2955.063	580.54167
2957.167	568.20833
2959.269	530.20833
2961.371	558.54167
2963.471	519.875
2965.569	512.54167
2967.666	486.54167
2969.762	491.875
2971.857	464.875
2973.95	440.54167
2976.042	441.20833
2978.133	439.875
2980.222	417.54167
2982.31	406.54167
2984.396	381.54167
2986.482	398.20833
2988.566	372.54167
2990.648	378.875
2992.73	366.54167
2994.81	353.875
2996.889	361.875
2998.966	357.20833
3001.042	360.20833
3003.117	349.54167
3005.191	355.54167
3007.263	342.875
3009.334	327.875
3011.403	342.54167
3013.472	318.20833
3015.539	328.875
3017.604	328.875
3019.669	300.20833
3021.732	304.875
3023.794	307.20833
3025.854	295.54167
3027.914	293.54167
3029.971	307.875
3032.028	294.20833
3034.083	301.875
3036.137	296.875
3038.19	282.20833
3040.242	275.875
3042.292	261.875
3044.341	275.54167
3046.388	274.54167
3048.435	259.20833
3050.48	276.875
3052.524	272.875
3054.566	251.20833
3056.607	257.20833
3058.647	247.875
3060.686	243.54167
3062.723	236.54167
3064.759	226.20833
3066.794	-0.125
3068.828	0.875
3070.86	2.20833
