-0.839	436.04167
3.438	540.375
7.711	166.70833
11.981	62.04167
16.247	45.375
20.509	50.04167
24.768	45.04167
29.024	54.375
33.276	47.375
37.524	49.04167
41.769	48.375
46.01	38.04167
50.247	48.70833
54.481	63.375
58.712	66.70833
62.939	49.04167
67.162	64.04167
71.382	60.70833
75.599	52.375
79.812	67.375
84.021	80.375
88.227	58.70833
92.429	61.375
96.628	53.04167
100.823	73.375
105.015	75.70833
109.204	68.70833
113.388	78.70833
117.57	74.375
121.748	88.04167
125.922	82.70833
130.093	104.375
134.261	97.70833
138.425	99.70833
142.585	141.375
146.742	126.375
150.896	159.70833
155.046	198.04167
159.193	305.70833
163.336	514.375
167.476	946.70833
171.613	1734.70833
175.746	2883.375
179.875	4288.375
184.002	5624.70833
188.124	6600.70833
192.244	6974.04167
196.36	6957.375
200.472	6855.04167
204.581	6750.04167
208.687	6638.375
212.79	6578.375
216.889	6602.375
220.984	6691.04167
225.077	6765.375
229.165	6804.04167
233.251	6833.04167
237.333	6878.04167
241.412	6821.04167
245.487	6796.04167
249.559	6718.04167
253.628	6683.04167
257.694	6641.70833
261.756	6584.375
265.814	6424.70833
269.87	6194.04167
273.922	5971.04167
277.97	5806.375
282.016	5664.04167
286.058	5656.04167
290.097	5692.04167
294.132	5719.04167
298.164	5653.375
302.193	5426.04167
306.219	5082.04167
310.241	4698.70833
314.26	4345.04167
318.276	4120.375
322.288	3919.04167
326.297	3767.04167
330.303	3655.375
334.305	3546.04167
338.305	3508.70833
342.301	3444.70833
346.294	3442.70833
350.283	3405.70833
354.269	3393.375
358.252	3371.70833
362.232	3367.70833
366.209	3335.04167
370.182	3307.70833
374.152	3318.70833
378.119	3332.375
382.083	3319.04167
386.043	3320.375
390	3290.04167
393.954	3333.375
397.905	3310.375
401.852	3330.375
405.797	3281.04167
409.738	3338.70833
413.676	3418.04167
417.61	3488.04167
421.542	3314.375
425.47	3213.375
429.396	3173.04167
433.318	3161.04167
437.236	3148.04167
441.152	3176.04167
445.065	3137.375
448.974	3125.70833
452.88	3095.70833
456.783	3074.70833
460.683	3063.70833
464.58	3069.375
468.473	3049.375
472.364	3097.70833
476.251	3076.04167
480.135	3107.375
484.016	3174.04167
487.894	3159.70833
491.769	3156.375
495.641	3148.04167
499.509	3170.70833
503.375	3174.70833
507.237	3152.375
511.096	3165.70833
514.952	3196.70833
518.805	3243.04167
522.655	3257.375
526.502	3184.04167
530.346	3147.04167
534.187	3158.375
538.024	3162.04167
541.859	3183.04167
545.69	3223.04167
549.519	3190.70833
553.344	3135.04167
557.166	3113.04167
560.985	3088.375
564.802	3043.375
568.615	2980.375
572.425	2927.70833
576.232	2958.70833
580.036	2947.375
583.836	2932.04167
587.634	2944.70833
591.429	2977.70833
595.221	3033.04167
599.01	3050.04167
602.796	3062.375
606.578	3085.375
610.358	3084.04167
614.135	3048.70833
617.909	3085.70833
621.679	3034.375
625.447	3003.04167
629.212	3017.04167
632.973	2987.70833
636.732	3005.70833
640.488	2993.375
644.241	2964.375
647.991	2966.70833
651.737	2974.70833
655.481	2960.70833
659.222	2987.70833
662.96	2948.70833
666.695	2966.04167
670.427	2986.04167
674.156	2990.70833
677.882	2976.70833
681.605	2962.70833
685.325	2968.04167
689.043	2953.70833
692.757	2908.70833
696.468	2917.70833
700.177	2946.70833
703.882	2886.04167
707.585	2876.70833
711.284	2880.375
714.981	2874.04167
718.675	2869.04167
722.366	2886.70833
726.054	2872.04167
729.739	2863.375
733.421	2904.375
737.1	2871.375
740.777	2877.04167
744.45	2889.375
748.121	2915.04167
751.789	2983.04167
755.453	2959.70833
759.115	2973.375
762.774	2975.375
766.431	3003.70833
770.084	3041.375
773.734	3074.375
777.382	3092.375
781.027	3161.04167
784.669	3148.375
788.308	3151.04167
791.944	3160.375
795.577	3173.70833
799.208	3179.70833
802.835	3217.375
806.46	3203.70833
810.082	3226.70833
813.701	3258.375
817.317	3280.04167
820.931	3256.70833
824.542	3229.70833
828.149	3241.375
831.754	3218.375
835.357	3190.70833
838.956	3193.04167
842.553	3213.70833
846.146	3214.04167
849.737	3150.375
853.326	3156.70833
856.911	3132.04167
860.493	3183.70833
864.073	3228.70833
867.65	3306.04167
871.225	3330.375
874.796	3265.04167
878.365	3237.375
881.931	3267.04167
885.494	3288.70833
889.054	3297.70833
892.612	3274.375
896.166	3270.375
899.719	3230.70833
903.268	3180.70833
906.814	3143.70833
910.358	3143.04167
913.899	3136.70833
917.438	3113.70833
920.973	3104.70833
924.506	3139.04167
928.036	3232.375
931.564	3253.04167
935.088	3299.70833
938.61	3306.04167
942.129	3352.04167
945.646	3401.04167
949.16	3443.70833
952.671	3474.70833
956.179	3504.375
959.685	3497.70833
963.188	3497.04167
966.688	3445.375
970.185	3355.375
973.68	3290.375
977.173	3245.375
980.662	3183.375
984.149	3191.04167
987.633	3154.04167
991.114	3203.70833
994.593	3263.70833
998.069	3353.04167
1001.542	3462.70833
1005.013	3401.04167
1008.481	3223.04167
1011.947	3148.375
1015.409	3122.04167
1018.869	3134.70833
1022.327	3131.375
1025.782	3095.375
1029.234	3096.375
1032.683	3052.70833
1036.13	2976.04167
1039.574	2880.04167
1043.016	2789.04167
1046.455	2732.375
1049.891	2708.04167
1053.325	2723.70833
1056.756	2722.04167
1060.184	2747.04167
1063.61	2752.375
1067.033	2778.04167
1070.454	2773.04167
1073.872	2804.04167
1077.287	2795.70833
1080.7	2778.375
1084.11	2764.04167
1087.517	2749.70833
1090.922	2690.04167
1094.325	2681.04167
1097.724	2661.04167
1101.122	2671.70833
1104.516	2663.70833
1107.908	2656.04167
1111.298	2714.70833
1114.684	2746.04167
1118.069	2755.04167
1121.45	2807.375
1124.83	2777.375
1128.206	2787.70833
1131.58	2834.04167
1134.951	2889.70833
1138.32	2990.375
1141.687	3095.375
1145.05	3157.70833
1148.412	3169.375
1151.77	3187.04167
1155.126	3159.375
1158.48	3161.04167
1161.831	3160.70833
1165.18	3170.70833
1168.525	3214.04167
1171.869	3238.04167
1175.21	3295.70833
1178.548	3326.04167
1181.884	3324.375
1185.217	3395.70833
1188.548	3444.70833
1191.877	3523.04167
1195.202	3640.04167
1198.526	3660.04167
1201.846	3722.04167
1205.165	3675.375
1208.48	3690.04167
1211.794	3641.375
1215.104	3611.04167
1218.413	3619.70833
1221.719	3639.04167
1225.022	3549.04167
1228.323	3516.70833
1231.621	3483.70833
1234.917	3462.375
1238.21	3453.70833
1241.501	3443.04167
1244.79	3437.04167
1248.076	3440.04167
1251.359	3448.04167
1254.64	3520.04167
1257.919	3550.375
1261.195	3598.70833
1264.468	3653.70833
1267.74	3707.04167
1271.008	3720.70833
1274.275	3710.04167
1277.538	3688.375
1280.8	3671.04167
1284.059	3676.04167
1287.315	3714.04167
1290.569	3706.04167
1293.821	3750.70833
1297.07	3751.04167
1300.317	3775.70833
1303.562	3778.375
1306.803	3719.70833
1310.043	3736.70833
1313.28	3703.70833
1316.515	3683.04167
1319.747	3659.04167
1322.977	3626.70833
1326.204	3572.04167
1329.429	3532.70833
1332.652	3488.70833
1335.872	3476.70833
1339.09	3448.70833
1342.306	3426.70833
1345.519	3398.70833
1348.729	3359.375
1351.938	3332.375
1355.144	3270.70833
1358.347	3241.375
1361.548	3207.04167
1364.747	3201.375
1367.944	3162.375
1371.138	3180.04167
1374.329	3184.375
1377.518	3191.04167
1380.705	3244.04167
1383.89	3187.70833
1387.072	3101.70833
1390.252	3017.04167
1393.429	2894.04167
1396.605	2824.04167
1399.777	2728.04167
1402.948	2691.375
1406.116	2690.04167
1409.282	2682.375
1412.445	2675.04167
1415.606	2720.70833
1418.765	2732.70833
1421.921	2780.04167
1425.075	2851.04167
1428.227	2955.70833
1431.376	3078.70833
1434.524	3199.04167
1437.668	3249.04167
1440.811	3310.375
1443.951	3333.375
1447.089	3359.70833
1450.224	3326.70833
1453.357	3314.70833
1456.488	3310.375
1459.617	3236.04167
1462.743	3200.375
1465.867	3139.04167
1468.989	3088.04167
1472.108	3043.70833
1475.225	2989.375
1478.34	2970.04167
1481.453	2957.70833
1484.563	2951.375
1487.671	2996.04167
1490.776	3030.70833
1493.88	3070.04167
1496.981	3134.375
1500.08	3162.04167
1503.176	3212.04167
1506.271	3238.04167
1509.363	3266.375
1512.452	3323.375
1515.54	3343.70833
1518.625	3398.70833
1521.708	3481.70833
1524.789	3603.04167
1527.867	3712.04167
1530.944	3931.375
1534.018	4077.375
1537.089	4220.70833
1540.159	4268.70833
1543.226	4233.04167
1546.291	4167.375
1549.354	4073.375
1552.415	3989.375
1555.473	3914.375
1558.529	3833.70833
1561.583	3791.04167
1564.634	3768.04167
1567.684	3773.70833
1570.731	3794.04167
1573.776	3828.375
1576.819	3874.70833
1579.859	3946.70833
1582.898	3975.04167
1585.934	4032.04167
1588.968	4048.375
1591.999	4003.70833
1595.029	4021.375
1598.056	4057.70833
1601.081	4094.70833
1604.104	4065.375
1607.125	4022.70833
1610.144	3952.375
1613.16	3853.04167
1616.174	3766.375
1619.186	3693.375
1622.196	3603.70833
1625.203	3524.70833
1628.209	3480.70833
1631.212	3436.04167
1634.213	3420.375
1637.212	3455.70833
1640.209	3362.70833
1643.203	3268.375
1646.196	3160.04167
1649.186	3009.04167
1652.174	2897.375
1655.16	2797.375
1658.144	2720.04167
1661.125	2589.04167
1664.105	2475.70833
1667.082	2342.04167
1670.057	2233.04167
1673.03	2132.70833
1676.001	1988.70833
1678.97	1881.04167
1681.937	1780.70833
1684.901	1660.375
1687.863	1622.375
1690.824	1541.70833
1693.782	1533.70833
1696.738	1445.70833
1699.692	1417.04167
1702.643	1390.70833
1705.593	1375.70833
1708.54	1364.70833
1711.486	1358.70833
1714.429	1305.375
1717.37	1313.04167
1720.309	1289.70833
1723.246	1295.375
1726.181	1262.70833
1729.113	1259.375
1732.044	1223.375
1734.972	1222.375
1737.899	1240.70833
1740.823	1229.70833
1743.745	1240.04167
1746.665	1188.04167
1749.583	1157.375
1752.499	1153.375
1755.413	1147.70833
1758.325	1113.375
1761.235	1109.04167
1764.142	1094.04167
1767.048	1072.70833
1769.951	1074.375
1772.852	1082.375
1775.752	1104.04167
1778.649	1156.04167
1781.544	1079.04167
1784.437	1030.70833
1787.328	1035.04167
1790.217	1027.375
1793.104	998.04167
1795.989	1003.04167
1798.872	995.04167
1801.753	1007.04167
1804.631	993.375
1807.508	1006.70833
1810.383	996.375
1813.255	993.70833
1816.126	989.70833
1818.994	989.04167
1821.861	980.375
1824.725	980.04167
1827.587	977.375
1830.448	961.70833
1833.306	927.04167
1836.162	953.375
1839.017	930.04167
1841.869	942.70833
1844.719	933.375
1847.567	918.375
1850.414	915.04167
1853.258	913.375
1856.1	917.70833
1858.94	929.04167
1861.778	922.70833
1864.614	908.375
1867.448	900.375
1870.28	897.375
1873.111	928.70833
1875.939	902.70833
1878.765	915.375
1881.589	895.04167
1884.411	904.70833
1887.231	896.375
1890.049	907.70833
1892.865	888.04167
1895.68	884.04167
1898.492	894.375
1901.302	885.375
1904.11	873.375
1906.916	870.04167
1909.721	858.70833
1912.523	873.375
1915.323	854.04167
1918.122	860.375
1920.918	847.04167
1923.712	832.04167
1926.505	835.70833
1929.295	826.70833
1932.084	848.04167
1934.87	838.04167
1937.655	832.70833
1940.438	825.04167
1943.218	837.70833
1945.997	830.04167
1948.774	838.70833
1951.549	842.375
1954.322	816.375
1957.093	825.70833
1959.862	811.375
1962.629	810.70833
1965.394	818.04167
1968.157	797.375
1970.918	806.70833
1973.678	789.375
1976.435	811.375
1979.19	803.04167
1981.944	783.04167
1984.696	787.70833
1987.445	772.375
1990.193	773.375
1992.939	791.70833
1995.683	777.375
1998.425	768.04167
2001.165	792.70833
2003.903	767.375
2006.639	769.70833
2009.374	776.70833
2012.106	770.70833
2014.837	750.70833
2017.566	760.70833
2020.292	762.04167
2023.017	761.375
2025.74	755.70833
2028.461	751.375
2031.18	748.375
2033.898	736.375
2036.613	747.375
2039.327	756.375
2042.038	738.04167
2044.748	739.04167
2047.456	736.70833
2050.162	713.70833
2052.866	721.04167
2055.568	747.70833
2058.268	730.375
2060.967	730.70833
2063.663	704.04167
2066.358	716.04167
2069.051	714.375
2071.742	719.375
2074.431	721.375
2077.118	708.70833
2079.804	693.375
2082.487	707.04167
2085.169	709.04167
2087.849	730.04167
2090.527	706.04167
2093.203	719.375
2095.877	726.375
2098.55	722.375
2101.22	725.04167
2103.889	713.70833
2106.556	723.70833
2109.221	732.375
2111.884	726.04167
2114.546	783.04167
2117.205	811.375
2119.863	864.70833
2122.519	902.70833
2125.173	951.375
2127.825	1004.04167
2130.475	1015.375
2133.124	993.375
2135.771	950.70833
2138.416	937.375
2141.059	869.70833
2143.7	847.04167
2146.339	797.04167
2148.977	764.04167
2151.613	753.375
2154.247	725.04167
2156.879	716.70833
2159.51	708.04167
2162.138	687.04167
2164.765	689.375
2167.39	675.70833
2170.013	700.70833
2172.634	686.04167
2175.254	672.375
2177.872	708.375
2180.488	650.70833
2183.102	665.375
2185.714	645.375
2188.325	628.04167
2190.934	645.70833
2193.541	655.375
2196.146	638.375
2198.75	623.375
2201.351	622.70833
2203.951	618.04167
2206.549	622.04167
2209.146	613.04167
2211.74	605.70833
2214.333	607.375
2216.924	602.70833
2219.514	598.70833
2222.101	586.04167
2224.687	605.70833
2227.271	591.375
2229.853	593.375
2232.433	570.70833
2235.012	595.70833
2237.589	599.375
2240.164	600.70833
2242.738	582.04167
2245.309	578.70833
2247.879	576.70833
2250.448	586.375
2253.014	562.375
2255.579	548.375
2258.142	566.375
2260.703	543.70833
2263.262	544.375
2265.82	547.70833
2268.376	551.375
2270.93	544.375
2273.483	539.04167
2276.033	544.04167
2278.583	529.04167
2281.13	529.04167
2283.675	515.70833
2286.219	524.04167
2288.761	532.70833
2291.302	526.04167
2293.841	535.04167
2296.377	507.70833
2298.913	518.375
2301.446	522.70833
2303.978	518.375
2306.508	500.375
2309.037	519.70833
2311.563	509.70833
2314.088	512.04167
2316.612	492.375
2319.133	499.375
2321.653	498.70833
2324.171	491.04167
2326.688	507.04167
2329.202	496.375
2331.715	491.70833
2334.227	493.70833
2336.736	495.04167
2339.244	493.70833
2341.751	466.375
2344.255	497.04167
2346.758	494.375
2349.259	474.375
2351.759	482.375
2354.257	471.04167
2356.753	470.04167
2359.247	472.70833
2361.74	476.70833
2364.231	473.70833
2366.721	474.70833
2369.209	473.04167
2371.695	467.375
2374.179	455.04167
2376.662	451.70833
2379.143	473.375
2381.622	463.375
2384.1	471.04167
2386.576	472.70833
2389.051	472.375
2391.524	477.70833
2393.995	469.04167
2396.464	459.70833
2398.932	449.375
2401.398	455.04167
2403.863	460.04167
2406.325	451.04167
2408.787	452.375
2411.246	451.70833
2413.704	439.70833
2416.16	443.70833
2418.615	451.04167
2421.068	452.04167
2423.519	450.70833
2425.969	435.04167
2428.417	449.375
2430.863	457.375
2433.308	451.04167
2435.751	454.04167
2438.193	438.375
2440.633	434.70833
2443.071	434.04167
2445.508	428.04167
2447.943	435.70833
2450.376	426.375
2452.808	435.04167
2455.238	425.375
2457.667	468.375
2460.093	426.375
2462.519	427.04167
2464.942	420.70833
2467.365	427.70833
2469.785	439.04167
2472.204	423.04167
2474.621	422.375
2477.037	438.375
2479.451	414.375
2481.863	412.70833
2484.274	418.375
2486.683	409.04167
2489.091	419.375
2491.497	413.375
2493.901	425.04167
2496.304	409.70833
2498.705	416.70833
2501.105	420.375
2503.503	437.375
2505.899	409.70833
2508.294	424.375
2510.687	402.70833
2513.079	412.04167
2515.469	393.04167
2517.858	411.70833
2520.245	415.04167
2522.63	398.70833
2525.014	400.375
2527.396	399.04167
2529.776	393.04167
2532.156	415.375
2534.533	400.375
2536.909	392.70833
2539.283	381.375
2541.656	377.70833
2544.027	414.04167
2546.397	395.04167
2548.765	394.04167
2551.131	389.375
2553.496	386.70833
2555.86	411.04167
2558.221	390.70833
2560.582	392.70833
2562.94	377.375
2565.298	386.04167
2567.653	409.70833
2570.007	376.04167
2572.36	397.04167
2574.711	376.70833
2577.06	399.70833
2579.408	388.375
2581.754	387.04167
2584.099	389.70833
2586.442	383.375
2588.784	401.04167
2591.124	387.375
2593.463	381.375
2595.8	386.70833
2598.135	377.70833
2600.469	381.70833
2602.802	386.04167
2605.133	401.70833
2607.462	372.375
2609.79	379.04167
2612.116	388.375
2614.441	380.70833
2616.764	381.375
2619.086	381.70833
2621.406	372.70833
2623.725	392.04167
2626.042	391.04167
2628.358	373.70833
2630.672	375.04167
2632.985	388.375
2635.296	385.04167
2637.606	387.04167
2639.914	366.70833
2642.22	377.375
2644.525	386.375
2646.829	383.70833
2649.131	400.375
2651.432	394.04167
2653.731	380.375
2656.028	392.375
2658.324	387.70833
2660.619	373.375
2662.912	387.04167
2665.204	376.70833
2667.494	392.04167
2669.782	380.375
2672.07	390.375
2674.355	399.04167
2676.639	384.70833
2678.922	380.70833
2681.203	383.70833
2683.483	376.375
2685.761	373.70833
2688.038	392.375
2690.313	390.04167
2692.587	393.375
2694.859	372.70833
2697.13	389.70833
2699.399	399.375
2701.667	402.70833
2703.933	398.375
2706.198	386.70833
2708.461	400.375
2710.723	402.70833
2712.984	396.70833
2715.243	399.04167
2717.5	392.04167
2719.757	412.375
2722.011	405.375
2724.264	414.375
2726.516	425.04167
2728.766	407.70833
2731.015	417.70833
2733.262	415.04167
2735.508	411.04167
2737.753	407.70833
2739.996	402.375
2742.237	393.04167
2744.477	412.375
2746.716	409.375
2748.953	396.375
2751.189	397.70833
2753.423	387.70833
2755.656	386.70833
2757.887	380.375
2760.117	380.04167
2762.346	380.04167
2764.573	375.70833
2766.798	378.375
2769.022	371.375
2771.245	387.04167
2773.467	384.04167
2775.686	392.375
2777.905	387.375
2780.122	393.70833
2782.337	394.70833
2784.552	395.04167
2786.764	392.375
2788.976	392.04167
2791.186	406.375
2793.394	406.70833
2795.601	405.70833
2797.807	419.375
2800.011	424.70833
2802.214	429.04167
2804.415	409.375
2806.615	426.04167
2808.814	415.70833
2811.011	436.70833
2813.206	436.70833
2815.401	450.04167
2817.594	442.04167
2819.785	457.04167
2821.975	452.70833
2824.164	449.70833
2826.351	467.04167
2828.537	492.04167
2830.722	487.70833
2832.905	488.04167
2835.086	532.04167
2837.267	543.04167
2839.445	556.375
2841.623	577.70833
2843.799	590.375
2845.974	636.70833
2848.147	658.375
2850.319	675.04167
2852.489	699.04167
2854.659	719.70833
2856.826	738.04167
2858.993	768.375
2861.158	745.70833
2863.321	752.04167
2865.483	758.70833
2867.644	759.70833
2869.804	756.04167
2871.962	748.70833
2874.118	761.375
2876.274	789.04167
2878.428	797.375
2880.58	771.375
2882.731	747.04167
2884.881	754.70833
2887.03	770.70833
2889.177	759.375
2891.322	767.70833
2893.467	767.04167
2895.61	761.70833
2897.751	782.375
2899.892	784.375
2902.03	775.04167
2904.168	789.04167
2906.304	784.70833
2908.439	815.04167
2910.572	792.375
2912.704	816.70833
2914.835	799.70833
2916.965	808.70833
2919.093	813.04167
2921.219	784.70833
2923.345	802.375
2925.469	791.04167
2927.591	779.04167
2929.712	757.70833
2931.832	755.70833
2933.951	740.70833
2936.068	727.04167
2938.184	713.70833
2940.299	691.70833
2942.412	679.375
2944.524	638.70833
2946.634	644.70833
2948.744	598.70833
2950.851	618.70833
2952.958	575.04167
2955.063	580.04167
2957.167	560.04167
2959.269	530.375
2961.371	556.70833
2963.471	524.375
2965.569	526.04167
2967.666	496.70833
2969.762	496.04167
2971.857	484.375
2973.95	463.04167
2976.042	464.70833
2978.133	450.70833
2980.222	438.375
2982.31	424.04167
2984.396	404.375
2986.482	415.04167
2988.566	405.70833
2990.648	405.70833
2992.73	397.04167
2994.81	391.04167
2996.889	391.375
2998.966	382.375
3001.042	393.04167
3003.117	387.375
3005.191	374.04167
3007.263	376.04167
3009.334	368.04167
3011.403	375.04167
3013.472	360.375
3015.539	365.04167
3017.604	370.375
3019.669	335.04167
3021.732	331.70833
3023.794	340.375
3025.854	327.70833
3027.914	340.70833
3029.971	343.375
3032.028	335.70833
3034.083	337.70833
3036.137	328.04167
3038.19	313.375
3040.242	310.04167
3042.292	301.375
3044.341	306.04167
3046.388	327.04167
3048.435	299.04167
3050.48	313.70833
3052.524	307.70833
3054.566	289.04167
3056.607	299.70833
3058.647	285.70833
3060.686	277.70833
3062.723	269.375
3064.759	256.375
3066.794	0.04167
3068.828	2.375
3070.86	2.375
