-0.839	403.16667
3.438	484.83333
7.711	149.5
11.981	60.5
16.247	45.16667
20.509	52.5
24.768	49.16667
29.024	57.83333
33.276	49.5
37.524	51.16667
41.769	46.83333
46.01	38.5
50.247	49.16667
54.481	59.5
58.712	60.16667
62.939	52.83333
67.162	64.83333
71.382	59.83333
75.599	47.5
79.812	65.16667
84.021	82.5
88.227	60.5
92.429	63.5
96.628	54.16667
100.823	72.16667
105.015	75.83333
109.204	70.5
113.388	74.83333
117.57	76.16667
121.748	88.5
125.922	81.5
130.093	98.83333
134.261	98.16667
138.425	99.5
142.585	135.83333
146.742	130.83333
150.896	154.83333
155.046	196.5
159.193	308.16667
163.336	510.83333
167.476	933.16667
171.613	1697.16667
175.746	2845.83333
179.875	4222.83333
184.002	5538.5
188.124	6434.16667
192.244	6827.5
196.36	6810.16667
200.472	6651.5
204.581	6533.5
208.687	6436.16667
212.79	6375.16667
216.889	6403.5
220.984	6487.5
225.077	6567.16667
229.165	6595.16667
233.251	6672.16667
237.333	6686.16667
241.412	6630.16667
245.487	6634.16667
249.559	6540.16667
253.628	6501.83333
257.694	6442.16667
261.756	6387.16667
265.814	6242.16667
269.87	6044.5
273.922	5783.5
277.97	5600.83333
282.016	5488.83333
286.058	5468.5
290.097	5513.83333
294.132	5561.16667
298.164	5509.16667
302.193	5250.5
306.219	4864.83333
310.241	4495.5
314.26	4126.16667
318.276	3846.83333
322.288	3687.16667
326.297	3494.83333
330.303	3419.5
334.305	3291.16667
338.305	3210.83333
342.301	3204.16667
346.294	3168.83333
350.283	3148.16667
354.269	3145.16667
358.252	3108.5
362.232	3080.83333
366.209	3069.5
370.182	3019.5
374.152	3034.5
378.119	3037.83333
382.083	2979.83333
386.043	3046.16667
390	2975.16667
393.954	2986.5
397.905	2974.16667
401.852	2970.83333
405.797	2952.5
409.738	2959.16667
413.676	2946.5
417.61	2957.83333
421.542	2922.83333
425.47	2883.83333
429.396	2869.5
433.318	2852.16667
437.236	2831.16667
441.152	2865.83333
445.065	2822.16667
448.974	2801.5
452.88	2766.83333
456.783	2755.5
460.683	2734.83333
464.58	2739.83333
468.473	2746.5
472.364	2747.5
476.251	2752.5
480.135	2803.5
484.016	2802.16667
487.894	2816.83333
491.769	2843.5
495.641	2836.16667
499.509	2832.16667
503.375	2842.5
507.237	2843.16667
511.096	2853.5
514.952	2950.5
518.805	3001.83333
522.655	3034.83333
526.502	2904.16667
530.346	2841.83333
534.187	2830.83333
538.024	2850.83333
541.859	2860.83333
545.69	2901.16667
549.519	2870.83333
553.344	2848.5
557.166	2808.83333
560.985	2785.83333
564.802	2703.16667
568.615	2655.16667
572.425	2634.16667
576.232	2627.83333
580.036	2599.83333
583.836	2625.5
587.634	2615.5
591.429	2645.83333
595.221	2698.83333
599.01	2705.83333
602.796	2750.5
606.578	2748.5
610.358	2752.16667
614.135	2748.83333
617.909	2725.16667
621.679	2708.83333
625.447	2655.5
629.212	2657.83333
632.973	2670.83333
636.732	2666.16667
640.488	2676.5
644.241	2647.5
647.991	2647.16667
651.737	2649.16667
655.481	2626.83333
659.222	2646.5
662.96	2645.5
666.695	2666.83333
670.427	2674.16667
674.156	2692.5
677.882	2679.16667
681.605	2666.16667
685.325	2624.83333
689.043	2627.16667
692.757	2621.83333
696.468	2605.16667
700.177	2629.83333
703.882	2615.16667
707.585	2602.83333
711.284	2587.16667
714.981	2561.5
718.675	2556.83333
722.366	2578.83333
726.054	2570.5
729.739	2563.16667
733.421	2567.16667
737.1	2570.5
740.777	2598.16667
744.45	2602.5
748.121	2623.83333
751.789	2662.16667
755.453	2670.5
759.115	2678.16667
762.774	2701.16667
766.431	2731.16667
770.084	2738.16667
773.734	2746.83333
777.382	2832.83333
781.027	2822.5
784.669	2880.16667
788.308	2882.16667
791.944	2880.83333
795.577	2865.5
799.208	2900.83333
802.835	2912.5
806.46	2935.83333
810.082	2948.16667
813.701	2988.5
817.317	2987.16667
820.931	2993.16667
824.542	2983.16667
828.149	2952.5
831.754	2947.5
835.357	2914.16667
838.956	2959.16667
842.553	2947.16667
846.146	2926.83333
849.737	2903.16667
853.326	2918.16667
856.911	2907.83333
860.493	2957.16667
864.073	2967.16667
867.65	2975.5
871.225	3037.5
874.796	3018.5
878.365	3020.5
881.931	3050.83333
885.494	3074.83333
889.054	3069.16667
892.612	3067.83333
896.166	3030.16667
899.719	2999.16667
903.268	2972.16667
906.814	2951.5
910.358	2913.83333
913.899	2888.83333
917.438	2909.83333
920.973	2874.83333
924.506	2958.5
928.036	2962.5
931.564	3009.5
935.088	3070.16667
938.61	3076.16667
942.129	3101.16667
945.646	3167.16667
949.16	3237.16667
952.671	3277.16667
956.179	3294.5
959.685	3274.5
963.188	3272.5
966.688	3231.16667
970.185	3148.16667
973.68	3078.16667
977.173	3017.5
980.662	2976.5
984.149	2970.16667
987.633	2976.83333
991.114	2997.16667
994.593	3060.5
998.069	3156.83333
1001.542	3259.5
1005.013	3188.5
1008.481	3041.5
1011.947	2964.5
1015.409	2956.5
1018.869	2950.83333
1022.327	2953.16667
1025.782	2910.5
1029.234	2898.83333
1032.683	2858.16667
1036.13	2773.5
1039.574	2674.5
1043.016	2597.16667
1046.455	2563.5
1049.891	2531.83333
1053.325	2553.83333
1056.756	2544.16667
1060.184	2550.16667
1063.61	2569.5
1067.033	2596.5
1070.454	2597.83333
1073.872	2621.5
1077.287	2583.83333
1080.7	2599.5
1084.11	2590.83333
1087.517	2581.5
1090.922	2528.83333
1094.325	2523.5
1097.724	2517.5
1101.122	2536.16667
1104.516	2504.83333
1107.908	2501.83333
1111.298	2563.5
1114.684	2583.5
1118.069	2621.83333
1121.45	2647.5
1124.83	2662.16667
1128.206	2657.5
1131.58	2703.5
1134.951	2765.5
1138.32	2862.5
1141.687	2970.83333
1145.05	3041.83333
1148.412	3059.16667
1151.77	3076.5
1155.126	3060.16667
1158.48	3043.83333
1161.831	3054.5
1165.18	3047.5
1168.525	3100.83333
1171.869	3129.16667
1175.21	3144.5
1178.548	3169.5
1181.884	3206.16667
1185.217	3222.16667
1188.548	3302.5
1191.877	3362.83333
1195.202	3459.83333
1198.526	3510.83333
1201.846	3528.83333
1205.165	3527.16667
1208.48	3479.83333
1211.794	3460.83333
1215.104	3467.5
1218.413	3453.5
1221.719	3457.83333
1225.022	3433.16667
1228.323	3328.16667
1231.621	3340.16667
1234.917	3293.83333
1238.21	3330.5
1241.501	3342.5
1244.79	3277.16667
1248.076	3269.5
1251.359	3327.83333
1254.64	3407.16667
1257.919	3396.83333
1261.195	3484.16667
1264.468	3552.16667
1267.74	3585.16667
1271.008	3616.16667
1274.275	3591.5
1277.538	3550.16667
1280.8	3555.5
1284.059	3523.83333
1287.315	3572.5
1290.569	3595.83333
1293.821	3596.16667
1297.07	3616.83333
1300.317	3631.83333
1303.562	3633.83333
1306.803	3616.5
1310.043	3588.83333
1313.28	3554.83333
1316.515	3528.83333
1319.747	3488.5
1322.977	3468.5
1326.204	3436.16667
1329.429	3360.16667
1332.652	3348.83333
1335.872	3345.5
1339.09	3265.16667
1342.306	3251.83333
1345.519	3223.83333
1348.729	3183.83333
1351.938	3177.83333
1355.144	3126.83333
1358.347	3093.83333
1361.548	3076.83333
1364.747	3042.83333
1367.944	3021.83333
1371.138	3040.5
1374.329	3024.5
1377.518	3104.16667
1380.705	3085.83333
1383.89	3058.5
1387.072	2992.16667
1390.252	2894.16667
1393.429	2785.83333
1396.605	2680.83333
1399.777	2616.5
1402.948	2590.5
1406.116	2548.83333
1409.282	2561.16667
1412.445	2554.83333
1415.606	2569.83333
1418.765	2608.16667
1421.921	2655.16667
1425.075	2725.83333
1428.227	2797.16667
1431.376	2927.16667
1434.524	3006.5
1437.668	3130.16667
1440.811	3169.16667
1443.951	3202.16667
1447.089	3213.83333
1450.224	3171.16667
1453.357	3184.83333
1456.488	3149.83333
1459.617	3089.5
1462.743	3081.83333
1465.867	2996.5
1468.989	2964.83333
1472.108	2894.83333
1475.225	2851.16667
1478.34	2838.83333
1481.453	2837.16667
1484.563	2860.83333
1487.671	2893.5
1490.776	2904.16667
1493.88	2997.83333
1496.981	3030.5
1500.08	3083.5
1503.176	3116.5
1506.271	3142.83333
1509.363	3216.16667
1512.452	3235.5
1515.54	3265.83333
1518.625	3304.5
1521.708	3416.83333
1524.789	3501.5
1527.867	3661.16667
1530.944	3842.5
1534.018	3992.83333
1537.089	4138.16667
1540.159	4191.83333
1543.226	4157.5
1546.291	4098.83333
1549.354	4001.16667
1552.415	3905.16667
1555.473	3831.83333
1558.529	3764.16667
1561.583	3717.83333
1564.634	3682.16667
1567.684	3664.83333
1570.731	3714.16667
1573.776	3722.5
1576.819	3790.83333
1579.859	3861.5
1582.898	3867.5
1585.934	3914.83333
1588.968	3942.16667
1591.999	3894.83333
1595.029	3954.5
1598.056	3955.5
1601.081	3965.83333
1604.104	3939.83333
1607.125	3950.83333
1610.144	3830.5
1613.16	3727.16667
1616.174	3685.16667
1619.186	3585.83333
1622.196	3495.83333
1625.203	3404.83333
1628.209	3336.5
1631.212	3287.16667
1634.213	3267.83333
1637.212	3248.83333
1640.209	3195.16667
1643.203	3089.83333
1646.196	3000.5
1649.186	2852.16667
1652.174	2744.83333
1655.16	2663.5
1658.144	2580.5
1661.125	2451.16667
1664.105	2324.83333
1667.082	2236.83333
1670.057	2119.83333
1673.03	2009.16667
1676.001	1868.5
1678.97	1773.16667
1681.937	1649.5
1684.901	1562.16667
1687.863	1507.16667
1690.824	1433.83333
1693.782	1416.83333
1696.738	1337.83333
1699.692	1329.5
1702.643	1275.83333
1705.593	1271.83333
1708.54	1261.5
1711.486	1256.83333
1714.429	1219.5
1717.37	1223.5
1720.309	1187.5
1723.246	1203.83333
1726.181	1180.5
1729.113	1173.83333
1732.044	1154.83333
1734.972	1143.16667
1737.899	1150.16667
1740.823	1149.83333
1743.745	1149.16667
1746.665	1093.83333
1749.583	1076.5
1752.499	1057.5
1755.413	1046.83333
1758.325	1032.16667
1761.235	1012.5
1764.142	1010.16667
1767.048	980.83333
1769.951	992.5
1772.852	991.83333
1775.752	980.83333
1778.649	979.5
1781.544	985.5
1784.437	954.5
1787.328	960.5
1790.217	930.5
1793.104	920.16667
1795.989	925.83333
1798.872	914.5
1801.753	917.83333
1804.631	923.16667
1807.508	934.16667
1810.383	926.5
1813.255	916.83333
1816.126	915.16667
1818.994	912.5
1821.861	891.16667
1824.725	896.83333
1827.587	904.5
1830.448	872.5
1833.306	864.5
1836.162	866.16667
1839.017	863.16667
1841.869	866.16667
1844.719	864.5
1847.567	855.16667
1850.414	838.83333
1853.258	832.5
1856.1	854.83333
1858.94	861.83333
1861.778	851.16667
1864.614	836.83333
1867.448	835.5
1870.28	833.83333
1873.111	844.5
1875.939	840.16667
1878.765	855.5
1881.589	831.5
1884.411	820.16667
1887.231	826.16667
1890.049	828.5
1892.865	830.5
1895.68	809.16667
1898.492	825.5
1901.302	816.5
1904.11	803.16667
1906.916	793.16667
1909.721	781.16667
1912.523	788.83333
1915.323	794.16667
1918.122	781.5
1920.918	797.16667
1923.712	783.5
1926.505	774.83333
1929.295	774.5
1932.084	787.5
1934.87	783.16667
1937.655	767.5
1940.438	769.83333
1943.218	779.5
1945.997	778.83333
1948.774	775.5
1951.549	788.83333
1954.322	764.16667
1957.093	764.16667
1959.862	750.5
1962.629	756.16667
1965.394	760.5
1968.157	738.83333
1970.918	754.5
1973.678	728.5
1976.435	766.5
1979.19	734.16667
1981.944	717.16667
1984.696	735.16667
1987.445	725.16667
1990.193	728.5
1992.939	754.5
1995.683	729.83333
1998.425	706.16667
2001.165	745.5
2003.903	724.16667
2006.639	708.5
2009.374	728.16667
2012.106	716.16667
2014.837	706.16667
2017.566	713.16667
2020.292	717.16667
2023.017	720.16667
2025.74	716.16667
2028.461	712.83333
2031.18	718.5
2033.898	711.16667
2036.613	713.16667
2039.327	711.5
2042.038	701.5
2044.748	696.16667
2047.456	709.83333
2050.162	691.16667
2052.866	693.83333
2055.568	706.83333
2058.268	699.5
2060.967	701.83333
2063.663	680.5
2066.358	682.16667
2069.051	667.83333
2071.742	687.5
2074.431	685.16667
2077.118	691.83333
2079.804	668.5
2082.487	677.83333
2085.169	697.5
2087.849	703.83333
2090.527	679.83333
2093.203	669.83333
2095.877	689.5
2098.55	688.83333
2101.22	695.5
2103.889	704.5
2106.556	695.5
2109.221	708.16667
2111.884	723.16667
2114.546	759.5
2117.205	796.16667
2119.863	847.83333
2122.519	870.16667
2125.173	924.5
2127.825	984.5
2130.475	983.5
2133.124	965.83333
2135.771	919.5
2138.416	915.83333
2141.059	851.16667
2143.7	816.83333
2146.339	785.83333
2148.977	737.5
2151.613	725.16667
2154.247	728.16667
2156.879	711.16667
2159.51	697.16667
2162.138	679.16667
2164.765	681.16667
2167.39	670.16667
2170.013	684.83333
2172.634	674.83333
2175.254	664.5
2177.872	689.5
2180.488	647.83333
2183.102	656.83333
2185.714	651.16667
2188.325	620.83333
2190.934	630.5
2193.541	625.5
2196.146	634.5
2198.75	615.16667
2201.351	606.83333
2203.951	605.16667
2206.549	636.83333
2209.146	610.5
2211.74	614.83333
2214.333	605.5
2216.924	592.16667
2219.514	611.16667
2222.101	601.16667
2224.687	623.5
2227.271	595.16667
2229.853	586.16667
2232.433	575.83333
2235.012	605.16667
2237.589	600.83333
2240.164	611.83333
2242.738	593.83333
2245.309	578.83333
2247.879	581.16667
2250.448	591.16667
2253.014	562.83333
2255.579	561.5
2258.142	570.5
2260.703	565.83333
2263.262	563.83333
2265.82	552.83333
2268.376	562.83333
2270.93	551.5
2273.483	551.16667
2276.033	562.83333
2278.583	555.5
2281.13	557.5
2283.675	538.5
2286.219	546.83333
2288.761	547.16667
2291.302	549.16667
2293.841	556.16667
2296.377	527.16667
2298.913	534.5
2301.446	546.16667
2303.978	533.83333
2306.508	531.16667
2309.037	540.83333
2311.563	538.83333
2314.088	539.16667
2316.612	517.16667
2319.133	534.83333
2321.653	531.16667
2324.171	519.5
2326.688	527.16667
2329.202	517.83333
2331.715	528.83333
2334.227	524.16667
2336.736	524.16667
2339.244	526.83333
2341.751	512.5
2344.255	530.5
2346.758	521.5
2349.259	502.5
2351.759	514.83333
2354.257	516.16667
2356.753	517.5
2359.247	516.5
2361.74	527.5
2364.231	514.83333
2366.721	518.16667
2369.209	514.5
2371.695	518.5
2374.179	510.5
2376.662	496.5
2379.143	522.5
2381.622	515.16667
2384.1	510.16667
2386.576	501.83333
2389.051	531.83333
2391.524	528.83333
2393.995	523.5
2396.464	518.83333
2398.932	508.83333
2401.398	495.5
2403.863	512.5
2406.325	515.83333
2408.787	515.83333
2411.246	508.83333
2413.704	504.5
2416.16	500.83333
2418.615	505.16667
2421.068	523.5
2423.519	511.5
2425.969	494.83333
2428.417	504.16667
2430.863	532.5
2433.308	521.16667
2435.751	506.83333
2438.193	510.83333
2440.633	513.5
2443.071	504.5
2445.508	498.5
2447.943	501.83333
2450.376	503.83333
2452.808	504.16667
2455.238	499.5
2457.667	539.16667
2460.093	500.5
2462.519	491.16667
2464.942	502.16667
2467.365	505.83333
2469.785	517.83333
2472.204	505.83333
2474.621	499.83333
2477.037	515.16667
2479.451	488.16667
2481.863	482.83333
2484.274	507.5
2486.683	500.5
2489.091	517.16667
2491.497	507.5
2493.901	516.83333
2496.304	496.5
2498.705	507.83333
2501.105	501.16667
2503.503	524.5
2505.899	492.83333
2508.294	519.5
2510.687	506.16667
2513.079	506.83333
2515.469	500.83333
2517.858	503.83333
2520.245	509.83333
2522.63	511.5
2525.014	499.83333
2527.396	491.5
2529.776	490.5
2532.156	510.83333
2534.533	507.5
2536.909	496.5
2539.283	485.16667
2541.656	503.83333
2544.027	514.83333
2546.397	504.16667
2548.765	500.16667
2551.131	498.16667
2553.496	499.5
2555.86	503.16667
2558.221	506.16667
2560.582	508.5
2562.94	489.16667
2565.298	503.5
2567.653	509.83333
2570.007	489.83333
2572.36	509.83333
2574.711	500.5
2577.06	517.83333
2579.408	511.83333
2581.754	504.16667
2584.099	509.16667
2586.442	512.16667
2588.784	507.83333
2591.124	512.16667
2593.463	506.16667
2595.8	516.16667
2598.135	508.5
2600.469	511.83333
2602.802	515.16667
2605.133	522.16667
2607.462	509.5
2609.79	498.83333
2612.116	517.83333
2614.441	518.5
2616.764	507.16667
2619.086	516.5
2621.406	499.5
2623.725	527.83333
2626.042	522.83333
2628.358	511.16667
2630.672	512.5
2632.985	530.83333
2635.296	523.83333
2637.606	518.16667
2639.914	522.5
2642.22	521.5
2644.525	526.83333
2646.829	522.5
2649.131	542.83333
2651.432	546.16667
2653.731	531.16667
2656.028	536.16667
2658.324	539.5
2660.619	538.83333
2662.912	548.16667
2665.204	530.5
2667.494	557.5
2669.782	529.5
2672.07	545.5
2674.355	550.16667
2676.639	543.5
2678.922	540.83333
2681.203	539.16667
2683.483	546.5
2685.761	540.5
2688.038	550.16667
2690.313	570.5
2692.587	551.16667
2694.859	539.5
2697.13	549.5
2699.399	562.83333
2701.667	559.5
2703.933	564.16667
2706.198	568.83333
2708.461	571.5
2710.723	580.5
2712.984	568.16667
2715.243	578.5
2717.5	565.16667
2719.757	587.5
2722.011	576.5
2724.264	597.83333
2726.516	589.5
2728.766	577.83333
2731.015	600.16667
2733.262	599.5
2735.508	595.16667
2737.753	591.5
2739.996	588.16667
2742.237	587.5
2744.477	586.16667
2746.716	603.83333
2748.953	582.83333
2751.189	590.16667
2753.423	578.83333
2755.656	571.16667
2757.887	564.16667
2760.117	577.16667
2762.346	571.83333
2764.573	566.16667
2766.798	570.83333
2769.022	567.16667
2771.245	574.83333
2773.467	577.83333
2775.686	574.5
2777.905	592.16667
2780.122	598.5
2782.337	594.5
2784.552	585.16667
2786.764	593.5
2788.976	610.16667
2791.186	606.16667
2793.394	611.16667
2795.601	610.83333
2797.807	619.16667
2800.011	617.83333
2802.214	627.83333
2804.415	632.5
2806.615	635.16667
2808.814	631.83333
2811.011	637.5
2813.206	641.16667
2815.401	655.5
2817.594	653.5
2819.785	666.16667
2821.975	653.83333
2824.164	658.5
2826.351	674.5
2828.537	690.5
2830.722	702.83333
2832.905	698.5
2835.086	728.83333
2837.267	746.16667
2839.445	763.5
2841.623	781.83333
2843.799	807.16667
2845.974	842.16667
2848.147	859.16667
2850.319	888.5
2852.489	907.5
2854.659	920.5
2856.826	942.16667
2858.993	966.16667
2861.158	943.5
2863.321	951.5
2865.483	964.5
2867.644	973.5
2869.804	947.5
2871.962	951.83333
2874.118	964.5
2876.274	967.5
2878.428	955.16667
2880.58	952.16667
2882.731	945.16667
2884.881	931.83333
2887.03	958.5
2889.177	957.16667
2891.322	960.5
2893.467	959.5
2895.61	958.5
2897.751	990.5
2899.892	967.16667
2902.03	983.83333
2904.168	992.16667
2906.304	987.5
2908.439	1001.16667
2910.572	995.16667
2912.704	1024.16667
2914.835	1013.83333
2916.965	1007.83333
2919.093	1028.5
2921.219	1006.16667
2923.345	1014.5
2925.469	990.16667
2927.591	1001.5
2929.712	970.5
2931.832	963.5
2933.951	955.5
2936.068	936.83333
2938.184	931.83333
2940.299	895.5
2942.412	887.5
2944.524	854.5
2946.634	853.83333
2948.744	806.83333
2950.851	845.5
2952.958	795.83333
2955.063	802.16667
2957.167	799.16667
2959.269	760.16667
2961.371	795.5
2963.471	752.83333
2965.569	763.5
2967.666	728.83333
2969.762	723.16667
2971.857	720.16667
2973.95	700.83333
2976.042	692.16667
2978.133	674.5
2980.222	666.16667
2982.31	662.83333
2984.396	636.5
2986.482	640.83333
2988.566	635.5
2990.648	632.83333
2992.73	627.16667
2994.81	619.83333
2996.889	625.5
2998.966	626.16667
3001.042	626.5
3003.117	624.16667
3005.191	624.16667
3007.263	616.83333
3009.334	606.5
3011.403	606.83333
3013.472	583.16667
3015.539	595.5
3017.604	603.83333
3019.669	564.5
3021.732	568.5
3023.794	582.5
3025.854	577.16667
3027.914	568.16667
3029.971	571.16667
3032.028	571.5
3034.083	557.83333
3036.137	555.5
3038.19	533.16667
3040.242	527.16667
3042.292	523.16667
3044.341	527.83333
3046.388	530.83333
3048.435	508.5
3050.48	529.5
3052.524	510.16667
3054.566	501.16667
3056.607	507.16667
3058.647	486.83333
3060.686	479.16667
3062.723	462.5
3064.759	445.5
3066.794	0.16667
3068.828	2.83333
3070.86	3.5
