-0.839	494.58333
3.438	590.91667
7.711	174.25
11.981	61.25
16.247	42.91667
20.509	45.58333
24.768	41.25
29.024	50.91667
33.276	42.58333
37.524	48.91667
41.769	45.25
46.01	32.91667
50.247	44.91667
54.481	59.58333
58.712	59.58333
62.939	46.25
67.162	58.91667
71.382	55.25
75.599	46.25
79.812	58.25
84.021	75.58333
88.227	55.25
92.429	54.91667
96.628	45.91667
100.823	65.58333
105.015	72.25
109.204	65.25
113.388	69.25
117.57	66.58333
121.748	79.91667
125.922	72.91667
130.093	93.25
134.261	88.58333
138.425	87.25
142.585	132.58333
146.742	112.58333
150.896	140.58333
155.046	172.91667
159.193	263.25
163.336	432.25
167.476	794.25
171.613	1460.91667
175.746	2444.91667
179.875	3619.58333
184.002	4711.25
188.124	5498.25
192.244	5819.58333
196.36	5709.25
200.472	5614.58333
204.581	5458.25
208.687	5326.91667
212.79	5284.58333
216.889	5259.58333
220.984	5302.58333
225.077	5299.58333
229.165	5354.91667
233.251	5346.58333
237.333	5338.91667
241.412	5297.91667
245.487	5235.91667
249.559	5194.91667
253.628	5140.58333
257.694	5076.25
261.756	5030.25
265.814	4900.58333
269.87	4781.91667
273.922	4536.58333
277.97	4437.25
282.016	4326.91667
286.058	4306.91667
290.097	4342.58333
294.132	4354.58333
298.164	4312.58333
302.193	4100.58333
306.219	3816.58333
310.241	3527.25
314.26	3260.58333
318.276	3052.58333
322.288	2913.58333
326.297	2778.91667
330.303	2686.25
334.305	2603.25
338.305	2574.91667
342.301	2556.58333
346.294	2528.91667
350.283	2516.91667
354.269	2480.25
358.252	2469.25
362.232	2447.58333
366.209	2442.91667
370.182	2397.58333
374.152	2400.58333
378.119	2407.91667
382.083	2392.25
386.043	2407.25
390	2376.91667
393.954	2378.58333
397.905	2355.58333
401.852	2389.58333
405.797	2357.25
409.738	2348.25
413.676	2343.91667
417.61	2341.91667
421.542	2322.91667
425.47	2299.25
429.396	2286.25
433.318	2252.58333
437.236	2285.25
441.152	2287.25
445.065	2246.25
448.974	2208.58333
452.88	2201.25
456.783	2200.58333
460.683	2189.58333
464.58	2199.25
468.473	2180.25
472.364	2207.25
476.251	2204.58333
480.135	2223.25
484.016	2249.58333
487.894	2242.25
491.769	2235.91667
495.641	2253.91667
499.509	2254.91667
503.375	2261.91667
507.237	2292.91667
511.096	2343.58333
514.952	2543.58333
518.805	2782.58333
522.655	2867.25
526.502	2549.91667
530.346	2308.91667
534.187	2269.91667
538.024	2271.58333
541.859	2297.91667
545.69	2303.58333
549.519	2296.91667
553.344	2257.91667
557.166	2226.91667
560.985	2198.58333
564.802	2173.25
568.615	2117.58333
572.425	2089.58333
576.232	2079.25
580.036	2072.58333
583.836	2069.58333
587.634	2089.91667
591.429	2103.91667
595.221	2161.25
599.01	2156.91667
602.796	2189.91667
606.578	2185.91667
610.358	2203.58333
614.135	2179.58333
617.909	2175.58333
621.679	2158.58333
625.447	2123.25
629.212	2105.25
632.973	2137.25
636.732	2102.91667
640.488	2110.58333
644.241	2095.25
647.991	2109.91667
651.737	2122.91667
655.481	2090.25
659.222	2091.58333
662.96	2096.25
666.695	2118.58333
670.427	2109.25
674.156	2143.58333
677.882	2102.58333
681.605	2088.58333
685.325	2073.58333
689.043	2076.58333
692.757	2063.58333
696.468	2051.91667
700.177	2047.91667
703.882	2048.25
707.585	2040.91667
711.284	2047.58333
714.981	2031.91667
718.675	2047.58333
722.366	2048.58333
726.054	2040.25
729.739	2037.25
733.421	2058.91667
737.1	2030.91667
740.777	2074.25
744.45	2056.25
748.121	2086.25
751.789	2135.91667
755.453	2107.58333
759.115	2124.91667
762.774	2141.58333
766.431	2148.25
770.084	2163.91667
773.734	2192.25
777.382	2241.25
781.027	2246.25
784.669	2264.91667
788.308	2278.25
791.944	2270.25
795.577	2311.91667
799.208	2306.25
802.835	2338.25
806.46	2342.58333
810.082	2351.25
813.701	2364.25
817.317	2387.91667
820.931	2395.91667
824.542	2353.58333
828.149	2367.58333
831.754	2325.91667
835.357	2318.25
838.956	2304.25
842.553	2321.91667
846.146	2290.58333
849.737	2262.91667
853.326	2302.25
856.911	2287.58333
860.493	2310.25
864.073	2323.25
867.65	2350.58333
871.225	2380.25
874.796	2366.25
878.365	2367.58333
881.931	2381.25
885.494	2408.58333
889.054	2418.58333
892.612	2416.91667
896.166	2365.91667
899.719	2356.91667
903.268	2300.91667
906.814	2297.25
910.358	2299.91667
913.899	2260.58333
917.438	2271.25
920.973	2290.25
924.506	2337.58333
928.036	2356.25
931.564	2399.25
935.088	2439.25
938.61	2447.58333
942.129	2468.91667
945.646	2520.91667
949.16	2567.25
952.671	2592.91667
956.179	2604.58333
959.685	2588.91667
963.188	2594.91667
966.688	2557.91667
970.185	2500.25
973.68	2439.91667
977.173	2397.91667
980.662	2348.58333
984.149	2329.91667
987.633	2326.58333
991.114	2375.25
994.593	2415.25
998.069	2469.91667
1001.542	2563.58333
1005.013	2519.58333
1008.481	2388.58333
1011.947	2347.58333
1015.409	2319.58333
1018.869	2312.58333
1022.327	2313.25
1025.782	2291.25
1029.234	2288.91667
1032.683	2250.25
1036.13	2161.25
1039.574	2096.58333
1043.016	2052.91667
1046.455	2011.25
1049.891	1996.58333
1053.325	1997.25
1056.756	2004.58333
1060.184	2008.91667
1063.61	2027.91667
1067.033	2049.25
1070.454	2043.58333
1073.872	2071.91667
1077.287	2051.25
1080.7	2073.25
1084.11	2057.25
1087.517	2040.91667
1090.922	1980.91667
1094.325	1985.91667
1097.724	1969.91667
1101.122	1975.91667
1104.516	1982.58333
1107.908	1967.58333
1111.298	1992.58333
1114.684	2006.91667
1118.069	2052.25
1121.45	2096.58333
1124.83	2056.25
1128.206	2077.58333
1131.58	2106.25
1134.951	2170.91667
1138.32	2228.58333
1141.687	2325.91667
1145.05	2366.58333
1148.412	2384.91667
1151.77	2382.25
1155.126	2386.58333
1158.48	2332.58333
1161.831	2380.58333
1165.18	2353.25
1168.525	2422.58333
1171.869	2449.91667
1175.21	2431.58333
1178.548	2473.58333
1181.884	2488.25
1185.217	2509.91667
1188.548	2569.58333
1191.877	2606.25
1195.202	2684.58333
1198.526	2724.91667
1201.846	2746.25
1205.165	2720.25
1208.48	2725.25
1211.794	2714.58333
1215.104	2701.58333
1218.413	2694.91667
1221.719	2711.58333
1225.022	2677.58333
1228.323	2643.58333
1231.621	2607.91667
1234.917	2593.58333
1238.21	2619.58333
1241.501	2563.58333
1244.79	2584.25
1248.076	2565.25
1251.359	2604.25
1254.64	2695.91667
1257.919	2681.58333
1261.195	2748.25
1264.468	2766.91667
1267.74	2819.58333
1271.008	2824.25
1274.275	2808.58333
1277.538	2758.91667
1280.8	2778.58333
1284.059	2773.91667
1287.315	2796.91667
1290.569	2814.58333
1293.821	2840.58333
1297.07	2849.25
1300.317	2845.58333
1303.562	2843.58333
1306.803	2828.91667
1310.043	2838.91667
1313.28	2794.25
1316.515	2768.25
1319.747	2754.58333
1322.977	2740.25
1326.204	2678.25
1329.429	2664.58333
1332.652	2649.58333
1335.872	2606.58333
1339.09	2582.91667
1342.306	2566.58333
1345.519	2539.58333
1348.729	2517.58333
1351.938	2547.25
1355.144	2508.58333
1358.347	2483.58333
1361.548	2461.91667
1364.747	2452.91667
1367.944	2425.91667
1371.138	2441.58333
1374.329	2437.25
1377.518	2464.25
1380.705	2488.25
1383.89	2465.58333
1387.072	2397.25
1390.252	2303.91667
1393.429	2222.25
1396.605	2156.91667
1399.777	2079.58333
1402.948	2052.91667
1406.116	2028.91667
1409.282	2036.91667
1412.445	2020.91667
1415.606	2049.25
1418.765	2075.91667
1421.921	2118.91667
1425.075	2159.91667
1428.227	2243.58333
1431.376	2315.91667
1434.524	2412.58333
1437.668	2504.58333
1440.811	2546.91667
1443.951	2541.25
1447.089	2549.25
1450.224	2551.58333
1453.357	2519.91667
1456.488	2487.58333
1459.617	2474.25
1462.743	2432.25
1465.867	2363.25
1468.989	2342.58333
1472.108	2289.91667
1475.225	2281.25
1478.34	2241.58333
1481.453	2232.25
1484.563	2234.91667
1487.671	2290.58333
1490.776	2296.58333
1493.88	2345.58333
1496.981	2369.91667
1500.08	2405.25
1503.176	2457.58333
1506.271	2485.58333
1509.363	2527.25
1512.452	2526.58333
1515.54	2562.25
1518.625	2601.25
1521.708	2661.25
1524.789	2746.25
1527.867	2846.91667
1530.944	2988.58333
1534.018	3095.25
1537.089	3202.58333
1540.159	3223.58333
1543.226	3255.91667
1546.291	3165.25
1549.354	3118.58333
1552.415	3028.91667
1555.473	2957.58333
1558.529	2915.25
1561.583	2866.25
1564.634	2868.25
1567.684	2887.91667
1570.731	2897.91667
1573.776	2942.91667
1576.819	2993.25
1579.859	2977.58333
1582.898	3022.91667
1585.934	3092.58333
1588.968	3065.25
1591.999	3065.91667
1595.029	3103.91667
1598.056	3098.25
1601.081	3119.91667
1604.104	3111.91667
1607.125	3092.91667
1610.144	3021.58333
1613.16	2966.58333
1616.174	2906.25
1619.186	2839.58333
1622.196	2782.91667
1625.203	2682.91667
1628.209	2648.58333
1631.212	2614.58333
1634.213	2618.58333
1637.212	2617.91667
1640.209	2585.58333
1643.203	2530.91667
1646.196	2456.91667
1649.186	2334.25
1652.174	2267.25
1655.16	2205.91667
1658.144	2129.91667
1661.125	2006.91667
1664.105	1931.25
1667.082	1821.91667
1670.057	1756.91667
1673.03	1639.25
1676.001	1549.91667
1678.97	1435.91667
1681.937	1370.58333
1684.901	1286.25
1687.863	1243.58333
1690.824	1190.25
1693.782	1174.91667
1696.738	1103.25
1699.692	1094.58333
1702.643	1071.25
1705.593	1066.25
1708.54	1036.58333
1711.486	1037.91667
1714.429	1001.58333
1717.37	1029.25
1720.309	981.91667
1723.246	991.25
1726.181	967.58333
1729.113	987.58333
1732.044	954.91667
1734.972	955.25
1737.899	962.91667
1740.823	948.58333
1743.745	959.91667
1746.665	908.91667
1749.583	899.58333
1752.499	879.91667
1755.413	882.25
1758.325	856.91667
1761.235	863.25
1764.142	845.58333
1767.048	836.25
1769.951	837.25
1772.852	840.25
1775.752	834.58333
1778.649	830.58333
1781.544	837.91667
1784.437	801.91667
1787.328	817.91667
1790.217	808.58333
1793.104	792.91667
1795.989	775.58333
1798.872	781.91667
1801.753	784.25
1804.631	778.58333
1807.508	809.58333
1810.383	789.25
1813.255	786.58333
1816.126	782.58333
1818.994	785.58333
1821.861	774.58333
1824.725	776.25
1827.587	775.58333
1830.448	760.58333
1833.306	746.58333
1836.162	768.58333
1839.017	746.25
1841.869	748.58333
1844.719	754.25
1847.567	733.25
1850.414	721.58333
1853.258	732.25
1856.1	754.58333
1858.94	747.25
1861.778	736.91667
1864.614	733.25
1867.448	736.91667
1870.28	726.91667
1873.111	755.58333
1875.939	734.91667
1878.765	749.58333
1881.589	733.91667
1884.411	734.58333
1887.231	749.25
1890.049	726.25
1892.865	732.91667
1895.68	712.91667
1898.492	732.58333
1901.302	717.58333
1904.11	714.91667
1906.916	723.91667
1909.721	712.25
1912.523	720.91667
1915.323	708.25
1918.122	695.58333
1920.918	720.25
1923.712	698.25
1926.505	700.58333
1929.295	693.25
1932.084	707.58333
1934.87	707.58333
1937.655	702.58333
1940.438	708.25
1943.218	702.58333
1945.997	695.25
1948.774	709.91667
1951.549	715.25
1954.322	707.25
1957.093	694.58333
1959.862	678.91667
1962.629	684.91667
1965.394	700.91667
1968.157	686.58333
1970.918	681.25
1973.678	682.58333
1976.435	688.58333
1979.19	679.91667
1981.944	682.91667
1984.696	672.25
1987.445	662.58333
1990.193	681.25
1992.939	700.58333
1995.683	684.91667
1998.425	656.25
2001.165	703.25
2003.903	670.58333
2006.639	671.25
2009.374	686.91667
2012.106	680.58333
2014.837	662.25
2017.566	677.58333
2020.292	672.25
2023.017	679.91667
2025.74	670.25
2028.461	667.91667
2031.18	678.91667
2033.898	665.25
2036.613	661.25
2039.327	678.58333
2042.038	663.25
2044.748	657.25
2047.456	664.58333
2050.162	661.25
2052.866	659.25
2055.568	667.91667
2058.268	662.91667
2060.967	664.25
2063.663	652.58333
2066.358	659.91667
2069.051	647.58333
2071.742	657.25
2074.431	675.25
2077.118	661.91667
2079.804	655.91667
2082.487	652.91667
2085.169	675.25
2087.849	669.91667
2090.527	666.25
2093.203	675.58333
2095.877	677.91667
2098.55	677.25
2101.22	688.58333
2103.889	684.25
2106.556	683.58333
2109.221	694.58333
2111.884	696.25
2114.546	730.58333
2117.205	755.58333
2119.863	788.58333
2122.519	813.58333
2125.173	852.91667
2127.825	884.58333
2130.475	904.25
2133.124	870.58333
2135.771	846.91667
2138.416	846.91667
2141.059	786.91667
2143.7	786.58333
2146.339	753.25
2148.977	729.58333
2151.613	725.58333
2154.247	718.91667
2156.879	702.25
2159.51	687.91667
2162.138	682.25
2164.765	701.58333
2167.39	677.25
2170.013	698.25
2172.634	699.25
2175.254	674.58333
2177.872	718.25
2180.488	667.58333
2183.102	676.91667
2185.714	678.58333
2188.325	656.25
2190.934	657.91667
2193.541	661.91667
2196.146	663.25
2198.75	657.25
2201.351	648.91667
2203.951	645.58333
2206.549	666.58333
2209.146	651.91667
2211.74	655.58333
2214.333	659.91667
2216.924	640.58333
2219.514	651.25
2222.101	638.91667
2224.687	661.25
2227.271	644.58333
2229.853	640.91667
2232.433	637.58333
2235.012	653.58333
2237.589	655.25
2240.164	658.58333
2242.738	659.91667
2245.309	644.25
2247.879	660.25
2250.448	671.58333
2253.014	636.58333
2255.579	621.25
2258.142	633.58333
2260.703	627.58333
2263.262	639.58333
2265.82	633.25
2268.376	647.91667
2270.93	625.25
2273.483	626.91667
2276.033	633.91667
2278.583	622.91667
2281.13	619.58333
2283.675	624.58333
2286.219	635.58333
2288.761	643.25
2291.302	647.25
2293.841	641.58333
2296.377	623.58333
2298.913	630.91667
2301.446	646.58333
2303.978	640.91667
2306.508	630.25
2309.037	647.91667
2311.563	641.91667
2314.088	642.25
2316.612	623.58333
2319.133	645.58333
2321.653	649.58333
2324.171	632.25
2326.688	646.25
2329.202	642.25
2331.715	644.25
2334.227	639.58333
2336.736	649.58333
2339.244	645.58333
2341.751	638.91667
2344.255	642.25
2346.758	642.91667
2349.259	628.58333
2351.759	649.25
2354.257	646.25
2356.753	629.25
2359.247	647.91667
2361.74	656.58333
2364.231	652.58333
2366.721	660.91667
2369.209	650.58333
2371.695	661.91667
2374.179	647.58333
2376.662	644.91667
2379.143	662.91667
2381.622	659.25
2384.1	670.91667
2386.576	666.25
2389.051	666.91667
2391.524	689.58333
2393.995	677.58333
2396.464	668.91667
2398.932	669.91667
2401.398	662.91667
2403.863	663.91667
2406.325	668.91667
2408.787	675.25
2411.246	673.58333
2413.704	677.58333
2416.16	677.25
2418.615	679.58333
2421.068	682.91667
2423.519	680.91667
2425.969	671.58333
2428.417	691.58333
2430.863	707.91667
2433.308	695.25
2435.751	683.25
2438.193	690.58333
2440.633	694.25
2443.071	706.25
2445.508	694.25
2447.943	690.58333
2450.376	691.58333
2452.808	683.25
2455.238	687.25
2457.667	729.91667
2460.093	708.58333
2462.519	700.25
2464.942	698.58333
2467.365	713.25
2469.785	717.91667
2472.204	719.25
2474.621	708.58333
2477.037	735.25
2479.451	699.91667
2481.863	705.58333
2484.274	706.91667
2486.683	713.58333
2489.091	727.91667
2491.497	724.58333
2493.901	731.58333
2496.304	715.25
2498.705	745.25
2501.105	722.91667
2503.503	752.58333
2505.899	724.91667
2508.294	754.25
2510.687	735.58333
2513.079	726.58333
2515.469	735.25
2517.858	741.25
2520.245	750.25
2522.63	747.91667
2525.014	735.25
2527.396	739.58333
2529.776	729.25
2532.156	758.58333
2534.533	743.91667
2536.909	738.91667
2539.283	731.25
2541.656	752.91667
2544.027	766.91667
2546.397	772.91667
2548.765	749.91667
2551.131	763.58333
2553.496	763.91667
2555.86	774.25
2558.221	775.58333
2560.582	764.25
2562.94	762.25
2565.298	767.25
2567.653	797.58333
2570.007	773.91667
2572.36	781.91667
2574.711	772.91667
2577.06	797.25
2579.408	777.91667
2581.754	791.25
2584.099	799.91667
2586.442	796.58333
2588.784	809.25
2591.124	810.91667
2593.463	812.91667
2595.8	808.25
2598.135	803.25
2600.469	800.58333
2602.802	816.91667
2605.133	831.91667
2607.462	809.58333
2609.79	794.91667
2612.116	813.58333
2614.441	825.25
2616.764	824.58333
2619.086	829.25
2621.406	818.25
2623.725	841.25
2626.042	841.25
2628.358	827.25
2630.672	829.91667
2632.985	862.58333
2635.296	852.91667
2637.606	849.25
2639.914	840.25
2642.22	853.25
2644.525	857.91667
2646.829	873.25
2649.131	887.25
2651.432	887.25
2653.731	870.25
2656.028	882.25
2658.324	889.91667
2660.619	878.91667
2662.912	903.58333
2665.204	885.25
2667.494	901.58333
2669.782	901.58333
2672.07	895.25
2674.355	899.58333
2676.639	903.25
2678.922	893.58333
2681.203	893.58333
2683.483	898.25
2685.761	893.91667
2688.038	915.91667
2690.313	909.58333
2692.587	914.25
2694.859	909.58333
2697.13	922.25
2699.399	932.91667
2701.667	936.58333
2703.933	924.25
2706.198	942.58333
2708.461	950.58333
2710.723	940.25
2712.984	941.25
2715.243	961.25
2717.5	946.91667
2719.757	966.91667
2722.011	950.25
2724.264	979.25
2726.516	984.91667
2728.766	971.25
2731.015	990.25
2733.262	983.91667
2735.508	1007.25
2737.753	1007.25
2739.996	983.25
2742.237	995.58333
2744.477	1010.58333
2746.716	1001.25
2748.953	982.58333
2751.189	986.25
2753.423	980.91667
2755.656	969.58333
2757.887	985.25
2760.117	980.58333
2762.346	976.58333
2764.573	979.91667
2766.798	973.91667
2769.022	981.91667
2771.245	978.58333
2773.467	996.58333
2775.686	994.58333
2777.905	1008.91667
2780.122	1009.58333
2782.337	1016.91667
2784.552	1012.58333
2786.764	1021.25
2788.976	1029.91667
2791.186	1027.58333
2793.394	1028.58333
2795.601	1049.58333
2797.807	1060.91667
2800.011	1064.91667
2802.214	1056.91667
2804.415	1069.91667
2806.615	1059.91667
2808.814	1061.25
2811.011	1077.58333
2813.206	1078.58333
2815.401	1097.25
2817.594	1087.91667
2819.785	1105.58333
2821.975	1092.58333
2824.164	1086.25
2826.351	1091.25
2828.537	1115.25
2830.722	1111.91667
2832.905	1129.58333
2835.086	1144.25
2837.267	1171.58333
2839.445	1183.91667
2841.623	1202.91667
2843.799	1218.25
2845.974	1252.91667
2848.147	1264.91667
2850.319	1298.25
2852.489	1313.58333
2854.659	1324.91667
2856.826	1332.91667
2858.993	1371.58333
2861.158	1336.91667
2863.321	1372.58333
2865.483	1369.91667
2867.644	1358.25
2869.804	1366.58333
2871.962	1341.58333
2874.118	1341.25
2876.274	1353.91667
2878.428	1354.58333
2880.58	1335.25
2882.731	1327.91667
2884.881	1313.58333
2887.03	1346.91667
2889.177	1333.91667
2891.322	1352.58333
2893.467	1352.91667
2895.61	1336.25
2897.751	1379.91667
2899.892	1369.58333
2902.03	1378.25
2904.168	1396.58333
2906.304	1401.25
2908.439	1405.25
2910.572	1410.91667
2912.704	1433.91667
2914.835	1414.25
2916.965	1403.25
2919.093	1431.25
2921.219	1423.25
2923.345	1440.58333
2925.469	1400.58333
2927.591	1411.91667
2929.712	1386.25
2931.832	1385.25
2933.951	1362.25
2936.068	1348.25
2938.184	1346.25
2940.299	1324.58333
2942.412	1317.25
2944.524	1293.25
2946.634	1271.25
2948.744	1248.58333
2950.851	1275.25
2952.958	1256.58333
2955.063	1250.58333
2957.167	1251.58333
2959.269	1221.25
2961.371	1250.91667
2963.471	1228.91667
2965.569	1234.91667
2967.666	1208.58333
2969.762	1211.58333
2971.857	1201.58333
2973.95	1157.25
2976.042	1179.25
2978.133	1147.58333
2980.222	1147.58333
2982.31	1131.25
2984.396	1110.25
2986.482	1103.25
2988.566	1100.91667
2990.648	1109.91667
2992.73	1109.25
2994.81	1099.25
2996.889	1106.58333
2998.966	1108.25
3001.042	1127.91667
3003.117	1111.91667
3005.191	1115.58333
3007.263	1104.58333
3009.334	1098.58333
3011.403	1098.25
3013.472	1073.91667
3015.539	1077.58333
3017.604	1084.91667
3019.669	1038.91667
3021.732	1042.91667
3023.794	1055.91667
3025.854	1036.58333
3027.914	1037.91667
3029.971	1041.58333
3032.028	1047.25
3034.083	1038.91667
3036.137	1025.91667
3038.19	1015.58333
3040.242	991.25
3042.292	958.91667
3044.341	960.91667
3046.388	964.58333
3048.435	937.91667
3050.48	945.91667
3052.524	930.58333
3054.566	924.91667
3056.607	932.58333
3058.647	903.25
3060.686	880.58333
3062.723	859.25
3064.759	834.91667
3066.794	1.91667
3068.828	2.91667
3070.86	0.25
