-0.839	393.08333
3.438	478.41667
7.711	146.41667
11.981	58.08333
16.247	42.41667
20.509	49.41667
24.768	42.08333
29.024	55.41667
33.276	46.08333
37.524	49.75
41.769	45.41667
46.01	33.41667
50.247	48.08333
54.481	59.08333
58.712	62.75
62.939	49.75
67.162	64.08333
71.382	60.75
75.599	48.41667
79.812	62.41667
84.021	82.75
88.227	64.08333
92.429	58.75
96.628	56.41667
100.823	74.08333
105.015	73.75
109.204	65.75
113.388	76.75
117.57	72.08333
121.748	85.41667
125.922	78.08333
130.093	94.75
134.261	98.75
138.425	96.08333
142.585	139.75
146.742	132.75
150.896	154.08333
155.046	192.41667
159.193	297.41667
163.336	507.41667
167.476	927.41667
171.613	1711.41667
175.746	2848.08333
179.875	4256.41667
184.002	5572.41667
188.124	6481.75
192.244	6884.08333
196.36	6836.75
200.472	6712.75
204.581	6608.41667
208.687	6489.08333
212.79	6467.08333
216.889	6480.41667
220.984	6527.08333
225.077	6643.41667
229.165	6701.08333
233.251	6770.41667
237.333	6789.08333
241.412	6738.41667
245.487	6706.75
249.559	6630.08333
253.628	6588.75
257.694	6519.41667
261.756	6457.75
265.814	6312.75
269.87	6113.41667
273.922	5888.08333
277.97	5708.41667
282.016	5577.08333
286.058	5527.08333
290.097	5576.75
294.132	5611.41667
298.164	5530.75
302.193	5329.41667
306.219	4955.75
310.241	4557.08333
314.26	4195.08333
318.276	3909.41667
322.288	3732.08333
326.297	3542.75
330.303	3461.75
334.305	3358.75
338.305	3330.41667
342.301	3301.08333
346.294	3269.41667
350.283	3243.41667
354.269	3224.75
358.252	3188.75
362.232	3177.41667
366.209	3132.08333
370.182	3112.08333
374.152	3103.75
378.119	3107.75
382.083	3110.41667
386.043	3118.41667
390	3068.41667
393.954	3084.75
397.905	3072.08333
401.852	3076.41667
405.797	3048.41667
409.738	3031.08333
413.676	3049.08333
417.61	3077.41667
421.542	3037.41667
425.47	2977.75
429.396	2954.08333
433.318	2948.41667
437.236	2939.08333
441.152	2966.75
445.065	2886.41667
448.974	2908.75
452.88	2857.75
456.783	2846.75
460.683	2850.41667
464.58	2849.41667
468.473	2823.41667
472.364	2848.41667
476.251	2857.41667
480.135	2857.41667
484.016	2914.41667
487.894	2936.08333
491.769	2945.75
495.641	2913.75
499.509	2945.75
503.375	2951.08333
507.237	2931.08333
511.096	2929.41667
514.952	3053.41667
518.805	3104.41667
522.655	3142.08333
526.502	3021.41667
530.346	2926.08333
534.187	2919.41667
538.024	2917.08333
541.859	2949.75
545.69	2974.75
549.519	2974.75
553.344	2933.41667
557.166	2886.75
560.985	2836.08333
564.802	2814.75
568.615	2763.08333
572.425	2698.75
576.232	2727.75
580.036	2688.41667
583.836	2688.08333
587.634	2735.41667
591.429	2731.08333
595.221	2799.08333
599.01	2809.41667
602.796	2830.41667
606.578	2844.08333
610.358	2847.08333
614.135	2830.75
617.909	2810.08333
621.679	2805.08333
625.447	2766.08333
629.212	2775.41667
632.973	2751.41667
636.732	2771.08333
640.488	2757.08333
644.241	2748.75
647.991	2745.75
651.737	2767.75
655.481	2740.75
659.222	2747.41667
662.96	2743.41667
666.695	2748.08333
670.427	2754.08333
674.156	2788.08333
677.882	2764.08333
681.605	2745.41667
685.325	2716.41667
689.043	2723.08333
692.757	2703.75
696.468	2704.08333
700.177	2702.75
703.882	2681.41667
707.585	2671.08333
711.284	2674.75
714.981	2667.08333
718.675	2675.75
722.366	2680.75
726.054	2635.41667
729.739	2639.41667
733.421	2666.75
737.1	2643.08333
740.777	2679.75
744.45	2687.08333
748.121	2707.08333
751.789	2741.75
755.453	2748.08333
759.115	2782.41667
762.774	2795.08333
766.431	2825.41667
770.084	2836.08333
773.734	2847.08333
777.382	2916.41667
781.027	2932.75
784.669	2951.08333
788.308	2960.41667
791.944	2975.08333
795.577	2978.08333
799.208	2968.41667
802.835	3002.41667
806.46	3028.08333
810.082	3043.41667
813.701	3109.41667
817.317	3085.75
820.931	3091.75
824.542	3073.75
828.149	3059.08333
831.754	3031.75
835.357	2998.08333
838.956	3016.75
842.553	3010.41667
846.146	2996.08333
849.737	2974.08333
853.326	2986.41667
856.911	2948.08333
860.493	3010.08333
864.073	2999.08333
867.65	3050.41667
871.225	3082.08333
874.796	3072.41667
878.365	3087.41667
881.931	3117.75
885.494	3106.41667
889.054	3158.75
892.612	3144.41667
896.166	3098.75
899.719	3047.41667
903.268	3014.75
906.814	2989.75
910.358	2988.75
913.899	2966.75
917.438	2979.41667
920.973	2943.75
924.506	2990.08333
928.036	3042.41667
931.564	3111.41667
935.088	3131.41667
938.61	3142.41667
942.129	3171.41667
945.646	3250.75
949.16	3287.08333
952.671	3334.08333
956.179	3354.41667
959.685	3331.08333
963.188	3344.41667
966.688	3324.75
970.185	3209.75
973.68	3128.08333
977.173	3076.41667
980.662	3035.08333
984.149	3029.75
987.633	3045.08333
991.114	3076.08333
994.593	3112.08333
998.069	3203.75
1001.542	3300.75
1005.013	3256.08333
1008.481	3064.08333
1011.947	3020.08333
1015.409	2997.41667
1018.869	2994.41667
1022.327	3004.08333
1025.782	2984.75
1029.234	2967.08333
1032.683	2918.75
1036.13	2839.41667
1039.574	2714.08333
1043.016	2663.41667
1046.455	2615.75
1049.891	2593.08333
1053.325	2594.75
1056.756	2599.08333
1060.184	2625.08333
1063.61	2644.75
1067.033	2620.75
1070.454	2636.75
1073.872	2673.75
1077.287	2673.08333
1080.7	2672.08333
1084.11	2658.41667
1087.517	2636.75
1090.922	2589.75
1094.325	2573.41667
1097.724	2533.75
1101.122	2551.75
1104.516	2548.75
1107.908	2535.08333
1111.298	2600.75
1114.684	2612.08333
1118.069	2661.75
1121.45	2666.75
1124.83	2680.41667
1128.206	2679.75
1131.58	2739.08333
1134.951	2793.41667
1138.32	2881.41667
1141.687	2989.75
1145.05	3067.08333
1148.412	3091.08333
1151.77	3107.41667
1155.126	3093.75
1158.48	3076.41667
1161.831	3059.75
1165.18	3114.75
1168.525	3130.08333
1171.869	3166.08333
1175.21	3184.41667
1178.548	3202.41667
1181.884	3251.08333
1185.217	3257.08333
1188.548	3341.08333
1191.877	3400.08333
1195.202	3469.41667
1198.526	3547.08333
1201.846	3548.75
1205.165	3543.75
1208.48	3535.75
1211.794	3504.41667
1215.104	3506.08333
1218.413	3498.08333
1221.719	3502.75
1225.022	3440.75
1228.323	3384.75
1231.621	3356.08333
1234.917	3350.08333
1238.21	3330.75
1241.501	3345.41667
1244.79	3343.08333
1248.076	3326.75
1251.359	3365.75
1254.64	3459.08333
1257.919	3479.75
1261.195	3523.08333
1264.468	3563.08333
1267.74	3626.75
1271.008	3641.08333
1274.275	3615.08333
1277.538	3603.75
1280.8	3563.41667
1284.059	3559.08333
1287.315	3587.08333
1290.569	3611.41667
1293.821	3631.75
1297.07	3664.41667
1300.317	3677.41667
1303.562	3651.75
1306.803	3625.41667
1310.043	3618.75
1313.28	3603.08333
1316.515	3562.41667
1319.747	3522.08333
1322.977	3515.41667
1326.204	3451.75
1329.429	3403.41667
1332.652	3375.41667
1335.872	3358.08333
1339.09	3305.08333
1342.306	3297.41667
1345.519	3281.08333
1348.729	3242.08333
1351.938	3241.41667
1355.144	3182.08333
1358.347	3128.08333
1361.548	3123.08333
1364.747	3097.08333
1367.944	3061.75
1371.138	3085.75
1374.329	3096.41667
1377.518	3111.41667
1380.705	3155.75
1383.89	3135.75
1387.072	3017.08333
1390.252	2911.08333
1393.429	2793.75
1396.605	2730.41667
1399.777	2621.41667
1402.948	2588.08333
1406.116	2580.75
1409.282	2581.75
1412.445	2578.41667
1415.606	2590.41667
1418.765	2630.08333
1421.921	2680.75
1425.075	2747.41667
1428.227	2842.75
1431.376	2946.08333
1434.524	3052.08333
1437.668	3162.75
1440.811	3210.75
1443.951	3241.08333
1447.089	3212.08333
1450.224	3240.75
1453.357	3218.75
1456.488	3185.08333
1459.617	3179.41667
1462.743	3108.08333
1465.867	3011.75
1468.989	3007.08333
1472.108	2944.75
1475.225	2889.75
1478.34	2859.08333
1481.453	2865.08333
1484.563	2855.41667
1487.671	2916.08333
1490.776	2960.08333
1493.88	3022.08333
1496.981	3064.08333
1500.08	3076.75
1503.176	3166.75
1506.271	3158.41667
1509.363	3227.41667
1512.452	3238.41667
1515.54	3286.08333
1518.625	3351.41667
1521.708	3408.75
1524.789	3568.41667
1527.867	3684.08333
1530.944	3857.75
1534.018	4045.08333
1537.089	4171.75
1540.159	4239.41667
1543.226	4199.41667
1546.291	4111.08333
1549.354	4000.75
1552.415	3931.41667
1555.473	3814.41667
1558.529	3741.08333
1561.583	3710.75
1564.634	3662.08333
1567.684	3676.75
1570.731	3689.41667
1573.776	3764.41667
1576.819	3772.08333
1579.859	3831.41667
1582.898	3862.08333
1585.934	3919.08333
1588.968	3938.75
1591.999	3899.08333
1595.029	3918.75
1598.056	3937.41667
1601.081	3983.75
1604.104	3941.75
1607.125	3898.08333
1610.144	3843.75
1613.16	3762.41667
1616.174	3653.08333
1619.186	3612.75
1622.196	3509.75
1625.203	3431.75
1628.209	3382.41667
1631.212	3342.41667
1634.213	3338.41667
1637.212	3337.75
1640.209	3297.41667
1643.203	3203.08333
1646.196	3096.75
1649.186	2945.41667
1652.174	2830.41667
1655.16	2732.75
1658.144	2642.08333
1661.125	2509.08333
1664.105	2414.08333
1667.082	2297.08333
1670.057	2193.75
1673.03	2059.08333
1676.001	1923.41667
1678.97	1806.08333
1681.937	1690.08333
1684.901	1601.08333
1687.863	1539.41667
1690.824	1473.41667
1693.782	1468.08333
1696.738	1398.41667
1699.692	1347.41667
1702.643	1315.08333
1705.593	1301.41667
1708.54	1294.41667
1711.486	1284.75
1714.429	1251.75
1717.37	1248.41667
1720.309	1224.08333
1723.246	1233.08333
1726.181	1202.08333
1729.113	1202.75
1732.044	1189.41667
1734.972	1162.08333
1737.899	1190.75
1740.823	1170.75
1743.745	1163.75
1746.665	1124.08333
1749.583	1102.41667
1752.499	1086.08333
1755.413	1067.08333
1758.325	1048.08333
1761.235	1042.08333
1764.142	1023.75
1767.048	1018.75
1769.951	1027.75
1772.852	1011.75
1775.752	1015.08333
1778.649	1002.08333
1781.544	1006.41667
1784.437	975.75
1787.328	974.08333
1790.217	963.75
1793.104	960.08333
1795.989	957.08333
1798.872	946.08333
1801.753	952.75
1804.631	957.08333
1807.508	965.41667
1810.383	958.08333
1813.255	937.41667
1816.126	946.08333
1818.994	928.75
1821.861	936.75
1824.725	924.41667
1827.587	919.75
1830.448	920.08333
1833.306	893.08333
1836.162	902.41667
1839.017	885.75
1841.869	895.08333
1844.719	890.75
1847.567	871.75
1850.414	870.41667
1853.258	862.75
1856.1	881.75
1858.94	885.75
1861.778	878.75
1864.614	861.41667
1867.448	869.75
1870.28	854.75
1873.111	886.41667
1875.939	864.75
1878.765	876.75
1881.589	853.08333
1884.411	857.08333
1887.231	861.41667
1890.049	857.08333
1892.865	857.75
1895.68	833.08333
1898.492	854.41667
1901.302	841.08333
1904.11	839.75
1906.916	823.08333
1909.721	820.75
1912.523	825.75
1915.323	818.41667
1918.122	815.75
1920.918	823.41667
1923.712	799.08333
1926.505	800.75
1929.295	788.41667
1932.084	816.08333
1934.87	808.75
1937.655	788.08333
1940.438	799.75
1943.218	794.75
1945.997	809.41667
1948.774	800.75
1951.549	812.41667
1954.322	789.08333
1957.093	793.41667
1959.862	785.08333
1962.629	776.08333
1965.394	782.08333
1968.157	769.41667
1970.918	769.08333
1973.678	753.75
1976.435	779.08333
1979.19	761.08333
1981.944	757.41667
1984.696	765.75
1987.445	741.75
1990.193	747.41667
1992.939	771.41667
1995.683	761.75
1998.425	731.75
2001.165	762.75
2003.903	743.41667
2006.639	752.41667
2009.374	750.75
2012.106	756.41667
2014.837	734.41667
2017.566	751.41667
2020.292	745.75
2023.017	746.08333
2025.74	745.41667
2028.461	727.75
2031.18	737.75
2033.898	731.08333
2036.613	729.75
2039.327	742.41667
2042.038	712.75
2044.748	710.08333
2047.456	730.41667
2050.162	703.75
2052.866	716.41667
2055.568	728.75
2058.268	701.75
2060.967	709.75
2063.663	692.08333
2066.358	694.75
2069.051	700.75
2071.742	701.41667
2074.431	710.08333
2077.118	710.08333
2079.804	697.75
2082.487	687.41667
2085.169	709.75
2087.849	714.75
2090.527	698.08333
2093.203	699.75
2095.877	709.08333
2098.55	713.08333
2101.22	710.75
2103.889	719.08333
2106.556	728.75
2109.221	730.08333
2111.884	722.41667
2114.546	770.75
2117.205	802.08333
2119.863	852.41667
2122.519	876.75
2125.173	943.41667
2127.825	974.08333
2130.475	989.41667
2133.124	972.41667
2135.771	942.41667
2138.416	912.41667
2141.059	857.08333
2143.7	846.08333
2146.339	793.75
2148.977	754.08333
2151.613	765.41667
2154.247	721.75
2156.879	731.75
2159.51	707.75
2162.138	700.41667
2164.765	692.08333
2167.39	676.41667
2170.013	692.41667
2172.634	670.75
2175.254	677.08333
2177.872	703.08333
2180.488	651.08333
2183.102	672.41667
2185.714	662.08333
2188.325	645.41667
2190.934	649.75
2193.541	656.75
2196.146	644.08333
2198.75	626.08333
2201.351	630.41667
2203.951	617.75
2206.549	630.75
2209.146	628.41667
2211.74	631.08333
2214.333	631.41667
2216.924	610.08333
2219.514	610.41667
2222.101	613.75
2224.687	621.08333
2227.271	606.08333
2229.853	605.08333
2232.433	589.75
2235.012	624.41667
2237.589	612.75
2240.164	623.75
2242.738	605.08333
2245.309	600.41667
2247.879	596.41667
2250.448	599.08333
2253.014	586.41667
2255.579	572.41667
2258.142	575.75
2260.703	572.75
2263.262	572.08333
2265.82	569.75
2268.376	579.41667
2270.93	554.41667
2273.483	566.41667
2276.033	576.41667
2278.583	555.08333
2281.13	552.41667
2283.675	551.41667
2286.219	561.08333
2288.761	556.08333
2291.302	562.08333
2293.841	565.75
2296.377	555.75
2298.913	562.75
2301.446	561.08333
2303.978	553.41667
2306.508	543.75
2309.037	547.41667
2311.563	542.41667
2314.088	557.08333
2316.612	522.41667
2319.133	544.08333
2321.653	533.41667
2324.171	523.75
2326.688	545.75
2329.202	538.75
2331.715	535.75
2334.227	539.75
2336.736	538.08333
2339.244	536.08333
2341.751	517.75
2344.255	531.75
2346.758	535.41667
2349.259	513.41667
2351.759	526.08333
2354.257	519.41667
2356.753	518.41667
2359.247	530.41667
2361.74	536.08333
2364.231	532.08333
2366.721	539.08333
2369.209	517.08333
2371.695	521.41667
2374.179	527.75
2376.662	508.41667
2379.143	529.08333
2381.622	525.08333
2384.1	524.08333
2386.576	518.75
2389.051	528.08333
2391.524	543.41667
2393.995	526.08333
2396.464	520.08333
2398.932	521.08333
2401.398	511.75
2403.863	521.08333
2406.325	508.08333
2408.787	514.08333
2411.246	514.75
2413.704	514.41667
2416.16	508.75
2418.615	514.41667
2421.068	524.41667
2423.519	528.75
2425.969	515.75
2428.417	511.08333
2430.863	535.08333
2433.308	529.41667
2435.751	522.41667
2438.193	518.41667
2440.633	522.75
2443.071	524.41667
2445.508	515.75
2447.943	516.41667
2450.376	500.08333
2452.808	508.75
2455.238	518.08333
2457.667	536.75
2460.093	506.75
2462.519	494.08333
2464.942	517.08333
2467.365	510.41667
2469.785	525.75
2472.204	511.75
2474.621	498.75
2477.037	530.08333
2479.451	495.75
2481.863	501.75
2484.274	500.75
2486.683	511.41667
2489.091	517.75
2491.497	511.41667
2493.901	514.08333
2496.304	504.75
2498.705	517.08333
2501.105	502.08333
2503.503	546.41667
2505.899	497.41667
2508.294	531.75
2510.687	512.08333
2513.079	512.08333
2515.469	503.08333
2517.858	512.41667
2520.245	521.41667
2522.63	507.41667
2525.014	499.41667
2527.396	494.41667
2529.776	505.75
2532.156	515.75
2534.533	502.08333
2536.909	500.75
2539.283	486.75
2541.656	501.08333
2544.027	523.41667
2546.397	502.08333
2548.765	506.41667
2551.131	504.41667
2553.496	504.41667
2555.86	516.41667
2558.221	516.75
2560.582	510.75
2562.94	493.75
2565.298	508.41667
2567.653	518.75
2570.007	496.75
2572.36	512.41667
2574.711	498.75
2577.06	512.41667
2579.408	517.08333
2581.754	507.08333
2584.099	518.75
2586.442	507.41667
2588.784	510.75
2591.124	522.75
2593.463	522.41667
2595.8	523.08333
2598.135	514.41667
2600.469	505.08333
2602.802	524.41667
2605.133	532.75
2607.462	507.75
2609.79	501.41667
2612.116	507.08333
2614.441	517.08333
2616.764	518.75
2619.086	527.75
2621.406	514.75
2623.725	532.08333
2626.042	529.08333
2628.358	519.08333
2630.672	515.41667
2632.985	539.75
2635.296	536.41667
2637.606	529.41667
2639.914	515.08333
2642.22	536.41667
2644.525	523.08333
2646.829	533.41667
2649.131	540.41667
2651.432	544.08333
2653.731	538.08333
2656.028	548.41667
2658.324	553.41667
2660.619	540.75
2662.912	552.08333
2665.204	520.41667
2667.494	537.08333
2669.782	535.08333
2672.07	539.08333
2674.355	556.75
2676.639	541.41667
2678.922	547.75
2681.203	545.75
2683.483	542.08333
2685.761	535.41667
2688.038	551.41667
2690.313	564.75
2692.587	560.08333
2694.859	547.41667
2697.13	560.08333
2699.399	564.08333
2701.667	569.41667
2703.933	573.75
2706.198	565.41667
2708.461	576.41667
2710.723	574.75
2712.984	576.08333
2715.243	576.75
2717.5	575.75
2719.757	592.41667
2722.011	573.75
2724.264	590.41667
2726.516	608.08333
2728.766	588.75
2731.015	594.75
2733.262	605.08333
2735.508	596.08333
2737.753	595.41667
2739.996	587.08333
2742.237	580.41667
2744.477	593.41667
2746.716	598.08333
2748.953	584.08333
2751.189	583.75
2753.423	582.08333
2755.656	574.75
2757.887	575.75
2760.117	584.75
2762.346	569.41667
2764.573	567.41667
2766.798	569.08333
2769.022	578.75
2771.245	578.41667
2773.467	577.08333
2775.686	580.08333
2777.905	579.08333
2780.122	593.75
2782.337	600.41667
2784.552	586.41667
2786.764	590.08333
2788.976	596.41667
2791.186	591.08333
2793.394	602.75
2795.601	612.75
2797.807	616.41667
2800.011	620.08333
2802.214	623.41667
2804.415	628.75
2806.615	627.08333
2808.814	621.08333
2811.011	640.41667
2813.206	631.75
2815.401	654.08333
2817.594	657.41667
2819.785	666.41667
2821.975	651.08333
2824.164	663.75
2826.351	675.41667
2828.537	687.75
2830.722	702.75
2832.905	698.75
2835.086	726.41667
2837.267	745.41667
2839.445	768.08333
2841.623	784.41667
2843.799	796.41667
2845.974	834.08333
2848.147	867.75
2850.319	886.41667
2852.489	912.41667
2854.659	915.08333
2856.826	931.75
2858.993	968.41667
2861.158	942.75
2863.321	943.41667
2865.483	962.08333
2867.644	955.75
2869.804	951.41667
2871.962	954.75
2874.118	960.41667
2876.274	961.75
2878.428	962.75
2880.58	948.75
2882.731	934.08333
2884.881	941.41667
2887.03	945.41667
2889.177	949.41667
2891.322	958.08333
2893.467	946.75
2895.61	961.75
2897.751	976.41667
2899.892	975.75
2902.03	986.75
2904.168	987.75
2906.304	980.41667
2908.439	1012.41667
2910.572	984.41667
2912.704	1015.08333
2914.835	1010.75
2916.965	1009.08333
2919.093	1024.41667
2921.219	999.75
2923.345	1019.75
2925.469	994.41667
2927.591	994.08333
2929.712	962.41667
2931.832	960.08333
2933.951	951.41667
2936.068	930.75
2938.184	931.75
2940.299	899.41667
2942.412	882.41667
2944.524	859.75
2946.634	856.41667
2948.744	813.41667
2950.851	829.75
2952.958	793.41667
2955.063	799.41667
2957.167	777.75
2959.269	758.41667
2961.371	777.75
2963.471	742.75
2965.569	749.08333
2967.666	721.75
2969.762	729.08333
2971.857	722.75
2973.95	705.08333
2976.042	693.41667
2978.133	682.08333
2980.222	663.41667
2982.31	651.41667
2984.396	634.41667
2986.482	650.08333
2988.566	631.08333
2990.648	629.08333
2992.73	632.41667
2994.81	618.41667
2996.889	625.08333
2998.966	629.08333
3001.042	624.08333
3003.117	621.41667
3005.191	617.75
3007.263	623.08333
3009.334	606.08333
3011.403	609.75
3013.472	596.08333
3015.539	606.75
3017.604	608.41667
3019.669	560.41667
3021.732	572.41667
3023.794	569.75
3025.854	566.75
3027.914	555.08333
3029.971	574.75
3032.028	563.75
3034.083	558.41667
3036.137	564.41667
3038.19	544.75
3040.242	530.75
3042.292	521.41667
3044.341	524.75
3046.388	530.08333
3048.435	504.41667
3050.48	524.75
3052.524	504.75
3054.566	502.75
3056.607	503.75
3058.647	486.41667
3060.686	478.41667
3062.723	467.08333
3064.759	445.41667
3066.794	2.75
3068.828	2.41667
3070.86	3.08333
