-0.839	399.5
3.438	481.5
7.711	148.83333
11.981	58.83333
16.247	46.83333
20.509	49.16667
24.768	44.5
29.024	55.83333
33.276	47.16667
37.524	52.5
41.769	46.83333
46.01	35.83333
50.247	51.16667
54.481	59.83333
58.712	63.5
62.939	50.16667
67.162	64.16667
71.382	59.16667
75.599	46.83333
79.812	67.5
84.021	82.83333
88.227	60.5
92.429	60.16667
96.628	53.16667
100.823	72.5
105.015	79.5
109.204	69.5
113.388	75.16667
117.57	78.83333
121.748	84.5
125.922	80.83333
130.093	102.5
134.261	99.16667
138.425	100.16667
142.585	137.83333
146.742	129.16667
150.896	161.5
155.046	198.83333
159.193	303.16667
163.336	514.5
167.476	943.83333
171.613	1725.16667
175.746	2882.16667
179.875	4312.5
184.002	5635.5
188.124	6559.83333
192.244	6976.5
196.36	6955.16667
200.472	6875.16667
204.581	6734.16667
208.687	6685.83333
212.79	6590.16667
216.889	6672.83333
220.984	6738.5
225.077	6836.5
229.165	6910.16667
233.251	6938.16667
237.333	6931.5
241.412	6925.5
245.487	6875.83333
249.559	6802.83333
253.628	6750.5
257.694	6702.16667
261.756	6647.83333
265.814	6528.16667
269.87	6345.16667
273.922	6032.16667
277.97	5884.83333
282.016	5725.5
286.058	5674.5
290.097	5720.5
294.132	5742.83333
298.164	5720.5
302.193	5460.16667
306.219	5118.5
310.241	4717.16667
314.26	4354.83333
318.276	4071.16667
322.288	3873.5
326.297	3706.16667
330.303	3595.16667
334.305	3512.83333
338.305	3469.16667
342.301	3436.16667
346.294	3402.83333
350.283	3386.5
354.269	3355.5
358.252	3316.83333
362.232	3305.83333
366.209	3315.5
370.182	3276.16667
374.152	3259.5
378.119	3263.83333
382.083	3260.5
386.043	3263.5
390	3221.16667
393.954	3241.5
397.905	3223.5
401.852	3248.16667
405.797	3220.16667
409.738	3198.83333
413.676	3212.5
417.61	3220.16667
421.542	3199.83333
425.47	3141.83333
429.396	3129.16667
433.318	3103.16667
437.236	3089.5
441.152	3102.16667
445.065	3080.5
448.974	3057.16667
452.88	3053.5
456.783	3046.16667
460.683	3005.83333
464.58	2982.16667
468.473	3027.83333
472.364	3017.83333
476.251	3028.16667
480.135	3069.5
484.016	3084.16667
487.894	3099.5
491.769	3109.83333
495.641	3095.83333
499.509	3119.5
503.375	3123.5
507.237	3115.5
511.096	3108.5
514.952	3195.16667
518.805	3278.83333
522.655	3286.5
526.502	3171.83333
530.346	3100.16667
534.187	3082.83333
538.024	3090.5
541.859	3131.16667
545.69	3136.5
549.519	3101.5
553.344	3103.16667
557.166	3046.5
560.985	3012.16667
564.802	2950.83333
568.615	2916.5
572.425	2883.5
576.232	2842.83333
580.036	2856.83333
583.836	2863.16667
587.634	2871.5
591.429	2892.16667
595.221	2947.16667
599.01	2970.5
602.796	2985.16667
606.578	3010.16667
610.358	3010.83333
614.135	2984.16667
617.909	3000.83333
621.679	2940.83333
625.447	2908.16667
629.212	2918.16667
632.973	2921.83333
636.732	2894.16667
640.488	2922.16667
644.241	2905.83333
647.991	2896.5
651.737	2914.5
655.481	2918.16667
659.222	2910.16667
662.96	2920.5
666.695	2942.16667
670.427	2910.16667
674.156	2943.5
677.882	2935.5
681.605	2901.16667
685.325	2866.5
689.043	2856.83333
692.757	2833.5
696.468	2835.83333
700.177	2848.83333
703.882	2812.5
707.585	2802.83333
711.284	2827.16667
714.981	2800.5
718.675	2807.16667
722.366	2818.16667
726.054	2786.5
729.739	2815.83333
733.421	2797.83333
737.1	2805.5
740.777	2813.83333
744.45	2838.83333
748.121	2845.5
751.789	2899.5
755.453	2891.5
759.115	2919.5
762.774	2920.5
766.431	2947.16667
770.084	2965.16667
773.734	2986.83333
777.382	3049.5
781.027	3055.16667
784.669	3083.5
788.308	3084.5
791.944	3103.83333
795.577	3106.83333
799.208	3133.16667
802.835	3165.16667
806.46	3148.5
810.082	3196.83333
813.701	3217.83333
817.317	3252.16667
820.931	3224.5
824.542	3216.5
828.149	3179.83333
831.754	3121.16667
835.357	3111.5
838.956	3147.83333
842.553	3140.16667
846.146	3112.5
849.737	3094.16667
853.326	3095.16667
856.911	3068.5
860.493	3117.83333
864.073	3119.83333
867.65	3170.83333
871.225	3210.83333
874.796	3188.83333
878.365	3208.5
881.931	3205.83333
885.494	3217.16667
889.054	3240.83333
892.612	3247.83333
896.166	3192.83333
899.719	3182.5
903.268	3116.83333
906.814	3125.83333
910.358	3100.16667
913.899	3093.16667
917.438	3080.83333
920.973	3083.5
924.506	3118.5
928.036	3167.83333
931.564	3237.83333
935.088	3238.83333
938.61	3241.83333
942.129	3257.83333
945.646	3342.5
949.16	3411.5
952.671	3467.83333
956.179	3458.83333
959.685	3440.5
963.188	3481.5
966.688	3442.16667
970.185	3343.5
973.68	3238.5
977.173	3198.83333
980.662	3163.5
984.149	3166.16667
987.633	3141.5
991.114	3191.16667
994.593	3260.83333
998.069	3320.83333
1001.542	3397.16667
1005.013	3344.83333
1008.481	3193.83333
1011.947	3130.83333
1015.409	3118.16667
1018.869	3094.16667
1022.327	3115.83333
1025.782	3089.83333
1029.234	3105.16667
1032.683	3036.16667
1036.13	2953.16667
1039.574	2843.5
1043.016	2777.5
1046.455	2727.16667
1049.891	2681.5
1053.325	2690.83333
1056.756	2709.16667
1060.184	2725.83333
1063.61	2719.5
1067.033	2757.16667
1070.454	2739.5
1073.872	2781.5
1077.287	2771.5
1080.7	2772.83333
1084.11	2772.83333
1087.517	2723.83333
1090.922	2669.16667
1094.325	2659.83333
1097.724	2631.16667
1101.122	2627.16667
1104.516	2653.83333
1107.908	2633.16667
1111.298	2684.5
1114.684	2714.16667
1118.069	2739.16667
1121.45	2784.16667
1124.83	2755.5
1128.206	2767.5
1131.58	2792.5
1134.951	2866.16667
1138.32	2959.5
1141.687	3062.5
1145.05	3160.16667
1148.412	3147.5
1151.77	3160.83333
1155.126	3138.16667
1158.48	3104.5
1161.831	3161.5
1165.18	3139.83333
1168.525	3204.83333
1171.869	3213.16667
1175.21	3216.83333
1178.548	3263.16667
1181.884	3279.5
1185.217	3313.16667
1188.548	3402.16667
1191.877	3474.83333
1195.202	3530.16667
1198.526	3589.16667
1201.846	3617.5
1205.165	3606.83333
1208.48	3598.16667
1211.794	3564.83333
1215.104	3593.5
1218.413	3604.16667
1221.719	3599.83333
1225.022	3546.5
1228.323	3460.16667
1231.621	3430.83333
1234.917	3416.83333
1238.21	3447.16667
1241.501	3426.5
1244.79	3398.5
1248.076	3408.5
1251.359	3454.5
1254.64	3513.16667
1257.919	3555.83333
1261.195	3593.16667
1264.468	3698.5
1267.74	3740.83333
1271.008	3747.16667
1274.275	3727.83333
1277.538	3674.16667
1280.8	3651.16667
1284.059	3650.83333
1287.315	3703.5
1290.569	3668.5
1293.821	3699.5
1297.07	3722.16667
1300.317	3731.16667
1303.562	3710.83333
1306.803	3668.83333
1310.043	3685.83333
1313.28	3644.16667
1316.515	3610.83333
1319.747	3616.83333
1322.977	3576.83333
1326.204	3554.16667
1329.429	3489.5
1332.652	3486.83333
1335.872	3468.5
1339.09	3419.83333
1342.306	3419.5
1345.519	3367.83333
1348.729	3358.83333
1351.938	3348.5
1355.144	3300.83333
1358.347	3223.83333
1361.548	3235.16667
1364.747	3200.16667
1367.944	3190.16667
1371.138	3210.16667
1374.329	3178.83333
1377.518	3209.83333
1380.705	3213.83333
1383.89	3202.83333
1387.072	3126.83333
1390.252	3012.83333
1393.429	2900.5
1396.605	2817.5
1399.777	2714.5
1402.948	2693.83333
1406.116	2678.5
1409.282	2657.83333
1412.445	2650.16667
1415.606	2658.16667
1418.765	2698.16667
1421.921	2751.83333
1425.075	2808.83333
1428.227	2893.5
1431.376	3045.16667
1434.524	3137.5
1437.668	3226.16667
1440.811	3287.5
1443.951	3318.5
1447.089	3318.5
1450.224	3314.5
1453.357	3293.83333
1456.488	3279.16667
1459.617	3233.5
1462.743	3166.16667
1465.867	3085.5
1468.989	3063.5
1472.108	3020.5
1475.225	2956.5
1478.34	2928.5
1481.453	2940.5
1484.563	2957.83333
1487.671	2972.83333
1490.776	3004.83333
1493.88	3047.83333
1496.981	3091.16667
1500.08	3141.83333
1503.176	3194.16667
1506.271	3219.5
1509.363	3287.16667
1512.452	3299.16667
1515.54	3331.83333
1518.625	3386.16667
1521.708	3483.83333
1524.789	3581.5
1527.867	3726.16667
1530.944	3924.5
1534.018	4079.16667
1537.089	4223.5
1540.159	4277.16667
1543.226	4232.16667
1546.291	4163.5
1549.354	4078.5
1552.415	3979.16667
1555.473	3884.83333
1558.529	3811.83333
1561.583	3768.5
1564.634	3735.83333
1567.684	3710.83333
1570.731	3771.83333
1573.776	3790.5
1576.819	3869.5
1579.859	3904.83333
1582.898	3946.5
1585.934	3992.83333
1588.968	3973.5
1591.999	3948.83333
1595.029	3981.5
1598.056	3988.16667
1601.081	4005.16667
1604.104	3985.16667
1607.125	3979.83333
1610.144	3895.83333
1613.16	3839.83333
1616.174	3758.16667
1619.186	3649.5
1622.196	3579.83333
1625.203	3525.83333
1628.209	3475.16667
1631.212	3421.16667
1634.213	3463.83333
1637.212	3458.83333
1640.209	3456.83333
1643.203	3348.83333
1646.196	3213.5
1649.186	3089.5
1652.174	2957.83333
1655.16	2824.5
1658.144	2762.5
1661.125	2607.16667
1664.105	2493.83333
1667.082	2375.5
1670.057	2257.83333
1673.03	2099.5
1676.001	1989.83333
1678.97	1859.83333
1681.937	1734.16667
1684.901	1661.5
1687.863	1595.16667
1690.824	1509.83333
1693.782	1491.16667
1696.738	1427.83333
1699.692	1414.5
1702.643	1363.16667
1705.593	1353.16667
1708.54	1327.83333
1711.486	1328.16667
1714.429	1295.16667
1717.37	1301.5
1720.309	1265.5
1723.246	1268.83333
1726.181	1242.83333
1729.113	1252.5
1732.044	1215.83333
1734.972	1215.16667
1737.899	1221.5
1740.823	1222.16667
1743.745	1200.83333
1746.665	1171.83333
1749.583	1147.83333
1752.499	1113.83333
1755.413	1122.16667
1758.325	1105.83333
1761.235	1093.5
1764.142	1084.5
1767.048	1057.16667
1769.951	1059.5
1772.852	1059.16667
1775.752	1043.16667
1778.649	1049.5
1781.544	1047.5
1784.437	1014.16667
1787.328	1017.83333
1790.217	1012.5
1793.104	986.16667
1795.989	986.16667
1798.872	987.16667
1801.753	993.5
1804.631	992.5
1807.508	1006.83333
1810.383	987.16667
1813.255	980.83333
1816.126	981.5
1818.994	983.16667
1821.861	967.5
1824.725	964.83333
1827.587	967.5
1830.448	955.5
1833.306	921.16667
1836.162	948.83333
1839.017	934.5
1841.869	927.16667
1844.719	938.83333
1847.567	921.16667
1850.414	903.83333
1853.258	902.83333
1856.1	921.83333
1858.94	920.16667
1861.778	909.5
1864.614	911.5
1867.448	911.5
1870.28	893.83333
1873.111	921.83333
1875.939	901.83333
1878.765	927.83333
1881.589	892.16667
1884.411	898.83333
1887.231	905.5
1890.049	897.83333
1892.865	892.5
1895.68	882.83333
1898.492	889.5
1901.302	886.16667
1904.11	880.16667
1906.916	865.5
1909.721	856.5
1912.523	863.83333
1915.323	861.16667
1918.122	847.5
1920.918	856.5
1923.712	843.5
1926.505	841.16667
1929.295	825.5
1932.084	851.5
1934.87	849.83333
1937.655	830.5
1940.438	827.5
1943.218	831.16667
1945.997	848.16667
1948.774	848.83333
1951.549	845.83333
1954.322	821.83333
1957.093	834.83333
1959.862	806.16667
1962.629	809.83333
1965.394	800.5
1968.157	810.83333
1970.918	806.83333
1973.678	791.16667
1976.435	807.16667
1979.19	804.5
1981.944	786.83333
1984.696	789.83333
1987.445	781.5
1990.193	789.5
1992.939	792.16667
1995.683	784.5
1998.425	766.16667
2001.165	805.16667
2003.903	769.83333
2006.639	790.5
2009.374	783.16667
2012.106	780.83333
2014.837	758.5
2017.566	767.83333
2020.292	775.16667
2023.017	768.83333
2025.74	769.16667
2028.461	772.83333
2031.18	766.83333
2033.898	756.5
2036.613	769.83333
2039.327	753.83333
2042.038	746.16667
2044.748	756.83333
2047.456	764.83333
2050.162	744.83333
2052.866	752.83333
2055.568	754.83333
2058.268	736.16667
2060.967	739.83333
2063.663	727.5
2066.358	727.5
2069.051	722.83333
2071.742	733.83333
2074.431	747.83333
2077.118	735.5
2079.804	711.83333
2082.487	725.5
2085.169	741.16667
2087.849	754.16667
2090.527	729.83333
2093.203	726.83333
2095.877	748.5
2098.55	736.5
2101.22	738.83333
2103.889	755.83333
2106.556	752.16667
2109.221	756.83333
2111.884	756.16667
2114.546	793.16667
2117.205	818.16667
2119.863	872.5
2122.519	891.83333
2125.173	951.16667
2127.825	999.83333
2130.475	1006.5
2133.124	980.83333
2135.771	957.5
2138.416	943.5
2141.059	880.5
2143.7	858.5
2146.339	815.5
2148.977	771.5
2151.613	771.5
2154.247	757.16667
2156.879	748.16667
2159.51	723.5
2162.138	718.83333
2164.765	727.5
2167.39	701.16667
2170.013	713.5
2172.634	704.5
2175.254	707.16667
2177.872	736.83333
2180.488	685.83333
2183.102	697.83333
2185.714	682.83333
2188.325	661.16667
2190.934	678.83333
2193.541	674.5
2196.146	673.5
2198.75	649.83333
2201.351	650.16667
2203.951	646.16667
2206.549	655.83333
2209.146	655.16667
2211.74	651.5
2214.333	649.5
2216.924	617.16667
2219.514	641.16667
2222.101	630.5
2224.687	639.83333
2227.271	627.5
2229.853	623.5
2232.433	621.16667
2235.012	635.5
2237.589	634.83333
2240.164	649.16667
2242.738	626.16667
2245.309	613.16667
2247.879	622.5
2250.448	625.5
2253.014	598.16667
2255.579	595.83333
2258.142	599.5
2260.703	587.5
2263.262	597.83333
2265.82	594.83333
2268.376	606.16667
2270.93	579.5
2273.483	582.83333
2276.033	589.5
2278.583	574.5
2281.13	571.16667
2283.675	577.5
2286.219	577.16667
2288.761	577.83333
2291.302	569.5
2293.841	588.16667
2296.377	564.83333
2298.913	563.5
2301.446	579.5
2303.978	569.83333
2306.508	550.5
2309.037	568.5
2311.563	574.16667
2314.088	569.5
2316.612	553.16667
2319.133	570.16667
2321.653	553.16667
2324.171	551.5
2326.688	561.83333
2329.202	554.16667
2331.715	551.5
2334.227	557.16667
2336.736	552.16667
2339.244	551.16667
2341.751	542.83333
2344.255	556.5
2346.758	553.16667
2349.259	530.16667
2351.759	552.16667
2354.257	535.16667
2356.753	529.83333
2359.247	546.5
2361.74	545.16667
2364.231	537.83333
2366.721	545.5
2369.209	537.5
2371.695	538.5
2374.179	536.83333
2376.662	530.5
2379.143	542.16667
2381.622	530.5
2384.1	548.16667
2386.576	529.83333
2389.051	555.83333
2391.524	541.83333
2393.995	545.83333
2396.464	538.16667
2398.932	522.5
2401.398	522.5
2403.863	535.83333
2406.325	529.83333
2408.787	538.16667
2411.246	533.16667
2413.704	535.83333
2416.16	525.16667
2418.615	521.5
2421.068	539.83333
2423.519	538.83333
2425.969	516.83333
2428.417	531.16667
2430.863	555.16667
2433.308	537.83333
2435.751	535.16667
2438.193	532.83333
2440.633	516.83333
2443.071	540.5
2445.508	521.5
2447.943	522.83333
2450.376	523.83333
2452.808	528.5
2455.238	519.83333
2457.667	556.16667
2460.093	532.83333
2462.519	516.83333
2464.942	524.16667
2467.365	521.5
2469.785	536.83333
2472.204	516.83333
2474.621	522.83333
2477.037	540.5
2479.451	505.83333
2481.863	519.83333
2484.274	519.5
2486.683	519.16667
2489.091	526.16667
2491.497	530.5
2493.901	541.83333
2496.304	520.5
2498.705	536.5
2501.105	519.16667
2503.503	549.83333
2505.899	507.83333
2508.294	538.5
2510.687	518.16667
2513.079	528.16667
2515.469	520.5
2517.858	513.16667
2520.245	539.5
2522.63	527.5
2525.014	509.83333
2527.396	516.16667
2529.776	515.83333
2532.156	532.83333
2534.533	515.16667
2536.909	511.5
2539.283	504.5
2541.656	506.16667
2544.027	536.83333
2546.397	520.83333
2548.765	513.16667
2551.131	518.16667
2553.496	512.16667
2555.86	525.83333
2558.221	518.5
2560.582	520.5
2562.94	501.16667
2565.298	521.83333
2567.653	532.16667
2570.007	503.16667
2572.36	527.16667
2574.711	508.83333
2577.06	536.5
2579.408	525.5
2581.754	518.5
2584.099	537.83333
2586.442	513.5
2588.784	521.16667
2591.124	518.83333
2593.463	526.16667
2595.8	534.5
2598.135	516.83333
2600.469	518.83333
2602.802	528.83333
2605.133	531.5
2607.462	521.5
2609.79	508.16667
2612.116	527.16667
2614.441	517.83333
2616.764	527.5
2619.086	534.16667
2621.406	518.16667
2623.725	531.5
2626.042	535.83333
2628.358	526.16667
2630.672	527.16667
2632.985	548.16667
2635.296	521.83333
2637.606	533.16667
2639.914	533.16667
2642.22	542.5
2644.525	531.83333
2646.829	538.83333
2649.131	552.5
2651.432	555.83333
2653.731	539.16667
2656.028	553.5
2658.324	562.5
2660.619	549.16667
2662.912	565.16667
2665.204	543.16667
2667.494	545.83333
2669.782	549.83333
2672.07	552.16667
2674.355	557.83333
2676.639	550.83333
2678.922	551.83333
2681.203	550.83333
2683.483	543.83333
2685.761	543.83333
2688.038	565.83333
2690.313	570.83333
2692.587	564.16667
2694.859	558.83333
2697.13	562.16667
2699.399	579.16667
2701.667	572.5
2703.933	573.5
2706.198	578.83333
2708.461	575.83333
2710.723	585.83333
2712.984	579.16667
2715.243	584.5
2717.5	575.16667
2719.757	603.16667
2722.011	593.16667
2724.264	599.83333
2726.516	606.83333
2728.766	589.83333
2731.015	613.16667
2733.262	609.83333
2735.508	604.16667
2737.753	600.5
2739.996	591.5
2742.237	584.5
2744.477	608.16667
2746.716	603.16667
2748.953	585.5
2751.189	594.83333
2753.423	587.16667
2755.656	582.16667
2757.887	571.83333
2760.117	588.83333
2762.346	581.16667
2764.573	577.83333
2766.798	591.5
2769.022	573.16667
2771.245	585.5
2773.467	581.5
2775.686	600.83333
2777.905	581.16667
2780.122	601.5
2782.337	598.83333
2784.552	598.83333
2786.764	589.5
2788.976	606.83333
2791.186	600.83333
2793.394	605.16667
2795.601	618.5
2797.807	618.5
2800.011	627.16667
2802.214	628.83333
2804.415	630.5
2806.615	627.5
2808.814	634.5
2811.011	638.5
2813.206	647.16667
2815.401	659.5
2817.594	651.5
2819.785	663.5
2821.975	652.5
2824.164	650.16667
2826.351	679.5
2828.537	684.16667
2830.722	699.83333
2832.905	696.5
2835.086	721.83333
2837.267	757.16667
2839.445	767.16667
2841.623	767.83333
2843.799	806.83333
2845.974	827.16667
2848.147	859.5
2850.319	900.83333
2852.489	914.83333
2854.659	931.16667
2856.826	929.16667
2858.993	968.83333
2861.158	951.83333
2863.321	950.16667
2865.483	956.83333
2867.644	974.16667
2869.804	964.5
2871.962	972.5
2874.118	942.5
2876.274	966.83333
2878.428	953.5
2880.58	956.5
2882.731	939.83333
2884.881	949.16667
2887.03	958.16667
2889.177	949.83333
2891.322	954.5
2893.467	966.5
2895.61	969.16667
2897.751	986.83333
2899.892	974.83333
2902.03	984.16667
2904.168	993.16667
2906.304	1012.83333
2908.439	1013.16667
2910.572	997.5
2912.704	1026.83333
2914.835	1025.83333
2916.965	1008.5
2919.093	1031.16667
2921.219	1002.83333
2923.345	1016.5
2925.469	991.5
2927.591	991.5
2929.712	977.5
2931.832	971.16667
2933.951	945.83333
2936.068	944.83333
2938.184	922.5
2940.299	897.5
2942.412	887.16667
2944.524	848.83333
2946.634	852.83333
2948.744	805.5
2950.851	839.16667
2952.958	794.16667
2955.063	795.16667
2957.167	782.16667
2959.269	760.83333
2961.371	794.16667
2963.471	749.5
2965.569	774.5
2967.666	725.16667
2969.762	729.16667
2971.857	702.83333
2973.95	691.83333
2976.042	690.5
2978.133	686.83333
2980.222	676.83333
2982.31	660.83333
2984.396	645.5
2986.482	631.16667
2988.566	643.83333
2990.648	643.83333
2992.73	630.83333
2994.81	620.16667
2996.889	627.5
2998.966	627.5
3001.042	633.16667
3003.117	613.16667
3005.191	611.5
3007.263	624.83333
3009.334	613.5
3011.403	622.16667
3013.472	600.5
3015.539	603.5
3017.604	610.83333
3019.669	561.16667
3021.732	572.16667
3023.794	577.16667
3025.854	561.5
3027.914	564.5
3029.971	572.5
3032.028	571.5
3034.083	565.16667
3036.137	552.83333
3038.19	546.83333
3040.242	533.83333
3042.292	529.5
3044.341	516.5
3046.388	523.5
3048.435	508.5
3050.48	531.5
3052.524	503.5
3054.566	495.5
3056.607	508.5
3058.647	490.16667
3060.686	478.5
3062.723	462.5
3064.759	444.16667
3066.794	-1.16667
3068.828	1.5
3070.86	3.16667
