-0.839	463.375
3.438	557.375
7.711	173.375
11.981	63.70833
16.247	51.70833
20.509	51.375
24.768	46.70833
29.024	56.70833
33.276	48.04167
37.524	49.70833
41.769	44.04167
46.01	37.04167
50.247	51.04167
54.481	61.04167
58.712	62.70833
62.939	53.375
67.162	68.375
71.382	62.375
75.599	48.04167
79.812	68.375
84.021	85.375
88.227	66.04167
92.429	61.70833
96.628	54.70833
100.823	72.70833
105.015	82.04167
109.204	70.70833
113.388	82.375
117.57	78.70833
121.748	91.70833
125.922	86.70833
130.093	109.04167
134.261	108.70833
138.425	108.04167
142.585	144.375
146.742	137.70833
150.896	169.04167
155.046	214.375
159.193	322.375
163.336	546.04167
167.476	1012.04167
171.613	1844.04167
175.746	3106.04167
179.875	4607.70833
184.002	6105.70833
188.124	7124.70833
192.244	7555.375
196.36	7619.04167
200.472	7476.375
204.581	7401.375
208.687	7313.04167
212.79	7276.70833
216.889	7385.70833
220.984	7481.04167
225.077	7555.70833
229.165	7688.375
233.251	7750.04167
237.333	7796.70833
241.412	7723.375
245.487	7676.70833
249.559	7597.04167
253.628	7543.375
257.694	7526.70833
261.756	7397.04167
265.814	7216.04167
269.87	7006.70833
273.922	6748.04167
277.97	6551.04167
282.016	6403.04167
286.058	6402.04167
290.097	6422.04167
294.132	6451.375
298.164	6335.04167
302.193	6051.70833
306.219	5637.04167
310.241	5226.375
314.26	4866.375
318.276	4601.375
322.288	4388.04167
326.297	4243.04167
330.303	4103.70833
334.305	3985.04167
338.305	3961.04167
342.301	3918.04167
346.294	3900.70833
350.283	3875.70833
354.269	3840.70833
358.252	3806.04167
362.232	3787.04167
366.209	3779.375
370.182	3745.70833
374.152	3706.375
378.119	3763.70833
382.083	3750.04167
386.043	3754.04167
390	3727.70833
393.954	3734.04167
397.905	3711.04167
401.852	3714.375
405.797	3675.04167
409.738	3672.04167
413.676	3699.04167
417.61	3677.375
421.542	3653.04167
425.47	3591.70833
429.396	3587.375
433.318	3560.375
437.236	3572.375
441.152	3598.375
445.065	3512.70833
448.974	3557.04167
452.88	3511.375
456.783	3490.70833
460.683	3457.04167
464.58	3476.375
468.473	3485.375
472.364	3507.04167
476.251	3478.70833
480.135	3541.375
484.016	3560.70833
487.894	3576.375
491.769	3598.70833
495.641	3573.375
499.509	3564.04167
503.375	3538.375
507.237	3554.70833
511.096	3544.70833
514.952	3551.04167
518.805	3567.375
522.655	3556.375
526.502	3550.04167
530.346	3535.70833
534.187	3545.70833
538.024	3583.375
541.859	3591.70833
545.69	3615.375
549.519	3607.04167
553.344	3579.04167
557.166	3536.375
560.985	3492.04167
564.802	3445.70833
568.615	3387.04167
572.425	3337.375
576.232	3341.70833
580.036	3306.375
583.836	3316.04167
587.634	3330.04167
591.429	3354.375
595.221	3423.04167
599.01	3440.70833
602.796	3481.70833
606.578	3501.04167
610.358	3511.04167
614.135	3466.375
617.909	3443.04167
621.679	3434.375
625.447	3391.375
629.212	3419.04167
632.973	3406.70833
636.732	3399.04167
640.488	3417.70833
644.241	3368.70833
647.991	3375.04167
651.737	3373.70833
655.481	3322.70833
659.222	3344.375
662.96	3335.70833
666.695	3337.375
670.427	3390.70833
674.156	3397.375
677.882	3374.375
681.605	3356.70833
685.325	3336.04167
689.043	3340.70833
692.757	3327.70833
696.468	3320.70833
700.177	3302.375
703.882	3261.70833
707.585	3301.04167
711.284	3288.04167
714.981	3270.375
718.675	3277.70833
722.366	3279.70833
726.054	3231.70833
729.739	3276.04167
733.421	3263.70833
737.1	3263.375
740.777	3289.375
744.45	3292.04167
748.121	3323.04167
751.789	3373.375
755.453	3347.375
759.115	3412.70833
762.774	3418.375
766.431	3422.70833
770.084	3480.375
773.734	3490.375
777.382	3539.04167
781.027	3590.04167
784.669	3608.70833
788.308	3609.70833
791.944	3614.04167
795.577	3651.375
799.208	3629.70833
802.835	3652.375
806.46	3675.04167
810.082	3690.375
813.701	3688.375
817.317	3722.70833
820.931	3709.70833
824.542	3712.70833
828.149	3676.04167
831.754	3680.04167
835.357	3651.70833
838.956	3687.04167
842.553	3668.70833
846.146	3624.70833
849.737	3632.04167
853.326	3608.375
856.911	3645.04167
860.493	3704.70833
864.073	3689.70833
867.65	3745.04167
871.225	3773.04167
874.796	3784.70833
878.365	3779.70833
881.931	3824.04167
885.494	3838.375
889.054	3828.70833
892.612	3844.04167
896.166	3832.375
899.719	3800.70833
903.268	3704.04167
906.814	3673.70833
910.358	3651.375
913.899	3638.70833
917.438	3641.375
920.973	3601.375
924.506	3691.04167
928.036	3703.70833
931.564	3747.375
935.088	3810.70833
938.61	3779.375
942.129	3845.375
945.646	3882.70833
949.16	3966.04167
952.671	3988.375
956.179	4019.70833
959.685	3962.375
963.188	3961.04167
966.688	3920.04167
970.185	3813.04167
973.68	3764.04167
977.173	3753.375
980.662	3679.04167
984.149	3695.04167
987.633	3674.70833
991.114	3781.04167
994.593	3817.70833
998.069	3940.04167
1001.542	4036.375
1005.013	3947.375
1008.481	3753.375
1011.947	3705.70833
1015.409	3668.04167
1018.869	3644.70833
1022.327	3652.04167
1025.782	3625.04167
1029.234	3610.04167
1032.683	3549.04167
1036.13	3455.04167
1039.574	3336.04167
1043.016	3245.70833
1046.455	3193.70833
1049.891	3180.375
1053.325	3159.04167
1056.756	3182.375
1060.184	3183.375
1063.61	3223.70833
1067.033	3230.04167
1070.454	3248.375
1073.872	3259.70833
1077.287	3256.70833
1080.7	3228.04167
1084.11	3223.70833
1087.517	3201.375
1090.922	3160.04167
1094.325	3155.04167
1097.724	3110.04167
1101.122	3118.04167
1104.516	3109.04167
1107.908	3110.04167
1111.298	3155.70833
1114.684	3174.04167
1118.069	3232.375
1121.45	3283.04167
1124.83	3264.375
1128.206	3292.375
1131.58	3326.04167
1134.951	3393.70833
1138.32	3477.04167
1141.687	3610.04167
1145.05	3673.04167
1148.412	3723.04167
1151.77	3707.04167
1155.126	3705.375
1158.48	3695.04167
1161.831	3685.70833
1165.18	3713.04167
1168.525	3771.04167
1171.869	3817.375
1175.21	3847.04167
1178.548	3868.375
1181.884	3924.375
1185.217	3935.04167
1188.548	3991.375
1191.877	4084.04167
1195.202	4200.375
1198.526	4251.04167
1201.846	4266.70833
1205.165	4241.70833
1208.48	4216.70833
1211.794	4186.04167
1215.104	4196.04167
1218.413	4203.04167
1221.719	4196.375
1225.022	4173.375
1228.323	4094.04167
1231.621	4065.375
1234.917	4031.70833
1238.21	4045.04167
1241.501	4048.04167
1244.79	4029.70833
1248.076	4045.375
1251.359	4083.04167
1254.64	4167.04167
1257.919	4204.70833
1261.195	4242.375
1264.468	4345.375
1267.74	4376.70833
1271.008	4396.04167
1274.275	4351.375
1277.538	4328.70833
1280.8	4315.04167
1284.059	4293.04167
1287.315	4339.375
1290.569	4353.375
1293.821	4365.375
1297.07	4386.04167
1300.317	4444.04167
1303.562	4367.70833
1306.803	4386.375
1310.043	4343.70833
1313.28	4291.70833
1316.515	4256.70833
1319.747	4215.70833
1322.977	4162.375
1326.204	4115.375
1329.429	4042.70833
1332.652	4022.70833
1335.872	4019.04167
1339.09	3973.70833
1342.306	3948.375
1345.519	3912.04167
1348.729	3912.04167
1351.938	3882.04167
1355.144	3830.04167
1358.347	3728.04167
1361.548	3747.04167
1364.747	3727.375
1367.944	3684.375
1371.138	3704.04167
1374.329	3742.70833
1377.518	3770.375
1380.705	3784.04167
1383.89	3766.375
1387.072	3640.70833
1390.252	3513.04167
1393.429	3387.375
1396.605	3311.70833
1399.777	3220.70833
1402.948	3173.70833
1406.116	3136.04167
1409.282	3129.375
1412.445	3134.375
1415.606	3166.70833
1418.765	3206.375
1421.921	3283.04167
1425.075	3352.04167
1428.227	3444.70833
1431.376	3585.04167
1434.524	3723.375
1437.668	3824.375
1440.811	3867.375
1443.951	3887.04167
1447.089	3882.375
1450.224	3887.70833
1453.357	3866.04167
1456.488	3859.04167
1459.617	3745.04167
1462.743	3696.375
1465.867	3633.70833
1468.989	3593.04167
1472.108	3497.375
1475.225	3470.375
1478.34	3428.375
1481.453	3433.04167
1484.563	3440.375
1487.671	3506.70833
1490.776	3521.04167
1493.88	3594.04167
1496.981	3647.375
1500.08	3719.70833
1503.176	3749.70833
1506.271	3803.375
1509.363	3872.375
1512.452	3887.375
1515.54	3914.70833
1518.625	3979.04167
1521.708	4071.375
1524.789	4222.04167
1527.867	4373.70833
1530.944	4627.375
1534.018	4820.70833
1537.089	4982.375
1540.159	5052.70833
1543.226	5029.375
1546.291	4964.70833
1549.354	4859.375
1552.415	4729.70833
1555.473	4602.04167
1558.529	4511.375
1561.583	4491.375
1564.634	4433.70833
1567.684	4438.375
1570.731	4460.04167
1573.776	4507.70833
1576.819	4561.70833
1579.859	4576.375
1582.898	4626.70833
1585.934	4713.375
1588.968	4714.04167
1591.999	4712.04167
1595.029	4702.04167
1598.056	4743.70833
1601.081	4780.70833
1604.104	4739.70833
1607.125	4702.375
1610.144	4602.04167
1613.16	4508.04167
1616.174	4381.375
1619.186	4301.375
1622.196	4181.375
1625.203	4087.70833
1628.209	4002.70833
1631.212	3928.375
1634.213	3890.04167
1637.212	3888.70833
1640.209	3822.04167
1643.203	3736.375
1646.196	3586.04167
1649.186	3476.375
1652.174	3350.04167
1655.16	3217.70833
1658.144	3113.70833
1661.125	2993.04167
1664.105	2866.70833
1667.082	2732.04167
1670.057	2616.70833
1673.03	2458.04167
1676.001	2323.04167
1678.97	2184.04167
1681.937	2060.375
1684.901	1958.375
1687.863	1883.70833
1690.824	1792.70833
1693.782	1781.375
1696.738	1703.04167
1699.692	1668.04167
1702.643	1620.70833
1705.593	1608.70833
1708.54	1574.70833
1711.486	1553.04167
1714.429	1549.70833
1717.37	1527.375
1720.309	1510.70833
1723.246	1495.70833
1726.181	1460.04167
1729.113	1471.375
1732.044	1440.70833
1734.972	1438.04167
1737.899	1426.70833
1740.823	1418.04167
1743.745	1406.04167
1746.665	1355.04167
1749.583	1350.375
1752.499	1319.375
1755.413	1301.04167
1758.325	1283.04167
1761.235	1279.375
1764.142	1264.70833
1767.048	1243.375
1769.951	1239.70833
1772.852	1231.04167
1775.752	1234.04167
1778.649	1229.375
1781.544	1204.04167
1784.437	1175.04167
1787.328	1193.375
1790.217	1187.70833
1793.104	1142.375
1795.989	1151.70833
1798.872	1137.70833
1801.753	1167.70833
1804.631	1149.70833
1807.508	1168.375
1810.383	1142.70833
1813.255	1145.70833
1816.126	1137.375
1818.994	1135.70833
1821.861	1124.375
1824.725	1127.375
1827.587	1096.70833
1830.448	1095.375
1833.306	1079.375
1836.162	1083.375
1839.017	1075.375
1841.869	1069.70833
1844.719	1072.04167
1847.567	1046.70833
1850.414	1043.375
1853.258	1044.70833
1856.1	1062.04167
1858.94	1063.04167
1861.778	1054.70833
1864.614	1042.375
1867.448	1037.375
1870.28	1037.70833
1873.111	1060.70833
1875.939	1043.375
1878.765	1043.70833
1881.589	1038.375
1884.411	1025.04167
1887.231	1033.70833
1890.049	1024.375
1892.865	1026.04167
1895.68	1006.375
1898.492	1017.70833
1901.302	1003.04167
1904.11	1001.04167
1906.916	995.70833
1909.721	992.04167
1912.523	1046.70833
1915.323	972.375
1918.122	973.70833
1920.918	978.70833
1923.712	967.04167
1926.505	962.375
1929.295	951.70833
1932.084	973.375
1934.87	958.04167
1937.655	954.375
1940.438	946.375
1943.218	963.375
1945.997	963.70833
1948.774	964.04167
1951.549	955.04167
1954.322	950.375
1957.093	941.70833
1959.862	927.70833
1962.629	936.375
1965.394	930.04167
1968.157	918.04167
1970.918	919.04167
1973.678	905.04167
1976.435	921.70833
1979.19	888.04167
1981.944	896.375
1984.696	891.04167
1987.445	875.04167
1990.193	901.70833
1992.939	903.04167
1995.683	903.375
1998.425	877.375
2001.165	896.375
2003.903	874.70833
2006.639	881.04167
2009.374	892.375
2012.106	881.04167
2014.837	858.04167
2017.566	885.375
2020.292	879.04167
2023.017	864.375
2025.74	869.70833
2028.461	854.375
2031.18	853.04167
2033.898	856.375
2036.613	847.375
2039.327	852.70833
2042.038	838.375
2044.748	843.04167
2047.456	841.375
2050.162	828.04167
2052.866	838.375
2055.568	834.70833
2058.268	827.04167
2060.967	817.70833
2063.663	817.70833
2066.358	820.04167
2069.051	817.375
2071.742	834.375
2074.431	821.70833
2077.118	829.04167
2079.804	814.04167
2082.487	829.375
2085.169	817.04167
2087.849	841.70833
2090.527	805.70833
2093.203	809.04167
2095.877	821.04167
2098.55	833.375
2101.22	844.70833
2103.889	843.70833
2106.556	837.375
2109.221	878.70833
2111.884	882.04167
2114.546	948.04167
2117.205	996.375
2119.863	1094.04167
2122.519	1132.375
2125.173	1206.70833
2127.825	1278.04167
2130.475	1295.375
2133.124	1256.04167
2135.771	1215.375
2138.416	1167.70833
2141.059	1094.70833
2143.7	1057.375
2146.339	986.375
2148.977	941.375
2151.613	927.70833
2154.247	904.70833
2156.879	871.70833
2159.51	850.375
2162.138	831.375
2164.765	840.375
2167.39	814.70833
2170.013	812.70833
2172.634	805.375
2175.254	787.04167
2177.872	807.70833
2180.488	772.04167
2183.102	768.04167
2185.714	758.375
2188.325	729.04167
2190.934	731.375
2193.541	734.04167
2196.146	738.375
2198.75	719.70833
2201.351	717.375
2203.951	694.04167
2206.549	718.04167
2209.146	708.70833
2211.74	693.70833
2214.333	706.04167
2216.924	675.70833
2219.514	699.04167
2222.101	675.375
2224.687	691.04167
2227.271	686.70833
2229.853	662.375
2232.433	651.70833
2235.012	666.375
2237.589	680.04167
2240.164	680.04167
2242.738	675.70833
2245.309	647.04167
2247.879	655.70833
2250.448	646.375
2253.014	627.70833
2255.579	619.375
2258.142	622.375
2260.703	612.375
2263.262	631.375
2265.82	610.375
2268.376	605.04167
2270.93	598.375
2273.483	592.70833
2276.033	601.375
2278.583	595.04167
2281.13	596.04167
2283.675	590.70833
2286.219	584.375
2288.761	590.70833
2291.302	591.375
2293.841	602.70833
2296.377	570.375
2298.913	579.375
2301.446	589.375
2303.978	575.04167
2306.508	574.375
2309.037	563.04167
2311.563	566.70833
2314.088	565.70833
2316.612	539.04167
2319.133	561.04167
2321.653	559.375
2324.171	545.04167
2326.688	559.04167
2329.202	554.70833
2331.715	547.04167
2334.227	549.04167
2336.736	541.04167
2339.244	534.375
2341.751	524.70833
2344.255	548.375
2346.758	541.375
2349.259	518.04167
2351.759	535.70833
2354.257	528.04167
2356.753	521.04167
2359.247	522.04167
2361.74	528.70833
2364.231	516.70833
2366.721	534.04167
2369.209	512.70833
2371.695	529.04167
2374.179	519.375
2376.662	507.375
2379.143	518.375
2381.622	509.70833
2384.1	513.04167
2386.576	498.70833
2389.051	515.70833
2391.524	512.375
2393.995	520.375
2396.464	502.04167
2398.932	504.70833
2401.398	491.375
2403.863	495.70833
2406.325	490.70833
2408.787	501.04167
2411.246	488.04167
2413.704	488.375
2416.16	488.04167
2418.615	481.70833
2421.068	494.375
2423.519	493.70833
2425.969	482.70833
2428.417	484.375
2430.863	502.70833
2433.308	482.375
2435.751	488.70833
2438.193	477.04167
2440.633	470.375
2443.071	476.70833
2445.508	469.375
2447.943	467.04167
2450.376	464.375
2452.808	477.04167
2455.238	462.375
2457.667	497.04167
2460.093	458.04167
2462.519	455.04167
2464.942	454.375
2467.365	472.04167
2469.785	473.70833
2472.204	458.375
2474.621	445.70833
2477.037	472.70833
2479.451	437.04167
2481.863	444.375
2484.274	448.04167
2486.683	456.375
2489.091	464.70833
2491.497	443.375
2493.901	456.375
2496.304	444.04167
2498.705	453.375
2501.105	437.375
2503.503	468.70833
2505.899	429.70833
2508.294	440.375
2510.687	446.04167
2513.079	436.375
2515.469	419.70833
2517.858	436.04167
2520.245	444.70833
2522.63	424.375
2525.014	431.04167
2527.396	422.70833
2529.776	420.04167
2532.156	425.375
2534.533	418.375
2536.909	424.04167
2539.283	409.70833
2541.656	407.375
2544.027	428.375
2546.397	416.375
2548.765	410.04167
2551.131	411.04167
2553.496	414.70833
2555.86	413.70833
2558.221	409.70833
2560.582	408.375
2562.94	400.04167
2565.298	412.70833
2567.653	428.70833
2570.007	392.375
2572.36	420.04167
2574.711	395.375
2577.06	421.70833
2579.408	409.70833
2581.754	405.04167
2584.099	407.375
2586.442	402.375
2588.784	400.70833
2591.124	400.04167
2593.463	397.70833
2595.8	409.04167
2598.135	397.70833
2600.469	384.375
2602.802	403.375
2605.133	407.04167
2607.462	389.375
2609.79	381.04167
2612.116	389.70833
2614.441	403.04167
2616.764	391.70833
2619.086	391.375
2621.406	386.04167
2623.725	413.70833
2626.042	397.375
2628.358	385.04167
2630.672	377.70833
2632.985	398.70833
2635.296	392.04167
2637.606	379.04167
2639.914	381.375
2642.22	379.70833
2644.525	383.375
2646.829	386.375
2649.131	396.375
2651.432	410.375
2653.731	388.375
2656.028	394.375
2658.324	404.04167
2660.619	382.04167
2662.912	399.375
2665.204	377.70833
2667.494	394.70833
2669.782	387.375
2672.07	391.70833
2674.355	394.70833
2676.639	394.375
2678.922	380.375
2681.203	387.70833
2683.483	378.04167
2685.761	378.04167
2688.038	395.70833
2690.313	396.70833
2692.587	388.04167
2694.859	386.70833
2697.13	389.04167
2699.399	397.04167
2701.667	398.04167
2703.933	399.375
2706.198	404.04167
2708.461	395.04167
2710.723	406.70833
2712.984	403.70833
2715.243	411.04167
2717.5	402.375
2719.757	409.04167
2722.011	408.375
2724.264	425.375
2726.516	422.70833
2728.766	417.04167
2731.015	422.375
2733.262	418.70833
2735.508	412.04167
2737.753	412.04167
2739.996	397.04167
2742.237	399.04167
2744.477	413.04167
2746.716	415.375
2748.953	393.375
2751.189	398.70833
2753.423	392.70833
2755.656	388.04167
2757.887	377.04167
2760.117	381.70833
2762.346	378.375
2764.573	375.70833
2766.798	371.70833
2769.022	376.375
2771.245	386.70833
2773.467	381.04167
2775.686	392.375
2777.905	395.70833
2780.122	398.70833
2782.337	397.70833
2784.552	396.70833
2786.764	392.04167
2788.976	390.04167
2791.186	395.70833
2793.394	406.375
2795.601	407.04167
2797.807	426.375
2800.011	424.375
2802.214	433.70833
2804.415	431.375
2806.615	437.70833
2808.814	438.04167
2811.011	441.70833
2813.206	441.70833
2815.401	468.04167
2817.594	472.375
2819.785	478.04167
2821.975	477.04167
2824.164	470.04167
2826.351	493.04167
2828.537	498.375
2830.722	511.375
2832.905	522.70833
2835.086	541.70833
2837.267	585.375
2839.445	587.375
2841.623	614.375
2843.799	645.375
2845.974	677.70833
2848.147	702.04167
2850.319	729.04167
2852.489	756.70833
2854.659	767.375
2856.826	781.375
2858.993	811.375
2861.158	789.70833
2863.321	802.04167
2865.483	811.375
2867.644	811.04167
2869.804	801.375
2871.962	804.375
2874.118	802.04167
2876.274	810.375
2878.428	818.04167
2880.58	793.375
2882.731	793.70833
2884.881	796.375
2887.03	808.375
2889.177	809.04167
2891.322	806.70833
2893.467	812.70833
2895.61	806.375
2897.751	834.04167
2899.892	814.70833
2902.03	832.375
2904.168	837.375
2906.304	839.375
2908.439	864.375
2910.572	840.375
2912.704	865.70833
2914.835	862.04167
2916.965	853.375
2919.093	855.375
2921.219	829.375
2923.345	859.70833
2925.469	828.70833
2927.591	833.70833
2929.712	797.375
2931.832	790.04167
2933.951	786.04167
2936.068	759.375
2938.184	750.04167
2940.299	723.70833
2942.412	696.70833
2944.524	654.04167
2946.634	651.375
2948.744	610.04167
2950.851	631.04167
2952.958	588.04167
2955.063	572.04167
2957.167	556.70833
2959.269	523.70833
2961.371	548.375
2963.471	518.04167
2965.569	505.04167
2967.666	481.70833
2969.762	466.04167
2971.857	472.04167
2973.95	437.04167
2976.042	437.04167
2978.133	425.04167
2980.222	411.04167
2982.31	398.70833
2984.396	376.70833
2986.482	381.375
2988.566	373.04167
2990.648	374.70833
2992.73	373.375
2994.81	352.70833
2996.889	354.04167
2998.966	350.375
3001.042	354.375
3003.117	351.70833
3005.191	350.70833
3007.263	340.375
3009.334	327.04167
3011.403	331.04167
3013.472	315.70833
3015.539	323.375
3017.604	329.375
3019.669	290.70833
3021.732	296.04167
3023.794	295.375
3025.854	291.70833
3027.914	294.375
3029.971	296.375
3032.028	286.375
3034.083	296.04167
3036.137	289.375
3038.19	279.375
3040.242	277.04167
3042.292	266.70833
3044.341	261.04167
3046.388	277.04167
3048.435	253.04167
3050.48	273.375
3052.524	261.375
3054.566	245.70833
3056.607	261.70833
3058.647	249.04167
3060.686	237.70833
3062.723	235.04167
3064.759	217.70833
3066.794	1.04167
3068.828	-0.29167
3070.86	1.70833
