-0.839	505.83333
3.438	595.16667
7.711	168.5
11.981	60.16667
16.247	43.5
20.509	48.83333
24.768	43.83333
29.024	51.16667
33.276	41.83333
37.524	46.83333
41.769	44.83333
46.01	30.16667
50.247	45.16667
54.481	56.16667
58.712	59.16667
62.939	46.16667
67.162	63.83333
71.382	53.5
75.599	42.5
79.812	57.16667
84.021	76.5
88.227	55.83333
92.429	55.83333
96.628	49.83333
100.823	64.5
105.015	72.5
109.204	64.5
113.388	70.83333
117.57	69.16667
121.748	79.5
125.922	73.16667
130.093	87.83333
134.261	90.5
138.425	87.16667
142.585	120.83333
146.742	109.83333
150.896	139.5
155.046	174.16667
159.193	257.5
163.336	444.16667
167.476	812.5
171.613	1461.5
175.746	2466.83333
179.875	3620.16667
184.002	4755.16667
188.124	5495.83333
192.244	5826.5
196.36	5737.83333
200.472	5657.83333
204.581	5527.5
208.687	5429.83333
212.79	5325.16667
216.889	5316.5
220.984	5337.16667
225.077	5406.83333
229.165	5398.5
233.251	5410.16667
237.333	5383.83333
241.412	5370.16667
245.487	5318.5
249.559	5224.16667
253.628	5223.16667
257.694	5171.16667
261.756	5079.83333
265.814	4980.83333
269.87	4824.83333
273.922	4641.5
277.97	4459.16667
282.016	4383.83333
286.058	4330.16667
290.097	4380.5
294.132	4400.16667
298.164	4379.5
302.193	4165.5
306.219	3878.5
310.241	3572.5
314.26	3312.16667
318.276	3092.5
322.288	2960.5
326.297	2799.16667
330.303	2733.16667
334.305	2678.16667
338.305	2653.16667
342.301	2610.16667
346.294	2569.16667
350.283	2547.16667
354.269	2553.5
358.252	2498.16667
362.232	2515.5
366.209	2502.83333
370.182	2464.83333
374.152	2438.83333
378.119	2464.83333
382.083	2436.16667
386.043	2472.83333
390	2433.16667
393.954	2441.16667
397.905	2429.16667
401.852	2445.5
405.797	2386.5
409.738	2408.5
413.676	2411.16667
417.61	2401.83333
421.542	2396.83333
425.47	2364.5
429.396	2355.83333
433.318	2307.83333
437.236	2317.5
441.152	2364.16667
445.065	2320.5
448.974	2307.5
452.88	2270.16667
456.783	2260.16667
460.683	2235.83333
464.58	2244.16667
468.473	2236.83333
472.364	2260.83333
476.251	2252.83333
480.135	2293.16667
484.016	2305.5
487.894	2312.5
491.769	2327.83333
495.641	2331.83333
499.509	2314.83333
503.375	2334.83333
507.237	2340.16667
511.096	2413.16667
514.952	2609.16667
518.805	2829.5
522.655	2936.83333
526.502	2615.16667
530.346	2392.5
534.187	2333.83333
538.024	2338.16667
541.859	2341.83333
545.69	2344.5
549.519	2327.83333
553.344	2314.16667
557.166	2293.83333
560.985	2255.83333
564.802	2220.5
568.615	2187.83333
572.425	2129.5
576.232	2135.83333
580.036	2144.16667
583.836	2142.83333
587.634	2136.16667
591.429	2159.5
595.221	2200.16667
599.01	2233.5
602.796	2240.16667
606.578	2240.83333
610.358	2258.5
614.135	2243.5
617.909	2251.16667
621.679	2208.5
625.447	2176.83333
629.212	2170.16667
632.973	2179.16667
636.732	2166.16667
640.488	2183.83333
644.241	2166.5
647.991	2169.16667
651.737	2181.16667
655.481	2156.5
659.222	2152.16667
662.96	2147.5
666.695	2172.16667
670.427	2173.16667
674.156	2177.16667
677.882	2154.16667
681.605	2164.16667
685.325	2142.5
689.043	2149.83333
692.757	2115.83333
696.468	2123.16667
700.177	2113.16667
703.882	2100.83333
707.585	2102.83333
711.284	2086.83333
714.981	2092.16667
718.675	2086.83333
722.366	2090.5
726.054	2086.16667
729.739	2093.83333
733.421	2099.5
737.1	2092.83333
740.777	2107.16667
744.45	2121.83333
748.121	2141.83333
751.789	2164.16667
755.453	2186.83333
759.115	2188.16667
762.774	2174.83333
766.431	2202.83333
770.084	2212.5
773.734	2248.83333
777.382	2278.83333
781.027	2313.5
784.669	2317.16667
788.308	2315.16667
791.944	2352.5
795.577	2360.83333
799.208	2363.5
802.835	2366.83333
806.46	2392.5
810.082	2419.16667
813.701	2427.83333
817.317	2461.16667
820.931	2448.5
824.542	2431.16667
828.149	2411.5
831.754	2371.83333
835.357	2368.83333
838.956	2365.83333
842.553	2351.83333
846.146	2362.5
849.737	2312.5
853.326	2328.83333
856.911	2325.16667
860.493	2348.16667
864.073	2362.16667
867.65	2389.5
871.225	2405.16667
874.796	2393.83333
878.365	2417.16667
881.931	2439.16667
885.494	2458.16667
889.054	2436.83333
892.612	2448.16667
896.166	2397.16667
899.719	2382.83333
903.268	2351.16667
906.814	2334.5
910.358	2314.16667
913.899	2304.83333
917.438	2315.16667
920.973	2306.5
924.506	2343.5
928.036	2405.16667
931.564	2433.83333
935.088	2473.83333
938.61	2488.83333
942.129	2510.5
945.646	2550.5
949.16	2601.5
952.671	2634.83333
956.179	2645.83333
959.685	2614.83333
963.188	2644.16667
966.688	2646.83333
970.185	2532.16667
973.68	2478.5
977.173	2445.83333
980.662	2381.16667
984.149	2398.16667
987.633	2354.5
991.114	2415.5
994.593	2459.83333
998.069	2539.16667
1001.542	2591.5
1005.013	2550.16667
1008.481	2415.16667
1011.947	2364.5
1015.409	2348.16667
1018.869	2349.5
1022.327	2363.5
1025.782	2326.5
1029.234	2333.16667
1032.683	2306.16667
1036.13	2230.83333
1039.574	2134.16667
1043.016	2101.83333
1046.455	2036.83333
1049.891	2030.16667
1053.325	2039.5
1056.756	2018.16667
1060.184	2049.83333
1063.61	2068.83333
1067.033	2080.16667
1070.454	2069.83333
1073.872	2126.5
1077.287	2112.83333
1080.7	2113.83333
1084.11	2104.16667
1087.517	2087.83333
1090.922	2044.16667
1094.325	2034.16667
1097.724	2004.16667
1101.122	2015.83333
1104.516	1986.5
1107.908	2011.83333
1111.298	2061.5
1114.684	2053.16667
1118.069	2085.16667
1121.45	2120.5
1124.83	2093.16667
1128.206	2118.16667
1131.58	2139.16667
1134.951	2188.16667
1138.32	2263.83333
1141.687	2358.16667
1145.05	2407.5
1148.412	2406.83333
1151.77	2403.83333
1155.126	2398.16667
1158.48	2360.83333
1161.831	2407.5
1165.18	2395.83333
1168.525	2419.16667
1171.869	2455.16667
1175.21	2462.16667
1178.548	2472.16667
1181.884	2504.16667
1185.217	2530.5
1188.548	2598.5
1191.877	2627.83333
1195.202	2716.83333
1198.526	2737.5
1201.846	2783.83333
1205.165	2775.5
1208.48	2776.16667
1211.794	2744.16667
1215.104	2747.83333
1218.413	2748.83333
1221.719	2731.5
1225.022	2698.5
1228.323	2651.16667
1231.621	2638.16667
1234.917	2621.5
1238.21	2625.5
1241.501	2623.5
1244.79	2581.5
1248.076	2604.5
1251.359	2626.5
1254.64	2693.83333
1257.919	2727.83333
1261.195	2747.83333
1264.468	2801.83333
1267.74	2847.5
1271.008	2838.5
1274.275	2837.16667
1277.538	2803.5
1280.8	2789.16667
1284.059	2820.5
1287.315	2837.5
1290.569	2849.5
1293.821	2870.5
1297.07	2860.83333
1300.317	2905.83333
1303.562	2883.83333
1306.803	2845.83333
1310.043	2862.5
1313.28	2813.16667
1316.515	2810.16667
1319.747	2793.83333
1322.977	2756.16667
1326.204	2739.5
1329.429	2702.16667
1332.652	2700.83333
1335.872	2681.16667
1339.09	2629.83333
1342.306	2614.83333
1345.519	2576.83333
1348.729	2576.5
1351.938	2602.83333
1355.144	2594.16667
1358.347	2528.5
1361.548	2496.16667
1364.747	2505.16667
1367.944	2461.5
1371.138	2497.83333
1374.329	2485.83333
1377.518	2507.16667
1380.705	2521.16667
1383.89	2503.16667
1387.072	2427.16667
1390.252	2362.5
1393.429	2254.5
1396.605	2184.83333
1399.777	2113.83333
1402.948	2106.5
1406.116	2075.16667
1409.282	2062.83333
1412.445	2056.83333
1415.606	2092.83333
1418.765	2094.83333
1421.921	2134.5
1425.075	2182.5
1428.227	2256.83333
1431.376	2345.16667
1434.524	2443.5
1437.668	2538.16667
1440.811	2577.5
1443.951	2571.16667
1447.089	2589.83333
1450.224	2566.83333
1453.357	2570.16667
1456.488	2544.5
1459.617	2497.5
1462.743	2455.5
1465.867	2399.16667
1468.989	2391.83333
1472.108	2338.83333
1475.225	2292.83333
1478.34	2256.5
1481.453	2274.5
1484.563	2269.5
1487.671	2306.5
1490.776	2325.5
1493.88	2368.83333
1496.981	2412.83333
1500.08	2435.5
1503.176	2481.5
1506.271	2498.16667
1509.363	2540.5
1512.452	2545.16667
1515.54	2613.16667
1518.625	2618.83333
1521.708	2678.16667
1524.789	2761.5
1527.867	2842.16667
1530.944	3010.16667
1534.018	3140.5
1537.089	3261.83333
1540.159	3249.83333
1543.226	3259.5
1546.291	3191.83333
1549.354	3113.83333
1552.415	3046.5
1555.473	2982.5
1558.529	2948.5
1561.583	2901.16667
1564.634	2885.5
1567.684	2872.16667
1570.731	2909.5
1573.776	2933.5
1576.819	3009.83333
1579.859	3042.83333
1582.898	3062.5
1585.934	3101.5
1588.968	3134.5
1591.999	3103.83333
1595.029	3106.5
1598.056	3112.83333
1601.081	3136.5
1604.104	3121.16667
1607.125	3097.83333
1610.144	3041.83333
1613.16	2963.5
1616.174	2915.83333
1619.186	2865.83333
1622.196	2800.5
1625.203	2726.83333
1628.209	2697.5
1631.212	2664.5
1634.213	2673.5
1637.212	2676.83333
1640.209	2658.16667
1643.203	2619.16667
1646.196	2525.83333
1649.186	2408.16667
1652.174	2317.83333
1655.16	2242.16667
1658.144	2186.83333
1661.125	2082.16667
1664.105	1973.5
1667.082	1874.5
1670.057	1776.16667
1673.03	1667.5
1676.001	1569.83333
1678.97	1478.5
1681.937	1362.5
1684.901	1310.5
1687.863	1261.5
1690.824	1196.83333
1693.782	1186.5
1696.738	1135.16667
1699.692	1108.5
1702.643	1073.16667
1705.593	1069.16667
1708.54	1068.16667
1711.486	1065.83333
1714.429	1024.16667
1717.37	1035.5
1720.309	993.83333
1723.246	1024.5
1726.181	983.16667
1729.113	993.5
1732.044	975.5
1734.972	972.16667
1737.899	973.5
1740.823	974.16667
1743.745	979.5
1746.665	920.5
1749.583	904.83333
1752.499	884.5
1755.413	905.5
1758.325	893.83333
1761.235	883.16667
1764.142	870.5
1767.048	853.5
1769.951	846.5
1772.852	848.83333
1775.752	841.83333
1778.649	849.83333
1781.544	844.5
1784.437	828.16667
1787.328	830.16667
1790.217	818.16667
1793.104	810.83333
1795.989	796.16667
1798.872	793.5
1801.753	817.83333
1804.631	797.16667
1807.508	808.5
1810.383	805.5
1813.255	805.83333
1816.126	798.16667
1818.994	801.5
1821.861	789.83333
1824.725	803.16667
1827.587	798.16667
1830.448	794.16667
1833.306	765.5
1836.162	785.16667
1839.017	763.83333
1841.869	765.16667
1844.719	761.83333
1847.567	752.83333
1850.414	747.16667
1853.258	745.16667
1856.1	768.16667
1858.94	766.83333
1861.778	758.83333
1864.614	746.5
1867.448	758.16667
1870.28	739.83333
1873.111	753.83333
1875.939	758.5
1878.765	762.16667
1881.589	733.16667
1884.411	747.83333
1887.231	761.16667
1890.049	741.5
1892.865	742.16667
1895.68	731.5
1898.492	746.83333
1901.302	737.83333
1904.11	730.83333
1906.916	730.16667
1909.721	716.83333
1912.523	725.83333
1915.323	720.16667
1918.122	718.16667
1920.918	724.16667
1923.712	716.16667
1926.505	711.5
1929.295	712.83333
1932.084	726.5
1934.87	715.83333
1937.655	712.16667
1940.438	726.83333
1943.218	710.5
1945.997	721.16667
1948.774	723.16667
1951.549	727.16667
1954.322	720.16667
1957.093	708.16667
1959.862	704.83333
1962.629	710.83333
1965.394	702.16667
1968.157	694.5
1970.918	692.16667
1973.678	680.5
1976.435	717.5
1979.19	691.83333
1981.944	689.83333
1984.696	685.83333
1987.445	671.5
1990.193	695.83333
1992.939	706.16667
1995.683	684.16667
1998.425	666.16667
2001.165	719.83333
2003.903	678.83333
2006.639	688.16667
2009.374	697.16667
2012.106	683.16667
2014.837	682.5
2017.566	689.5
2020.292	687.83333
2023.017	692.83333
2025.74	675.83333
2028.461	673.16667
2031.18	683.83333
2033.898	673.5
2036.613	683.83333
2039.327	684.5
2042.038	679.83333
2044.748	682.5
2047.456	687.16667
2050.162	666.16667
2052.866	671.16667
2055.568	701.16667
2058.268	666.83333
2060.967	684.83333
2063.663	665.83333
2066.358	667.16667
2069.051	656.5
2071.742	674.16667
2074.431	684.16667
2077.118	674.83333
2079.804	658.16667
2082.487	666.16667
2085.169	687.16667
2087.849	692.16667
2090.527	666.83333
2093.203	671.5
2095.877	688.5
2098.55	682.83333
2101.22	690.5
2103.889	691.83333
2106.556	709.5
2109.221	722.16667
2111.884	696.5
2114.546	724.16667
2117.205	758.83333
2119.863	803.5
2122.519	803.5
2125.173	855.5
2127.825	902.5
2130.475	908.16667
2133.124	876.83333
2135.771	859.5
2138.416	860.83333
2141.059	815.16667
2143.7	797.83333
2146.339	752.83333
2148.977	728.16667
2151.613	738.83333
2154.247	715.16667
2156.879	711.16667
2159.51	694.83333
2162.138	691.83333
2164.765	697.16667
2167.39	677.16667
2170.013	701.5
2172.634	705.16667
2175.254	677.83333
2177.872	706.16667
2180.488	676.83333
2183.102	691.5
2185.714	681.16667
2188.325	655.16667
2190.934	658.5
2193.541	671.16667
2196.146	660.16667
2198.75	664.16667
2201.351	651.16667
2203.951	657.16667
2206.549	666.5
2209.146	650.16667
2211.74	661.16667
2214.333	653.16667
2216.924	637.16667
2219.514	656.83333
2222.101	642.83333
2224.687	666.5
2227.271	659.5
2229.853	652.16667
2232.433	636.5
2235.012	662.83333
2237.589	659.5
2240.164	665.5
2242.738	653.83333
2245.309	640.5
2247.879	654.16667
2250.448	662.83333
2253.014	643.83333
2255.579	638.5
2258.142	643.16667
2260.703	629.5
2263.262	644.5
2265.82	643.16667
2268.376	646.5
2270.93	627.5
2273.483	633.5
2276.033	635.16667
2278.583	633.83333
2281.13	638.5
2283.675	631.5
2286.219	636.16667
2288.761	643.5
2291.302	647.5
2293.841	653.16667
2296.377	628.5
2298.913	641.16667
2301.446	657.83333
2303.978	646.83333
2306.508	646.16667
2309.037	641.83333
2311.563	647.5
2314.088	646.5
2316.612	636.83333
2319.133	651.83333
2321.653	648.83333
2324.171	633.5
2326.688	650.83333
2329.202	632.16667
2331.715	646.16667
2334.227	643.5
2336.736	649.16667
2339.244	644.5
2341.751	640.83333
2344.255	653.83333
2346.758	651.5
2349.259	636.16667
2351.759	650.5
2354.257	652.83333
2356.753	634.83333
2359.247	648.83333
2361.74	659.5
2364.231	647.83333
2366.721	665.16667
2369.209	654.16667
2371.695	653.16667
2374.179	655.5
2376.662	649.83333
2379.143	664.16667
2381.622	669.5
2384.1	674.16667
2386.576	671.83333
2389.051	677.83333
2391.524	683.5
2393.995	672.83333
2396.464	663.5
2398.932	664.16667
2401.398	675.83333
2403.863	677.5
2406.325	669.5
2408.787	675.5
2411.246	679.83333
2413.704	678.16667
2416.16	673.83333
2418.615	679.5
2421.068	688.16667
2423.519	696.16667
2425.969	675.83333
2428.417	687.16667
2430.863	707.16667
2433.308	687.5
2435.751	692.5
2438.193	684.83333
2440.633	700.83333
2443.071	694.5
2445.508	691.5
2447.943	699.83333
2450.376	685.16667
2452.808	696.5
2455.238	705.83333
2457.667	744.16667
2460.093	705.83333
2462.519	703.5
2464.942	708.5
2467.365	707.5
2469.785	717.83333
2472.204	715.83333
2474.621	700.83333
2477.037	733.16667
2479.451	696.16667
2481.863	700.83333
2484.274	713.5
2486.683	722.16667
2489.091	728.83333
2491.497	720.5
2493.901	726.5
2496.304	735.5
2498.705	730.16667
2501.105	727.5
2503.503	754.5
2505.899	722.83333
2508.294	740.16667
2510.687	739.16667
2513.079	737.5
2515.469	732.16667
2517.858	762.5
2520.245	749.83333
2522.63	747.16667
2525.014	741.83333
2527.396	737.83333
2529.776	734.5
2532.156	749.83333
2534.533	745.5
2536.909	745.5
2539.283	738.5
2541.656	744.16667
2544.027	776.16667
2546.397	759.16667
2548.765	758.5
2551.131	758.5
2553.496	760.16667
2555.86	775.5
2558.221	767.83333
2560.582	770.83333
2562.94	764.83333
2565.298	771.16667
2567.653	785.5
2570.007	756.83333
2572.36	788.83333
2574.711	777.16667
2577.06	802.16667
2579.408	788.5
2581.754	781.16667
2584.099	790.16667
2586.442	796.5
2588.784	797.16667
2591.124	807.83333
2593.463	796.5
2595.8	802.16667
2598.135	796.16667
2600.469	801.83333
2602.802	819.5
2605.133	824.16667
2607.462	799.83333
2609.79	793.16667
2612.116	821.16667
2614.441	823.16667
2616.764	824.83333
2619.086	826.83333
2621.406	818.5
2623.725	849.5
2626.042	836.5
2628.358	832.5
2630.672	826.83333
2632.985	851.16667
2635.296	842.16667
2637.606	845.83333
2639.914	847.83333
2642.22	861.16667
2644.525	853.5
2646.829	861.83333
2649.131	884.5
2651.432	883.16667
2653.731	878.5
2656.028	889.16667
2658.324	902.5
2660.619	893.16667
2662.912	901.16667
2665.204	875.16667
2667.494	907.16667
2669.782	893.16667
2672.07	913.83333
2674.355	902.5
2676.639	889.16667
2678.922	888.83333
2681.203	908.83333
2683.483	897.83333
2685.761	901.5
2688.038	905.83333
2690.313	914.16667
2692.587	910.16667
2694.859	905.83333
2697.13	927.16667
2699.399	923.5
2701.667	942.83333
2703.933	928.16667
2706.198	942.83333
2708.461	956.83333
2710.723	947.16667
2712.984	930.16667
2715.243	954.5
2717.5	944.16667
2719.757	958.83333
2722.011	963.5
2724.264	975.83333
2726.516	991.83333
2728.766	965.83333
2731.015	996.16667
2733.262	1004.16667
2735.508	999.5
2737.753	998.16667
2739.996	979.83333
2742.237	986.16667
2744.477	995.5
2746.716	989.5
2748.953	979.83333
2751.189	1003.5
2753.423	986.83333
2755.656	974.5
2757.887	976.5
2760.117	974.5
2762.346	965.5
2764.573	971.5
2766.798	971.83333
2769.022	979.83333
2771.245	984.16667
2773.467	982.83333
2775.686	1006.16667
2777.905	1000.83333
2780.122	1017.5
2782.337	999.83333
2784.552	1005.5
2786.764	1014.83333
2788.976	1020.5
2791.186	1020.5
2793.394	1034.5
2795.601	1047.5
2797.807	1058.5
2800.011	1050.83333
2802.214	1050.83333
2804.415	1059.83333
2806.615	1058.5
2808.814	1063.83333
2811.011	1061.83333
2813.206	1069.83333
2815.401	1083.16667
2817.594	1081.16667
2819.785	1095.5
2821.975	1079.83333
2824.164	1098.83333
2826.351	1100.83333
2828.537	1119.5
2830.722	1125.16667
2832.905	1123.16667
2835.086	1155.5
2837.267	1177.83333
2839.445	1166.83333
2841.623	1198.83333
2843.799	1220.16667
2845.974	1249.5
2848.147	1260.16667
2850.319	1282.83333
2852.489	1309.16667
2854.659	1315.16667
2856.826	1337.16667
2858.993	1377.83333
2861.158	1345.83333
2863.321	1348.83333
2865.483	1349.5
2867.644	1350.5
2869.804	1341.83333
2871.962	1359.83333
2874.118	1347.83333
2876.274	1333.5
2878.428	1344.83333
2880.58	1326.16667
2882.731	1312.5
2884.881	1324.16667
2887.03	1342.5
2889.177	1322.5
2891.322	1336.16667
2893.467	1357.83333
2895.61	1358.5
2897.751	1380.16667
2899.892	1371.5
2902.03	1383.5
2904.168	1395.83333
2906.304	1395.5
2908.439	1413.16667
2910.572	1392.16667
2912.704	1410.16667
2914.835	1419.16667
2916.965	1423.5
2919.093	1422.16667
2921.219	1419.16667
2923.345	1422.5
2925.469	1403.5
2927.591	1416.16667
2929.712	1383.16667
2931.832	1370.83333
2933.951	1358.16667
2936.068	1338.5
2938.184	1335.16667
2940.299	1321.16667
2942.412	1301.5
2944.524	1297.83333
2946.634	1264.83333
2948.744	1241.16667
2950.851	1264.83333
2952.958	1245.16667
2955.063	1247.16667
2957.167	1256.16667
2959.269	1216.83333
2961.371	1261.5
2963.471	1218.83333
2965.569	1245.16667
2967.666	1208.5
2969.762	1208.5
2971.857	1190.5
2973.95	1173.83333
2976.042	1168.16667
2978.133	1156.5
2980.222	1141.83333
2982.31	1128.83333
2984.396	1106.5
2986.482	1114.83333
2988.566	1103.16667
2990.648	1111.5
2992.73	1097.5
2994.81	1099.16667
2996.889	1100.83333
2998.966	1116.16667
3001.042	1111.16667
3003.117	1107.5
3005.191	1103.83333
3007.263	1120.5
3009.334	1088.16667
3011.403	1092.83333
3013.472	1069.83333
3015.539	1068.83333
3017.604	1076.5
3019.669	1036.83333
3021.732	1040.16667
3023.794	1031.83333
3025.854	1022.5
3027.914	1032.16667
3029.971	1040.5
3032.028	1031.83333
3034.083	1028.83333
3036.137	1011.16667
3038.19	998.16667
3040.242	975.5
3042.292	949.16667
3044.341	961.16667
3046.388	954.5
3048.435	927.5
3050.48	938.83333
3052.524	933.16667
3054.566	919.5
3056.607	921.5
3058.647	901.16667
3060.686	877.83333
3062.723	848.83333
3064.759	818.5
3066.794	-1.83333
3068.828	3.83333
3070.86	3.5
