-0.839	425.625
3.438	495.95833
7.711	154.29167
11.981	61.95833
16.247	50.95833
20.509	55.29167
24.768	50.29167
29.024	55.95833
33.276	46.95833
37.524	54.95833
41.769	50.95833
46.01	34.95833
50.247	50.95833
54.481	62.95833
58.712	65.625
62.939	51.625
67.162	66.29167
71.382	59.29167
75.599	50.95833
79.812	68.29167
84.021	84.29167
88.227	67.95833
92.429	64.29167
96.628	57.95833
100.823	81.95833
105.015	81.625
109.204	76.625
113.388	81.95833
117.57	84.625
121.748	95.29167
125.922	90.95833
130.093	104.29167
134.261	106.625
138.425	105.625
142.585	152.29167
146.742	143.95833
150.896	178.625
155.046	214.29167
159.193	325.625
163.336	561.29167
167.476	1015.29167
171.613	1866.95833
175.746	3158.95833
179.875	4701.29167
184.002	6201.95833
188.124	7291.29167
192.244	7754.95833
196.36	7805.95833
200.472	7628.29167
204.581	7573.29167
208.687	7445.625
212.79	7471.625
216.889	7499.95833
220.984	7594.95833
225.077	7681.95833
229.165	7717.95833
233.251	7846.95833
237.333	7859.29167
241.412	7824.625
245.487	7820.625
249.559	7750.95833
253.628	7713.95833
257.694	7686.29167
261.756	7632.625
265.814	7459.95833
269.87	7275.95833
273.922	7014.95833
277.97	6844.29167
282.016	6692.29167
286.058	6651.29167
290.097	6677.625
294.132	6678.625
298.164	6675.95833
302.193	6461.29167
306.219	6091.625
310.241	5637.625
314.26	5265.29167
318.276	4963.29167
322.288	4746.625
326.297	4617.625
330.303	4485.625
334.305	4403.29167
338.305	4362.29167
342.301	4306.29167
346.294	4291.95833
350.283	4284.29167
354.269	4234.29167
358.252	4225.29167
362.232	4200.625
366.209	4182.95833
370.182	4173.625
374.152	4165.625
378.119	4174.29167
382.083	4168.29167
386.043	4182.29167
390	4149.29167
393.954	4191.625
397.905	4187.29167
401.852	4209.29167
405.797	4164.29167
409.738	4225.625
413.676	4289.29167
417.61	4373.95833
421.542	4221.625
425.47	4077.95833
429.396	4050.29167
433.318	4018.95833
437.236	4017.95833
441.152	4038.95833
445.065	3969.95833
448.974	3971.29167
452.88	3967.95833
456.783	3951.625
460.683	3927.29167
464.58	3923.95833
468.473	3927.95833
472.364	3962.625
476.251	3950.95833
480.135	3997.29167
484.016	4038.29167
487.894	4032.95833
491.769	4043.29167
495.641	4040.29167
499.509	4095.29167
503.375	4032.625
507.237	4069.95833
511.096	4049.95833
514.952	4091.29167
518.805	4164.29167
522.655	4168.625
526.502	4062.29167
530.346	3989.625
534.187	4002.625
538.024	4010.29167
541.859	4051.625
545.69	4049.95833
549.519	4018.625
553.344	4004.29167
557.166	3953.29167
560.985	3920.95833
564.802	3865.29167
568.615	3805.29167
572.425	3738.95833
576.232	3752.95833
580.036	3739.29167
583.836	3749.625
587.634	3758.95833
591.429	3767.95833
595.221	3867.95833
599.01	3874.625
602.796	3880.95833
606.578	3938.29167
610.358	3921.29167
614.135	3898.625
617.909	3911.625
621.679	3869.95833
625.447	3821.625
629.212	3816.625
632.973	3828.625
636.732	3822.625
640.488	3832.625
644.241	3794.29167
647.991	3780.95833
651.737	3790.29167
655.481	3761.95833
659.222	3812.625
662.96	3808.29167
666.695	3828.625
670.427	3813.29167
674.156	3833.95833
677.882	3813.29167
681.605	3796.625
685.325	3756.29167
689.043	3763.625
692.757	3730.95833
696.468	3748.95833
700.177	3729.29167
703.882	3672.29167
707.585	3643.95833
711.284	3657.29167
714.981	3668.95833
718.675	3633.29167
722.366	3659.95833
726.054	3606.29167
729.739	3624.29167
733.421	3618.95833
737.1	3624.95833
740.777	3633.625
744.45	3632.29167
748.121	3696.29167
751.789	3745.625
755.453	3716.95833
759.115	3755.625
762.774	3744.625
766.431	3783.625
770.084	3768.625
773.734	3813.29167
777.382	3821.29167
781.027	3852.625
784.669	3874.625
788.308	3866.625
791.944	3880.29167
795.577	3890.95833
799.208	3923.95833
802.835	3952.29167
806.46	3973.29167
810.082	3983.29167
813.701	4027.95833
817.317	4059.29167
820.931	4052.625
824.542	4003.29167
828.149	3971.95833
831.754	3934.625
835.357	3911.29167
838.956	3916.625
842.553	3936.29167
846.146	3945.625
849.737	3886.95833
853.326	3837.95833
856.911	3821.95833
860.493	3849.29167
864.073	3915.95833
867.65	4010.625
871.225	4048.625
874.796	3964.29167
878.365	3944.625
881.931	3959.29167
885.494	3954.95833
889.054	3960.95833
892.612	3957.29167
896.166	3922.625
899.719	3888.625
903.268	3842.95833
906.814	3799.29167
910.358	3814.29167
913.899	3776.625
917.438	3774.625
920.973	3743.625
924.506	3794.95833
928.036	3885.95833
931.564	3910.625
935.088	3982.625
938.61	3958.95833
942.129	3978.29167
945.646	4028.95833
949.16	4087.29167
952.671	4138.29167
956.179	4172.625
959.685	4143.95833
963.188	4193.29167
966.688	4136.29167
970.185	4018.29167
973.68	3956.625
977.173	3879.95833
980.662	3841.95833
984.149	3826.29167
987.633	3813.29167
991.114	3874.95833
994.593	3926.625
998.069	4016.29167
1001.542	4117.95833
1005.013	4079.95833
1008.481	3858.625
1011.947	3787.29167
1015.409	3756.29167
1018.869	3736.625
1022.327	3727.625
1025.782	3707.625
1029.234	3706.29167
1032.683	3655.95833
1036.13	3556.625
1039.574	3442.625
1043.016	3371.625
1046.455	3315.625
1049.891	3268.29167
1053.325	3272.625
1056.756	3277.95833
1060.184	3286.95833
1063.61	3311.95833
1067.033	3306.625
1070.454	3317.95833
1073.872	3364.95833
1077.287	3332.95833
1080.7	3345.95833
1084.11	3330.625
1087.517	3307.625
1090.922	3239.625
1094.325	3199.625
1097.724	3206.95833
1101.122	3197.95833
1104.516	3176.95833
1107.908	3194.95833
1111.298	3228.625
1114.684	3257.29167
1118.069	3271.29167
1121.45	3322.95833
1124.83	3317.95833
1128.206	3316.29167
1131.58	3378.95833
1134.951	3445.95833
1138.32	3518.29167
1141.687	3637.29167
1145.05	3726.625
1148.412	3741.95833
1151.77	3709.625
1155.126	3687.625
1158.48	3674.625
1161.831	3683.95833
1165.18	3674.95833
1168.525	3729.29167
1171.869	3767.29167
1175.21	3768.625
1178.548	3813.625
1181.884	3852.95833
1185.217	3888.625
1188.548	3924.625
1191.877	4025.95833
1195.202	4087.29167
1198.526	4171.625
1201.846	4191.625
1205.165	4212.29167
1208.48	4195.625
1211.794	4136.625
1215.104	4153.625
1218.413	4161.625
1221.719	4152.625
1225.022	4095.95833
1228.323	4000.95833
1231.621	3984.95833
1234.917	3951.95833
1238.21	3963.95833
1241.501	3955.29167
1244.79	3945.29167
1248.076	3931.29167
1251.359	3983.29167
1254.64	4043.29167
1257.919	4071.29167
1261.195	4147.625
1264.468	4238.29167
1267.74	4272.95833
1271.008	4295.625
1274.275	4243.95833
1277.538	4227.625
1280.8	4213.29167
1284.059	4207.29167
1287.315	4228.95833
1290.569	4217.29167
1293.821	4228.625
1297.07	4260.29167
1300.317	4243.625
1303.562	4246.29167
1306.803	4211.625
1310.043	4189.625
1313.28	4171.625
1316.515	4152.625
1319.747	4137.95833
1322.977	4104.95833
1326.204	4072.625
1329.429	3998.29167
1332.652	4002.29167
1335.872	3970.625
1339.09	3962.95833
1342.306	3970.29167
1345.519	3899.95833
1348.729	3900.95833
1351.938	3886.95833
1355.144	3819.625
1358.347	3749.29167
1361.548	3730.29167
1364.747	3730.95833
1367.944	3686.625
1371.138	3709.29167
1374.329	3686.95833
1377.518	3725.29167
1380.705	3744.29167
1383.89	3705.625
1387.072	3613.625
1390.252	3495.625
1393.429	3379.29167
1396.605	3302.95833
1399.777	3201.29167
1402.948	3144.625
1406.116	3134.29167
1409.282	3110.29167
1412.445	3112.625
1415.606	3146.95833
1418.765	3155.625
1421.921	3225.95833
1425.075	3268.29167
1428.227	3370.625
1431.376	3492.29167
1434.524	3589.625
1437.668	3704.95833
1440.811	3737.29167
1443.951	3759.95833
1447.089	3781.625
1450.224	3759.625
1453.357	3772.29167
1456.488	3750.95833
1459.617	3696.625
1462.743	3630.95833
1465.867	3559.95833
1468.989	3529.29167
1472.108	3469.29167
1475.225	3438.625
1478.34	3409.95833
1481.453	3379.29167
1484.563	3393.625
1487.671	3419.29167
1490.776	3464.29167
1493.88	3525.625
1496.981	3544.29167
1500.08	3600.95833
1503.176	3650.625
1506.271	3687.625
1509.363	3755.95833
1512.452	3759.95833
1515.54	3803.95833
1518.625	3855.625
1521.708	3929.95833
1524.789	4060.29167
1527.867	4184.625
1530.944	4392.625
1534.018	4545.29167
1537.089	4661.95833
1540.159	4696.95833
1543.226	4681.625
1546.291	4611.625
1549.354	4529.95833
1552.415	4426.625
1555.473	4307.625
1558.529	4206.625
1561.583	4229.625
1564.634	4167.95833
1567.684	4151.625
1570.731	4185.29167
1573.776	4248.95833
1576.819	4308.95833
1579.859	4368.29167
1582.898	4415.625
1585.934	4470.95833
1588.968	4437.625
1591.999	4411.625
1595.029	4443.29167
1598.056	4458.625
1601.081	4465.625
1604.104	4460.29167
1607.125	4417.29167
1610.144	4352.29167
1613.16	4248.29167
1616.174	4153.95833
1619.186	4125.29167
1622.196	4024.95833
1625.203	3941.95833
1628.209	3887.29167
1631.212	3864.29167
1634.213	3873.625
1637.212	3887.29167
1640.209	3871.95833
1643.203	3782.95833
1646.196	3647.29167
1649.186	3454.29167
1652.174	3329.29167
1655.16	3234.625
1658.144	3153.95833
1661.125	2983.95833
1664.105	2859.29167
1667.082	2728.625
1670.057	2607.29167
1673.03	2474.29167
1676.001	2317.95833
1678.97	2195.95833
1681.937	2063.95833
1684.901	1968.95833
1687.863	1875.95833
1690.824	1824.95833
1693.782	1777.625
1696.738	1714.95833
1699.692	1691.95833
1702.643	1639.625
1705.593	1633.95833
1708.54	1622.29167
1711.486	1600.29167
1714.429	1567.29167
1717.37	1573.95833
1720.309	1540.29167
1723.246	1540.29167
1726.181	1514.625
1729.113	1516.625
1732.044	1496.95833
1734.972	1487.29167
1737.899	1479.625
1740.823	1476.29167
1743.745	1488.29167
1746.665	1416.95833
1749.583	1402.29167
1752.499	1395.625
1755.413	1373.625
1758.325	1365.625
1761.235	1331.95833
1764.142	1329.29167
1767.048	1318.625
1769.951	1314.625
1772.852	1305.625
1775.752	1360.29167
1778.649	1409.95833
1781.544	1328.625
1784.437	1273.29167
1787.328	1276.95833
1790.217	1266.29167
1793.104	1223.95833
1795.989	1231.625
1798.872	1227.29167
1801.753	1245.95833
1804.631	1225.95833
1807.508	1241.95833
1810.383	1222.29167
1813.255	1217.29167
1816.126	1218.625
1818.994	1212.625
1821.861	1195.95833
1824.725	1207.625
1827.587	1193.625
1830.448	1179.95833
1833.306	1157.95833
1836.162	1163.95833
1839.017	1153.625
1841.869	1154.95833
1844.719	1144.29167
1847.567	1132.95833
1850.414	1127.625
1853.258	1123.625
1856.1	1147.625
1858.94	1143.95833
1861.778	1115.625
1864.614	1117.29167
1867.448	1120.95833
1870.28	1111.29167
1873.111	1140.29167
1875.939	1112.29167
1878.765	1130.29167
1881.589	1103.95833
1884.411	1101.95833
1887.231	1114.29167
1890.049	1105.625
1892.865	1104.95833
1895.68	1089.95833
1898.492	1111.625
1901.302	1076.95833
1904.11	1061.29167
1906.916	1067.95833
1909.721	1057.95833
1912.523	1062.625
1915.323	1042.95833
1918.122	1031.95833
1920.918	1058.29167
1923.712	1042.29167
1926.505	1025.95833
1929.295	1026.29167
1932.084	1029.625
1934.87	1029.625
1937.655	1011.29167
1940.438	1014.29167
1943.218	1023.625
1945.997	1015.625
1948.774	1030.29167
1951.549	1025.29167
1954.322	1007.95833
1957.093	1007.29167
1959.862	991.29167
1962.629	993.95833
1965.394	988.29167
1968.157	982.625
1970.918	989.29167
1973.678	972.625
1976.435	988.95833
1979.19	974.95833
1981.944	960.625
1984.696	964.95833
1987.445	956.625
1990.193	970.29167
1992.939	969.95833
1995.683	962.95833
1998.425	938.95833
2001.165	947.95833
2003.903	939.625
2006.639	936.625
2009.374	939.625
2012.106	948.29167
2014.837	925.95833
2017.566	941.29167
2020.292	932.29167
2023.017	927.29167
2025.74	922.29167
2028.461	916.625
2031.18	932.29167
2033.898	919.29167
2036.613	915.95833
2039.327	921.625
2042.038	906.29167
2044.748	897.625
2047.456	905.625
2050.162	897.625
2052.866	896.625
2055.568	891.95833
2058.268	886.95833
2060.967	893.29167
2063.663	875.29167
2066.358	876.625
2069.051	870.95833
2071.742	888.29167
2074.431	885.95833
2077.118	871.95833
2079.804	859.95833
2082.487	855.29167
2085.169	888.625
2087.849	882.95833
2090.527	871.95833
2093.203	873.95833
2095.877	885.625
2098.55	881.625
2101.22	889.95833
2103.889	881.95833
2106.556	872.29167
2109.221	891.95833
2111.884	889.625
2114.546	940.95833
2117.205	973.625
2119.863	1005.95833
2122.519	1041.625
2125.173	1101.95833
2127.825	1163.29167
2130.475	1163.29167
2133.124	1127.29167
2135.771	1112.95833
2138.416	1085.95833
2141.059	1038.95833
2143.7	1002.95833
2146.339	959.95833
2148.977	912.95833
2151.613	890.95833
2154.247	876.95833
2156.879	869.625
2159.51	861.95833
2162.138	835.95833
2164.765	835.95833
2167.39	817.29167
2170.013	830.625
2172.634	823.625
2175.254	815.95833
2177.872	838.625
2180.488	789.625
2183.102	808.95833
2185.714	796.95833
2188.325	772.625
2190.934	773.95833
2193.541	779.625
2196.146	756.625
2198.75	746.29167
2201.351	749.625
2203.951	742.29167
2206.549	744.625
2209.146	747.95833
2211.74	740.625
2214.333	757.29167
2216.924	723.95833
2219.514	737.625
2222.101	725.95833
2224.687	740.95833
2227.271	728.625
2229.853	715.95833
2232.433	707.625
2235.012	734.625
2237.589	724.625
2240.164	729.95833
2242.738	715.625
2245.309	707.95833
2247.879	707.29167
2250.448	710.625
2253.014	692.625
2255.579	678.625
2258.142	673.95833
2260.703	674.95833
2263.262	679.29167
2265.82	671.29167
2268.376	668.29167
2270.93	657.95833
2273.483	653.29167
2276.033	662.29167
2278.583	659.95833
2281.13	656.625
2283.675	651.625
2286.219	659.625
2288.761	646.29167
2291.302	648.29167
2293.841	660.29167
2296.377	630.95833
2298.913	633.625
2301.446	650.625
2303.978	640.625
2306.508	643.95833
2309.037	636.29167
2311.563	636.95833
2314.088	635.625
2316.612	616.29167
2319.133	617.625
2321.653	619.95833
2324.171	621.29167
2326.688	634.625
2329.202	612.95833
2331.715	626.625
2334.227	610.625
2336.736	614.625
2339.244	610.29167
2341.751	600.625
2344.255	616.29167
2346.758	608.95833
2349.259	587.95833
2351.759	610.625
2354.257	587.95833
2356.753	592.95833
2359.247	589.625
2361.74	597.29167
2364.231	586.29167
2366.721	599.95833
2369.209	587.95833
2371.695	597.29167
2374.179	581.29167
2376.662	579.95833
2379.143	603.625
2381.622	598.95833
2384.1	607.95833
2386.576	587.29167
2389.051	607.95833
2391.524	595.29167
2393.995	594.625
2396.464	578.29167
2398.932	584.29167
2401.398	564.95833
2403.863	573.625
2406.325	572.625
2408.787	571.625
2411.246	575.625
2413.704	564.625
2416.16	565.29167
2418.615	572.95833
2421.068	575.625
2423.519	567.95833
2425.969	563.625
2428.417	568.29167
2430.863	585.95833
2433.308	578.29167
2435.751	575.625
2438.193	568.95833
2440.633	571.29167
2443.071	563.625
2445.508	553.29167
2447.943	554.95833
2450.376	545.625
2452.808	551.625
2455.238	556.95833
2457.667	586.29167
2460.093	545.625
2462.519	542.95833
2464.942	560.29167
2467.365	557.29167
2469.785	560.95833
2472.204	553.95833
2474.621	541.625
2477.037	567.95833
2479.451	526.625
2481.863	534.625
2484.274	543.95833
2486.683	550.29167
2489.091	543.625
2491.497	542.95833
2493.901	552.95833
2496.304	541.29167
2498.705	548.29167
2501.105	546.625
2503.503	556.625
2505.899	524.95833
2508.294	562.29167
2510.687	538.29167
2513.079	537.625
2515.469	527.95833
2517.858	536.29167
2520.245	548.625
2522.63	527.625
2525.014	514.95833
2527.396	525.625
2529.776	523.625
2532.156	521.625
2534.533	527.625
2536.909	514.95833
2539.283	505.29167
2541.656	517.29167
2544.027	537.625
2546.397	528.625
2548.765	522.625
2551.131	526.95833
2553.496	520.29167
2555.86	520.95833
2558.221	516.29167
2560.582	524.29167
2562.94	511.29167
2565.298	518.29167
2567.653	525.29167
2570.007	502.625
2572.36	534.29167
2574.711	503.95833
2577.06	521.29167
2579.408	532.95833
2581.754	511.95833
2584.099	521.625
2586.442	518.29167
2588.784	529.95833
2591.124	522.95833
2593.463	521.95833
2595.8	522.95833
2598.135	512.95833
2600.469	507.625
2602.802	527.29167
2605.133	529.625
2607.462	506.29167
2609.79	509.625
2612.116	516.95833
2614.441	515.95833
2616.764	512.29167
2619.086	515.95833
2621.406	512.95833
2623.725	526.29167
2626.042	524.625
2628.358	508.625
2630.672	511.95833
2632.985	528.625
2635.296	514.29167
2637.606	518.625
2639.914	512.625
2642.22	512.625
2644.525	520.95833
2646.829	519.95833
2649.131	527.625
2651.432	537.625
2653.731	524.625
2656.028	534.625
2658.324	534.625
2660.619	523.625
2662.912	535.625
2665.204	526.625
2667.494	533.95833
2669.782	521.625
2672.07	534.625
2674.355	537.29167
2676.639	531.625
2678.922	519.29167
2681.203	533.625
2683.483	516.95833
2685.761	520.29167
2688.038	523.29167
2690.313	539.95833
2692.587	527.29167
2694.859	517.625
2697.13	537.95833
2699.399	540.95833
2701.667	553.95833
2703.933	544.29167
2706.198	542.625
2708.461	553.29167
2710.723	547.95833
2712.984	546.95833
2715.243	558.29167
2717.5	538.625
2719.757	559.95833
2722.011	555.625
2724.264	562.29167
2726.516	570.625
2728.766	552.625
2731.015	569.29167
2733.262	572.95833
2735.508	570.625
2737.753	558.625
2739.996	546.625
2742.237	543.625
2744.477	557.95833
2746.716	552.95833
2748.953	551.29167
2751.189	558.625
2753.423	551.29167
2755.656	537.29167
2757.887	540.625
2760.117	535.625
2762.346	530.29167
2764.573	521.625
2766.798	531.95833
2769.022	535.95833
2771.245	537.29167
2773.467	534.625
2775.686	538.95833
2777.905	533.95833
2780.122	547.625
2782.337	549.29167
2784.552	545.29167
2786.764	547.95833
2788.976	548.95833
2791.186	554.625
2793.394	565.29167
2795.601	568.95833
2797.807	576.625
2800.011	587.29167
2802.214	572.29167
2804.415	581.625
2806.615	580.29167
2808.814	576.95833
2811.011	592.29167
2813.206	585.95833
2815.401	597.29167
2817.594	607.95833
2819.785	600.95833
2821.975	612.95833
2824.164	602.95833
2826.351	621.29167
2828.537	628.625
2830.722	649.625
2832.905	662.95833
2835.086	681.95833
2837.267	719.625
2839.445	713.625
2841.623	746.29167
2843.799	756.95833
2845.974	787.95833
2848.147	827.95833
2850.319	834.95833
2852.489	866.625
2854.659	887.95833
2856.826	892.29167
2858.993	923.29167
2861.158	908.625
2863.321	911.29167
2865.483	937.625
2867.644	926.625
2869.804	916.95833
2871.962	917.625
2874.118	935.95833
2876.274	973.625
2878.428	956.625
2880.58	943.625
2882.731	926.625
2884.881	916.29167
2887.03	916.95833
2889.177	922.95833
2891.322	923.29167
2893.467	937.95833
2895.61	925.95833
2897.751	942.29167
2899.892	943.95833
2902.03	954.625
2904.168	951.95833
2906.304	946.625
2908.439	970.95833
2910.572	970.625
2912.704	971.95833
2914.835	970.95833
2916.965	962.95833
2919.093	980.625
2921.219	960.29167
2923.345	988.625
2925.469	951.29167
2927.591	953.29167
2929.712	925.625
2931.832	927.625
2933.951	918.95833
2936.068	891.95833
2938.184	875.29167
2940.299	856.625
2942.412	835.95833
2944.524	794.29167
2946.634	799.95833
2948.744	761.95833
2950.851	777.29167
2952.958	746.29167
2955.063	734.95833
2957.167	734.95833
2959.269	701.625
2961.371	724.95833
2963.471	679.625
2965.569	686.29167
2967.666	668.95833
2969.762	655.29167
2971.857	649.29167
2973.95	629.625
2976.042	626.625
2978.133	614.625
2980.222	608.625
2982.31	578.95833
2984.396	560.625
2986.482	570.95833
2988.566	556.95833
2990.648	563.29167
2992.73	556.29167
2994.81	547.29167
2996.889	549.625
2998.966	542.95833
3001.042	556.95833
3003.117	545.29167
3005.191	550.29167
3007.263	542.95833
3009.334	522.29167
3011.403	533.625
3013.472	516.29167
3015.539	520.29167
3017.604	529.625
3019.669	489.95833
3021.732	489.29167
3023.794	497.29167
3025.854	500.29167
3027.914	485.625
3029.971	494.29167
3032.028	486.95833
3034.083	480.95833
3036.137	486.29167
3038.19	466.625
3040.242	457.625
3042.292	443.625
3044.341	444.625
3046.388	463.625
3048.435	442.29167
3050.48	455.95833
3052.524	446.625
3054.566	424.625
3056.607	437.29167
3058.647	424.29167
3060.686	407.625
3062.723	399.29167
3064.759	387.95833
3066.794	-1.04167
3068.828	2.625
3070.86	1.95833
