-0.839	458.25
3.438	558.58333
7.711	170.25
11.981	64.91667
16.247	46.91667
20.509	51.25
24.768	48.91667
29.024	51.91667
33.276	45.91667
37.524	55.58333
41.769	53.58333
46.01	39.25
50.247	50.25
54.481	58.91667
58.712	65.25
62.939	51.91667
67.162	68.25
71.382	60.58333
75.599	47.58333
79.812	63.58333
84.021	82.58333
88.227	66.91667
92.429	66.25
96.628	55.91667
100.823	77.91667
105.015	81.25
109.204	77.25
113.388	80.91667
117.57	76.25
121.748	95.91667
125.922	85.25
130.093	108.25
134.261	108.25
138.425	106.58333
142.585	154.91667
146.742	141.25
150.896	176.58333
155.046	222.58333
159.193	337.25
163.336	557.91667
167.476	1048.25
171.613	1901.91667
175.746	3206.91667
179.875	4757.91667
184.002	6308.58333
188.124	7425.58333
192.244	7881.91667
196.36	7959.58333
200.472	7873.58333
204.581	7765.91667
208.687	7728.58333
212.79	7742.58333
216.889	7794.58333
220.984	7933.25
225.077	8080.25
229.165	8147.58333
233.251	8246.25
237.333	8290.25
241.412	8301.25
245.487	8184.25
249.559	8112.58333
253.628	8102.25
257.694	7993.91667
261.756	7936.91667
265.814	7756.91667
269.87	7530.25
273.922	7269.25
277.97	7052.58333
282.016	6907.25
286.058	6872.58333
290.097	6867.58333
294.132	6933.25
298.164	6834.58333
302.193	6569.25
306.219	6168.25
310.241	5696.58333
314.26	5359.91667
318.276	5049.91667
322.288	4848.91667
326.297	4668.25
330.303	4563.58333
334.305	4509.91667
338.305	4396.91667
342.301	4385.58333
346.294	4360.91667
350.283	4357.58333
354.269	4349.91667
358.252	4294.58333
362.232	4312.25
366.209	4287.91667
370.182	4255.25
374.152	4248.91667
378.119	4265.25
382.083	4262.58333
386.043	4267.58333
390	4242.25
393.954	4251.25
397.905	4248.58333
401.852	4218.25
405.797	4196.58333
409.738	4184.91667
413.676	4237.58333
417.61	4216.91667
421.542	4179.91667
425.47	4141.91667
429.396	4127.91667
433.318	4106.25
437.236	4087.91667
441.152	4123.58333
445.065	4086.58333
448.974	4077.91667
452.88	4033.58333
456.783	4023.58333
460.683	4019.91667
464.58	4008.58333
468.473	4047.91667
472.364	4078.58333
476.251	4046.25
480.135	4058.91667
484.016	4129.58333
487.894	4135.25
491.769	4171.25
495.641	4115.58333
499.509	4172.58333
503.375	4147.91667
507.237	4136.58333
511.096	4091.58333
514.952	4142.91667
518.805	4098.58333
522.655	4087.25
526.502	4096.91667
530.346	4102.58333
534.187	4132.25
538.024	4136.91667
541.859	4134.58333
545.69	4195.25
549.519	4130.58333
553.344	4132.25
557.166	4086.91667
560.985	4042.25
564.802	3995.58333
568.615	3934.58333
572.425	3897.25
576.232	3871.25
580.036	3846.25
583.836	3861.91667
587.634	3890.91667
591.429	3889.25
595.221	3965.25
599.01	3991.25
602.796	4016.25
606.578	4026.91667
610.358	4030.25
614.135	4005.91667
617.909	4015.25
621.679	3971.91667
625.447	3948.25
629.212	3929.58333
632.973	3922.58333
636.732	3923.25
640.488	3915.25
644.241	3879.25
647.991	3854.58333
651.737	3887.25
655.481	3902.25
659.222	3854.58333
662.96	3895.25
666.695	3916.58333
670.427	3889.58333
674.156	3939.25
677.882	3909.58333
681.605	3887.58333
685.325	3875.25
689.043	3884.58333
692.757	3818.25
696.468	3855.25
700.177	3851.58333
703.882	3791.91667
707.585	3801.25
711.284	3775.25
714.981	3775.58333
718.675	3748.91667
722.366	3777.25
726.054	3735.58333
729.739	3757.58333
733.421	3751.91667
737.1	3741.91667
740.777	3787.91667
744.45	3767.58333
748.121	3814.91667
751.789	3872.25
755.453	3865.58333
759.115	3892.91667
762.774	3910.25
766.431	3912.58333
770.084	3988.91667
773.734	3997.25
777.382	4048.91667
781.027	4058.25
784.669	4080.91667
788.308	4075.58333
791.944	4085.91667
795.577	4110.91667
799.208	4119.91667
802.835	4156.25
806.46	4161.58333
810.082	4182.25
813.701	4213.58333
817.317	4240.58333
820.931	4233.91667
824.542	4196.25
828.149	4156.91667
831.754	4131.25
835.357	4113.58333
838.956	4129.58333
842.553	4109.25
846.146	4062.58333
849.737	4037.25
853.326	4037.25
856.911	4031.91667
860.493	4112.25
864.073	4121.58333
867.65	4153.25
871.225	4171.58333
874.796	4152.91667
878.365	4142.25
881.931	4192.91667
885.494	4210.58333
889.054	4197.91667
892.612	4203.25
896.166	4159.25
899.719	4157.91667
903.268	4092.58333
906.814	4070.58333
910.358	4018.58333
913.899	3995.91667
917.438	3978.58333
920.973	3978.58333
924.506	4032.58333
928.036	4094.58333
931.564	4134.91667
935.088	4181.91667
938.61	4211.58333
942.129	4210.25
945.646	4278.25
949.16	4349.91667
952.671	4393.91667
956.179	4416.25
959.685	4396.91667
963.188	4385.91667
966.688	4361.58333
970.185	4251.91667
973.68	4162.25
977.173	4087.91667
980.662	4071.91667
984.149	4078.58333
987.633	4081.91667
991.114	4152.25
994.593	4197.58333
998.069	4330.58333
1001.542	4413.91667
1005.013	4334.91667
1008.481	4116.25
1011.947	4032.91667
1015.409	4017.91667
1018.869	4010.91667
1022.327	4008.25
1025.782	3975.91667
1029.234	3978.25
1032.683	3886.91667
1036.13	3804.58333
1039.574	3679.25
1043.016	3579.25
1046.455	3538.91667
1049.891	3501.91667
1053.325	3532.25
1056.756	3508.91667
1060.184	3525.91667
1063.61	3525.58333
1067.033	3572.58333
1070.454	3532.91667
1073.872	3589.91667
1077.287	3573.58333
1080.7	3563.25
1084.11	3558.25
1087.517	3539.91667
1090.922	3478.25
1094.325	3437.91667
1097.724	3401.58333
1101.122	3409.25
1104.516	3406.58333
1107.908	3419.25
1111.298	3457.58333
1114.684	3488.25
1118.069	3525.58333
1121.45	3560.91667
1124.83	3546.25
1128.206	3586.25
1131.58	3575.25
1134.951	3682.91667
1138.32	3746.91667
1141.687	3888.58333
1145.05	3964.58333
1148.412	3976.25
1151.77	3993.58333
1155.126	3963.91667
1158.48	3915.58333
1161.831	3945.25
1165.18	3974.58333
1168.525	4033.25
1171.869	4051.58333
1175.21	4097.91667
1178.548	4117.58333
1181.884	4158.91667
1185.217	4193.91667
1188.548	4259.58333
1191.877	4360.25
1195.202	4473.91667
1198.526	4528.58333
1201.846	4559.91667
1205.165	4540.25
1208.48	4523.25
1211.794	4496.91667
1215.104	4495.25
1218.413	4486.91667
1221.719	4465.91667
1225.022	4428.91667
1228.323	4362.91667
1231.621	4330.91667
1234.917	4294.58333
1238.21	4322.58333
1241.501	4302.58333
1244.79	4322.91667
1248.076	4304.58333
1251.359	4368.91667
1254.64	4471.91667
1257.919	4474.25
1261.195	4534.58333
1264.468	4605.25
1267.74	4641.91667
1271.008	4664.91667
1274.275	4627.25
1277.538	4598.91667
1280.8	4589.25
1284.059	4592.58333
1287.315	4618.91667
1290.569	4618.25
1293.821	4636.25
1297.07	4673.25
1300.317	4693.25
1303.562	4649.91667
1306.803	4616.91667
1310.043	4599.91667
1313.28	4549.91667
1316.515	4511.58333
1319.747	4480.91667
1322.977	4458.25
1326.204	4408.58333
1329.429	4381.25
1332.652	4333.91667
1335.872	4293.58333
1339.09	4284.25
1342.306	4273.91667
1345.519	4227.91667
1348.729	4194.58333
1351.938	4203.91667
1355.144	4134.58333
1358.347	4054.25
1361.548	4051.58333
1364.747	4014.58333
1367.944	3998.58333
1371.138	4003.91667
1374.329	4017.58333
1377.518	4028.91667
1380.705	4061.91667
1383.89	4018.25
1387.072	3890.91667
1390.252	3773.58333
1393.429	3661.25
1396.605	3552.58333
1399.777	3456.25
1402.948	3390.91667
1406.116	3395.25
1409.282	3364.58333
1412.445	3371.25
1415.606	3394.58333
1418.765	3459.58333
1421.921	3504.91667
1425.075	3559.25
1428.227	3672.25
1431.376	3817.91667
1434.524	3899.91667
1437.668	4037.91667
1440.811	4083.91667
1443.951	4125.58333
1447.089	4145.58333
1450.224	4124.58333
1453.357	4112.58333
1456.488	4079.58333
1459.617	4015.25
1462.743	3965.58333
1465.867	3857.58333
1468.989	3821.25
1472.108	3764.91667
1475.225	3712.25
1478.34	3672.25
1481.453	3644.91667
1484.563	3652.91667
1487.671	3687.58333
1490.776	3739.91667
1493.88	3804.91667
1496.981	3816.58333
1500.08	3893.58333
1503.176	3924.91667
1506.271	3995.25
1509.363	4042.58333
1512.452	4069.91667
1515.54	4125.91667
1518.625	4148.58333
1521.708	4261.91667
1524.789	4388.58333
1527.867	4597.91667
1530.944	4809.25
1534.018	5047.91667
1537.089	5214.25
1540.159	5280.91667
1543.226	5239.58333
1546.291	5140.25
1549.354	5018.25
1552.415	4890.25
1555.473	4802.91667
1558.529	4684.58333
1561.583	4650.91667
1564.634	4579.91667
1567.684	4608.91667
1570.731	4579.58333
1573.776	4672.91667
1576.819	4716.58333
1579.859	4758.58333
1582.898	4815.91667
1585.934	4893.58333
1588.968	4875.25
1591.999	4859.58333
1595.029	4887.25
1598.056	4874.58333
1601.081	4879.58333
1604.104	4876.91667
1607.125	4858.25
1610.144	4771.91667
1613.16	4694.91667
1616.174	4609.91667
1619.186	4514.58333
1622.196	4378.91667
1625.203	4282.25
1628.209	4249.91667
1631.212	4231.25
1634.213	4233.25
1637.212	4244.91667
1640.209	4211.91667
1643.203	4110.25
1646.196	3987.91667
1649.186	3836.25
1652.174	3640.91667
1655.16	3531.58333
1658.144	3402.58333
1661.125	3271.91667
1664.105	3109.58333
1667.082	2989.58333
1670.057	2842.25
1673.03	2683.58333
1676.001	2530.58333
1678.97	2384.58333
1681.937	2230.58333
1684.901	2126.25
1687.863	2053.25
1690.824	1955.58333
1693.782	1916.91667
1696.738	1855.25
1699.692	1826.25
1702.643	1761.25
1705.593	1753.25
1708.54	1739.25
1711.486	1712.58333
1714.429	1683.91667
1717.37	1684.91667
1720.309	1650.58333
1723.246	1654.58333
1726.181	1616.25
1729.113	1619.91667
1732.044	1586.25
1734.972	1577.91667
1737.899	1584.91667
1740.823	1582.25
1743.745	1568.58333
1746.665	1506.25
1749.583	1495.58333
1752.499	1467.91667
1755.413	1455.91667
1758.325	1443.25
1761.235	1430.25
1764.142	1418.25
1767.048	1383.91667
1769.951	1386.91667
1772.852	1390.25
1775.752	1384.91667
1778.649	1374.91667
1781.544	1360.91667
1784.437	1323.91667
1787.328	1324.25
1790.217	1318.91667
1793.104	1296.25
1795.989	1294.58333
1798.872	1298.91667
1801.753	1296.25
1804.631	1302.25
1807.508	1296.25
1810.383	1296.91667
1813.255	1282.91667
1816.126	1274.58333
1818.994	1287.91667
1821.861	1265.25
1824.725	1263.25
1827.587	1255.58333
1830.448	1246.58333
1833.306	1222.91667
1836.162	1212.58333
1839.017	1202.58333
1841.869	1215.58333
1844.719	1213.58333
1847.567	1194.58333
1850.414	1182.25
1853.258	1183.91667
1856.1	1203.58333
1858.94	1181.25
1861.778	1181.91667
1864.614	1181.58333
1867.448	1174.25
1870.28	1166.58333
1873.111	1180.58333
1875.939	1160.58333
1878.765	1191.58333
1881.589	1156.25
1884.411	1166.91667
1887.231	1171.25
1890.049	1155.58333
1892.865	1169.25
1895.68	1134.91667
1898.492	1152.25
1901.302	1122.25
1904.11	1140.25
1906.916	1113.91667
1909.721	1093.91667
1912.523	1113.25
1915.323	1099.58333
1918.122	1092.58333
1920.918	1095.58333
1923.712	1080.91667
1926.505	1073.25
1929.295	1060.91667
1932.084	1080.91667
1934.87	1079.58333
1937.655	1075.25
1940.438	1064.91667
1943.218	1070.91667
1945.997	1064.91667
1948.774	1079.58333
1951.549	1069.91667
1954.322	1058.91667
1957.093	1048.58333
1959.862	1046.25
1962.629	1052.25
1965.394	1041.58333
1968.157	1030.58333
1970.918	1037.91667
1973.678	1012.58333
1976.435	1031.58333
1979.19	1011.58333
1981.944	990.58333
1984.696	1013.58333
1987.445	992.91667
1990.193	1001.25
1992.939	1006.58333
1995.683	985.58333
1998.425	984.25
2001.165	1006.91667
2003.903	990.25
2006.639	982.25
2009.374	993.25
2012.106	993.91667
2014.837	961.25
2017.566	981.58333
2020.292	982.91667
2023.017	967.25
2025.74	969.25
2028.461	963.25
2031.18	961.25
2033.898	969.91667
2036.613	957.91667
2039.327	953.58333
2042.038	942.25
2044.748	938.25
2047.456	941.25
2050.162	925.25
2052.866	931.58333
2055.568	946.58333
2058.268	922.25
2060.967	928.58333
2063.663	908.25
2066.358	909.58333
2069.051	912.58333
2071.742	906.58333
2074.431	914.91667
2077.118	916.91667
2079.804	902.58333
2082.487	912.91667
2085.169	916.91667
2087.849	924.25
2090.527	900.58333
2093.203	912.25
2095.877	907.91667
2098.55	918.25
2101.22	924.25
2103.889	941.25
2106.556	929.25
2109.221	952.25
2111.884	970.25
2114.546	1010.91667
2117.205	1081.25
2119.863	1149.91667
2122.519	1197.91667
2125.173	1275.58333
2127.825	1350.25
2130.475	1361.25
2133.124	1341.58333
2135.771	1294.58333
2138.416	1256.91667
2141.059	1162.58333
2143.7	1131.58333
2146.339	1080.91667
2148.977	1012.58333
2151.613	990.58333
2154.247	982.25
2156.879	949.25
2159.51	932.25
2162.138	906.91667
2164.765	907.25
2167.39	882.25
2170.013	901.25
2172.634	880.91667
2175.254	867.91667
2177.872	885.58333
2180.488	837.25
2183.102	851.91667
2185.714	819.58333
2188.325	805.58333
2190.934	815.58333
2193.541	802.25
2196.146	793.25
2198.75	783.58333
2201.351	785.91667
2203.951	761.58333
2206.549	786.91667
2209.146	776.58333
2211.74	771.91667
2214.333	770.58333
2216.924	743.91667
2219.514	753.25
2222.101	750.25
2224.687	757.91667
2227.271	751.25
2229.853	733.91667
2232.433	723.25
2235.012	760.58333
2237.589	734.25
2240.164	754.91667
2242.738	732.25
2245.309	718.25
2247.879	725.58333
2250.448	725.91667
2253.014	696.58333
2255.579	680.58333
2258.142	690.91667
2260.703	691.58333
2263.262	680.58333
2265.82	680.91667
2268.376	680.25
2270.93	658.25
2273.483	656.91667
2276.033	672.91667
2278.583	653.58333
2281.13	644.91667
2283.675	638.58333
2286.219	646.91667
2288.761	643.91667
2291.302	656.25
2293.841	651.25
2296.377	624.25
2298.913	639.58333
2301.446	645.91667
2303.978	632.25
2306.508	621.58333
2309.037	626.25
2311.563	630.25
2314.088	623.91667
2316.612	608.25
2319.133	611.91667
2321.653	619.25
2324.171	598.91667
2326.688	624.58333
2329.202	606.58333
2331.715	609.91667
2334.227	599.91667
2336.736	595.91667
2339.244	596.25
2341.751	580.25
2344.255	597.58333
2346.758	590.58333
2349.259	570.58333
2351.759	580.25
2354.257	580.58333
2356.753	577.91667
2359.247	577.25
2361.74	584.25
2364.231	581.25
2366.721	579.25
2369.209	571.91667
2371.695	565.91667
2374.179	572.91667
2376.662	548.91667
2379.143	573.58333
2381.622	572.25
2384.1	565.58333
2386.576	554.58333
2389.051	579.25
2391.524	566.25
2393.995	558.58333
2396.464	542.58333
2398.932	542.25
2401.398	551.58333
2403.863	540.91667
2406.325	536.58333
2408.787	546.58333
2411.246	537.91667
2413.704	528.25
2416.16	542.91667
2418.615	535.58333
2421.068	546.58333
2423.519	538.58333
2425.969	523.91667
2428.417	536.91667
2430.863	541.58333
2433.308	532.91667
2435.751	520.58333
2438.193	533.58333
2440.633	517.91667
2443.071	525.91667
2445.508	520.58333
2447.943	511.91667
2450.376	513.25
2452.808	515.58333
2455.238	508.25
2457.667	546.91667
2460.093	503.91667
2462.519	498.91667
2464.942	499.91667
2467.365	513.25
2469.785	506.25
2472.204	501.58333
2474.621	490.58333
2477.037	510.91667
2479.451	485.25
2481.863	482.25
2484.274	484.25
2486.683	483.91667
2489.091	495.25
2491.497	479.91667
2493.901	499.58333
2496.304	477.58333
2498.705	488.25
2501.105	473.58333
2503.503	502.91667
2505.899	465.58333
2508.294	489.58333
2510.687	463.58333
2513.079	469.91667
2515.469	455.91667
2517.858	467.58333
2520.245	478.25
2522.63	468.58333
2525.014	460.25
2527.396	457.91667
2529.776	448.58333
2532.156	462.58333
2534.533	445.91667
2536.909	450.91667
2539.283	435.91667
2541.656	455.58333
2544.027	463.58333
2546.397	451.58333
2548.765	440.58333
2551.131	449.58333
2553.496	446.58333
2555.86	455.91667
2558.221	444.25
2560.582	438.25
2562.94	436.91667
2565.298	442.25
2567.653	448.91667
2570.007	427.25
2572.36	442.58333
2574.711	429.25
2577.06	447.91667
2579.408	442.25
2581.754	427.58333
2584.099	441.58333
2586.442	427.58333
2588.784	439.91667
2591.124	435.58333
2593.463	432.91667
2595.8	435.25
2598.135	416.25
2600.469	424.91667
2602.802	437.58333
2605.133	443.25
2607.462	411.91667
2609.79	410.91667
2612.116	439.58333
2614.441	423.58333
2616.764	417.25
2619.086	415.58333
2621.406	410.25
2623.725	433.25
2626.042	426.58333
2628.358	406.58333
2630.672	405.91667
2632.985	426.91667
2635.296	416.91667
2637.606	420.25
2639.914	414.25
2642.22	410.25
2644.525	420.25
2646.829	412.58333
2649.131	436.91667
2651.432	426.25
2653.731	417.91667
2656.028	416.58333
2658.324	426.91667
2660.619	409.25
2662.912	422.91667
2665.204	404.25
2667.494	415.25
2669.782	409.58333
2672.07	417.25
2674.355	426.25
2676.639	418.25
2678.922	405.25
2681.203	403.91667
2683.483	407.58333
2685.761	407.25
2688.038	409.91667
2690.313	421.91667
2692.587	417.25
2694.859	401.25
2697.13	414.25
2699.399	427.91667
2701.667	423.25
2703.933	418.58333
2706.198	426.58333
2708.461	434.58333
2710.723	432.91667
2712.984	432.58333
2715.243	430.58333
2717.5	418.91667
2719.757	436.91667
2722.011	428.25
2724.264	442.58333
2726.516	453.25
2728.766	431.25
2731.015	436.91667
2733.262	439.91667
2735.508	436.58333
2737.753	438.58333
2739.996	422.91667
2742.237	423.25
2744.477	428.91667
2746.716	435.25
2748.953	417.58333
2751.189	407.91667
2753.423	413.25
2755.656	411.91667
2757.887	396.58333
2760.117	396.91667
2762.346	390.91667
2764.573	393.91667
2766.798	389.25
2769.022	397.25
2771.245	392.25
2773.467	402.91667
2775.686	401.58333
2777.905	414.58333
2780.122	415.25
2782.337	414.91667
2784.552	406.25
2786.764	409.91667
2788.976	410.25
2791.186	423.25
2793.394	419.25
2795.601	432.25
2797.807	442.58333
2800.011	442.58333
2802.214	437.91667
2804.415	438.91667
2806.615	438.58333
2808.814	451.25
2811.011	463.25
2813.206	451.91667
2815.401	477.91667
2817.594	467.25
2819.785	487.58333
2821.975	475.25
2824.164	484.25
2826.351	491.58333
2828.537	522.25
2830.722	517.91667
2832.905	531.25
2835.086	558.58333
2837.267	587.58333
2839.445	601.25
2841.623	618.58333
2843.799	648.91667
2845.974	685.58333
2848.147	719.91667
2850.319	736.58333
2852.489	769.25
2854.659	783.58333
2856.826	799.25
2858.993	832.25
2861.158	813.25
2863.321	815.91667
2865.483	832.25
2867.644	829.58333
2869.804	826.58333
2871.962	817.91667
2874.118	819.58333
2876.274	828.25
2878.428	823.58333
2880.58	820.58333
2882.731	799.25
2884.881	799.91667
2887.03	819.25
2889.177	825.25
2891.322	826.58333
2893.467	824.91667
2895.61	834.25
2897.751	863.25
2899.892	842.25
2902.03	846.58333
2904.168	864.58333
2906.304	853.91667
2908.439	871.91667
2910.572	861.91667
2912.704	877.58333
2914.835	882.58333
2916.965	880.91667
2919.093	884.25
2921.219	872.25
2923.345	895.91667
2925.469	844.25
2927.591	848.91667
2929.712	814.91667
2931.832	809.91667
2933.951	795.25
2936.068	779.91667
2938.184	766.91667
2940.299	738.25
2942.412	716.91667
2944.524	679.25
2946.634	679.91667
2948.744	618.91667
2950.851	646.58333
2952.958	606.91667
2955.063	588.91667
2957.167	576.91667
2959.269	551.91667
2961.371	572.91667
2963.471	526.91667
2965.569	531.25
2967.666	495.91667
2969.762	487.91667
2971.857	475.25
2973.95	463.25
2976.042	462.91667
2978.133	442.58333
2980.222	432.25
2982.31	405.25
2984.396	395.58333
2986.482	401.25
2988.566	388.25
2990.648	380.25
2992.73	373.58333
2994.81	364.25
2996.889	365.25
2998.966	358.91667
3001.042	366.58333
3003.117	360.58333
3005.191	354.58333
3007.263	349.91667
3009.334	339.58333
3011.403	351.58333
3013.472	338.91667
3015.539	334.91667
3017.604	344.91667
3019.669	302.58333
3021.732	312.25
3023.794	307.25
3025.854	300.58333
3027.914	300.91667
3029.971	314.58333
3032.028	298.58333
3034.083	303.25
3036.137	300.25
3038.19	274.91667
3040.242	276.25
3042.292	266.25
3044.341	277.25
3046.388	286.25
3048.435	265.25
3050.48	287.58333
3052.524	274.58333
3054.566	259.25
3056.607	263.91667
3058.647	259.58333
3060.686	250.58333
3062.723	236.58333
3064.759	233.25
3066.794	-1.41667
3068.828	2.58333
3070.86	2.91667
