-0.839	510.58333
3.438	605.58333
7.711	175.91667
11.981	58.25
16.247	47.58333
20.509	48.25
24.768	48.91667
29.024	56.58333
33.276	40.25
37.524	50.25
41.769	45.91667
46.01	35.25
50.247	44.91667
54.481	58.25
58.712	58.91667
62.939	43.25
67.162	62.58333
71.382	54.25
75.599	44.91667
79.812	62.58333
84.021	79.58333
88.227	58.25
92.429	58.25
96.628	49.91667
100.823	66.25
105.015	69.91667
109.204	65.91667
113.388	70.25
117.57	70.58333
121.748	83.25
125.922	75.25
130.093	88.91667
134.261	87.25
138.425	86.58333
142.585	121.91667
146.742	113.91667
150.896	140.58333
155.046	169.91667
159.193	267.91667
163.336	441.91667
167.476	807.58333
171.613	1462.91667
175.746	2461.58333
179.875	3626.25
184.002	4711.25
188.124	5486.91667
192.244	5761.91667
196.36	5698.91667
200.472	5542.58333
204.581	5423.58333
208.687	5283.58333
212.79	5212.58333
216.889	5217.91667
220.984	5228.91667
225.077	5295.25
229.165	5281.58333
233.251	5284.25
237.333	5266.91667
241.412	5240.91667
245.487	5156.58333
249.559	5124.58333
253.628	5071.25
257.694	4977.91667
261.756	4967.25
265.814	4834.91667
269.87	4658.25
273.922	4462.25
277.97	4367.25
282.016	4271.58333
286.058	4241.58333
290.097	4272.25
294.132	4362.58333
298.164	4259.25
302.193	4042.58333
306.219	3790.91667
310.241	3482.25
314.26	3215.25
318.276	2998.25
322.288	2886.25
326.297	2762.58333
330.303	2662.25
334.305	2590.58333
338.305	2546.91667
342.301	2510.91667
346.294	2476.58333
350.283	2452.58333
354.269	2441.25
358.252	2415.58333
362.232	2421.58333
366.209	2401.91667
370.182	2365.58333
374.152	2339.58333
378.119	2358.58333
382.083	2338.91667
386.043	2355.25
390	2314.91667
393.954	2324.58333
397.905	2331.25
401.852	2334.91667
405.797	2274.25
409.738	2278.25
413.676	2279.91667
417.61	2265.25
421.542	2276.25
425.47	2240.25
429.396	2225.58333
433.318	2225.58333
437.236	2206.91667
441.152	2245.25
445.065	2177.25
448.974	2178.25
452.88	2156.91667
456.783	2128.91667
460.683	2118.25
464.58	2134.91667
468.473	2120.25
472.364	2120.58333
476.251	2136.58333
480.135	2145.91667
484.016	2166.25
487.894	2171.58333
491.769	2180.58333
495.641	2198.58333
499.509	2197.58333
503.375	2188.58333
507.237	2225.58333
511.096	2254.25
514.952	2483.25
518.805	2712.25
522.655	2791.25
526.502	2497.91667
530.346	2280.25
534.187	2216.91667
538.024	2230.25
541.859	2241.58333
545.69	2255.25
549.519	2244.91667
553.344	2212.58333
557.166	2185.25
560.985	2145.91667
564.802	2106.91667
568.615	2065.91667
572.425	2063.58333
576.232	2026.25
580.036	2032.58333
583.836	2027.58333
587.634	2031.58333
591.429	2045.91667
595.221	2093.58333
599.01	2107.91667
602.796	2133.25
606.578	2147.58333
610.358	2143.25
614.135	2123.25
617.909	2135.58333
621.679	2102.58333
625.447	2068.25
629.212	2075.25
632.973	2065.58333
636.732	2082.58333
640.488	2083.91667
644.241	2046.58333
647.991	2059.25
651.737	2066.25
655.481	2026.25
659.222	2058.58333
662.96	2038.25
666.695	2050.58333
670.427	2061.58333
674.156	2079.25
677.882	2057.58333
681.605	2062.91667
685.325	2027.25
689.043	2032.25
692.757	2019.58333
696.468	2037.91667
700.177	2023.91667
703.882	1997.58333
707.585	1981.58333
711.284	1986.25
714.981	1986.91667
718.675	1994.91667
722.366	1997.25
726.054	1965.25
729.739	1988.91667
733.421	1992.25
737.1	1984.91667
740.777	1997.91667
744.45	2025.58333
748.121	2052.25
751.789	2074.91667
755.453	2061.58333
759.115	2069.58333
762.774	2101.91667
766.431	2110.25
770.084	2135.91667
773.734	2148.91667
777.382	2184.25
781.027	2201.58333
784.669	2211.58333
788.308	2239.25
791.944	2248.91667
795.577	2259.58333
799.208	2252.58333
802.835	2283.91667
806.46	2294.58333
810.082	2300.91667
813.701	2288.58333
817.317	2334.25
820.931	2308.58333
824.542	2320.25
828.149	2288.25
831.754	2267.25
835.357	2262.91667
838.956	2287.25
842.553	2263.25
846.146	2266.91667
849.737	2239.25
853.326	2258.58333
856.911	2265.58333
860.493	2266.91667
864.073	2290.91667
867.65	2317.91667
871.225	2340.25
874.796	2358.58333
878.365	2359.58333
881.931	2355.91667
885.494	2387.58333
889.054	2369.58333
892.612	2387.25
896.166	2340.25
899.719	2317.25
903.268	2298.91667
906.814	2282.58333
910.358	2264.58333
913.899	2258.91667
917.438	2235.58333
920.973	2232.25
924.506	2299.25
928.036	2309.25
931.564	2362.58333
935.088	2400.58333
938.61	2404.25
942.129	2454.25
945.646	2484.91667
949.16	2532.58333
952.671	2555.91667
956.179	2538.91667
959.685	2538.25
963.188	2531.58333
966.688	2514.58333
970.185	2437.58333
973.68	2386.25
977.173	2349.58333
980.662	2304.58333
984.149	2318.25
987.633	2267.58333
991.114	2345.25
994.593	2370.91667
998.069	2427.25
1001.542	2515.91667
1005.013	2470.25
1008.481	2333.91667
1011.947	2294.25
1015.409	2262.91667
1018.869	2270.25
1022.327	2281.25
1025.782	2249.91667
1029.234	2240.58333
1032.683	2198.91667
1036.13	2155.58333
1039.574	2070.25
1043.016	2005.58333
1046.455	1963.58333
1049.891	1959.25
1053.325	1982.91667
1056.756	1969.58333
1060.184	1984.91667
1063.61	1992.91667
1067.033	2017.91667
1070.454	2018.25
1073.872	2037.58333
1077.287	2031.25
1080.7	2039.91667
1084.11	2002.25
1087.517	2020.91667
1090.922	1959.91667
1094.325	1960.58333
1097.724	1950.58333
1101.122	1955.58333
1104.516	1967.25
1107.908	1947.58333
1111.298	1991.25
1114.684	2002.58333
1118.069	2049.91667
1121.45	2075.58333
1124.83	2061.25
1128.206	2051.91667
1131.58	2098.58333
1134.951	2161.58333
1138.32	2228.91667
1141.687	2298.91667
1145.05	2352.91667
1148.412	2366.58333
1151.77	2376.25
1155.126	2355.25
1158.48	2329.25
1161.831	2346.25
1165.18	2353.58333
1168.525	2407.91667
1171.869	2426.25
1175.21	2439.91667
1178.548	2435.91667
1181.884	2465.25
1185.217	2501.58333
1188.548	2555.25
1191.877	2606.25
1195.202	2651.25
1198.526	2708.58333
1201.846	2724.91667
1205.165	2730.58333
1208.48	2700.91667
1211.794	2682.91667
1215.104	2689.58333
1218.413	2692.58333
1221.719	2677.25
1225.022	2632.58333
1228.323	2595.58333
1231.621	2573.58333
1234.917	2555.91667
1238.21	2601.91667
1241.501	2576.91667
1244.79	2532.91667
1248.076	2555.58333
1251.359	2592.91667
1254.64	2651.91667
1257.919	2662.25
1261.195	2722.58333
1264.468	2777.91667
1267.74	2778.25
1271.008	2804.25
1274.275	2781.25
1277.538	2772.58333
1280.8	2747.25
1284.059	2742.25
1287.315	2785.58333
1290.569	2799.91667
1293.821	2801.58333
1297.07	2839.58333
1300.317	2832.91667
1303.562	2814.91667
1306.803	2805.25
1310.043	2808.58333
1313.28	2777.25
1316.515	2753.91667
1319.747	2714.25
1322.977	2696.25
1326.204	2688.25
1329.429	2615.58333
1332.652	2613.91667
1335.872	2589.58333
1339.09	2544.91667
1342.306	2520.25
1345.519	2503.58333
1348.729	2486.58333
1351.938	2500.91667
1355.144	2469.25
1358.347	2439.58333
1361.548	2420.25
1364.747	2411.91667
1367.944	2385.25
1371.138	2410.91667
1374.329	2396.25
1377.518	2425.25
1380.705	2448.91667
1383.89	2422.91667
1387.072	2359.25
1390.252	2274.91667
1393.429	2189.25
1396.605	2133.91667
1399.777	2048.91667
1402.948	2043.91667
1406.116	2002.58333
1409.282	2006.91667
1412.445	1997.91667
1415.606	2014.91667
1418.765	2048.25
1421.921	2105.58333
1425.075	2120.58333
1428.227	2214.58333
1431.376	2316.25
1434.524	2427.25
1437.668	2464.25
1440.811	2496.25
1443.951	2528.25
1447.089	2527.25
1450.224	2508.58333
1453.357	2503.58333
1456.488	2476.25
1459.617	2455.91667
1462.743	2418.91667
1465.867	2343.91667
1468.989	2309.58333
1472.108	2278.91667
1475.225	2245.25
1478.34	2206.25
1481.453	2205.91667
1484.563	2196.91667
1487.671	2262.25
1490.776	2285.25
1493.88	2319.58333
1496.981	2364.25
1500.08	2380.91667
1503.176	2433.58333
1506.271	2462.58333
1509.363	2475.25
1512.452	2484.58333
1515.54	2533.58333
1518.625	2562.58333
1521.708	2634.91667
1524.789	2693.58333
1527.867	2779.91667
1530.944	2943.91667
1534.018	3052.91667
1537.089	3180.91667
1540.159	3224.91667
1543.226	3205.58333
1546.291	3141.91667
1549.354	3076.25
1552.415	2997.58333
1555.473	2943.58333
1558.529	2894.58333
1561.583	2897.91667
1564.634	2858.58333
1567.684	2879.91667
1570.731	2900.58333
1573.776	2922.58333
1576.819	2979.91667
1579.859	3003.58333
1582.898	3038.91667
1585.934	3066.58333
1588.968	3082.91667
1591.999	3086.25
1595.029	3101.58333
1598.056	3106.91667
1601.081	3098.25
1604.104	3101.25
1607.125	3093.25
1610.144	3009.91667
1613.16	2960.91667
1616.174	2866.58333
1619.186	2823.91667
1622.196	2745.25
1625.203	2646.91667
1628.209	2616.58333
1631.212	2552.58333
1634.213	2541.25
1637.212	2535.58333
1640.209	2504.25
1643.203	2458.58333
1646.196	2375.25
1649.186	2280.91667
1652.174	2208.58333
1655.16	2141.91667
1658.144	2075.58333
1661.125	1970.58333
1664.105	1869.58333
1667.082	1801.91667
1670.057	1717.91667
1673.03	1608.91667
1676.001	1511.58333
1678.97	1426.25
1681.937	1337.91667
1684.901	1265.91667
1687.863	1231.25
1690.824	1160.91667
1693.782	1159.25
1696.738	1094.58333
1699.692	1093.25
1702.643	1043.91667
1705.593	1043.58333
1708.54	1015.91667
1711.486	1026.91667
1714.429	983.25
1717.37	1000.25
1720.309	954.91667
1723.246	977.91667
1726.181	949.58333
1729.113	971.25
1732.044	938.25
1734.972	938.58333
1737.899	945.25
1740.823	941.25
1743.745	938.25
1746.665	892.91667
1749.583	884.25
1752.499	865.25
1755.413	871.58333
1758.325	831.25
1761.235	832.25
1764.142	825.91667
1767.048	807.91667
1769.951	809.58333
1772.852	821.58333
1775.752	809.91667
1778.649	811.25
1781.544	805.25
1784.437	775.58333
1787.328	798.58333
1790.217	781.25
1793.104	759.91667
1795.989	776.58333
1798.872	758.25
1801.753	786.58333
1804.631	771.91667
1807.508	774.91667
1810.383	768.58333
1813.255	760.58333
1816.126	755.58333
1818.994	765.91667
1821.861	744.58333
1824.725	768.91667
1827.587	750.25
1830.448	741.91667
1833.306	734.58333
1836.162	743.58333
1839.017	730.91667
1841.869	732.25
1844.719	713.58333
1847.567	715.58333
1850.414	721.91667
1853.258	710.25
1856.1	729.58333
1858.94	743.91667
1861.778	724.91667
1864.614	717.25
1867.448	722.58333
1870.28	704.91667
1873.111	742.25
1875.939	722.58333
1878.765	735.91667
1881.589	725.58333
1884.411	717.25
1887.231	730.58333
1890.049	721.58333
1892.865	725.25
1895.68	690.91667
1898.492	713.58333
1901.302	712.58333
1904.11	701.25
1906.916	695.58333
1909.721	694.91667
1912.523	695.91667
1915.323	688.58333
1918.122	691.25
1920.918	701.58333
1923.712	669.91667
1926.505	685.25
1929.295	667.58333
1932.084	702.91667
1934.87	690.58333
1937.655	687.58333
1940.438	673.25
1943.218	694.25
1945.997	688.25
1948.774	697.58333
1951.549	702.91667
1954.322	682.58333
1957.093	691.58333
1959.862	664.25
1962.629	667.91667
1965.394	679.91667
1968.157	674.25
1970.918	669.58333
1973.678	651.25
1976.435	679.58333
1979.19	674.25
1981.944	651.58333
1984.696	676.91667
1987.445	655.25
1990.193	661.25
1992.939	680.58333
1995.683	672.58333
1998.425	644.91667
2001.165	685.58333
2003.903	649.91667
2006.639	657.25
2009.374	674.58333
2012.106	662.58333
2014.837	644.25
2017.566	663.25
2020.292	664.91667
2023.017	666.58333
2025.74	658.58333
2028.461	651.91667
2031.18	653.58333
2033.898	660.91667
2036.613	654.25
2039.327	662.91667
2042.038	645.91667
2044.748	653.91667
2047.456	664.58333
2050.162	640.91667
2052.866	654.91667
2055.568	671.25
2058.268	640.58333
2060.967	660.25
2063.663	645.58333
2066.358	642.91667
2069.051	640.91667
2071.742	655.58333
2074.431	654.25
2077.118	656.58333
2079.804	633.58333
2082.487	657.58333
2085.169	664.25
2087.849	662.58333
2090.527	643.25
2093.203	649.25
2095.877	671.25
2098.55	665.25
2101.22	682.58333
2103.889	683.58333
2106.556	673.25
2109.221	684.25
2111.884	686.25
2114.546	731.91667
2117.205	748.58333
2119.863	789.91667
2122.519	816.91667
2125.173	857.25
2127.825	884.25
2130.475	901.91667
2133.124	871.58333
2135.771	853.25
2138.416	842.25
2141.059	796.25
2143.7	776.25
2146.339	748.25
2148.977	712.25
2151.613	717.58333
2154.247	704.91667
2156.879	690.91667
2159.51	688.58333
2162.138	669.91667
2164.765	690.25
2167.39	664.58333
2170.013	691.91667
2172.634	684.25
2175.254	668.91667
2177.872	699.58333
2180.488	656.91667
2183.102	684.91667
2185.714	646.58333
2188.325	646.58333
2190.934	650.91667
2193.541	651.58333
2196.146	646.58333
2198.75	632.58333
2201.351	652.58333
2203.951	635.25
2206.549	657.25
2209.146	636.25
2211.74	634.58333
2214.333	652.25
2216.924	621.91667
2219.514	646.25
2222.101	632.25
2224.687	652.58333
2227.271	637.25
2229.853	633.58333
2232.433	624.25
2235.012	651.91667
2237.589	645.91667
2240.164	650.25
2242.738	633.25
2245.309	625.91667
2247.879	641.91667
2250.448	656.25
2253.014	635.25
2255.579	617.91667
2258.142	632.25
2260.703	622.25
2263.262	641.58333
2265.82	621.91667
2268.376	628.91667
2270.93	616.91667
2273.483	620.58333
2276.033	623.91667
2278.583	618.25
2281.13	623.25
2283.675	616.25
2286.219	608.25
2288.761	627.91667
2291.302	637.25
2293.841	632.91667
2296.377	616.58333
2298.913	623.25
2301.446	642.25
2303.978	631.91667
2306.508	624.25
2309.037	635.58333
2311.563	629.25
2314.088	649.58333
2316.612	622.91667
2319.133	633.25
2321.653	640.58333
2324.171	624.25
2326.688	633.91667
2329.202	630.91667
2331.715	637.58333
2334.227	627.91667
2336.736	642.91667
2339.244	620.25
2341.751	622.25
2344.255	639.58333
2346.758	641.58333
2349.259	633.25
2351.759	643.91667
2354.257	633.58333
2356.753	636.25
2359.247	640.91667
2361.74	653.58333
2364.231	653.91667
2366.721	645.58333
2369.209	653.91667
2371.695	653.58333
2374.179	648.25
2376.662	644.91667
2379.143	656.91667
2381.622	644.91667
2384.1	664.58333
2386.576	655.91667
2389.051	667.25
2391.524	675.91667
2393.995	667.58333
2396.464	653.58333
2398.932	668.25
2401.398	656.58333
2403.863	662.58333
2406.325	674.25
2408.787	670.91667
2411.246	674.58333
2413.704	670.25
2416.16	664.25
2418.615	666.58333
2421.068	688.91667
2423.519	687.25
2425.969	673.25
2428.417	680.25
2430.863	705.25
2433.308	693.91667
2435.751	683.91667
2438.193	692.58333
2440.633	702.58333
2443.071	700.91667
2445.508	688.91667
2447.943	695.58333
2450.376	686.25
2452.808	707.25
2455.238	696.58333
2457.667	723.91667
2460.093	694.58333
2462.519	694.58333
2464.942	704.58333
2467.365	720.91667
2469.785	719.91667
2472.204	712.25
2474.621	699.58333
2477.037	724.58333
2479.451	698.25
2481.863	699.58333
2484.274	708.91667
2486.683	716.91667
2489.091	727.91667
2491.497	729.25
2493.901	727.91667
2496.304	714.25
2498.705	740.91667
2501.105	726.91667
2503.503	745.25
2505.899	716.25
2508.294	753.25
2510.687	738.91667
2513.079	729.91667
2515.469	719.91667
2517.858	744.91667
2520.245	747.91667
2522.63	745.58333
2525.014	742.25
2527.396	737.58333
2529.776	744.25
2532.156	754.58333
2534.533	755.58333
2536.909	747.91667
2539.283	738.25
2541.656	749.25
2544.027	774.91667
2546.397	751.58333
2548.765	754.91667
2551.131	762.25
2553.496	745.58333
2555.86	768.91667
2558.221	766.58333
2560.582	762.58333
2562.94	764.91667
2565.298	778.25
2567.653	783.91667
2570.007	766.91667
2572.36	791.91667
2574.711	769.58333
2577.06	796.25
2579.408	797.25
2581.754	793.91667
2584.099	807.25
2586.442	802.91667
2588.784	807.25
2591.124	804.91667
2593.463	801.91667
2595.8	828.58333
2598.135	808.91667
2600.469	806.58333
2602.802	813.91667
2605.133	826.58333
2607.462	806.91667
2609.79	801.25
2612.116	818.25
2614.441	827.91667
2616.764	839.58333
2619.086	814.25
2621.406	819.25
2623.725	850.25
2626.042	841.58333
2628.358	832.25
2630.672	835.58333
2632.985	862.91667
2635.296	846.91667
2637.606	844.91667
2639.914	856.91667
2642.22	849.58333
2644.525	866.58333
2646.829	871.58333
2649.131	887.58333
2651.432	885.91667
2653.731	877.91667
2656.028	897.25
2658.324	913.58333
2660.619	886.91667
2662.912	905.91667
2665.204	880.25
2667.494	901.91667
2669.782	898.91667
2672.07	911.25
2674.355	908.58333
2676.639	901.25
2678.922	899.58333
2681.203	900.58333
2683.483	909.25
2685.761	902.25
2688.038	908.58333
2690.313	927.58333
2692.587	907.25
2694.859	923.25
2697.13	911.25
2699.399	931.58333
2701.667	943.58333
2703.933	931.25
2706.198	940.58333
2708.461	956.91667
2710.723	950.91667
2712.984	958.25
2715.243	962.58333
2717.5	943.91667
2719.757	970.25
2722.011	1002.58333
2724.264	1102.25
2726.516	1106.91667
2728.766	1014.58333
2731.015	993.58333
2733.262	1004.58333
2735.508	999.58333
2737.753	1012.25
2739.996	1010.25
2742.237	998.91667
2744.477	995.25
2746.716	1014.25
2748.953	988.58333
2751.189	996.91667
2753.423	980.58333
2755.656	978.91667
2757.887	990.58333
2760.117	994.91667
2762.346	970.58333
2764.573	975.91667
2766.798	985.58333
2769.022	983.25
2771.245	997.25
2773.467	1013.58333
2775.686	1017.25
2777.905	1008.25
2780.122	1021.58333
2782.337	1027.91667
2784.552	1033.25
2786.764	1021.58333
2788.976	1030.91667
2791.186	1040.25
2793.394	1043.91667
2795.601	1044.25
2797.807	1071.91667
2800.011	1073.58333
2802.214	1069.58333
2804.415	1075.91667
2806.615	1068.91667
2808.814	1070.25
2811.011	1079.58333
2813.206	1080.58333
2815.401	1099.25
2817.594	1100.25
2819.785	1102.91667
2821.975	1104.91667
2824.164	1097.91667
2826.351	1113.58333
2828.537	1120.58333
2830.722	1119.91667
2832.905	1130.25
2835.086	1162.58333
2837.267	1182.91667
2839.445	1206.25
2841.623	1212.25
2843.799	1232.25
2845.974	1252.91667
2848.147	1263.25
2850.319	1284.91667
2852.489	1306.91667
2854.659	1330.25
2856.826	1355.25
2858.993	1384.58333
2861.158	1352.91667
2863.321	1361.58333
2865.483	1368.58333
2867.644	1369.58333
2869.804	1372.25
2871.962	1355.25
2874.118	1348.58333
2876.274	1350.91667
2878.428	1344.58333
2880.58	1348.25
2882.731	1323.91667
2884.881	1350.25
2887.03	1352.25
2889.177	1350.58333
2891.322	1362.58333
2893.467	1367.91667
2895.61	1373.25
2897.751	1384.91667
2899.892	1378.25
2902.03	1404.58333
2904.168	1391.58333
2906.304	1388.91667
2908.439	1423.91667
2910.572	1418.25
2912.704	1425.25
2914.835	1428.91667
2916.965	1420.58333
2919.093	1443.25
2921.219	1427.25
2923.345	1448.58333
2925.469	1426.58333
2927.591	1419.58333
2929.712	1396.91667
2931.832	1375.91667
2933.951	1377.91667
2936.068	1365.58333
2938.184	1350.25
2940.299	1320.58333
2942.412	1322.25
2944.524	1278.58333
2946.634	1289.25
2948.744	1250.25
2950.851	1294.25
2952.958	1260.25
2955.063	1275.58333
2957.167	1260.91667
2959.269	1235.25
2961.371	1265.25
2963.471	1234.25
2965.569	1248.25
2967.666	1216.58333
2969.762	1214.25
2971.857	1201.58333
2973.95	1180.58333
2976.042	1187.91667
2978.133	1163.58333
2980.222	1150.58333
2982.31	1139.91667
2984.396	1113.91667
2986.482	1122.58333
2988.566	1113.25
2990.648	1099.58333
2992.73	1109.91667
2994.81	1112.25
2996.889	1129.25
2998.966	1118.58333
3001.042	1120.91667
3003.117	1118.91667
3005.191	1124.91667
3007.263	1133.91667
3009.334	1101.25
3011.403	1109.25
3013.472	1083.58333
3015.539	1093.91667
3017.604	1077.25
3019.669	1044.91667
3021.732	1052.58333
3023.794	1055.58333
3025.854	1045.58333
3027.914	1051.58333
3029.971	1056.91667
3032.028	1044.58333
3034.083	1050.58333
3036.137	1046.91667
3038.19	998.58333
3040.242	988.91667
3042.292	969.58333
3044.341	958.25
3046.388	964.91667
3048.435	930.25
3050.48	961.58333
3052.524	942.25
3054.566	941.58333
3056.607	938.25
3058.647	914.58333
3060.686	884.91667
3062.723	864.25
3064.759	834.58333
3066.794	1.58333
3068.828	2.58333
3070.86	3.25
