-0.839	502.375
3.438	591.70833
7.711	175.70833
11.981	63.70833
16.247	44.375
20.509	49.04167
24.768	46.70833
29.024	53.04167
33.276	42.70833
37.524	47.04167
41.769	45.375
46.01	33.375
50.247	39.04167
54.481	58.375
58.712	63.04167
62.939	46.04167
67.162	62.04167
71.382	55.70833
75.599	45.375
79.812	58.70833
84.021	75.375
88.227	58.375
92.429	56.70833
96.628	49.04167
100.823	62.375
105.015	70.04167
109.204	64.375
113.388	72.04167
117.57	71.375
121.748	81.04167
125.922	73.375
130.093	85.70833
134.261	90.375
138.425	89.04167
142.585	125.375
146.742	117.375
150.896	143.04167
155.046	165.04167
159.193	264.375
163.336	440.04167
167.476	809.70833
171.613	1475.70833
175.746	2447.04167
179.875	3596.04167
184.002	4695.04167
188.124	5482.375
192.244	5748.04167
196.36	5696.70833
200.472	5578.70833
204.581	5469.04167
208.687	5302.04167
212.79	5278.375
216.889	5257.70833
220.984	5266.04167
225.077	5321.70833
229.165	5316.375
233.251	5317.70833
237.333	5296.375
241.412	5254.04167
245.487	5226.70833
249.559	5175.70833
253.628	5101.375
257.694	5054.70833
261.756	5001.70833
265.814	4890.04167
269.87	4714.70833
273.922	4528.04167
277.97	4406.375
282.016	4327.375
286.058	4288.70833
290.097	4327.04167
294.132	4335.70833
298.164	4290.04167
302.193	4106.375
306.219	3779.04167
310.241	3523.375
314.26	3246.04167
318.276	3045.04167
322.288	2906.375
326.297	2753.04167
330.303	2692.70833
334.305	2612.375
338.305	2586.04167
342.301	2549.04167
346.294	2516.70833
350.283	2500.375
354.269	2478.375
358.252	2438.375
362.232	2450.04167
366.209	2433.04167
370.182	2373.04167
374.152	2365.70833
378.119	2375.375
382.083	2377.375
386.043	2381.70833
390	2339.70833
393.954	2370.04167
397.905	2350.375
401.852	2352.375
405.797	2320.375
409.738	2333.70833
413.676	2323.70833
417.61	2332.70833
421.542	2300.375
425.47	2288.04167
429.396	2274.70833
433.318	2256.375
437.236	2258.70833
441.152	2281.70833
445.065	2216.04167
448.974	2222.70833
452.88	2186.70833
456.783	2170.04167
460.683	2158.375
464.58	2178.70833
468.473	2177.70833
472.364	2182.04167
476.251	2182.04167
480.135	2209.70833
484.016	2215.375
487.894	2213.04167
491.769	2228.70833
495.641	2225.04167
499.509	2235.375
503.375	2240.04167
507.237	2249.70833
511.096	2314.70833
514.952	2537.70833
518.805	2741.70833
522.655	2857.70833
526.502	2548.70833
530.346	2314.70833
534.187	2269.375
538.024	2262.04167
541.859	2269.375
545.69	2308.04167
549.519	2263.375
553.344	2255.04167
557.166	2196.375
560.985	2179.375
564.802	2152.70833
568.615	2103.70833
572.425	2068.04167
576.232	2065.70833
580.036	2064.375
583.836	2079.04167
587.634	2066.375
591.429	2081.375
595.221	2130.70833
599.01	2152.375
602.796	2171.70833
606.578	2179.04167
610.358	2184.70833
614.135	2162.70833
617.909	2155.70833
621.679	2119.375
625.447	2097.70833
629.212	2103.04167
632.973	2135.375
636.732	2106.04167
640.488	2124.375
644.241	2100.04167
647.991	2105.70833
651.737	2094.375
655.481	2068.04167
659.222	2077.70833
662.96	2083.375
666.695	2106.375
670.427	2107.375
674.156	2107.70833
677.882	2122.04167
681.605	2085.70833
685.325	2052.04167
689.043	2078.375
692.757	2067.375
696.468	2057.70833
700.177	2061.04167
703.882	2038.04167
707.585	2011.375
711.284	2030.70833
714.981	2029.375
718.675	2048.04167
722.366	2044.70833
726.054	2035.70833
729.739	2045.70833
733.421	2020.04167
737.1	2018.70833
740.777	2049.375
744.45	2040.375
748.121	2060.70833
751.789	2095.70833
755.453	2081.375
759.115	2101.375
762.774	2113.375
766.431	2138.375
770.084	2167.70833
773.734	2179.375
777.382	2226.04167
781.027	2219.04167
784.669	2246.70833
788.308	2257.375
791.944	2284.04167
795.577	2293.04167
799.208	2297.375
802.835	2308.04167
806.46	2324.375
810.082	2347.70833
813.701	2351.70833
817.317	2365.375
820.931	2364.04167
824.542	2359.70833
828.149	2330.375
831.754	2319.04167
835.357	2317.04167
838.956	2301.04167
842.553	2303.04167
846.146	2297.04167
849.737	2282.04167
853.326	2285.375
856.911	2272.70833
860.493	2302.70833
864.073	2323.375
867.65	2352.375
871.225	2389.04167
874.796	2346.70833
878.365	2360.375
881.931	2377.70833
885.494	2402.70833
889.054	2397.70833
892.612	2403.04167
896.166	2363.70833
899.719	2348.04167
903.268	2325.04167
906.814	2290.375
910.358	2295.04167
913.899	2277.04167
917.438	2271.375
920.973	2263.375
924.506	2314.70833
928.036	2346.70833
931.564	2380.375
935.088	2439.04167
938.61	2436.04167
942.129	2455.04167
945.646	2513.375
949.16	2558.04167
952.671	2587.375
956.179	2593.70833
959.685	2562.04167
963.188	2570.375
966.688	2565.70833
970.185	2457.375
973.68	2419.04167
977.173	2368.70833
980.662	2351.04167
984.149	2344.04167
987.633	2320.70833
991.114	2369.70833
994.593	2418.375
998.069	2456.04167
1001.542	2551.375
1005.013	2501.375
1008.481	2388.04167
1011.947	2329.04167
1015.409	2310.70833
1018.869	2304.375
1022.327	2298.70833
1025.782	2291.70833
1029.234	2282.04167
1032.683	2239.04167
1036.13	2171.04167
1039.574	2106.375
1043.016	2037.375
1046.455	2020.04167
1049.891	1977.04167
1053.325	1983.70833
1056.756	2006.375
1060.184	2005.375
1063.61	2022.04167
1067.033	2027.70833
1070.454	2033.04167
1073.872	2070.375
1077.287	2048.375
1080.7	2052.70833
1084.11	2048.70833
1087.517	2034.375
1090.922	2000.04167
1094.325	1978.70833
1097.724	1969.375
1101.122	1968.04167
1104.516	1977.375
1107.908	1984.04167
1111.298	2012.70833
1114.684	2021.70833
1118.069	2055.70833
1121.45	2082.04167
1124.83	2049.70833
1128.206	2081.04167
1131.58	2111.70833
1134.951	2139.70833
1138.32	2216.04167
1141.687	2335.375
1145.05	2368.70833
1148.412	2383.375
1151.77	2391.375
1155.126	2378.70833
1158.48	2343.70833
1161.831	2361.04167
1165.18	2352.375
1168.525	2404.375
1171.869	2430.04167
1175.21	2448.04167
1178.548	2464.70833
1181.884	2488.04167
1185.217	2522.375
1188.548	2573.375
1191.877	2615.70833
1195.202	2673.70833
1198.526	2736.375
1201.846	2764.375
1205.165	2738.04167
1208.48	2746.70833
1211.794	2691.375
1215.104	2699.04167
1218.413	2701.04167
1221.719	2687.375
1225.022	2653.04167
1228.323	2618.375
1231.621	2592.375
1234.917	2578.70833
1238.21	2579.375
1241.501	2580.70833
1244.79	2576.375
1248.076	2563.70833
1251.359	2599.70833
1254.64	2675.04167
1257.919	2662.375
1261.195	2750.04167
1264.468	2765.375
1267.74	2806.04167
1271.008	2827.04167
1274.275	2787.70833
1277.538	2793.375
1280.8	2774.375
1284.059	2759.70833
1287.315	2793.70833
1290.569	2801.70833
1293.821	2820.375
1297.07	2858.04167
1300.317	2869.70833
1303.562	2850.375
1306.803	2831.375
1310.043	2814.70833
1313.28	2798.70833
1316.515	2751.70833
1319.747	2747.70833
1322.977	2717.70833
1326.204	2686.375
1329.429	2647.70833
1332.652	2626.04167
1335.872	2607.04167
1339.09	2583.375
1342.306	2577.70833
1345.519	2540.375
1348.729	2532.04167
1351.938	2561.70833
1355.144	2503.70833
1358.347	2455.375
1361.548	2455.04167
1364.747	2449.70833
1367.944	2424.70833
1371.138	2435.04167
1374.329	2432.70833
1377.518	2461.04167
1380.705	2479.04167
1383.89	2473.04167
1387.072	2386.375
1390.252	2286.04167
1393.429	2219.04167
1396.605	2163.70833
1399.777	2080.70833
1402.948	2042.04167
1406.116	2062.04167
1409.282	2044.375
1412.445	2031.04167
1415.606	2051.04167
1418.765	2070.375
1421.921	2118.70833
1425.075	2162.04167
1428.227	2233.70833
1431.376	2311.04167
1434.524	2418.04167
1437.668	2511.04167
1440.811	2539.70833
1443.951	2540.70833
1447.089	2534.375
1450.224	2534.375
1453.357	2516.70833
1456.488	2485.375
1459.617	2458.70833
1462.743	2431.70833
1465.867	2383.375
1468.989	2331.70833
1472.108	2301.375
1475.225	2270.04167
1478.34	2230.375
1481.453	2249.375
1484.563	2252.375
1487.671	2283.375
1490.776	2308.04167
1493.88	2351.70833
1496.981	2351.04167
1500.08	2401.375
1503.176	2432.70833
1506.271	2475.375
1509.363	2509.04167
1512.452	2531.375
1515.54	2553.375
1518.625	2580.375
1521.708	2646.70833
1524.789	2741.04167
1527.867	2837.70833
1530.944	2977.375
1534.018	3089.04167
1537.089	3204.70833
1540.159	3249.04167
1543.226	3233.70833
1546.291	3166.04167
1549.354	3099.04167
1552.415	3022.70833
1555.473	2962.70833
1558.529	2905.70833
1561.583	2870.04167
1564.634	2875.375
1567.684	2861.70833
1570.731	2871.375
1573.776	2926.70833
1576.819	2990.70833
1579.859	3015.70833
1582.898	3044.04167
1585.934	3083.375
1588.968	3074.04167
1591.999	3068.375
1595.029	3093.04167
1598.056	3112.04167
1601.081	3120.70833
1604.104	3097.375
1607.125	3091.70833
1610.144	3033.04167
1613.16	2950.375
1616.174	2895.04167
1619.186	2821.04167
1622.196	2758.70833
1625.203	2684.04167
1628.209	2634.375
1631.212	2605.04167
1634.213	2580.70833
1637.212	2592.375
1640.209	2564.70833
1643.203	2510.375
1646.196	2429.70833
1649.186	2321.04167
1652.174	2257.70833
1655.16	2173.375
1658.144	2131.70833
1661.125	2011.70833
1664.105	1926.70833
1667.082	1834.375
1670.057	1736.04167
1673.03	1636.04167
1676.001	1523.70833
1678.97	1436.70833
1681.937	1359.375
1684.901	1285.04167
1687.863	1242.70833
1690.824	1180.375
1693.782	1183.375
1696.738	1116.375
1699.692	1087.04167
1702.643	1047.375
1705.593	1060.04167
1708.54	1042.04167
1711.486	1030.375
1714.429	999.04167
1717.37	1017.375
1720.309	984.04167
1723.246	1002.375
1726.181	979.70833
1729.113	980.70833
1732.044	945.70833
1734.972	947.375
1737.899	956.04167
1740.823	956.70833
1743.745	970.70833
1746.665	904.70833
1749.583	892.375
1752.499	878.375
1755.413	875.70833
1758.325	866.375
1761.235	854.04167
1764.142	842.04167
1767.048	825.04167
1769.951	824.04167
1772.852	833.04167
1775.752	823.04167
1778.649	826.04167
1781.544	825.375
1784.437	793.04167
1787.328	813.70833
1790.217	793.375
1793.104	789.04167
1795.989	785.70833
1798.872	795.375
1801.753	792.04167
1804.631	787.375
1807.508	793.375
1810.383	780.04167
1813.255	782.70833
1816.126	782.70833
1818.994	779.70833
1821.861	764.04167
1824.725	760.70833
1827.587	763.70833
1830.448	758.70833
1833.306	752.04167
1836.162	742.04167
1839.017	746.70833
1841.869	754.04167
1844.719	740.04167
1847.567	734.04167
1850.414	725.375
1853.258	733.375
1856.1	747.375
1858.94	750.375
1861.778	733.70833
1864.614	730.04167
1867.448	734.70833
1870.28	718.375
1873.111	750.04167
1875.939	736.04167
1878.765	749.375
1881.589	735.04167
1884.411	726.375
1887.231	731.04167
1890.049	726.70833
1892.865	742.70833
1895.68	715.04167
1898.492	726.70833
1901.302	720.70833
1904.11	722.375
1906.916	714.375
1909.721	701.375
1912.523	711.70833
1915.323	712.375
1918.122	705.70833
1920.918	713.70833
1923.712	693.375
1926.505	686.70833
1929.295	678.04167
1932.084	700.375
1934.87	699.04167
1937.655	700.375
1940.438	696.375
1943.218	696.70833
1945.997	705.375
1948.774	709.70833
1951.549	713.70833
1954.322	698.70833
1957.093	700.70833
1959.862	691.04167
1962.629	684.70833
1965.394	673.70833
1968.157	679.04167
1970.918	686.04167
1973.678	668.04167
1976.435	691.375
1979.19	674.70833
1981.944	670.375
1984.696	670.70833
1987.445	668.70833
1990.193	676.04167
1992.939	690.04167
1995.683	670.375
1998.425	669.375
2001.165	694.04167
2003.903	666.375
2006.639	678.375
2009.374	678.70833
2012.106	677.04167
2014.837	650.04167
2017.566	685.375
2020.292	678.04167
2023.017	667.04167
2025.74	672.70833
2028.461	662.375
2031.18	667.375
2033.898	654.70833
2036.613	675.375
2039.327	674.04167
2042.038	657.375
2044.748	656.70833
2047.456	667.04167
2050.162	650.375
2052.866	651.375
2055.568	665.70833
2058.268	651.375
2060.967	664.04167
2063.663	651.70833
2066.358	659.70833
2069.051	644.375
2071.742	660.70833
2074.431	659.70833
2077.118	655.04167
2079.804	647.04167
2082.487	664.375
2085.169	677.70833
2087.849	667.70833
2090.527	656.375
2093.203	668.375
2095.877	678.04167
2098.55	681.70833
2101.22	678.70833
2103.889	681.70833
2106.556	679.375
2109.221	694.70833
2111.884	688.375
2114.546	730.04167
2117.205	747.70833
2119.863	796.70833
2122.519	805.70833
2125.173	834.70833
2127.825	895.04167
2130.475	901.375
2133.124	880.375
2135.771	848.70833
2138.416	843.375
2141.059	799.375
2143.7	792.04167
2146.339	758.70833
2148.977	713.04167
2151.613	718.04167
2154.247	715.70833
2156.879	710.04167
2159.51	690.70833
2162.138	683.04167
2164.765	686.04167
2167.39	665.70833
2170.013	685.375
2172.634	684.70833
2175.254	677.375
2177.872	708.375
2180.488	664.70833
2183.102	674.04167
2185.714	667.375
2188.325	658.04167
2190.934	663.375
2193.541	671.70833
2196.146	660.375
2198.75	644.70833
2201.351	649.70833
2203.951	644.04167
2206.549	652.04167
2209.146	650.375
2211.74	654.375
2214.333	644.70833
2216.924	634.375
2219.514	651.04167
2222.101	638.70833
2224.687	657.70833
2227.271	640.375
2229.853	645.04167
2232.433	634.04167
2235.012	650.70833
2237.589	666.04167
2240.164	670.70833
2242.738	657.375
2245.309	644.04167
2247.879	646.375
2250.448	655.375
2253.014	642.375
2255.579	625.70833
2258.142	634.04167
2260.703	627.70833
2263.262	641.375
2265.82	634.70833
2268.376	645.04167
2270.93	623.04167
2273.483	629.70833
2276.033	632.70833
2278.583	632.04167
2281.13	631.04167
2283.675	616.04167
2286.219	630.04167
2288.761	631.04167
2291.302	641.04167
2293.841	640.70833
2296.377	624.70833
2298.913	631.70833
2301.446	641.70833
2303.978	639.375
2306.508	625.70833
2309.037	636.04167
2311.563	645.04167
2314.088	645.70833
2316.612	624.375
2319.133	632.375
2321.653	634.70833
2324.171	636.04167
2326.688	652.04167
2329.202	635.04167
2331.715	641.04167
2334.227	636.375
2336.736	650.04167
2339.244	643.04167
2341.751	626.375
2344.255	646.375
2346.758	642.04167
2349.259	640.70833
2351.759	644.375
2354.257	645.04167
2356.753	636.375
2359.247	647.375
2361.74	650.70833
2364.231	647.04167
2366.721	645.04167
2369.209	647.375
2371.695	653.04167
2374.179	649.04167
2376.662	644.375
2379.143	665.04167
2381.622	652.375
2384.1	665.70833
2386.576	653.70833
2389.051	674.04167
2391.524	690.375
2393.995	677.375
2396.464	662.04167
2398.932	668.04167
2401.398	666.04167
2403.863	663.70833
2406.325	671.04167
2408.787	670.04167
2411.246	680.04167
2413.704	677.04167
2416.16	677.70833
2418.615	680.70833
2421.068	695.375
2423.519	680.375
2425.969	664.375
2428.417	686.70833
2430.863	702.375
2433.308	701.70833
2435.751	700.04167
2438.193	685.04167
2440.633	691.375
2443.071	698.04167
2445.508	688.375
2447.943	693.04167
2450.376	681.04167
2452.808	695.375
2455.238	695.375
2457.667	735.375
2460.093	715.70833
2462.519	702.375
2464.942	697.375
2467.365	714.375
2469.785	720.04167
2472.204	705.70833
2474.621	708.70833
2477.037	721.70833
2479.451	696.375
2481.863	709.04167
2484.274	707.70833
2486.683	716.375
2489.091	725.375
2491.497	725.04167
2493.901	730.70833
2496.304	730.375
2498.705	739.04167
2501.105	726.375
2503.503	753.04167
2505.899	723.70833
2508.294	760.70833
2510.687	740.04167
2513.079	749.04167
2515.469	726.70833
2517.858	739.375
2520.245	741.04167
2522.63	742.375
2525.014	746.04167
2527.396	745.375
2529.776	737.70833
2532.156	762.375
2534.533	743.70833
2536.909	744.70833
2539.283	736.70833
2541.656	742.70833
2544.027	782.70833
2546.397	754.375
2548.765	750.04167
2551.131	742.04167
2553.496	765.70833
2555.86	778.375
2558.221	771.04167
2560.582	770.04167
2562.94	760.375
2565.298	768.04167
2567.653	796.70833
2570.007	772.375
2572.36	790.70833
2574.711	773.375
2577.06	789.04167
2579.408	800.70833
2581.754	796.04167
2584.099	803.375
2586.442	804.04167
2588.784	807.375
2591.124	801.375
2593.463	808.04167
2595.8	816.04167
2598.135	789.04167
2600.469	813.04167
2602.802	822.375
2605.133	826.375
2607.462	807.04167
2609.79	807.70833
2612.116	819.375
2614.441	809.375
2616.764	817.04167
2619.086	827.375
2621.406	825.70833
2623.725	843.375
2626.042	855.375
2628.358	824.04167
2630.672	835.70833
2632.985	855.70833
2635.296	847.375
2637.606	844.70833
2639.914	840.04167
2642.22	848.04167
2644.525	857.70833
2646.829	853.70833
2649.131	875.70833
2651.432	892.375
2653.731	880.375
2656.028	897.375
2658.324	894.70833
2660.619	882.04167
2662.912	902.04167
2665.204	886.04167
2667.494	911.70833
2669.782	890.375
2672.07	900.04167
2674.355	915.04167
2676.639	905.04167
2678.922	883.375
2681.203	899.70833
2683.483	906.375
2685.761	900.04167
2688.038	925.04167
2690.313	935.70833
2692.587	904.04167
2694.859	909.375
2697.13	925.70833
2699.399	937.70833
2701.667	933.70833
2703.933	928.70833
2706.198	938.04167
2708.461	940.70833
2710.723	956.70833
2712.984	950.04167
2715.243	955.04167
2717.5	955.04167
2719.757	978.04167
2722.011	958.04167
2724.264	984.70833
2726.516	978.70833
2728.766	982.375
2731.015	993.375
2733.262	1004.04167
2735.508	998.70833
2737.753	992.70833
2739.996	992.375
2742.237	991.04167
2744.477	987.375
2746.716	994.70833
2748.953	987.70833
2751.189	999.375
2753.423	979.70833
2755.656	977.375
2757.887	980.375
2760.117	984.70833
2762.346	988.70833
2764.573	973.70833
2766.798	991.70833
2769.022	981.70833
2771.245	1001.70833
2773.467	984.70833
2775.686	1011.04167
2777.905	1005.375
2780.122	1011.04167
2782.337	1023.375
2784.552	1010.375
2786.764	1023.375
2788.976	1015.70833
2791.186	1040.04167
2793.394	1051.04167
2795.601	1046.70833
2797.807	1055.04167
2800.011	1069.04167
2802.214	1077.375
2804.415	1075.375
2806.615	1063.70833
2808.814	1078.04167
2811.011	1078.375
2813.206	1076.70833
2815.401	1088.375
2817.594	1101.70833
2819.785	1101.04167
2821.975	1086.04167
2824.164	1100.04167
2826.351	1109.04167
2828.537	1123.70833
2830.722	1127.04167
2832.905	1121.375
2835.086	1154.70833
2837.267	1190.04167
2839.445	1193.04167
2841.623	1198.375
2843.799	1226.70833
2845.974	1246.375
2848.147	1276.04167
2850.319	1301.04167
2852.489	1319.04167
2854.659	1332.70833
2856.826	1334.04167
2858.993	1355.04167
2861.158	1348.70833
2863.321	1345.375
2865.483	1371.375
2867.644	1365.70833
2869.804	1364.375
2871.962	1355.375
2874.118	1375.375
2876.274	1348.70833
2878.428	1348.70833
2880.58	1354.70833
2882.731	1331.375
2884.881	1338.04167
2887.03	1347.70833
2889.177	1347.70833
2891.322	1352.04167
2893.467	1353.375
2895.61	1361.70833
2897.751	1382.04167
2899.892	1387.04167
2902.03	1370.04167
2904.168	1398.70833
2906.304	1393.375
2908.439	1425.375
2910.572	1416.04167
2912.704	1427.04167
2914.835	1430.04167
2916.965	1424.04167
2919.093	1443.04167
2921.219	1415.04167
2923.345	1444.375
2925.469	1413.70833
2927.591	1410.70833
2929.712	1383.70833
2931.832	1377.70833
2933.951	1362.70833
2936.068	1359.375
2938.184	1341.04167
2940.299	1317.70833
2942.412	1334.70833
2944.524	1292.04167
2946.634	1285.375
2948.744	1256.375
2950.851	1287.04167
2952.958	1253.375
2955.063	1256.70833
2957.167	1250.375
2959.269	1225.04167
2961.371	1264.375
2963.471	1222.70833
2965.569	1233.70833
2967.666	1190.04167
2969.762	1218.04167
2971.857	1198.375
2973.95	1182.04167
2976.042	1174.375
2978.133	1164.375
2980.222	1145.375
2982.31	1129.375
2984.396	1116.04167
2986.482	1126.04167
2988.566	1126.375
2990.648	1108.375
2992.73	1116.375
2994.81	1104.70833
2996.889	1109.04167
2998.966	1129.375
3001.042	1125.04167
3003.117	1118.70833
3005.191	1106.70833
3007.263	1098.375
3009.334	1094.04167
3011.403	1100.70833
3013.472	1080.70833
3015.539	1074.375
3017.604	1081.70833
3019.669	1026.375
3021.732	1038.375
3023.794	1039.04167
3025.854	1039.04167
3027.914	1048.70833
3029.971	1068.375
3032.028	1053.04167
3034.083	1036.04167
3036.137	1028.04167
3038.19	1017.70833
3040.242	988.375
3042.292	967.70833
3044.341	958.375
3046.388	958.375
3048.435	923.70833
3050.48	963.04167
3052.524	939.04167
3054.566	925.375
3056.607	931.04167
3058.647	904.375
3060.686	886.375
3062.723	862.70833
3064.759	830.70833
3066.794	-0.625
3068.828	3.04167
3070.86	4.04167
