-0.839	402.5
3.438	479.16667
7.711	151.16667
11.981	58.5
16.247	46.16667
20.509	48.16667
24.768	45.5
29.024	53.83333
33.276	43.5
37.524	48.16667
41.769	45.83333
46.01	33.83333
50.247	45.83333
54.481	57.83333
58.712	58.83333
62.939	49.83333
67.162	67.5
71.382	57.5
75.599	48.5
79.812	63.5
84.021	82.16667
88.227	61.5
92.429	61.16667
96.628	49.83333
100.823	67.83333
105.015	74.83333
109.204	66.5
113.388	76.16667
117.57	74.5
121.748	84.83333
125.922	79.83333
130.093	102.16667
134.261	100.16667
138.425	97.16667
142.585	138.5
146.742	131.16667
150.896	157.5
155.046	193.16667
159.193	299.83333
163.336	508.16667
167.476	930.83333
171.613	1699.83333
175.746	2851.16667
179.875	4240.5
184.002	5536.5
188.124	6464.83333
192.244	6837.16667
196.36	6808.16667
200.472	6697.83333
204.581	6583.83333
208.687	6465.83333
212.79	6442.16667
216.889	6478.16667
220.984	6535.83333
225.077	6585.5
229.165	6670.16667
233.251	6735.83333
237.333	6758.5
241.412	6716.5
245.487	6670.83333
249.559	6610.5
253.628	6537.83333
257.694	6497.16667
261.756	6437.83333
265.814	6294.16667
269.87	6069.16667
273.922	5834.16667
277.97	5669.83333
282.016	5545.16667
286.058	5491.16667
290.097	5543.83333
294.132	5595.5
298.164	5520.83333
302.193	5282.83333
306.219	4938.16667
310.241	4508.5
314.26	4150.5
318.276	3886.5
322.288	3704.5
326.297	3544.5
330.303	3429.83333
334.305	3338.5
338.305	3286.5
342.301	3239.83333
346.294	3202.5
350.283	3179.83333
354.269	3164.5
358.252	3142.5
362.232	3124.5
366.209	3094.5
370.182	3048.16667
374.152	3063.16667
378.119	3068.16667
382.083	3061.16667
386.043	3073.83333
390	3017.83333
393.954	3039.5
397.905	3032.5
401.852	3028.83333
405.797	3009.5
409.738	2994.16667
413.676	2994.5
417.61	3015.16667
421.542	2975.5
425.47	2944.5
429.396	2920.83333
433.318	2894.83333
437.236	2889.5
441.152	2913.83333
445.065	2868.16667
448.974	2861.16667
452.88	2822.83333
456.783	2817.16667
460.683	2791.83333
464.58	2785.83333
468.473	2818.5
472.364	2809.5
476.251	2833.83333
480.135	2843.83333
484.016	2901.5
487.894	2901.83333
491.769	2904.5
495.641	2886.83333
499.509	2893.16667
503.375	2907.5
507.237	2891.83333
511.096	2906.5
514.952	2955.5
518.805	3038.5
522.655	3098.5
526.502	2966.5
530.346	2885.16667
534.187	2902.5
538.024	2915.83333
541.859	2912.5
545.69	2942.83333
549.519	2923.16667
553.344	2887.5
557.166	2858.16667
560.985	2834.16667
564.802	2775.16667
568.615	2710.83333
572.425	2688.5
576.232	2649.5
580.036	2660.16667
583.836	2676.83333
587.634	2697.16667
591.429	2712.5
595.221	2743.16667
599.01	2768.5
602.796	2816.83333
606.578	2807.5
610.358	2824.5
614.135	2792.5
617.909	2804.16667
621.679	2761.5
625.447	2708.5
629.212	2700.16667
632.973	2730.16667
636.732	2730.16667
640.488	2733.16667
644.241	2690.16667
647.991	2692.83333
651.737	2711.16667
655.481	2694.5
659.222	2697.16667
662.96	2696.5
666.695	2695.83333
670.427	2726.16667
674.156	2724.83333
677.882	2735.83333
681.605	2700.83333
685.325	2653.83333
689.043	2676.83333
692.757	2677.83333
696.468	2654.5
700.177	2656.83333
703.882	2630.16667
707.585	2614.5
711.284	2626.16667
714.981	2613.83333
718.675	2628.83333
722.366	2645.83333
726.054	2614.83333
729.739	2621.16667
733.421	2627.83333
737.1	2626.83333
740.777	2658.16667
744.45	2665.83333
748.121	2671.16667
751.789	2729.5
755.453	2703.5
759.115	2738.5
762.774	2748.83333
766.431	2767.5
770.084	2799.83333
773.734	2839.5
777.382	2871.16667
781.027	2896.5
784.669	2926.83333
788.308	2922.83333
791.944	2948.83333
795.577	2920.5
799.208	2950.5
802.835	2976.16667
806.46	2988.5
810.082	3012.83333
813.701	3038.5
817.317	3021.5
820.931	3048.83333
824.542	3042.16667
828.149	3014.16667
831.754	2992.83333
835.357	2981.16667
838.956	2988.16667
842.553	2974.5
846.146	2962.16667
849.737	2940.5
853.326	2928.83333
856.911	2938.16667
860.493	2962.83333
864.073	2989.83333
867.65	3043.83333
871.225	3073.83333
874.796	3060.5
878.365	3058.5
881.931	3083.16667
885.494	3113.83333
889.054	3093.16667
892.612	3093.83333
896.166	3077.5
899.719	3047.5
903.268	3005.16667
906.814	2965.83333
910.358	2949.5
913.899	2940.5
917.438	2929.83333
920.973	2906.5
924.506	2954.16667
928.036	3029.16667
931.564	3036.83333
935.088	3118.16667
938.61	3089.83333
942.129	3162.83333
945.646	3217.5
949.16	3270.5
952.671	3316.83333
956.179	3321.5
959.685	3285.5
963.188	3300.16667
966.688	3250.5
970.185	3161.16667
973.68	3085.5
977.173	3051.16667
980.662	3007.83333
984.149	3036.5
987.633	2999.5
991.114	3033.16667
994.593	3095.83333
998.069	3188.83333
1001.542	3246.16667
1005.013	3222.5
1008.481	3029.5
1011.947	2990.16667
1015.409	2958.5
1018.869	2968.83333
1022.327	2971.16667
1025.782	2947.16667
1029.234	2966.5
1032.683	2907.83333
1036.13	2817.5
1039.574	2712.5
1043.016	2634.16667
1046.455	2588.16667
1049.891	2572.83333
1053.325	2570.83333
1056.756	2551.16667
1060.184	2599.16667
1063.61	2600.5
1067.033	2607.5
1070.454	2613.5
1073.872	2637.16667
1077.287	2636.16667
1080.7	2631.5
1084.11	2616.83333
1087.517	2604.83333
1090.922	2572.83333
1094.325	2556.16667
1097.724	2506.83333
1101.122	2546.16667
1104.516	2530.5
1107.908	2527.83333
1111.298	2561.83333
1114.684	2583.83333
1118.069	2628.16667
1121.45	2662.16667
1124.83	2638.5
1128.206	2654.5
1131.58	2716.83333
1134.951	2773.16667
1138.32	2862.5
1141.687	2970.16667
1145.05	3055.83333
1148.412	3065.16667
1151.77	3045.83333
1155.126	3068.5
1158.48	3019.5
1161.831	3040.83333
1165.18	3052.5
1168.525	3113.16667
1171.869	3153.5
1175.21	3151.5
1178.548	3197.5
1181.884	3197.16667
1185.217	3259.5
1188.548	3290.16667
1191.877	3372.83333
1195.202	3451.5
1198.526	3519.16667
1201.846	3533.5
1205.165	3527.5
1208.48	3518.16667
1211.794	3518.16667
1215.104	3486.16667
1218.413	3489.83333
1221.719	3465.5
1225.022	3406.83333
1228.323	3348.5
1231.621	3334.16667
1234.917	3322.83333
1238.21	3327.83333
1241.501	3308.5
1244.79	3299.83333
1248.076	3302.16667
1251.359	3348.83333
1254.64	3423.83333
1257.919	3435.5
1261.195	3482.5
1264.468	3549.16667
1267.74	3591.5
1271.008	3622.5
1274.275	3602.16667
1277.538	3555.16667
1280.8	3549.16667
1284.059	3543.16667
1287.315	3573.16667
1290.569	3560.5
1293.821	3600.5
1297.07	3657.16667
1300.317	3611.16667
1303.562	3641.16667
1306.803	3602.83333
1310.043	3618.5
1313.28	3582.83333
1316.515	3555.83333
1319.747	3501.83333
1322.977	3479.16667
1326.204	3441.16667
1329.429	3377.5
1332.652	3354.5
1335.872	3331.16667
1339.09	3284.16667
1342.306	3266.5
1345.519	3232.16667
1348.729	3206.16667
1351.938	3205.5
1355.144	3152.83333
1358.347	3112.16667
1361.548	3098.16667
1364.747	3105.5
1367.944	3050.16667
1371.138	3070.16667
1374.329	3062.16667
1377.518	3093.5
1380.705	3118.16667
1383.89	3104.5
1387.072	3006.5
1390.252	2901.5
1393.429	2789.5
1396.605	2711.5
1399.777	2607.16667
1402.948	2563.5
1406.116	2559.83333
1409.282	2571.16667
1412.445	2559.16667
1415.606	2583.83333
1418.765	2617.5
1421.921	2636.5
1425.075	2734.83333
1428.227	2825.16667
1431.376	2947.16667
1434.524	3051.16667
1437.668	3157.16667
1440.811	3157.5
1443.951	3212.16667
1447.089	3224.83333
1450.224	3219.5
1453.357	3210.5
1456.488	3170.83333
1459.617	3144.5
1462.743	3077.16667
1465.867	3009.5
1468.989	2961.83333
1472.108	2923.83333
1475.225	2882.16667
1478.34	2840.16667
1481.453	2841.16667
1484.563	2847.83333
1487.671	2902.5
1490.776	2938.83333
1493.88	3007.16667
1496.981	3051.5
1500.08	3080.16667
1503.176	3124.16667
1506.271	3178.5
1509.363	3202.83333
1512.452	3221.5
1515.54	3264.5
1518.625	3340.5
1521.708	3432.5
1524.789	3507.83333
1527.867	3662.16667
1530.944	3836.16667
1534.018	4001.16667
1537.089	4143.83333
1540.159	4194.83333
1543.226	4180.83333
1546.291	4094.16667
1549.354	4008.83333
1552.415	3898.83333
1555.473	3817.16667
1558.529	3728.5
1561.583	3701.16667
1564.634	3641.16667
1567.684	3676.5
1570.731	3704.5
1573.776	3742.5
1576.819	3784.5
1579.859	3842.5
1582.898	3897.16667
1585.934	3911.83333
1588.968	3930.83333
1591.999	3916.5
1595.029	3915.16667
1598.056	3949.16667
1601.081	3940.16667
1604.104	3933.83333
1607.125	3899.5
1610.144	3851.16667
1613.16	3745.16667
1616.174	3673.16667
1619.186	3596.83333
1622.196	3474.83333
1625.203	3404.83333
1628.209	3348.5
1631.212	3302.16667
1634.213	3307.5
1637.212	3319.16667
1640.209	3248.16667
1643.203	3164.5
1646.196	3041.83333
1649.186	2905.16667
1652.174	2806.16667
1655.16	2702.83333
1658.144	2604.83333
1661.125	2475.16667
1664.105	2380.5
1667.082	2268.5
1670.057	2162.5
1673.03	2024.83333
1676.001	1900.5
1678.97	1765.16667
1681.937	1676.16667
1684.901	1592.5
1687.863	1505.16667
1690.824	1440.83333
1693.782	1426.5
1696.738	1365.83333
1699.692	1349.16667
1702.643	1300.16667
1705.593	1284.16667
1708.54	1283.16667
1711.486	1271.16667
1714.429	1233.16667
1717.37	1225.5
1720.309	1217.83333
1723.246	1216.5
1726.181	1184.83333
1729.113	1199.5
1732.044	1168.16667
1734.972	1152.83333
1737.899	1147.83333
1740.823	1141.83333
1743.745	1160.83333
1746.665	1093.5
1749.583	1082.16667
1752.499	1061.83333
1755.413	1065.5
1758.325	1033.5
1761.235	1019.83333
1764.142	1013.83333
1767.048	995.83333
1769.951	1001.5
1772.852	997.16667
1775.752	990.83333
1778.649	997.5
1781.544	990.83333
1784.437	948.16667
1787.328	963.5
1790.217	947.5
1793.104	932.16667
1795.989	944.5
1798.872	917.83333
1801.753	947.16667
1804.631	929.83333
1807.508	937.16667
1810.383	939.5
1813.255	924.5
1816.126	920.16667
1818.994	923.83333
1821.861	907.5
1824.725	903.16667
1827.587	896.16667
1830.448	890.16667
1833.306	876.16667
1836.162	880.83333
1839.017	870.16667
1841.869	879.16667
1844.719	877.16667
1847.567	850.5
1850.414	841.16667
1853.258	852.16667
1856.1	870.5
1858.94	858.83333
1861.778	861.16667
1864.614	850.5
1867.448	852.16667
1870.28	846.16667
1873.111	865.16667
1875.939	851.5
1878.765	860.16667
1881.589	840.83333
1884.411	835.5
1887.231	859.16667
1890.049	840.5
1892.865	844.16667
1895.68	828.16667
1898.492	833.5
1901.302	823.83333
1904.11	811.16667
1906.916	804.16667
1909.721	805.16667
1912.523	812.16667
1915.323	797.16667
1918.122	808.16667
1920.918	799.5
1923.712	794.16667
1926.505	775.83333
1929.295	777.5
1932.084	788.5
1934.87	791.16667
1937.655	781.83333
1940.438	793.5
1943.218	786.16667
1945.997	793.16667
1948.774	782.83333
1951.549	804.83333
1954.322	786.16667
1957.093	771.16667
1959.862	772.16667
1962.629	773.5
1965.394	762.83333
1968.157	755.5
1970.918	763.5
1973.678	742.16667
1976.435	764.83333
1979.19	753.5
1981.944	739.16667
1984.696	735.5
1987.445	736.83333
1990.193	739.5
1992.939	756.5
1995.683	734.16667
1998.425	717.16667
2001.165	752.16667
2003.903	731.5
2006.639	739.83333
2009.374	739.83333
2012.106	736.5
2014.837	705.83333
2017.566	730.83333
2020.292	725.16667
2023.017	725.16667
2025.74	730.5
2028.461	718.16667
2031.18	718.5
2033.898	709.5
2036.613	706.83333
2039.327	731.5
2042.038	707.16667
2044.748	709.83333
2047.456	706.5
2050.162	693.83333
2052.866	705.5
2055.568	716.83333
2058.268	702.83333
2060.967	702.83333
2063.663	686.16667
2066.358	697.83333
2069.051	700.16667
2071.742	687.83333
2074.431	692.83333
2077.118	694.16667
2079.804	692.16667
2082.487	689.83333
2085.169	697.83333
2087.849	710.16667
2090.527	686.16667
2093.203	688.16667
2095.877	711.16667
2098.55	696.16667
2101.22	712.83333
2103.889	709.16667
2106.556	713.5
2109.221	721.83333
2111.884	721.5
2114.546	765.5
2117.205	789.5
2119.863	848.16667
2122.519	873.16667
2125.173	922.16667
2127.825	986.83333
2130.475	992.16667
2133.124	966.83333
2135.771	935.83333
2138.416	908.5
2141.059	861.16667
2143.7	822.16667
2146.339	781.83333
2148.977	753.16667
2151.613	735.5
2154.247	721.5
2156.879	707.5
2159.51	700.83333
2162.138	691.83333
2164.765	696.5
2167.39	658.5
2170.013	678.16667
2172.634	671.5
2175.254	659.83333
2177.872	692.5
2180.488	650.5
2183.102	671.83333
2185.714	653.83333
2188.325	633.16667
2190.934	633.5
2193.541	634.16667
2196.146	641.16667
2198.75	625.5
2201.351	619.5
2203.951	611.16667
2206.549	631.83333
2209.146	621.16667
2211.74	613.16667
2214.333	618.5
2216.924	605.5
2219.514	611.16667
2222.101	596.16667
2224.687	625.5
2227.271	601.5
2229.853	584.5
2232.433	590.5
2235.012	613.5
2237.589	595.83333
2240.164	621.5
2242.738	592.83333
2245.309	596.16667
2247.879	602.16667
2250.448	601.16667
2253.014	580.5
2255.579	570.5
2258.142	576.83333
2260.703	566.83333
2263.262	570.16667
2265.82	560.16667
2268.376	570.5
2270.93	555.16667
2273.483	556.16667
2276.033	560.16667
2278.583	545.16667
2281.13	546.5
2283.675	543.83333
2286.219	550.83333
2288.761	541.5
2291.302	553.83333
2293.841	567.83333
2296.377	536.83333
2298.913	540.16667
2301.446	546.83333
2303.978	549.5
2306.508	539.83333
2309.037	537.83333
2311.563	541.16667
2314.088	545.5
2316.612	529.5
2319.133	539.83333
2321.653	539.16667
2324.171	525.16667
2326.688	530.16667
2329.202	529.5
2331.715	524.5
2334.227	527.16667
2336.736	541.5
2339.244	532.16667
2341.751	515.5
2344.255	537.16667
2346.758	525.83333
2349.259	516.5
2351.759	516.83333
2354.257	519.83333
2356.753	517.16667
2359.247	528.5
2361.74	518.16667
2364.231	520.83333
2366.721	521.5
2369.209	516.16667
2371.695	527.83333
2374.179	512.5
2376.662	513.83333
2379.143	527.5
2381.622	511.83333
2384.1	519.16667
2386.576	522.5
2389.051	526.16667
2391.524	526.5
2393.995	526.16667
2396.464	511.16667
2398.932	513.16667
2401.398	513.5
2403.863	512.5
2406.325	514.83333
2408.787	510.16667
2411.246	507.5
2413.704	504.16667
2416.16	508.5
2418.615	510.16667
2421.068	519.83333
2423.519	524.83333
2425.969	508.83333
2428.417	509.5
2430.863	532.83333
2433.308	523.16667
2435.751	517.5
2438.193	509.16667
2440.633	514.83333
2443.071	518.5
2445.508	510.5
2447.943	506.16667
2450.376	493.83333
2452.808	503.83333
2455.238	495.5
2457.667	540.5
2460.093	511.16667
2462.519	500.5
2464.942	506.83333
2467.365	507.83333
2469.785	513.16667
2472.204	510.5
2474.621	502.5
2477.037	527.83333
2479.451	493.16667
2481.863	495.16667
2484.274	502.16667
2486.683	509.5
2489.091	511.83333
2491.497	508.16667
2493.901	508.83333
2496.304	502.83333
2498.705	517.5
2501.105	509.5
2503.503	525.16667
2505.899	492.5
2508.294	528.5
2510.687	505.83333
2513.079	501.16667
2515.469	501.5
2517.858	494.5
2520.245	516.83333
2522.63	506.83333
2525.014	493.16667
2527.396	494.83333
2529.776	489.83333
2532.156	520.16667
2534.533	502.5
2536.909	489.16667
2539.283	483.5
2541.656	494.5
2544.027	513.5
2546.397	508.83333
2548.765	495.5
2551.131	509.16667
2553.496	506.5
2555.86	520.16667
2558.221	512.5
2560.582	496.16667
2562.94	490.83333
2565.298	502.83333
2567.653	512.16667
2570.007	500.83333
2572.36	508.16667
2574.711	499.83333
2577.06	512.5
2579.408	510.16667
2581.754	505.16667
2584.099	507.5
2586.442	506.5
2588.784	518.16667
2591.124	515.83333
2593.463	519.5
2595.8	522.83333
2598.135	503.83333
2600.469	513.16667
2602.802	520.16667
2605.133	525.16667
2607.462	506.83333
2609.79	495.16667
2612.116	522.5
2614.441	515.83333
2616.764	520.16667
2619.086	512.16667
2621.406	505.16667
2623.725	535.5
2626.042	522.5
2628.358	520.16667
2630.672	512.16667
2632.985	539.83333
2635.296	523.5
2637.606	520.16667
2639.914	514.83333
2642.22	523.16667
2644.525	538.83333
2646.829	536.16667
2649.131	538.83333
2651.432	544.5
2653.731	536.16667
2656.028	540.5
2658.324	546.83333
2660.619	538.83333
2662.912	545.16667
2665.204	531.5
2667.494	547.5
2669.782	548.16667
2672.07	553.16667
2674.355	551.5
2676.639	538.83333
2678.922	528.16667
2681.203	548.5
2683.483	534.83333
2685.761	536.16667
2688.038	543.83333
2690.313	565.16667
2692.587	540.16667
2694.859	537.16667
2697.13	554.16667
2699.399	565.16667
2701.667	570.16667
2703.933	564.5
2706.198	560.16667
2708.461	569.16667
2710.723	571.83333
2712.984	577.5
2715.243	571.5
2717.5	565.83333
2719.757	583.5
2722.011	578.16667
2724.264	597.16667
2726.516	605.16667
2728.766	586.83333
2731.015	602.16667
2733.262	597.16667
2735.508	603.16667
2737.753	599.5
2739.996	582.16667
2742.237	576.83333
2744.477	590.5
2746.716	589.83333
2748.953	576.5
2751.189	590.16667
2753.423	579.5
2755.656	568.5
2757.887	574.16667
2760.117	577.5
2762.346	567.16667
2764.573	564.5
2766.798	567.5
2769.022	569.16667
2771.245	580.83333
2773.467	579.5
2775.686	584.5
2777.905	591.16667
2780.122	584.5
2782.337	594.83333
2784.552	594.83333
2786.764	593.83333
2788.976	600.16667
2791.186	597.5
2793.394	612.5
2795.601	612.16667
2797.807	619.83333
2800.011	632.5
2802.214	624.83333
2804.415	623.83333
2806.615	620.83333
2808.814	630.83333
2811.011	637.5
2813.206	634.5
2815.401	651.5
2817.594	655.16667
2819.785	664.16667
2821.975	654.83333
2824.164	664.16667
2826.351	676.5
2828.537	698.83333
2830.722	686.83333
2832.905	701.5
2835.086	723.5
2837.267	745.5
2839.445	754.83333
2841.623	782.5
2843.799	789.83333
2845.974	832.16667
2848.147	850.83333
2850.319	877.5
2852.489	912.16667
2854.659	914.16667
2856.826	933.16667
2858.993	958.83333
2861.158	937.5
2863.321	937.5
2865.483	960.5
2867.644	947.83333
2869.804	948.5
2871.962	951.83333
2874.118	948.5
2876.274	956.83333
2878.428	946.5
2880.58	950.83333
2882.731	938.83333
2884.881	940.16667
2887.03	952.5
2889.177	949.16667
2891.322	953.16667
2893.467	962.83333
2895.61	974.5
2897.751	975.5
2899.892	973.16667
2902.03	986.16667
2904.168	978.5
2906.304	995.16667
2908.439	1019.5
2910.572	980.83333
2912.704	1004.83333
2914.835	1013.16667
2916.965	990.5
2919.093	1025.5
2921.219	998.16667
2923.345	1026.16667
2925.469	995.83333
2927.591	985.83333
2929.712	974.5
2931.832	967.83333
2933.951	941.16667
2936.068	926.16667
2938.184	908.83333
2940.299	908.83333
2942.412	895.83333
2944.524	856.16667
2946.634	848.5
2948.744	807.16667
2950.851	838.5
2952.958	801.83333
2955.063	799.16667
2957.167	780.16667
2959.269	756.5
2961.371	779.83333
2963.471	745.16667
2965.569	759.16667
2967.666	729.83333
2969.762	706.16667
2971.857	723.5
2973.95	689.5
2976.042	695.83333
2978.133	677.83333
2980.222	671.16667
2982.31	646.16667
2984.396	638.5
2986.482	646.16667
2988.566	632.16667
2990.648	623.83333
2992.73	629.16667
2994.81	620.16667
2996.889	620.5
2998.966	627.16667
3001.042	631.83333
3003.117	618.83333
3005.191	620.83333
3007.263	606.16667
3009.334	607.16667
3011.403	615.5
3013.472	605.16667
3015.539	606.16667
3017.604	603.5
3019.669	563.83333
3021.732	578.83333
3023.794	573.5
3025.854	554.83333
3027.914	565.16667
3029.971	575.83333
3032.028	557.83333
3034.083	561.83333
3036.137	552.16667
3038.19	543.16667
3040.242	529.16667
3042.292	522.16667
3044.341	516.83333
3046.388	534.16667
3048.435	508.16667
3050.48	522.83333
3052.524	517.16667
3054.566	491.5
3056.607	507.5
3058.647	491.83333
3060.686	471.16667
3062.723	464.5
3064.759	450.16667
3066.794	0.5
3068.828	2.83333
3070.86	2.83333
