-0.839	448.125
3.438	532.45833
7.711	168.125
11.981	64.125
16.247	45.79167
20.509	52.125
24.768	48.79167
29.024	58.79167
33.276	47.125
37.524	49.125
41.769	47.125
46.01	35.125
50.247	45.79167
54.481	58.45833
58.712	64.125
62.939	48.79167
67.162	70.45833
71.382	56.79167
75.599	49.45833
79.812	65.45833
84.021	80.79167
88.227	59.125
92.429	59.125
96.628	54.45833
100.823	72.45833
105.015	80.125
109.204	67.125
113.388	75.79167
117.57	81.79167
121.748	82.45833
125.922	84.45833
130.093	99.45833
134.261	98.79167
138.425	99.79167
142.585	135.79167
146.742	129.45833
150.896	153.125
155.046	197.125
159.193	308.79167
163.336	508.125
167.476	943.79167
171.613	1725.125
175.746	2876.79167
179.875	4225.45833
184.002	5590.125
188.124	6496.45833
192.244	6864.45833
196.36	6846.45833
200.472	6716.125
204.581	6623.79167
208.687	6496.79167
212.79	6450.45833
216.889	6504.79167
220.984	6545.79167
225.077	6614.45833
229.165	6612.45833
233.251	6701.125
237.333	6695.125
241.412	6668.125
245.487	6642.45833
249.559	6604.79167
253.628	6564.125
257.694	6505.125
261.756	6448.125
265.814	6281.125
269.87	6087.125
273.922	5828.125
277.97	5685.125
282.016	5535.45833
286.058	5549.125
290.097	5580.125
294.132	5604.125
298.164	5529.45833
302.193	5316.79167
306.219	4979.125
310.241	4534.79167
314.26	4216.125
318.276	3985.45833
322.288	3769.45833
326.297	3619.45833
330.303	3483.125
334.305	3404.45833
338.305	3376.125
342.301	3336.79167
346.294	3325.125
350.283	3245.45833
354.269	3266.125
358.252	3221.45833
362.232	3221.79167
366.209	3194.79167
370.182	3175.79167
374.152	3152.79167
378.119	3163.45833
382.083	3136.45833
386.043	3159.79167
390	3138.125
393.954	3168.79167
397.905	3162.79167
401.852	3173.125
405.797	3124.125
409.738	3175.45833
413.676	3233.45833
417.61	3284.45833
421.542	3134.79167
425.47	3034.79167
429.396	3009.79167
433.318	2992.45833
437.236	2979.125
441.152	3001.79167
445.065	2934.79167
448.974	2952.45833
452.88	2930.45833
456.783	2890.45833
460.683	2891.45833
464.58	2875.45833
468.473	2880.45833
472.364	2896.125
476.251	2908.45833
480.135	2937.125
484.016	2953.45833
487.894	2958.79167
491.769	2972.45833
495.641	2995.45833
499.509	2974.45833
503.375	2980.125
507.237	2980.45833
511.096	2970.45833
514.952	3009.79167
518.805	3043.45833
522.655	3049.45833
526.502	3014.45833
530.346	2979.45833
534.187	2972.45833
538.024	3005.125
541.859	3018.125
545.69	3026.45833
549.519	3004.125
553.344	3011.125
557.166	2962.45833
560.985	2905.45833
564.802	2862.79167
568.615	2825.45833
572.425	2772.79167
576.232	2776.45833
580.036	2746.45833
583.836	2766.45833
587.634	2787.125
591.429	2780.125
595.221	2841.125
599.01	2875.79167
602.796	2913.45833
606.578	2942.125
610.358	2934.45833
614.135	2896.79167
617.909	2875.45833
621.679	2852.125
625.447	2839.125
629.212	2831.45833
632.973	2852.45833
636.732	2833.79167
640.488	2833.79167
644.241	2822.125
647.991	2806.125
651.737	2801.79167
655.481	2781.79167
659.222	2785.79167
662.96	2777.45833
666.695	2821.45833
670.427	2812.125
674.156	2832.79167
677.882	2822.125
681.605	2792.45833
685.325	2789.45833
689.043	2790.45833
692.757	2735.79167
696.468	2748.125
700.177	2760.45833
703.882	2712.45833
707.585	2722.79167
711.284	2718.125
714.981	2711.79167
718.675	2721.125
722.366	2721.125
726.054	2696.125
729.739	2716.125
733.421	2708.79167
737.1	2698.125
740.777	2726.125
744.45	2727.45833
748.121	2762.125
751.789	2819.79167
755.453	2802.45833
759.115	2825.45833
762.774	2859.125
766.431	2857.79167
770.084	2895.45833
773.734	2929.45833
777.382	2978.125
781.027	2995.45833
784.669	3023.125
788.308	3027.79167
791.944	3040.45833
795.577	2991.79167
799.208	3047.45833
802.835	3041.45833
806.46	3067.125
810.082	3074.79167
813.701	3099.125
817.317	3105.125
820.931	3097.125
824.542	3104.125
828.149	3073.79167
831.754	3052.79167
835.357	3080.45833
838.956	3069.79167
842.553	3085.125
846.146	3094.79167
849.737	3041.125
853.326	3039.125
856.911	3028.125
860.493	3054.125
864.073	3103.79167
867.65	3186.45833
871.225	3233.45833
874.796	3169.125
878.365	3139.45833
881.931	3140.79167
885.494	3184.45833
889.054	3167.45833
892.612	3189.79167
896.166	3156.45833
899.719	3136.125
903.268	3115.45833
906.814	3074.125
910.358	3037.125
913.899	3009.79167
917.438	3007.125
920.973	3006.79167
924.506	3046.45833
928.036	3101.79167
931.564	3129.45833
935.088	3174.79167
938.61	3183.79167
942.129	3219.79167
945.646	3256.45833
949.16	3328.79167
952.671	3371.45833
956.179	3414.79167
959.685	3374.79167
963.188	3364.79167
966.688	3300.79167
970.185	3240.79167
973.68	3159.125
977.173	3110.125
980.662	3069.45833
984.149	3057.79167
987.633	3046.79167
991.114	3089.45833
994.593	3153.125
998.069	3239.45833
1001.542	3327.125
1005.013	3290.45833
1008.481	3102.45833
1011.947	3036.125
1015.409	3015.125
1018.869	3041.45833
1022.327	3024.125
1025.782	3001.45833
1029.234	2991.45833
1032.683	2948.79167
1036.13	2871.45833
1039.574	2744.125
1043.016	2685.125
1046.455	2620.45833
1049.891	2611.125
1053.325	2613.79167
1056.756	2634.45833
1060.184	2636.45833
1063.61	2663.125
1067.033	2659.125
1070.454	2658.45833
1073.872	2698.45833
1077.287	2704.79167
1080.7	2703.79167
1084.11	2669.45833
1087.517	2655.125
1090.922	2609.45833
1094.325	2596.125
1097.724	2570.79167
1101.122	2607.79167
1104.516	2589.45833
1107.908	2580.125
1111.298	2619.125
1114.684	2660.79167
1118.069	2673.79167
1121.45	2714.45833
1124.83	2717.125
1128.206	2739.125
1131.58	2776.79167
1134.951	2832.79167
1138.32	2914.45833
1141.687	3025.45833
1145.05	3078.45833
1148.412	3112.79167
1151.77	3107.45833
1155.126	3104.125
1158.48	3095.45833
1161.831	3101.125
1165.18	3106.125
1168.525	3177.79167
1171.869	3208.125
1175.21	3195.125
1178.548	3223.79167
1181.884	3282.125
1185.217	3306.79167
1188.548	3400.79167
1191.877	3451.79167
1195.202	3535.45833
1198.526	3636.45833
1201.846	3651.79167
1205.165	3630.125
1208.48	3594.45833
1211.794	3568.79167
1215.104	3548.79167
1218.413	3556.125
1221.719	3548.45833
1225.022	3478.79167
1228.323	3429.79167
1231.621	3402.79167
1234.917	3392.45833
1238.21	3394.45833
1241.501	3367.45833
1244.79	3376.45833
1248.076	3353.125
1251.359	3403.45833
1254.64	3469.79167
1257.919	3488.125
1261.195	3552.79167
1264.468	3622.45833
1267.74	3661.45833
1271.008	3659.79167
1274.275	3655.79167
1277.538	3636.45833
1280.8	3619.125
1284.059	3611.45833
1287.315	3667.45833
1290.569	3659.45833
1293.821	3659.79167
1297.07	3688.125
1300.317	3717.125
1303.562	3705.79167
1306.803	3663.45833
1310.043	3665.125
1313.28	3618.79167
1316.515	3617.45833
1319.747	3617.125
1322.977	3542.45833
1326.204	3466.125
1329.429	3423.45833
1332.652	3405.125
1335.872	3401.45833
1339.09	3358.79167
1342.306	3320.125
1345.519	3289.79167
1348.729	3271.79167
1351.938	3231.125
1355.144	3178.45833
1358.347	3144.125
1361.548	3114.79167
1364.747	3100.45833
1367.944	3083.79167
1371.138	3079.125
1374.329	3085.79167
1377.518	3112.125
1380.705	3156.125
1383.89	3130.125
1387.072	3031.79167
1390.252	2954.125
1393.429	2844.45833
1396.605	2741.79167
1399.777	2658.45833
1402.948	2636.45833
1406.116	2634.79167
1409.282	2628.45833
1412.445	2618.45833
1415.606	2643.79167
1418.765	2685.45833
1421.921	2722.45833
1425.075	2777.79167
1428.227	2882.125
1431.376	2978.79167
1434.524	3105.45833
1437.668	3215.125
1440.811	3250.45833
1443.951	3256.125
1447.089	3270.125
1450.224	3269.79167
1453.357	3250.125
1456.488	3242.79167
1459.617	3179.125
1462.743	3145.79167
1465.867	3065.125
1468.989	3038.45833
1472.108	2994.125
1475.225	2925.125
1478.34	2895.125
1481.453	2892.45833
1484.563	2895.45833
1487.671	2949.45833
1490.776	2990.125
1493.88	3024.125
1496.981	3074.45833
1500.08	3148.125
1503.176	3178.125
1506.271	3214.45833
1509.363	3264.79167
1512.452	3258.125
1515.54	3291.79167
1518.625	3349.125
1521.708	3425.125
1524.789	3542.125
1527.867	3694.45833
1530.944	3856.79167
1534.018	4019.45833
1537.089	4156.79167
1540.159	4220.45833
1543.226	4212.79167
1546.291	4125.79167
1549.354	4058.79167
1552.415	3973.125
1555.473	3843.79167
1558.529	3786.45833
1561.583	3739.45833
1564.634	3705.79167
1567.684	3722.45833
1570.731	3735.125
1573.776	3793.125
1576.819	3836.79167
1579.859	3876.79167
1582.898	3929.79167
1585.934	3966.79167
1588.968	3987.45833
1591.999	3960.45833
1595.029	3991.125
1598.056	4020.45833
1601.081	4031.45833
1604.104	4014.45833
1607.125	3979.45833
1610.144	3890.45833
1613.16	3810.79167
1616.174	3729.45833
1619.186	3647.79167
1622.196	3559.45833
1625.203	3464.79167
1628.209	3408.79167
1631.212	3337.79167
1634.213	3310.45833
1637.212	3317.125
1640.209	3213.45833
1643.203	3132.45833
1646.196	3027.45833
1649.186	2924.125
1652.174	2808.125
1655.16	2694.79167
1658.144	2601.79167
1661.125	2496.45833
1664.105	2395.125
1667.082	2273.45833
1670.057	2187.125
1673.03	2053.79167
1676.001	1924.45833
1678.97	1820.125
1681.937	1716.125
1684.901	1616.125
1687.863	1565.125
1690.824	1485.45833
1693.782	1460.45833
1696.738	1399.79167
1699.692	1375.125
1702.643	1352.79167
1705.593	1329.79167
1708.54	1318.79167
1711.486	1306.125
1714.429	1261.45833
1717.37	1250.125
1720.309	1230.79167
1723.246	1234.79167
1726.181	1226.125
1729.113	1220.45833
1732.044	1196.79167
1734.972	1180.45833
1737.899	1188.45833
1740.823	1177.125
1743.745	1185.79167
1746.665	1132.79167
1749.583	1119.125
1752.499	1097.45833
1755.413	1093.125
1758.325	1059.125
1761.235	1060.125
1764.142	1037.45833
1767.048	1029.125
1769.951	1019.125
1772.852	1022.45833
1775.752	1045.79167
1778.649	1085.79167
1781.544	1037.45833
1784.437	981.125
1787.328	990.79167
1790.217	965.45833
1793.104	947.79167
1795.989	956.45833
1798.872	948.79167
1801.753	962.125
1804.631	957.45833
1807.508	946.45833
1810.383	951.79167
1813.255	946.125
1816.126	939.125
1818.994	941.79167
1821.861	926.79167
1824.725	919.79167
1827.587	933.79167
1830.448	896.125
1833.306	892.125
1836.162	894.45833
1839.017	896.125
1841.869	890.79167
1844.719	880.45833
1847.567	884.125
1850.414	853.125
1853.258	858.79167
1856.1	890.45833
1858.94	873.79167
1861.778	866.79167
1864.614	868.45833
1867.448	862.45833
1870.28	848.79167
1873.111	874.125
1875.939	866.125
1878.765	869.45833
1881.589	844.45833
1884.411	856.125
1887.231	847.125
1890.049	849.45833
1892.865	855.125
1895.68	840.45833
1898.492	863.125
1901.302	835.45833
1904.11	841.45833
1906.916	819.125
1909.721	807.45833
1912.523	815.79167
1915.323	807.79167
1918.122	816.125
1920.918	818.45833
1923.712	797.79167
1926.505	788.79167
1929.295	789.79167
1932.084	812.45833
1934.87	791.125
1937.655	801.45833
1940.438	784.125
1943.218	781.79167
1945.997	802.125
1948.774	810.125
1951.549	801.79167
1954.322	784.45833
1957.093	782.45833
1959.862	768.45833
1962.629	775.125
1965.394	768.45833
1968.157	749.45833
1970.918	770.125
1973.678	745.45833
1976.435	775.45833
1979.19	752.45833
1981.944	735.45833
1984.696	741.125
1987.445	726.125
1990.193	740.79167
1992.939	753.125
1995.683	749.79167
1998.425	726.79167
2001.165	765.125
2003.903	722.79167
2006.639	724.125
2009.374	742.79167
2012.106	733.45833
2014.837	715.79167
2017.566	738.45833
2020.292	744.45833
2023.017	728.45833
2025.74	723.125
2028.461	707.45833
2031.18	710.79167
2033.898	709.125
2036.613	720.125
2039.327	716.45833
2042.038	695.45833
2044.748	703.79167
2047.456	700.79167
2050.162	689.79167
2052.866	697.79167
2055.568	702.45833
2058.268	693.79167
2060.967	691.125
2063.663	680.79167
2066.358	687.45833
2069.051	680.79167
2071.742	674.45833
2074.431	695.125
2077.118	681.45833
2079.804	673.125
2082.487	679.125
2085.169	690.79167
2087.849	701.125
2090.527	671.125
2093.203	684.79167
2095.877	692.125
2098.55	687.125
2101.22	693.125
2103.889	700.45833
2106.556	695.125
2109.221	712.45833
2111.884	708.79167
2114.546	758.79167
2117.205	783.125
2119.863	841.125
2122.519	881.79167
2125.173	934.45833
2127.825	993.79167
2130.475	992.79167
2133.124	969.45833
2135.771	950.125
2138.416	919.79167
2141.059	858.45833
2143.7	811.45833
2146.339	772.125
2148.977	734.45833
2151.613	726.79167
2154.247	698.79167
2156.879	691.125
2159.51	669.45833
2162.138	674.45833
2164.765	669.45833
2167.39	648.79167
2170.013	667.79167
2172.634	653.125
2175.254	636.45833
2177.872	671.79167
2180.488	632.45833
2183.102	633.125
2185.714	629.45833
2188.325	608.45833
2190.934	618.125
2193.541	620.79167
2196.146	607.125
2198.75	605.125
2201.351	593.45833
2203.951	586.79167
2206.549	605.45833
2209.146	596.45833
2211.74	588.125
2214.333	587.125
2216.924	570.125
2219.514	579.125
2222.101	580.45833
2224.687	587.45833
2227.271	577.125
2229.853	562.79167
2232.433	550.45833
2235.012	581.125
2237.589	567.79167
2240.164	578.79167
2242.738	556.79167
2245.309	552.79167
2247.879	565.79167
2250.448	562.45833
2253.014	534.45833
2255.579	533.79167
2258.142	535.45833
2260.703	525.125
2263.262	537.79167
2265.82	520.125
2268.376	524.45833
2270.93	515.125
2273.483	514.79167
2276.033	515.45833
2278.583	511.79167
2281.13	499.79167
2283.675	495.125
2286.219	504.125
2288.761	515.125
2291.302	506.125
2293.841	513.79167
2296.377	481.79167
2298.913	501.125
2301.446	511.125
2303.978	487.45833
2306.508	495.79167
2309.037	490.45833
2311.563	494.125
2314.088	491.79167
2316.612	476.45833
2319.133	480.79167
2321.653	482.79167
2324.171	475.45833
2326.688	490.125
2329.202	476.125
2331.715	479.45833
2334.227	470.45833
2336.736	473.125
2339.244	470.79167
2341.751	453.45833
2344.255	473.79167
2346.758	468.125
2349.259	455.125
2351.759	456.125
2354.257	451.45833
2356.753	450.125
2359.247	460.79167
2361.74	458.79167
2364.231	457.79167
2366.721	456.79167
2369.209	450.125
2371.695	452.45833
2374.179	445.45833
2376.662	439.125
2379.143	456.79167
2381.622	445.79167
2384.1	464.125
2386.576	450.79167
2389.051	454.125
2391.524	460.45833
2393.995	450.79167
2396.464	445.125
2398.932	440.45833
2401.398	431.45833
2403.863	439.45833
2406.325	440.79167
2408.787	439.45833
2411.246	432.45833
2413.704	428.79167
2416.16	430.79167
2418.615	433.125
2421.068	441.125
2423.519	431.45833
2425.969	425.45833
2428.417	429.125
2430.863	446.45833
2433.308	434.79167
2435.751	433.79167
2438.193	428.45833
2440.633	426.125
2443.071	430.79167
2445.508	417.79167
2447.943	416.45833
2450.376	417.79167
2452.808	422.45833
2455.238	413.79167
2457.667	453.45833
2460.093	412.79167
2462.519	406.45833
2464.942	409.79167
2467.365	413.45833
2469.785	418.125
2472.204	416.45833
2474.621	408.125
2477.037	415.45833
2479.451	395.45833
2481.863	396.45833
2484.274	404.79167
2486.683	410.79167
2489.091	411.45833
2491.497	413.79167
2493.901	414.45833
2496.304	415.125
2498.705	415.79167
2501.105	400.45833
2503.503	436.45833
2505.899	388.45833
2508.294	417.125
2510.687	404.125
2513.079	395.45833
2515.469	387.125
2517.858	402.125
2520.245	409.125
2522.63	391.79167
2525.014	391.79167
2527.396	379.125
2529.776	382.79167
2532.156	396.45833
2534.533	386.125
2536.909	381.45833
2539.283	372.125
2541.656	384.125
2544.027	396.79167
2546.397	381.125
2548.765	383.79167
2551.131	380.125
2553.496	380.45833
2555.86	381.79167
2558.221	390.79167
2560.582	380.79167
2562.94	381.45833
2565.298	375.45833
2567.653	397.79167
2570.007	370.45833
2572.36	392.45833
2574.711	379.125
2577.06	397.45833
2579.408	385.79167
2581.754	382.125
2584.099	387.45833
2586.442	378.125
2588.784	383.79167
2591.124	382.125
2593.463	379.45833
2595.8	381.45833
2598.135	362.125
2600.469	375.45833
2602.802	380.79167
2605.133	386.79167
2607.462	369.79167
2609.79	363.45833
2612.116	391.45833
2614.441	374.45833
2616.764	375.45833
2619.086	369.45833
2621.406	366.125
2623.725	380.79167
2626.042	370.79167
2628.358	365.79167
2630.672	370.125
2632.985	381.125
2635.296	374.45833
2637.606	371.125
2639.914	365.79167
2642.22	371.125
2644.525	371.79167
2646.829	381.45833
2649.131	383.79167
2651.432	380.45833
2653.731	374.125
2656.028	382.45833
2658.324	383.45833
2660.619	372.79167
2662.912	384.45833
2665.204	359.79167
2667.494	389.45833
2669.782	372.125
2672.07	374.125
2674.355	388.79167
2676.639	386.79167
2678.922	372.125
2681.203	381.79167
2683.483	372.79167
2685.761	377.79167
2688.038	380.125
2690.313	392.45833
2692.587	370.45833
2694.859	366.79167
2697.13	386.45833
2699.399	394.125
2701.667	394.45833
2703.933	385.45833
2706.198	385.79167
2708.461	401.125
2710.723	398.45833
2712.984	404.125
2715.243	403.45833
2717.5	387.79167
2719.757	400.79167
2722.011	396.79167
2724.264	411.79167
2726.516	423.79167
2728.766	409.79167
2731.015	406.79167
2733.262	414.79167
2735.508	407.125
2737.753	402.79167
2739.996	390.45833
2742.237	389.45833
2744.477	407.79167
2746.716	398.79167
2748.953	387.125
2751.189	397.79167
2753.423	391.125
2755.656	380.79167
2757.887	384.79167
2760.117	383.125
2762.346	371.125
2764.573	367.79167
2766.798	365.79167
2769.022	373.125
2771.245	384.79167
2773.467	380.79167
2775.686	389.45833
2777.905	394.45833
2780.122	388.125
2782.337	399.79167
2784.552	392.79167
2786.764	393.45833
2788.976	392.79167
2791.186	395.79167
2793.394	396.79167
2795.601	404.45833
2797.807	419.45833
2800.011	422.79167
2802.214	418.79167
2804.415	420.79167
2806.615	428.45833
2808.814	415.45833
2811.011	438.45833
2813.206	432.125
2815.401	451.125
2817.594	455.79167
2819.785	455.125
2821.975	451.79167
2824.164	459.79167
2826.351	474.45833
2828.537	492.125
2830.722	493.125
2832.905	491.45833
2835.086	518.45833
2837.267	547.45833
2839.445	562.125
2841.623	584.45833
2843.799	604.45833
2845.974	640.79167
2848.147	674.79167
2850.319	681.125
2852.489	712.45833
2854.659	720.79167
2856.826	724.125
2858.993	761.125
2861.158	745.79167
2863.321	745.45833
2865.483	760.79167
2867.644	761.45833
2869.804	761.79167
2871.962	757.125
2874.118	778.125
2876.274	792.125
2878.428	785.79167
2880.58	769.45833
2882.731	762.125
2884.881	741.45833
2887.03	760.45833
2889.177	751.125
2891.322	775.79167
2893.467	756.125
2895.61	759.125
2897.751	794.125
2899.892	775.79167
2902.03	790.79167
2904.168	795.125
2906.304	793.79167
2908.439	797.79167
2910.572	794.125
2912.704	800.79167
2914.835	801.79167
2916.965	792.45833
2919.093	816.125
2921.219	791.79167
2923.345	813.45833
2925.469	785.79167
2927.591	789.45833
2929.712	765.125
2931.832	755.79167
2933.951	752.45833
2936.068	739.125
2938.184	711.45833
2940.299	693.79167
2942.412	675.45833
2944.524	643.79167
2946.634	633.45833
2948.744	594.125
2950.851	615.45833
2952.958	575.45833
2955.063	567.79167
2957.167	556.79167
2959.269	533.79167
2961.371	561.45833
2963.471	517.125
2965.569	522.45833
2967.666	490.45833
2969.762	480.45833
2971.857	481.79167
2973.95	466.45833
2976.042	452.125
2978.133	449.45833
2980.222	432.79167
2982.31	422.79167
2984.396	399.45833
2986.482	409.79167
2988.566	399.79167
2990.648	402.45833
2992.73	399.125
2994.81	380.79167
2996.889	388.45833
2998.966	384.125
3001.042	392.125
3003.117	389.45833
3005.191	385.125
3007.263	381.125
3009.334	364.125
3011.403	371.45833
3013.472	356.45833
3015.539	363.45833
3017.604	365.79167
3019.669	337.79167
3021.732	337.79167
3023.794	343.125
3025.854	337.45833
3027.914	331.125
3029.971	339.79167
3032.028	331.45833
3034.083	337.79167
3036.137	327.79167
3038.19	325.79167
3040.242	310.125
3042.292	299.79167
3044.341	308.125
3046.388	317.125
3048.435	302.45833
3050.48	309.45833
3052.524	303.79167
3054.566	292.79167
3056.607	300.79167
3058.647	292.79167
3060.686	284.125
3062.723	273.45833
3064.759	257.45833
3066.794	1.79167
3068.828	3.45833
3070.86	2.45833
