-0.839	471.95833
3.438	567.625
7.711	164.625
11.981	67.625
16.247	45.29167
20.509	54.625
24.768	48.95833
29.024	57.625
33.276	50.95833
37.524	51.29167
41.769	50.625
46.01	34.29167
50.247	49.95833
54.481	67.29167
58.712	65.29167
62.939	54.95833
67.162	70.625
71.382	61.29167
75.599	52.95833
79.812	64.625
84.021	84.625
88.227	65.95833
92.429	63.29167
96.628	59.95833
100.823	78.95833
105.015	78.625
109.204	69.625
113.388	80.625
117.57	81.95833
121.748	94.625
125.922	84.95833
130.093	106.625
134.261	109.625
138.425	108.95833
142.585	146.29167
146.742	143.625
150.896	174.625
155.046	218.625
159.193	329.29167
163.336	568.95833
167.476	1022.625
171.613	1885.95833
175.746	3160.29167
179.875	4718.625
184.002	6232.29167
188.124	7314.625
192.244	7763.625
196.36	7812.625
200.472	7762.625
204.581	7658.95833
208.687	7564.95833
212.79	7576.95833
216.889	7669.95833
220.984	7779.29167
225.077	7926.29167
229.165	7983.29167
233.251	8121.625
237.333	8117.29167
241.412	8096.29167
245.487	8019.29167
249.559	7957.29167
253.628	7924.625
257.694	7836.29167
261.756	7796.29167
265.814	7595.95833
269.87	7369.29167
273.922	7083.625
277.97	6880.29167
282.016	6771.29167
286.058	6710.625
290.097	6735.29167
294.132	6758.95833
298.164	6652.95833
302.193	6378.29167
306.219	5975.625
310.241	5573.625
314.26	5200.625
318.276	4914.625
322.288	4690.95833
326.297	4531.29167
330.303	4413.625
334.305	4348.95833
338.305	4276.625
342.301	4240.95833
346.294	4250.29167
350.283	4223.625
354.269	4172.95833
358.252	4166.95833
362.232	4137.95833
366.209	4141.95833
370.182	4101.95833
374.152	4084.29167
378.119	4113.95833
382.083	4095.95833
386.043	4134.95833
390	4087.95833
393.954	4082.625
397.905	4087.29167
401.852	4073.625
405.797	4049.95833
409.738	4032.29167
413.676	4068.95833
417.61	4074.625
421.542	4025.29167
425.47	3996.95833
429.396	3964.95833
433.318	3953.625
437.236	3947.95833
441.152	3973.29167
445.065	3889.95833
448.974	3884.95833
452.88	3857.95833
456.783	3845.95833
460.683	3833.29167
464.58	3864.95833
468.473	3863.625
472.364	3888.29167
476.251	3873.625
480.135	3922.95833
484.016	3944.29167
487.894	3975.625
491.769	3987.29167
495.641	3941.29167
499.509	3989.625
503.375	3995.29167
507.237	3969.29167
511.096	3943.625
514.952	3952.29167
518.805	3951.29167
522.655	3949.625
526.502	3898.29167
530.346	3928.95833
534.187	3943.625
538.024	3930.29167
541.859	4012.29167
545.69	4001.95833
549.519	3980.95833
553.344	3962.29167
557.166	3922.625
560.985	3878.29167
564.802	3822.625
568.615	3755.95833
572.425	3726.29167
576.232	3691.95833
580.036	3678.95833
583.836	3683.29167
587.634	3729.625
591.429	3739.29167
595.221	3806.95833
599.01	3837.95833
602.796	3857.625
606.578	3841.625
610.358	3870.95833
614.135	3865.29167
617.909	3843.95833
621.679	3823.625
625.447	3777.625
629.212	3770.29167
632.973	3755.29167
636.732	3780.29167
640.488	3771.95833
644.241	3727.95833
647.991	3750.29167
651.737	3735.95833
655.481	3718.625
659.222	3719.29167
662.96	3725.29167
666.695	3742.625
670.427	3734.95833
674.156	3773.95833
677.882	3741.95833
681.605	3716.29167
685.325	3692.625
689.043	3712.95833
692.757	3669.29167
696.468	3668.625
700.177	3674.95833
703.882	3635.95833
707.585	3636.29167
711.284	3636.29167
714.981	3631.625
718.675	3603.625
722.366	3619.95833
726.054	3588.625
729.739	3607.625
733.421	3616.95833
737.1	3629.29167
740.777	3634.95833
744.45	3654.29167
748.121	3681.29167
751.789	3722.625
755.453	3734.625
759.115	3730.29167
762.774	3768.95833
766.431	3771.95833
770.084	3815.625
773.734	3853.95833
777.382	3896.29167
781.027	3928.625
784.669	3956.29167
788.308	3939.95833
791.944	3963.625
795.577	3946.95833
799.208	3962.29167
802.835	4003.29167
806.46	4031.625
810.082	4062.625
813.701	4082.95833
817.317	4082.29167
820.931	4070.95833
824.542	4066.625
828.149	4015.29167
831.754	3993.95833
835.357	3981.95833
838.956	3973.29167
842.553	3977.95833
846.146	3951.29167
849.737	3929.625
853.326	3915.95833
856.911	3927.625
860.493	3963.95833
864.073	3977.625
867.65	4019.29167
871.225	4076.95833
874.796	4061.95833
878.365	4047.95833
881.931	4033.29167
885.494	4113.29167
889.054	4090.95833
892.612	4100.29167
896.166	4037.95833
899.719	4007.29167
903.268	3960.625
906.814	3957.29167
910.358	3935.625
913.899	3872.29167
917.438	3883.95833
920.973	3896.625
924.506	3893.625
928.036	3968.29167
931.564	4016.625
935.088	4064.625
938.61	4070.29167
942.129	4090.95833
945.646	4159.95833
949.16	4248.625
952.671	4261.29167
956.179	4272.95833
959.685	4237.95833
963.188	4251.625
966.688	4242.29167
970.185	4126.29167
973.68	4026.95833
977.173	3973.29167
980.662	3948.625
984.149	3971.29167
987.633	3942.95833
991.114	4027.29167
994.593	4096.29167
998.069	4191.29167
1001.542	4319.625
1005.013	4241.29167
1008.481	4008.95833
1011.947	3925.625
1015.409	3906.625
1018.869	3903.29167
1022.327	3879.625
1025.782	3861.625
1029.234	3875.625
1032.683	3808.95833
1036.13	3722.95833
1039.574	3572.625
1043.016	3467.625
1046.455	3435.29167
1049.891	3391.29167
1053.325	3408.29167
1056.756	3405.29167
1060.184	3414.29167
1063.61	3453.29167
1067.033	3454.29167
1070.454	3461.625
1073.872	3518.95833
1077.287	3482.95833
1080.7	3460.625
1084.11	3450.29167
1087.517	3440.625
1090.922	3355.29167
1094.325	3336.625
1097.724	3322.95833
1101.122	3320.29167
1104.516	3311.29167
1107.908	3306.29167
1111.298	3386.625
1114.684	3398.625
1118.069	3440.29167
1121.45	3456.29167
1124.83	3442.95833
1128.206	3484.95833
1131.58	3515.95833
1134.951	3567.95833
1138.32	3685.625
1141.687	3795.95833
1145.05	3887.95833
1148.412	3870.625
1151.77	3878.29167
1155.126	3879.625
1158.48	3865.95833
1161.831	3873.95833
1165.18	3907.95833
1168.525	3951.95833
1171.869	4001.95833
1175.21	4002.95833
1178.548	4034.95833
1181.884	4084.29167
1185.217	4119.95833
1188.548	4204.95833
1191.877	4233.95833
1195.202	4376.95833
1198.526	4438.29167
1201.846	4480.625
1205.165	4453.625
1208.48	4428.29167
1211.794	4397.95833
1215.104	4410.95833
1218.413	4388.29167
1221.719	4405.29167
1225.022	4344.95833
1228.323	4295.95833
1231.621	4244.95833
1234.917	4214.95833
1238.21	4264.29167
1241.501	4220.95833
1244.79	4235.95833
1248.076	4221.29167
1251.359	4277.95833
1254.64	4373.29167
1257.919	4367.625
1261.195	4450.29167
1264.468	4542.95833
1267.74	4571.95833
1271.008	4590.29167
1274.275	4550.29167
1277.538	4495.95833
1280.8	4503.29167
1284.059	4480.29167
1287.315	4552.625
1290.569	4549.625
1293.821	4554.625
1297.07	4590.625
1300.317	4603.29167
1303.562	4590.95833
1306.803	4497.95833
1310.043	4508.95833
1313.28	4492.29167
1316.515	4424.29167
1319.747	4417.29167
1322.977	4367.95833
1326.204	4292.29167
1329.429	4256.625
1332.652	4241.625
1335.872	4206.625
1339.09	4199.625
1342.306	4174.625
1345.519	4156.625
1348.729	4122.29167
1351.938	4108.29167
1355.144	4041.625
1358.347	3957.29167
1361.548	3967.625
1364.747	3946.29167
1367.944	3897.95833
1371.138	3900.29167
1374.329	3910.95833
1377.518	3979.29167
1380.705	3995.625
1383.89	3915.29167
1387.072	3832.95833
1390.252	3730.95833
1393.429	3584.29167
1396.605	3465.29167
1399.777	3360.625
1402.948	3347.29167
1406.116	3305.625
1409.282	3290.95833
1412.445	3272.625
1415.606	3313.95833
1418.765	3359.95833
1421.921	3433.95833
1425.075	3493.625
1428.227	3597.625
1431.376	3706.29167
1434.524	3874.29167
1437.668	3968.95833
1440.811	4015.625
1443.951	4049.95833
1447.089	4038.625
1450.224	4058.625
1453.357	4010.29167
1456.488	3989.95833
1459.617	3955.95833
1462.743	3902.95833
1465.867	3812.625
1468.989	3725.29167
1472.108	3676.29167
1475.225	3619.29167
1478.34	3577.625
1481.453	3590.29167
1484.563	3607.29167
1487.671	3604.29167
1490.776	3649.29167
1493.88	3704.625
1496.981	3762.625
1500.08	3809.29167
1503.176	3870.29167
1506.271	3905.95833
1509.363	3963.29167
1512.452	3976.625
1515.54	4044.625
1518.625	4104.625
1521.708	4193.29167
1524.789	4331.625
1527.867	4560.29167
1530.944	4754.29167
1534.018	4985.625
1537.089	5151.95833
1540.159	5188.625
1543.226	5163.29167
1546.291	5075.625
1549.354	4969.95833
1552.415	4842.625
1555.473	4723.95833
1558.529	4660.625
1561.583	4566.625
1564.634	4558.29167
1567.684	4533.625
1570.731	4547.29167
1573.776	4597.625
1576.819	4644.29167
1579.859	4707.625
1582.898	4758.625
1585.934	4806.625
1588.968	4804.29167
1591.999	4815.95833
1595.029	4826.95833
1598.056	4830.625
1601.081	4849.29167
1604.104	4848.29167
1607.125	4805.95833
1610.144	4727.29167
1613.16	4619.95833
1616.174	4519.29167
1619.186	4422.29167
1622.196	4326.29167
1625.203	4247.625
1628.209	4171.625
1631.212	4128.95833
1634.213	4145.625
1637.212	4135.625
1640.209	4086.95833
1643.203	3994.95833
1646.196	3863.95833
1649.186	3704.29167
1652.174	3568.625
1655.16	3442.625
1658.144	3329.95833
1661.125	3180.95833
1664.105	3041.29167
1667.082	2902.625
1670.057	2775.29167
1673.03	2629.625
1676.001	2444.95833
1678.97	2332.29167
1681.937	2185.95833
1684.901	2055.625
1687.863	2001.625
1690.824	1914.95833
1693.782	1870.95833
1696.738	1806.625
1699.692	1775.29167
1702.643	1703.625
1705.593	1698.625
1708.54	1675.95833
1711.486	1690.95833
1714.429	1646.95833
1717.37	1635.29167
1720.309	1596.29167
1723.246	1601.29167
1726.181	1572.625
1729.113	1568.29167
1732.044	1553.625
1734.972	1531.625
1737.899	1539.625
1740.823	1530.95833
1743.745	1528.29167
1746.665	1466.625
1749.583	1457.625
1752.499	1424.95833
1755.413	1418.95833
1758.325	1393.95833
1761.235	1381.29167
1764.142	1368.625
1767.048	1342.95833
1769.951	1353.29167
1772.852	1337.29167
1775.752	1327.625
1778.649	1336.29167
1781.544	1311.625
1784.437	1281.29167
1787.328	1301.95833
1790.217	1265.29167
1793.104	1264.29167
1795.989	1260.625
1798.872	1233.95833
1801.753	1266.95833
1804.631	1241.29167
1807.508	1270.95833
1810.383	1246.95833
1813.255	1233.29167
1816.126	1244.95833
1818.994	1238.95833
1821.861	1223.95833
1824.725	1213.625
1827.587	1215.625
1830.448	1197.29167
1833.306	1170.29167
1836.162	1185.625
1839.017	1187.29167
1841.869	1170.29167
1844.719	1168.29167
1847.567	1166.95833
1850.414	1132.29167
1853.258	1130.29167
1856.1	1160.29167
1858.94	1162.29167
1861.778	1138.625
1864.614	1131.625
1867.448	1131.29167
1870.28	1120.625
1873.111	1165.625
1875.939	1129.625
1878.765	1137.95833
1881.589	1122.95833
1884.411	1116.95833
1887.231	1125.29167
1890.049	1120.95833
1892.865	1118.29167
1895.68	1095.29167
1898.492	1109.95833
1901.302	1097.29167
1904.11	1089.95833
1906.916	1067.95833
1909.721	1072.95833
1912.523	1072.95833
1915.323	1052.95833
1918.122	1054.95833
1920.918	1050.625
1923.712	1050.29167
1926.505	1054.625
1929.295	1025.95833
1932.084	1048.29167
1934.87	1037.95833
1937.655	1024.95833
1940.438	1036.95833
1943.218	1047.625
1945.997	1032.29167
1948.774	1037.29167
1951.549	1050.95833
1954.322	1027.95833
1957.093	1023.29167
1959.862	1018.625
1962.629	999.29167
1965.394	1006.29167
1968.157	1001.625
1970.918	995.625
1973.678	979.95833
1976.435	1001.95833
1979.19	976.95833
1981.944	978.29167
1984.696	973.625
1987.445	963.29167
1990.193	978.625
1992.939	986.625
1995.683	965.29167
1998.425	942.625
2001.165	973.95833
2003.903	950.29167
2006.639	953.29167
2009.374	960.625
2012.106	950.29167
2014.837	936.95833
2017.566	945.625
2020.292	941.29167
2023.017	934.29167
2025.74	934.95833
2028.461	939.625
2031.18	950.29167
2033.898	923.625
2036.613	926.625
2039.327	924.625
2042.038	909.29167
2044.748	909.625
2047.456	916.29167
2050.162	896.29167
2052.866	895.29167
2055.568	931.29167
2058.268	894.95833
2060.967	893.95833
2063.663	877.29167
2066.358	890.29167
2069.051	881.95833
2071.742	883.95833
2074.431	880.29167
2077.118	888.95833
2079.804	882.95833
2082.487	870.29167
2085.169	884.95833
2087.849	896.625
2090.527	870.29167
2093.203	887.29167
2095.877	892.29167
2098.55	882.625
2101.22	885.29167
2103.889	910.29167
2106.556	913.29167
2109.221	935.95833
2111.884	944.625
2114.546	1004.29167
2117.205	1037.95833
2119.863	1115.625
2122.519	1178.625
2125.173	1251.29167
2127.825	1325.625
2130.475	1347.29167
2133.124	1304.625
2135.771	1263.29167
2138.416	1217.95833
2141.059	1145.625
2143.7	1099.95833
2146.339	1039.29167
2148.977	989.625
2151.613	973.95833
2154.247	945.95833
2156.879	937.29167
2159.51	894.95833
2162.138	888.95833
2164.765	884.29167
2167.39	863.29167
2170.013	865.29167
2172.634	867.625
2175.254	838.29167
2177.872	871.95833
2180.488	822.625
2183.102	814.625
2185.714	812.29167
2188.325	767.29167
2190.934	780.29167
2193.541	795.625
2196.146	780.625
2198.75	767.625
2201.351	756.625
2203.951	754.29167
2206.549	773.625
2209.146	749.95833
2211.74	742.625
2214.333	732.625
2216.924	716.29167
2219.514	738.95833
2222.101	723.625
2224.687	733.625
2227.271	734.625
2229.853	719.29167
2232.433	710.625
2235.012	726.29167
2237.589	725.95833
2240.164	727.95833
2242.738	701.625
2245.309	693.29167
2247.879	707.29167
2250.448	706.625
2253.014	676.625
2255.579	662.625
2258.142	671.29167
2260.703	652.95833
2263.262	657.29167
2265.82	650.95833
2268.376	668.95833
2270.93	644.625
2273.483	646.625
2276.033	655.625
2278.583	638.625
2281.13	634.29167
2283.675	625.29167
2286.219	631.29167
2288.761	627.29167
2291.302	628.95833
2293.841	640.29167
2296.377	606.29167
2298.913	617.95833
2301.446	627.29167
2303.978	610.625
2306.508	608.95833
2309.037	612.29167
2311.563	614.625
2314.088	608.29167
2316.612	582.29167
2319.133	589.625
2321.653	600.625
2324.171	587.29167
2326.688	612.29167
2329.202	586.29167
2331.715	579.29167
2334.227	582.95833
2336.736	576.625
2339.244	583.29167
2341.751	564.625
2344.255	576.625
2346.758	569.625
2349.259	559.29167
2351.759	563.29167
2354.257	559.29167
2356.753	553.29167
2359.247	561.29167
2361.74	569.95833
2364.231	569.625
2366.721	559.29167
2369.209	548.95833
2371.695	556.95833
2374.179	546.625
2376.662	538.95833
2379.143	562.29167
2381.622	539.625
2384.1	553.29167
2386.576	546.95833
2389.051	553.95833
2391.524	551.29167
2393.995	544.625
2396.464	535.625
2398.932	529.29167
2401.398	519.95833
2403.863	535.95833
2406.325	524.95833
2408.787	538.95833
2411.246	532.95833
2413.704	513.95833
2416.16	513.29167
2418.615	509.29167
2421.068	525.625
2423.519	523.29167
2425.969	504.95833
2428.417	501.625
2430.863	534.95833
2433.308	515.29167
2435.751	514.95833
2438.193	515.95833
2440.633	513.625
2443.071	502.29167
2445.508	505.625
2447.943	503.95833
2450.376	501.95833
2452.808	492.95833
2455.238	484.625
2457.667	535.29167
2460.093	492.625
2462.519	488.625
2464.942	488.625
2467.365	484.625
2469.785	495.29167
2472.204	484.625
2474.621	477.29167
2477.037	499.29167
2479.451	467.95833
2481.863	462.625
2484.274	470.95833
2486.683	476.29167
2489.091	477.95833
2491.497	470.95833
2493.901	471.95833
2496.304	465.29167
2498.705	478.95833
2501.105	472.95833
2503.503	492.95833
2505.899	447.95833
2508.294	474.625
2510.687	465.625
2513.079	462.625
2515.469	457.29167
2517.858	467.95833
2520.245	464.95833
2522.63	451.29167
2525.014	443.95833
2527.396	440.95833
2529.776	440.95833
2532.156	456.625
2534.533	435.625
2536.909	440.625
2539.283	428.29167
2541.656	438.625
2544.027	466.625
2546.397	443.95833
2548.765	435.29167
2551.131	442.95833
2553.496	439.625
2555.86	435.29167
2558.221	435.625
2560.582	429.29167
2562.94	427.95833
2565.298	425.625
2567.653	445.29167
2570.007	416.95833
2572.36	430.625
2574.711	415.625
2577.06	434.625
2579.408	432.625
2581.754	429.625
2584.099	423.625
2586.442	413.95833
2588.784	425.29167
2591.124	419.29167
2593.463	422.95833
2595.8	420.29167
2598.135	411.95833
2600.469	412.625
2602.802	421.29167
2605.133	433.95833
2607.462	407.95833
2609.79	398.625
2612.116	419.625
2614.441	418.625
2616.764	410.29167
2619.086	414.625
2621.406	399.95833
2623.725	430.95833
2626.042	416.29167
2628.358	397.29167
2630.672	393.95833
2632.985	423.95833
2635.296	407.29167
2637.606	403.95833
2639.914	396.95833
2642.22	400.95833
2644.525	403.95833
2646.829	408.625
2649.131	412.625
2651.432	414.95833
2653.731	409.625
2656.028	417.625
2658.324	417.95833
2660.619	401.95833
2662.912	412.625
2665.204	391.625
2667.494	410.625
2669.782	400.625
2672.07	414.625
2674.355	417.625
2676.639	406.95833
2678.922	394.625
2681.203	401.95833
2683.483	398.95833
2685.761	396.625
2688.038	416.29167
2690.313	419.625
2692.587	408.29167
2694.859	399.95833
2697.13	411.625
2699.399	418.29167
2701.667	423.625
2703.933	409.625
2706.198	421.625
2708.461	424.29167
2710.723	419.95833
2712.984	422.29167
2715.243	425.95833
2717.5	418.95833
2719.757	422.625
2722.011	416.95833
2724.264	440.29167
2726.516	444.95833
2728.766	416.29167
2731.015	439.625
2733.262	430.95833
2735.508	435.29167
2737.753	429.625
2739.996	409.625
2742.237	403.29167
2744.477	429.95833
2746.716	431.29167
2748.953	402.625
2751.189	407.625
2753.423	408.29167
2755.656	402.29167
2757.887	388.95833
2760.117	395.95833
2762.346	391.625
2764.573	383.29167
2766.798	394.95833
2769.022	387.625
2771.245	393.29167
2773.467	392.625
2775.686	406.625
2777.905	402.29167
2780.122	404.625
2782.337	398.95833
2784.552	398.29167
2786.764	408.95833
2788.976	410.625
2791.186	411.29167
2793.394	416.95833
2795.601	416.625
2797.807	437.95833
2800.011	436.95833
2802.214	439.29167
2804.415	436.95833
2806.615	431.29167
2808.814	444.625
2811.011	450.29167
2813.206	452.95833
2815.401	470.29167
2817.594	465.95833
2819.785	485.29167
2821.975	478.29167
2824.164	479.625
2826.351	499.95833
2828.537	513.29167
2830.722	522.625
2832.905	528.625
2835.086	556.29167
2837.267	574.625
2839.445	599.625
2841.623	609.95833
2843.799	654.29167
2845.974	671.625
2848.147	716.625
2850.319	726.29167
2852.489	755.29167
2854.659	782.29167
2856.826	783.625
2858.993	824.95833
2861.158	805.29167
2863.321	806.95833
2865.483	835.29167
2867.644	818.29167
2869.804	807.29167
2871.962	814.625
2874.118	823.29167
2876.274	817.95833
2878.428	816.625
2880.58	807.95833
2882.731	799.29167
2884.881	807.625
2887.03	828.95833
2889.177	816.29167
2891.322	824.625
2893.467	814.625
2895.61	817.95833
2897.751	861.625
2899.892	834.29167
2902.03	842.95833
2904.168	860.95833
2906.304	856.29167
2908.439	867.625
2910.572	859.95833
2912.704	871.29167
2914.835	868.625
2916.965	866.95833
2919.093	880.95833
2921.219	847.95833
2923.345	867.95833
2925.469	836.95833
2927.591	838.625
2929.712	822.95833
2931.832	813.95833
2933.951	795.29167
2936.068	774.29167
2938.184	760.95833
2940.299	740.625
2942.412	708.95833
2944.524	676.29167
2946.634	667.95833
2948.744	611.29167
2950.851	637.29167
2952.958	599.625
2955.063	575.625
2957.167	577.625
2959.269	538.29167
2961.371	559.95833
2963.471	528.29167
2965.569	526.625
2967.666	490.95833
2969.762	481.625
2971.857	469.95833
2973.95	459.29167
2976.042	449.95833
2978.133	440.95833
2980.222	423.29167
2982.31	402.95833
2984.396	395.95833
2986.482	393.29167
2988.566	378.95833
2990.648	380.95833
2992.73	372.95833
2994.81	362.29167
2996.889	367.95833
2998.966	365.29167
3001.042	363.95833
3003.117	349.29167
3005.191	344.29167
3007.263	351.95833
3009.334	341.625
3011.403	341.29167
3013.472	327.29167
3015.539	333.95833
3017.604	345.95833
3019.669	304.625
3021.732	309.625
3023.794	310.29167
3025.854	309.29167
3027.914	305.625
3029.971	308.625
3032.028	293.625
3034.083	302.95833
3036.137	291.625
3038.19	277.625
3040.242	276.29167
3042.292	270.95833
3044.341	272.625
3046.388	285.95833
3048.435	264.95833
3050.48	274.95833
3052.524	272.29167
3054.566	252.29167
3056.607	268.95833
3058.647	254.95833
3060.686	249.95833
3062.723	235.625
3064.759	228.29167
3066.794	-1.04167
3068.828	2.625
3070.86	1.95833
