-0.839	465.79167
3.438	568.125
7.711	167.125
11.981	60.125
16.247	45.45833
20.509	50.79167
24.768	48.125
29.024	57.125
33.276	45.79167
37.524	54.125
41.769	50.79167
46.01	37.45833
50.247	53.79167
54.481	59.79167
58.712	66.125
62.939	52.79167
67.162	66.79167
71.382	60.45833
75.599	47.45833
79.812	64.45833
84.021	82.79167
88.227	63.79167
92.429	62.79167
96.628	52.79167
100.823	76.125
105.015	81.125
109.204	77.45833
113.388	79.125
117.57	83.45833
121.748	98.125
125.922	89.125
130.093	108.79167
134.261	110.125
138.425	106.79167
142.585	151.125
146.742	136.79167
150.896	172.79167
155.046	213.45833
159.193	334.45833
163.336	558.45833
167.476	1015.79167
171.613	1870.125
175.746	3120.79167
179.875	4712.125
184.002	6178.79167
188.124	7248.125
192.244	7743.125
196.36	7768.79167
200.472	7675.45833
204.581	7571.125
208.687	7463.125
212.79	7502.125
216.889	7593.45833
220.984	7685.125
225.077	7820.125
229.165	7897.45833
233.251	8013.45833
237.333	7989.125
241.412	7973.79167
245.487	7978.45833
249.559	7857.79167
253.628	7793.79167
257.694	7741.45833
261.756	7683.125
265.814	7527.45833
269.87	7234.79167
273.922	7015.125
277.97	6758.79167
282.016	6650.45833
286.058	6602.79167
290.097	6667.79167
294.132	6680.45833
298.164	6563.79167
302.193	6315.79167
306.219	5880.45833
310.241	5476.79167
314.26	5075.45833
318.276	4784.45833
322.288	4596.125
326.297	4412.45833
330.303	4302.125
334.305	4227.45833
338.305	4166.45833
342.301	4138.79167
346.294	4132.125
350.283	4101.125
354.269	4072.45833
358.252	4076.125
362.232	4008.45833
366.209	4033.45833
370.182	3999.79167
374.152	3997.45833
378.119	4004.79167
382.083	3968.125
386.043	4003.125
390	3946.125
393.954	3981.45833
397.905	3948.125
401.852	3965.125
405.797	3931.45833
409.738	3948.45833
413.676	3931.79167
417.61	3938.125
421.542	3894.125
425.47	3878.79167
429.396	3827.45833
433.318	3822.125
437.236	3822.45833
441.152	3877.45833
445.065	3759.125
448.974	3770.45833
452.88	3771.79167
456.783	3763.125
460.683	3753.79167
464.58	3727.125
468.473	3733.79167
472.364	3744.125
476.251	3769.79167
480.135	3776.45833
484.016	3846.45833
487.894	3845.125
491.769	3841.125
495.641	3850.125
499.509	3854.125
503.375	3847.45833
507.237	3856.79167
511.096	3797.45833
514.952	3828.79167
518.805	3807.125
522.655	3816.125
526.502	3797.79167
530.346	3831.45833
534.187	3827.125
538.024	3843.125
541.859	3873.45833
545.69	3887.125
549.519	3858.45833
553.344	3861.45833
557.166	3808.125
560.985	3745.45833
564.802	3698.79167
568.615	3650.125
572.425	3612.79167
576.232	3597.125
580.036	3564.45833
583.836	3601.79167
587.634	3614.125
591.429	3613.79167
595.221	3683.45833
599.01	3716.125
602.796	3729.125
606.578	3750.79167
610.358	3751.45833
614.135	3722.125
617.909	3719.45833
621.679	3680.45833
625.447	3656.45833
629.212	3641.45833
632.973	3644.45833
636.732	3658.125
640.488	3654.79167
644.241	3610.125
647.991	3631.125
651.737	3634.125
655.481	3603.45833
659.222	3611.79167
662.96	3606.79167
666.695	3620.79167
670.427	3614.79167
674.156	3618.79167
677.882	3620.45833
681.605	3620.79167
685.325	3598.79167
689.043	3587.45833
692.757	3562.45833
696.468	3582.45833
700.177	3574.79167
703.882	3525.125
707.585	3506.125
711.284	3491.125
714.981	3531.45833
718.675	3497.125
722.366	3527.45833
726.054	3490.125
729.739	3520.125
733.421	3522.125
737.1	3497.125
740.777	3513.79167
744.45	3551.125
748.121	3580.125
751.789	3600.79167
755.453	3613.45833
759.115	3620.45833
762.774	3651.125
766.431	3692.45833
770.084	3710.79167
773.734	3765.79167
777.382	3796.45833
781.027	3823.79167
784.669	3842.45833
788.308	3866.79167
791.944	3871.79167
795.577	3848.79167
799.208	3883.125
802.835	3894.45833
806.46	3895.125
810.082	3947.79167
813.701	3932.125
817.317	3968.45833
820.931	3977.79167
824.542	3958.45833
828.149	3924.125
831.754	3892.45833
835.357	3899.45833
838.956	3878.79167
842.553	3880.79167
846.146	3862.45833
849.737	3831.125
853.326	3835.125
856.911	3793.79167
860.493	3858.45833
864.073	3891.79167
867.65	3931.79167
871.225	3956.79167
874.796	3961.45833
878.365	3958.79167
881.931	3971.45833
885.494	3982.125
889.054	4003.125
892.612	3995.45833
896.166	3976.45833
899.719	3929.125
903.268	3861.79167
906.814	3845.125
910.358	3802.79167
913.899	3805.125
917.438	3784.45833
920.973	3798.45833
924.506	3825.45833
928.036	3899.79167
931.564	3931.79167
935.088	3982.79167
938.61	3946.125
942.129	4012.45833
945.646	4068.125
949.16	4105.45833
952.671	4161.125
956.179	4189.125
959.685	4158.45833
963.188	4161.79167
966.688	4143.45833
970.185	3992.125
973.68	3936.45833
977.173	3930.79167
980.662	3874.45833
984.149	3863.79167
987.633	3867.45833
991.114	3912.79167
994.593	3983.79167
998.069	4117.79167
1001.542	4228.79167
1005.013	4126.45833
1008.481	3937.45833
1011.947	3866.45833
1015.409	3825.45833
1018.869	3830.79167
1022.327	3806.125
1025.782	3826.125
1029.234	3796.79167
1032.683	3730.45833
1036.13	3612.125
1039.574	3496.125
1043.016	3390.125
1046.455	3353.125
1049.891	3330.79167
1053.325	3314.79167
1056.756	3310.125
1060.184	3361.125
1063.61	3363.79167
1067.033	3393.79167
1070.454	3382.125
1073.872	3438.79167
1077.287	3415.79167
1080.7	3416.79167
1084.11	3387.45833
1087.517	3355.79167
1090.922	3298.79167
1094.325	3260.45833
1097.724	3259.79167
1101.122	3242.79167
1104.516	3265.45833
1107.908	3239.125
1111.298	3299.45833
1114.684	3334.45833
1118.069	3374.79167
1121.45	3418.125
1124.83	3376.45833
1128.206	3415.125
1131.58	3446.45833
1134.951	3527.125
1138.32	3604.125
1141.687	3730.79167
1145.05	3826.125
1148.412	3829.125
1151.77	3836.125
1155.126	3839.79167
1158.48	3783.45833
1161.831	3826.125
1165.18	3850.125
1168.525	3877.79167
1171.869	3926.45833
1175.21	3955.45833
1178.548	3978.125
1181.884	4024.79167
1185.217	4074.79167
1188.548	4122.79167
1191.877	4208.79167
1195.202	4321.125
1198.526	4387.79167
1201.846	4395.45833
1205.165	4382.45833
1208.48	4394.45833
1211.794	4315.79167
1215.104	4350.79167
1218.413	4320.45833
1221.719	4357.45833
1225.022	4270.79167
1228.323	4231.45833
1231.621	4181.79167
1234.917	4183.45833
1238.21	4188.45833
1241.501	4181.79167
1244.79	4173.45833
1248.076	4165.45833
1251.359	4214.45833
1254.64	4305.125
1257.919	4306.45833
1261.195	4370.125
1264.468	4455.125
1267.74	4522.45833
1271.008	4525.125
1274.275	4496.45833
1277.538	4483.45833
1280.8	4444.79167
1284.059	4417.125
1287.315	4468.125
1290.569	4482.45833
1293.821	4500.125
1297.07	4518.125
1300.317	4546.45833
1303.562	4524.125
1306.803	4469.45833
1310.043	4472.45833
1313.28	4410.45833
1316.515	4385.45833
1319.747	4376.79167
1322.977	4308.79167
1326.204	4240.79167
1329.429	4195.45833
1332.652	4169.79167
1335.872	4155.125
1339.09	4111.45833
1342.306	4120.79167
1345.519	4065.79167
1348.729	4034.125
1351.938	4047.125
1355.144	3966.45833
1358.347	3900.125
1361.548	3898.125
1364.747	3885.79167
1367.944	3842.45833
1371.138	3851.45833
1374.329	3865.45833
1377.518	3884.125
1380.705	3921.79167
1383.89	3887.45833
1387.072	3790.79167
1390.252	3637.79167
1393.429	3508.125
1396.605	3400.79167
1399.777	3331.79167
1402.948	3282.45833
1406.116	3262.79167
1409.282	3249.79167
1412.445	3254.45833
1415.606	3264.45833
1418.765	3291.79167
1421.921	3352.79167
1425.075	3452.125
1428.227	3532.79167
1431.376	3658.45833
1434.524	3807.45833
1437.668	3897.125
1440.811	3969.45833
1443.951	3978.125
1447.089	3993.79167
1450.224	4012.79167
1453.357	3996.79167
1456.488	3958.79167
1459.617	3865.125
1462.743	3811.79167
1465.867	3750.125
1468.989	3673.45833
1472.108	3635.45833
1475.225	3580.45833
1478.34	3525.79167
1481.453	3509.79167
1484.563	3539.79167
1487.671	3567.125
1490.776	3620.79167
1493.88	3685.79167
1496.981	3679.45833
1500.08	3763.125
1503.176	3847.45833
1506.271	3869.125
1509.363	3915.79167
1512.452	3940.79167
1515.54	4008.125
1518.625	4078.125
1521.708	4162.45833
1524.789	4311.125
1527.867	4468.79167
1530.944	4728.45833
1534.018	4894.125
1537.089	5093.79167
1540.159	5154.79167
1543.226	5113.125
1546.291	5004.45833
1549.354	4921.125
1552.415	4804.79167
1555.473	4698.45833
1558.529	4564.125
1561.583	4563.45833
1564.634	4529.45833
1567.684	4488.45833
1570.731	4535.125
1573.776	4579.45833
1576.819	4621.79167
1579.859	4665.79167
1582.898	4715.125
1585.934	4746.79167
1588.968	4809.125
1591.999	4800.45833
1595.029	4775.79167
1598.056	4824.45833
1601.081	4829.79167
1604.104	4789.79167
1607.125	4768.79167
1610.144	4680.79167
1613.16	4588.45833
1616.174	4467.125
1619.186	4401.45833
1622.196	4282.125
1625.203	4189.79167
1628.209	4122.79167
1631.212	4066.79167
1634.213	4039.45833
1637.212	4067.45833
1640.209	3996.125
1643.203	3915.125
1646.196	3808.79167
1649.186	3630.79167
1652.174	3506.79167
1655.16	3380.45833
1658.144	3253.45833
1661.125	3131.79167
1664.105	2995.79167
1667.082	2853.45833
1670.057	2724.79167
1673.03	2556.45833
1676.001	2428.79167
1678.97	2260.79167
1681.937	2138.79167
1684.901	2023.125
1687.863	1969.45833
1690.824	1886.79167
1693.782	1849.125
1696.738	1770.125
1699.692	1726.125
1702.643	1680.45833
1705.593	1660.79167
1708.54	1648.79167
1711.486	1632.45833
1714.429	1591.79167
1717.37	1598.79167
1720.309	1540.79167
1723.246	1569.45833
1726.181	1541.45833
1729.113	1528.45833
1732.044	1519.45833
1734.972	1515.125
1737.899	1511.79167
1740.823	1485.79167
1743.745	1487.125
1746.665	1430.79167
1749.583	1403.125
1752.499	1410.45833
1755.413	1386.45833
1758.325	1356.79167
1761.235	1337.125
1764.142	1339.79167
1767.048	1318.79167
1769.951	1324.45833
1772.852	1292.45833
1775.752	1294.45833
1778.649	1288.45833
1781.544	1284.45833
1784.437	1252.45833
1787.328	1255.79167
1790.217	1242.125
1793.104	1229.45833
1795.989	1216.79167
1798.872	1219.45833
1801.753	1234.79167
1804.631	1223.79167
1807.508	1237.79167
1810.383	1209.125
1813.255	1200.45833
1816.126	1215.79167
1818.994	1215.79167
1821.861	1192.79167
1824.725	1181.79167
1827.587	1183.45833
1830.448	1171.79167
1833.306	1148.45833
1836.162	1141.79167
1839.017	1142.79167
1841.869	1145.45833
1844.719	1134.45833
1847.567	1126.79167
1850.414	1105.45833
1853.258	1114.45833
1856.1	1123.79167
1858.94	1122.125
1861.778	1108.125
1864.614	1114.45833
1867.448	1123.125
1870.28	1097.125
1873.111	1119.45833
1875.939	1118.125
1878.765	1121.125
1881.589	1078.45833
1884.411	1092.79167
1887.231	1092.125
1890.049	1084.45833
1892.865	1078.79167
1895.68	1074.45833
1898.492	1068.45833
1901.302	1077.45833
1904.11	1058.45833
1906.916	1046.79167
1909.721	1038.45833
1912.523	1052.79167
1915.323	1021.45833
1918.122	1035.125
1920.918	1037.125
1923.712	1027.79167
1926.505	1009.125
1929.295	1012.125
1932.084	1016.125
1934.87	1013.125
1937.655	1022.125
1940.438	1006.45833
1943.218	1006.45833
1945.997	1018.79167
1948.774	1014.125
1951.549	1024.125
1954.322	1000.79167
1957.093	999.79167
1959.862	991.45833
1962.629	983.125
1965.394	982.125
1968.157	969.125
1970.918	974.45833
1973.678	969.125
1976.435	972.79167
1979.19	971.45833
1981.944	952.79167
1984.696	941.45833
1987.445	931.79167
1990.193	944.125
1992.939	967.79167
1995.683	943.125
1998.425	926.45833
2001.165	965.125
2003.903	927.125
2006.639	928.45833
2009.374	936.45833
2012.106	925.45833
2014.837	918.45833
2017.566	923.45833
2020.292	921.125
2023.017	923.79167
2025.74	915.79167
2028.461	915.125
2031.18	909.79167
2033.898	894.125
2036.613	910.79167
2039.327	906.125
2042.038	889.125
2044.748	886.79167
2047.456	896.45833
2050.162	884.45833
2052.866	879.125
2055.568	897.125
2058.268	874.79167
2060.967	880.79167
2063.663	859.125
2066.358	873.79167
2069.051	862.45833
2071.742	864.125
2074.431	871.45833
2077.118	872.79167
2079.804	841.125
2082.487	859.125
2085.169	874.125
2087.849	877.45833
2090.527	850.45833
2093.203	863.79167
2095.877	872.125
2098.55	881.125
2101.22	896.79167
2103.889	886.125
2106.556	896.125
2109.221	915.79167
2111.884	925.125
2114.546	993.79167
2117.205	1030.125
2119.863	1116.45833
2122.519	1168.45833
2125.173	1246.79167
2127.825	1300.45833
2130.475	1319.125
2133.124	1307.125
2135.771	1248.125
2138.416	1214.79167
2141.059	1137.45833
2143.7	1085.79167
2146.339	1027.125
2148.977	978.45833
2151.613	967.79167
2154.247	924.125
2156.879	913.45833
2159.51	888.125
2162.138	866.45833
2164.765	868.125
2167.39	842.79167
2170.013	849.45833
2172.634	843.45833
2175.254	816.79167
2177.872	854.125
2180.488	809.125
2183.102	815.125
2185.714	794.79167
2188.325	773.79167
2190.934	778.79167
2193.541	787.125
2196.146	759.79167
2198.75	741.79167
2201.351	745.125
2203.951	727.45833
2206.549	762.79167
2209.146	741.125
2211.74	732.79167
2214.333	725.125
2216.924	713.125
2219.514	711.125
2222.101	714.79167
2224.687	726.125
2227.271	718.45833
2229.853	701.79167
2232.433	683.45833
2235.012	710.125
2237.589	703.125
2240.164	710.45833
2242.738	694.125
2245.309	672.79167
2247.879	684.125
2250.448	696.79167
2253.014	665.79167
2255.579	648.45833
2258.142	654.45833
2260.703	651.45833
2263.262	658.79167
2265.82	638.45833
2268.376	648.45833
2270.93	633.79167
2273.483	624.125
2276.033	633.79167
2278.583	625.45833
2281.13	629.45833
2283.675	619.79167
2286.219	611.45833
2288.761	624.79167
2291.302	621.45833
2293.841	619.45833
2296.377	606.45833
2298.913	603.45833
2301.446	609.79167
2303.978	603.45833
2306.508	587.79167
2309.037	588.79167
2311.563	603.45833
2314.088	595.125
2316.612	581.79167
2319.133	588.79167
2321.653	577.45833
2324.171	570.125
2326.688	597.79167
2329.202	578.45833
2331.715	569.125
2334.227	568.79167
2336.736	569.79167
2339.244	568.45833
2341.751	551.125
2344.255	577.79167
2346.758	567.79167
2349.259	542.79167
2351.759	556.45833
2354.257	549.45833
2356.753	543.125
2359.247	547.79167
2361.74	559.125
2364.231	549.79167
2366.721	547.79167
2369.209	538.45833
2371.695	548.45833
2374.179	533.45833
2376.662	529.45833
2379.143	549.45833
2381.622	533.79167
2384.1	541.79167
2386.576	531.79167
2389.051	548.45833
2391.524	536.79167
2393.995	538.79167
2396.464	515.45833
2398.932	524.125
2401.398	518.79167
2403.863	534.45833
2406.325	517.79167
2408.787	519.125
2411.246	515.125
2413.704	496.45833
2416.16	502.125
2418.615	506.79167
2421.068	512.45833
2423.519	513.125
2425.969	503.125
2428.417	504.79167
2430.863	521.79167
2433.308	511.125
2435.751	502.125
2438.193	494.79167
2440.633	495.45833
2443.071	496.45833
2445.508	491.79167
2447.943	499.79167
2450.376	485.79167
2452.808	488.125
2455.238	487.125
2457.667	514.125
2460.093	488.125
2462.519	478.79167
2464.942	474.45833
2467.365	481.125
2469.785	489.79167
2472.204	479.79167
2474.621	469.125
2477.037	496.45833
2479.451	468.125
2481.863	464.45833
2484.274	460.125
2486.683	468.79167
2489.091	476.125
2491.497	464.125
2493.901	479.79167
2496.304	469.45833
2498.705	470.45833
2501.105	463.79167
2503.503	482.79167
2505.899	442.79167
2508.294	480.45833
2510.687	455.79167
2513.079	455.79167
2515.469	440.125
2517.858	450.125
2520.245	463.45833
2522.63	450.45833
2525.014	445.45833
2527.396	431.45833
2529.776	437.125
2532.156	447.45833
2534.533	434.79167
2536.909	436.79167
2539.283	424.125
2541.656	431.45833
2544.027	445.125
2546.397	438.79167
2548.765	426.79167
2551.131	438.45833
2553.496	435.125
2555.86	425.45833
2558.221	426.125
2560.582	420.79167
2562.94	418.125
2565.298	421.45833
2567.653	436.125
2570.007	411.45833
2572.36	426.45833
2574.711	413.45833
2577.06	434.125
2579.408	418.79167
2581.754	414.79167
2584.099	425.79167
2586.442	410.45833
2588.784	424.79167
2591.124	418.45833
2593.463	416.125
2595.8	424.79167
2598.135	403.79167
2600.469	411.45833
2602.802	416.45833
2605.133	424.79167
2607.462	407.125
2609.79	400.125
2612.116	405.79167
2614.441	408.125
2616.764	409.79167
2619.086	410.79167
2621.406	392.45833
2623.725	408.45833
2626.042	408.125
2628.358	400.125
2630.672	391.79167
2632.985	417.79167
2635.296	413.45833
2637.606	403.45833
2639.914	401.125
2642.22	399.125
2644.525	391.125
2646.829	403.45833
2649.131	418.45833
2651.432	415.45833
2653.731	398.79167
2656.028	410.45833
2658.324	415.79167
2660.619	394.125
2662.912	414.125
2665.204	393.45833
2667.494	405.125
2669.782	394.45833
2672.07	399.125
2674.355	410.45833
2676.639	400.79167
2678.922	392.125
2681.203	393.79167
2683.483	387.125
2685.761	388.45833
2688.038	407.79167
2690.313	409.45833
2692.587	397.79167
2694.859	387.45833
2697.13	392.79167
2699.399	407.125
2701.667	416.45833
2703.933	411.45833
2706.198	408.45833
2708.461	421.125
2710.723	424.125
2712.984	417.45833
2715.243	417.79167
2717.5	413.79167
2719.757	427.45833
2722.011	415.45833
2724.264	430.125
2726.516	433.125
2728.766	417.45833
2731.015	425.45833
2733.262	422.79167
2735.508	422.79167
2737.753	431.125
2739.996	409.45833
2742.237	409.125
2744.477	420.125
2746.716	413.79167
2748.953	407.79167
2751.189	414.79167
2753.423	400.125
2755.656	384.45833
2757.887	388.125
2760.117	392.79167
2762.346	392.79167
2764.573	370.45833
2766.798	382.125
2769.022	382.79167
2771.245	392.125
2773.467	388.125
2775.686	395.45833
2777.905	388.79167
2780.122	401.79167
2782.337	408.79167
2784.552	397.45833
2786.764	406.45833
2788.976	399.125
2791.186	407.125
2793.394	415.79167
2795.601	419.45833
2797.807	427.79167
2800.011	434.79167
2802.214	442.45833
2804.415	434.125
2806.615	430.45833
2808.814	438.79167
2811.011	449.79167
2813.206	440.45833
2815.401	461.45833
2817.594	472.125
2819.785	474.79167
2821.975	468.45833
2824.164	470.125
2826.351	490.79167
2828.537	513.79167
2830.722	514.79167
2832.905	529.125
2835.086	547.79167
2837.267	580.79167
2839.445	591.79167
2841.623	608.45833
2843.799	639.125
2845.974	671.45833
2848.147	704.125
2850.319	726.125
2852.489	764.79167
2854.659	776.125
2856.826	790.79167
2858.993	820.45833
2861.158	809.79167
2863.321	807.79167
2865.483	824.79167
2867.644	822.79167
2869.804	820.45833
2871.962	816.45833
2874.118	809.79167
2876.274	807.79167
2878.428	815.125
2880.58	802.45833
2882.731	800.125
2884.881	800.79167
2887.03	815.45833
2889.177	813.45833
2891.322	822.45833
2893.467	827.45833
2895.61	827.45833
2897.751	839.45833
2899.892	832.79167
2902.03	834.79167
2904.168	844.45833
2906.304	845.45833
2908.439	861.79167
2910.572	846.45833
2912.704	867.125
2914.835	864.45833
2916.965	868.125
2919.093	879.79167
2921.219	844.125
2923.345	872.125
2925.469	846.79167
2927.591	843.45833
2929.712	812.79167
2931.832	799.125
2933.951	797.125
2936.068	769.125
2938.184	756.45833
2940.299	722.79167
2942.412	708.125
2944.524	674.125
2946.634	663.125
2948.744	609.79167
2950.851	625.125
2952.958	598.125
2955.063	587.79167
2957.167	570.79167
2959.269	534.45833
2961.371	556.125
2963.471	510.79167
2965.569	505.79167
2967.666	490.125
2969.762	488.79167
2971.857	467.45833
2973.95	448.125
2976.042	447.79167
2978.133	437.125
2980.222	424.125
2982.31	401.125
2984.396	377.79167
2986.482	392.125
2988.566	381.125
2990.648	377.45833
2992.73	369.45833
2994.81	353.125
2996.889	368.79167
2998.966	361.125
3001.042	361.125
3003.117	352.45833
3005.191	353.45833
3007.263	348.79167
3009.334	336.45833
3011.403	338.79167
3013.472	320.125
3015.539	324.45833
3017.604	332.125
3019.669	298.79167
3021.732	302.79167
3023.794	306.45833
3025.854	304.125
3027.914	292.79167
3029.971	299.125
3032.028	301.79167
3034.083	294.125
3036.137	298.125
3038.19	279.45833
3040.242	278.79167
3042.292	269.125
3044.341	264.79167
3046.388	287.79167
3048.435	261.79167
3050.48	281.45833
3052.524	266.45833
3054.566	248.125
3056.607	260.79167
3058.647	251.79167
3060.686	241.79167
3062.723	232.45833
3064.759	224.79167
3066.794	0.79167
3068.828	5.125
3070.86	1.45833
