-0.839	497.95833
3.438	585.625
7.711	178.29167
11.981	60.29167
16.247	44.625
20.509	46.625
24.768	46.625
29.024	52.95833
33.276	43.29167
37.524	52.625
41.769	46.95833
46.01	31.29167
50.247	46.625
54.481	56.95833
58.712	58.625
62.939	45.95833
67.162	63.29167
71.382	55.95833
75.599	42.625
79.812	59.625
84.021	76.29167
88.227	61.29167
92.429	58.625
96.628	48.29167
100.823	64.29167
105.015	75.625
109.204	60.29167
113.388	74.95833
117.57	71.625
121.748	83.95833
125.922	77.29167
130.093	90.625
134.261	89.29167
138.425	86.625
142.585	128.95833
146.742	118.95833
150.896	138.95833
155.046	174.625
159.193	272.95833
163.336	441.625
167.476	806.625
171.613	1479.95833
175.746	2459.29167
179.875	3659.95833
184.002	4805.625
188.124	5550.95833
192.244	5883.625
196.36	5858.29167
200.472	5693.95833
204.581	5564.95833
208.687	5425.95833
212.79	5394.95833
216.889	5411.95833
220.984	5390.29167
225.077	5451.29167
229.165	5471.95833
233.251	5515.29167
237.333	5514.625
241.412	5442.625
245.487	5395.625
249.559	5322.95833
253.628	5300.29167
257.694	5218.29167
261.756	5153.95833
265.814	5067.29167
269.87	4878.29167
273.922	4710.625
277.97	4559.625
282.016	4462.625
286.058	4406.95833
290.097	4449.29167
294.132	4459.29167
298.164	4442.29167
302.193	4241.625
306.219	3954.95833
310.241	3638.95833
314.26	3378.625
318.276	3157.625
322.288	3019.95833
326.297	2883.29167
330.303	2799.625
334.305	2745.29167
338.305	2706.95833
342.301	2654.29167
346.294	2621.625
350.283	2631.95833
354.269	2598.625
358.252	2579.29167
362.232	2566.29167
366.209	2556.95833
370.182	2523.95833
374.152	2508.95833
378.119	2536.29167
382.083	2528.625
386.043	2527.95833
390	2482.29167
393.954	2520.625
397.905	2493.95833
401.852	2507.625
405.797	2454.625
409.738	2471.29167
413.676	2471.29167
417.61	2491.625
421.542	2463.29167
425.47	2425.625
429.396	2388.95833
433.318	2384.29167
437.236	2402.625
441.152	2408.29167
445.065	2346.29167
448.974	2359.29167
452.88	2354.95833
456.783	2303.95833
460.683	2309.95833
464.58	2297.29167
468.473	2314.625
472.364	2307.95833
476.251	2321.625
480.135	2340.625
484.016	2358.29167
487.894	2386.625
491.769	2372.95833
495.641	2383.95833
499.509	2402.95833
503.375	2411.95833
507.237	2404.95833
511.096	2468.625
514.952	2690.625
518.805	2909.29167
522.655	2983.95833
526.502	2688.625
530.346	2456.29167
534.187	2411.29167
538.024	2421.95833
541.859	2403.625
545.69	2431.29167
549.519	2398.95833
553.344	2370.95833
557.166	2346.625
560.985	2326.29167
564.802	2289.95833
568.615	2254.95833
572.425	2204.95833
576.232	2205.625
580.036	2187.29167
583.836	2196.95833
587.634	2204.625
591.429	2217.95833
595.221	2277.625
599.01	2297.29167
602.796	2293.95833
606.578	2299.29167
610.358	2338.95833
614.135	2305.29167
617.909	2279.95833
621.679	2256.95833
625.447	2248.29167
629.212	2253.29167
632.973	2229.95833
636.732	2249.95833
640.488	2257.625
644.241	2210.625
647.991	2240.95833
651.737	2243.95833
655.481	2214.95833
659.222	2250.29167
662.96	2223.625
666.695	2236.29167
670.427	2263.95833
674.156	2253.95833
677.882	2236.625
681.605	2225.95833
685.325	2214.625
689.043	2223.95833
692.757	2160.29167
696.468	2189.625
700.177	2182.625
703.882	2174.625
707.585	2145.625
711.284	2144.95833
714.981	2157.625
718.675	2155.29167
722.366	2178.29167
726.054	2152.29167
729.739	2166.625
733.421	2158.95833
737.1	2162.29167
740.777	2163.95833
744.45	2185.29167
748.121	2196.29167
751.789	2234.29167
755.453	2213.625
759.115	2251.95833
762.774	2255.95833
766.431	2262.95833
770.084	2297.95833
773.734	2316.95833
777.382	2341.95833
781.027	2349.625
784.669	2370.625
788.308	2380.95833
791.944	2407.29167
795.577	2405.625
799.208	2403.95833
802.835	2427.95833
806.46	2457.625
810.082	2482.625
813.701	2484.95833
817.317	2518.95833
820.931	2506.29167
824.542	2505.625
828.149	2480.625
831.754	2419.95833
835.357	2420.29167
838.956	2436.29167
842.553	2423.95833
846.146	2406.625
849.737	2378.625
853.326	2380.29167
856.911	2374.95833
860.493	2397.625
864.073	2425.625
867.65	2451.95833
871.225	2476.625
874.796	2461.625
878.365	2447.95833
881.931	2461.29167
885.494	2492.29167
889.054	2485.29167
892.612	2488.29167
896.166	2471.625
899.719	2439.625
903.268	2405.29167
906.814	2397.625
910.358	2399.95833
913.899	2372.29167
917.438	2373.95833
920.973	2358.625
924.506	2393.625
928.036	2455.95833
931.564	2482.29167
935.088	2515.625
938.61	2530.29167
942.129	2558.29167
945.646	2609.95833
949.16	2655.625
952.671	2682.625
956.179	2700.625
959.685	2692.29167
963.188	2742.29167
966.688	2697.95833
970.185	2603.625
973.68	2543.625
977.173	2481.29167
980.662	2444.29167
984.149	2433.29167
987.633	2419.29167
991.114	2488.625
994.593	2519.29167
998.069	2583.29167
1001.542	2638.625
1005.013	2605.29167
1008.481	2463.29167
1011.947	2428.625
1015.409	2386.29167
1018.869	2405.95833
1022.327	2399.625
1025.782	2376.625
1029.234	2363.625
1032.683	2344.625
1036.13	2288.95833
1039.574	2186.29167
1043.016	2137.625
1046.455	2091.29167
1049.891	2093.29167
1053.325	2090.95833
1056.756	2084.625
1060.184	2096.29167
1063.61	2113.95833
1067.033	2122.625
1070.454	2117.29167
1073.872	2168.29167
1077.287	2142.29167
1080.7	2165.625
1084.11	2149.95833
1087.517	2129.95833
1090.922	2098.625
1094.325	2066.625
1097.724	2047.29167
1101.122	2052.29167
1104.516	2063.625
1107.908	2038.95833
1111.298	2079.95833
1114.684	2080.29167
1118.069	2117.95833
1121.45	2157.625
1124.83	2120.625
1128.206	2168.625
1131.58	2170.95833
1134.951	2224.625
1138.32	2305.95833
1141.687	2393.95833
1145.05	2440.625
1148.412	2455.29167
1151.77	2440.95833
1155.126	2436.29167
1158.48	2422.625
1161.831	2414.625
1165.18	2429.95833
1168.525	2505.95833
1171.869	2507.29167
1175.21	2496.625
1178.548	2498.29167
1181.884	2528.29167
1185.217	2565.625
1188.548	2610.95833
1191.877	2641.625
1195.202	2713.29167
1198.526	2780.95833
1201.846	2798.95833
1205.165	2805.29167
1208.48	2786.95833
1211.794	2757.95833
1215.104	2768.29167
1218.413	2805.95833
1221.719	2796.95833
1225.022	2752.95833
1228.323	2704.625
1231.621	2678.625
1234.917	2647.29167
1238.21	2652.95833
1241.501	2664.95833
1244.79	2640.625
1248.076	2614.625
1251.359	2659.625
1254.64	2740.625
1257.919	2754.625
1261.195	2799.95833
1264.468	2856.625
1267.74	2884.29167
1271.008	2893.95833
1274.275	2860.625
1277.538	2847.29167
1280.8	2843.95833
1284.059	2827.95833
1287.315	2877.95833
1290.569	2874.29167
1293.821	2898.95833
1297.07	2914.95833
1300.317	2929.95833
1303.562	2909.95833
1306.803	2905.95833
1310.043	2882.625
1313.28	2854.95833
1316.515	2838.29167
1319.747	2848.95833
1322.977	2807.95833
1326.204	2793.625
1329.429	2763.29167
1332.652	2763.95833
1335.872	2730.95833
1339.09	2687.29167
1342.306	2672.95833
1345.519	2645.29167
1348.729	2653.29167
1351.938	2674.95833
1355.144	2628.625
1358.347	2584.95833
1361.548	2570.29167
1364.747	2551.95833
1367.944	2523.625
1371.138	2526.95833
1374.329	2525.95833
1377.518	2574.29167
1380.705	2567.29167
1383.89	2550.625
1387.072	2496.95833
1390.252	2390.625
1393.429	2294.625
1396.605	2234.625
1399.777	2164.625
1402.948	2119.625
1406.116	2116.29167
1409.282	2096.29167
1412.445	2108.625
1415.606	2129.95833
1418.765	2152.29167
1421.921	2175.625
1425.075	2214.29167
1428.227	2297.95833
1431.376	2413.95833
1434.524	2498.95833
1437.668	2558.95833
1440.811	2595.29167
1443.951	2635.95833
1447.089	2646.625
1450.224	2613.29167
1453.357	2598.95833
1456.488	2580.625
1459.617	2524.29167
1462.743	2519.95833
1465.867	2421.95833
1468.989	2388.95833
1472.108	2382.95833
1475.225	2326.95833
1478.34	2298.29167
1481.453	2293.625
1484.563	2286.95833
1487.671	2324.95833
1490.776	2368.95833
1493.88	2389.625
1496.981	2437.95833
1500.08	2465.29167
1503.176	2487.95833
1506.271	2551.625
1509.363	2566.29167
1512.452	2585.625
1515.54	2609.95833
1518.625	2643.625
1521.708	2709.95833
1524.789	2810.95833
1527.867	2925.29167
1530.944	3048.625
1534.018	3163.625
1537.089	3294.29167
1540.159	3317.95833
1543.226	3290.95833
1546.291	3236.95833
1549.354	3137.29167
1552.415	3097.95833
1555.473	3007.625
1558.529	2938.95833
1561.583	2926.29167
1564.634	2907.95833
1567.684	2913.95833
1570.731	2935.95833
1573.776	2984.95833
1576.819	3033.29167
1579.859	3070.625
1582.898	3127.95833
1585.934	3145.29167
1588.968	3149.625
1591.999	3155.625
1595.029	3149.29167
1598.056	3151.95833
1601.081	3170.95833
1604.104	3139.95833
1607.125	3136.625
1610.144	3088.29167
1613.16	2998.625
1616.174	2956.95833
1619.186	2915.95833
1622.196	2838.95833
1625.203	2776.29167
1628.209	2735.625
1631.212	2694.95833
1634.213	2714.625
1637.212	2754.625
1640.209	2733.29167
1643.203	2661.29167
1646.196	2593.95833
1649.186	2466.625
1652.174	2380.95833
1655.16	2310.29167
1658.144	2240.625
1661.125	2119.95833
1664.105	2010.95833
1667.082	1909.29167
1670.057	1799.95833
1673.03	1710.29167
1676.001	1589.29167
1678.97	1498.95833
1681.937	1402.625
1684.901	1345.29167
1687.863	1289.625
1690.824	1221.95833
1693.782	1208.625
1696.738	1141.625
1699.692	1136.29167
1702.643	1094.625
1705.593	1092.625
1708.54	1085.625
1711.486	1089.29167
1714.429	1061.625
1717.37	1048.95833
1720.309	1033.625
1723.246	1045.29167
1726.181	1011.29167
1729.113	1032.625
1732.044	992.95833
1734.972	997.29167
1737.899	1001.95833
1740.823	989.95833
1743.745	991.625
1746.665	953.29167
1749.583	941.29167
1752.499	921.625
1755.413	913.95833
1758.325	907.95833
1761.235	893.29167
1764.142	885.625
1767.048	867.625
1769.951	875.29167
1772.852	877.625
1775.752	871.625
1778.649	872.29167
1781.544	878.95833
1784.437	843.29167
1787.328	851.29167
1790.217	844.625
1793.104	825.29167
1795.989	826.29167
1798.872	811.95833
1801.753	839.625
1804.631	825.625
1807.508	828.625
1810.383	826.625
1813.255	825.29167
1816.126	821.29167
1818.994	821.625
1821.861	812.29167
1824.725	813.95833
1827.587	817.29167
1830.448	808.95833
1833.306	771.95833
1836.162	797.625
1839.017	790.95833
1841.869	790.95833
1844.719	780.625
1847.567	771.95833
1850.414	764.29167
1853.258	774.625
1856.1	784.95833
1858.94	779.29167
1861.778	781.95833
1864.614	765.29167
1867.448	778.625
1870.28	769.625
1873.111	778.625
1875.939	766.29167
1878.765	792.625
1881.589	761.29167
1884.411	769.95833
1887.231	776.95833
1890.049	766.625
1892.865	776.95833
1895.68	742.95833
1898.492	760.95833
1901.302	757.625
1904.11	760.29167
1906.916	748.625
1909.721	743.95833
1912.523	748.625
1915.323	736.95833
1918.122	737.29167
1920.918	736.95833
1923.712	721.29167
1926.505	724.625
1929.295	716.29167
1932.084	742.29167
1934.87	740.29167
1937.655	731.29167
1940.438	727.95833
1943.218	742.625
1945.997	735.29167
1948.774	741.29167
1951.549	743.625
1954.322	733.29167
1957.093	724.95833
1959.862	725.95833
1962.629	721.95833
1965.394	714.625
1968.157	700.29167
1970.918	708.625
1973.678	713.95833
1976.435	733.95833
1979.19	702.625
1981.944	705.95833
1984.696	702.29167
1987.445	693.29167
1990.193	712.95833
1992.939	711.29167
1995.683	706.95833
1998.425	683.95833
2001.165	723.625
2003.903	692.29167
2006.639	695.95833
2009.374	712.29167
2012.106	698.29167
2014.837	683.29167
2017.566	709.29167
2020.292	705.29167
2023.017	700.625
2025.74	690.95833
2028.461	697.625
2031.18	697.95833
2033.898	686.95833
2036.613	691.95833
2039.327	696.29167
2042.038	694.95833
2044.748	682.625
2047.456	704.625
2050.162	680.29167
2052.866	692.625
2055.568	694.29167
2058.268	690.625
2060.967	697.95833
2063.663	685.95833
2066.358	685.95833
2069.051	670.95833
2071.742	679.29167
2074.431	691.625
2077.118	678.29167
2079.804	682.29167
2082.487	685.625
2085.169	692.95833
2087.849	700.29167
2090.527	677.625
2093.203	690.95833
2095.877	703.29167
2098.55	702.29167
2101.22	711.29167
2103.889	711.95833
2106.556	702.29167
2109.221	721.625
2111.884	717.29167
2114.546	753.95833
2117.205	761.29167
2119.863	816.95833
2122.519	819.29167
2125.173	866.95833
2127.825	905.29167
2130.475	918.95833
2133.124	887.95833
2135.771	871.95833
2138.416	865.625
2141.059	826.29167
2143.7	806.625
2146.339	763.95833
2148.977	732.625
2151.613	751.95833
2154.247	728.29167
2156.879	721.29167
2159.51	716.625
2162.138	693.625
2164.765	704.95833
2167.39	685.625
2170.013	714.625
2172.634	705.625
2175.254	702.29167
2177.872	718.95833
2180.488	686.625
2183.102	694.29167
2185.714	682.625
2188.325	667.29167
2190.934	677.29167
2193.541	685.95833
2196.146	669.625
2198.75	663.95833
2201.351	664.29167
2203.951	666.95833
2206.549	680.29167
2209.146	665.625
2211.74	658.625
2214.333	670.625
2216.924	646.29167
2219.514	665.29167
2222.101	664.29167
2224.687	682.625
2227.271	660.625
2229.853	658.95833
2232.433	648.95833
2235.012	677.95833
2237.589	663.95833
2240.164	674.625
2242.738	654.95833
2245.309	649.95833
2247.879	670.95833
2250.448	664.625
2253.014	657.625
2255.579	640.625
2258.142	641.95833
2260.703	643.29167
2263.262	645.29167
2265.82	635.625
2268.376	654.29167
2270.93	633.29167
2273.483	640.29167
2276.033	647.95833
2278.583	637.625
2281.13	638.625
2283.675	643.625
2286.219	648.625
2288.761	647.95833
2291.302	654.95833
2293.841	658.625
2296.377	632.95833
2298.913	643.95833
2301.446	651.95833
2303.978	653.625
2306.508	643.625
2309.037	650.625
2311.563	652.29167
2314.088	651.625
2316.612	635.625
2319.133	647.29167
2321.653	653.29167
2324.171	638.625
2326.688	652.29167
2329.202	652.625
2331.715	655.95833
2334.227	648.625
2336.736	655.95833
2339.244	650.95833
2341.751	644.95833
2344.255	654.625
2346.758	648.625
2349.259	645.29167
2351.759	659.29167
2354.257	647.29167
2356.753	642.29167
2359.247	648.95833
2361.74	671.95833
2364.231	668.625
2366.721	656.95833
2369.209	654.625
2371.695	655.29167
2374.179	657.95833
2376.662	655.95833
2379.143	673.625
2381.622	668.95833
2384.1	672.95833
2386.576	671.625
2389.051	684.95833
2391.524	690.95833
2393.995	690.95833
2396.464	678.29167
2398.932	673.625
2401.398	674.29167
2403.863	680.625
2406.325	666.95833
2408.787	682.29167
2411.246	690.625
2413.704	680.625
2416.16	670.95833
2418.615	682.29167
2421.068	691.29167
2423.519	678.625
2425.969	687.29167
2428.417	698.95833
2430.863	713.625
2433.308	698.95833
2435.751	699.29167
2438.193	696.29167
2440.633	709.625
2443.071	699.95833
2445.508	700.95833
2447.943	705.29167
2450.376	705.95833
2452.808	702.29167
2455.238	705.625
2457.667	742.29167
2460.093	716.625
2462.519	696.29167
2464.942	703.29167
2467.365	724.29167
2469.785	725.95833
2472.204	712.29167
2474.621	714.625
2477.037	732.625
2479.451	711.29167
2481.863	713.29167
2484.274	722.29167
2486.683	721.95833
2489.091	734.95833
2491.497	730.95833
2493.901	735.625
2496.304	723.625
2498.705	759.29167
2501.105	734.29167
2503.503	757.95833
2505.899	723.95833
2508.294	759.625
2510.687	740.625
2513.079	743.625
2515.469	735.625
2517.858	752.29167
2520.245	758.95833
2522.63	741.29167
2525.014	732.95833
2527.396	744.29167
2529.776	734.29167
2532.156	760.29167
2534.533	755.95833
2536.909	747.95833
2539.283	745.29167
2541.656	747.625
2544.027	781.29167
2546.397	760.625
2548.765	759.95833
2551.131	764.625
2553.496	777.29167
2555.86	779.625
2558.221	769.625
2560.582	769.95833
2562.94	768.95833
2565.298	769.625
2567.653	781.625
2570.007	773.29167
2572.36	796.625
2574.711	776.29167
2577.06	799.29167
2579.408	786.625
2581.754	793.29167
2584.099	814.95833
2586.442	800.29167
2588.784	808.29167
2591.124	799.29167
2593.463	802.29167
2595.8	819.95833
2598.135	797.29167
2600.469	799.625
2602.802	815.625
2605.133	822.625
2607.462	810.95833
2609.79	813.95833
2612.116	826.29167
2614.441	824.95833
2616.764	826.95833
2619.086	828.625
2621.406	822.625
2623.725	838.95833
2626.042	837.29167
2628.358	837.95833
2630.672	828.95833
2632.985	854.625
2635.296	854.29167
2637.606	851.95833
2639.914	848.29167
2642.22	853.95833
2644.525	855.29167
2646.829	865.29167
2649.131	872.625
2651.432	885.95833
2653.731	889.95833
2656.028	882.95833
2658.324	903.29167
2660.619	888.95833
2662.912	903.95833
2665.204	888.95833
2667.494	898.625
2669.782	887.95833
2672.07	891.95833
2674.355	916.95833
2676.639	890.625
2678.922	899.95833
2681.203	896.95833
2683.483	896.29167
2685.761	883.625
2688.038	906.29167
2690.313	926.29167
2692.587	908.95833
2694.859	902.625
2697.13	923.95833
2699.399	933.29167
2701.667	938.29167
2703.933	917.625
2706.198	938.29167
2708.461	936.625
2710.723	945.95833
2712.984	947.29167
2715.243	951.29167
2717.5	957.29167
2719.757	974.29167
2722.011	955.29167
2724.264	979.625
2726.516	988.95833
2728.766	978.29167
2731.015	988.95833
2733.262	995.29167
2735.508	992.95833
2737.753	986.625
2739.996	983.625
2742.237	979.29167
2744.477	996.29167
2746.716	1004.625
2748.953	987.625
2751.189	998.29167
2753.423	979.95833
2755.656	978.95833
2757.887	970.29167
2760.117	980.95833
2762.346	971.625
2764.573	968.625
2766.798	976.95833
2769.022	965.95833
2771.245	993.29167
2773.467	993.95833
2775.686	992.625
2777.905	993.29167
2780.122	1006.625
2782.337	1024.29167
2784.552	1000.29167
2786.764	1017.95833
2788.976	1011.95833
2791.186	1025.95833
2793.394	1022.95833
2795.601	1044.95833
2797.807	1046.29167
2800.011	1063.95833
2802.214	1041.95833
2804.415	1055.29167
2806.615	1052.29167
2808.814	1055.625
2811.011	1073.625
2813.206	1064.95833
2815.401	1081.95833
2817.594	1073.95833
2819.785	1093.95833
2821.975	1082.625
2824.164	1076.625
2826.351	1096.29167
2828.537	1108.625
2830.722	1113.625
2832.905	1121.29167
2835.086	1144.29167
2837.267	1163.95833
2839.445	1186.95833
2841.623	1190.29167
2843.799	1213.625
2845.974	1221.95833
2848.147	1254.29167
2850.319	1292.625
2852.489	1304.95833
2854.659	1317.625
2856.826	1314.95833
2858.993	1349.625
2861.158	1334.95833
2863.321	1344.95833
2865.483	1367.625
2867.644	1366.95833
2869.804	1339.625
2871.962	1340.625
2874.118	1336.29167
2876.274	1334.29167
2878.428	1336.29167
2880.58	1329.625
2882.731	1324.95833
2884.881	1351.625
2887.03	1336.625
2889.177	1331.95833
2891.322	1350.625
2893.467	1340.625
2895.61	1347.95833
2897.751	1376.625
2899.892	1366.29167
2902.03	1368.95833
2904.168	1386.95833
2906.304	1391.29167
2908.439	1409.95833
2910.572	1407.625
2912.704	1418.29167
2914.835	1413.29167
2916.965	1410.625
2919.093	1436.625
2921.219	1415.29167
2923.345	1431.95833
2925.469	1401.29167
2927.591	1395.625
2929.712	1378.625
2931.832	1382.625
2933.951	1350.29167
2936.068	1331.95833
2938.184	1335.95833
2940.299	1308.95833
2942.412	1291.625
2944.524	1275.95833
2946.634	1274.29167
2948.744	1233.625
2950.851	1273.625
2952.958	1236.625
2955.063	1248.29167
2957.167	1236.29167
2959.269	1210.29167
2961.371	1252.95833
2963.471	1222.95833
2965.569	1224.95833
2967.666	1202.625
2969.762	1201.625
2971.857	1181.625
2973.95	1178.95833
2976.042	1162.625
2978.133	1162.29167
2980.222	1135.29167
2982.31	1119.95833
2984.396	1098.95833
2986.482	1100.95833
2988.566	1090.29167
2990.648	1103.625
2992.73	1099.95833
2994.81	1104.625
2996.889	1103.29167
2998.966	1102.29167
3001.042	1124.625
3003.117	1105.625
3005.191	1093.29167
3007.263	1105.29167
3009.334	1086.625
3011.403	1094.95833
3013.472	1059.625
3015.539	1067.29167
3017.604	1061.625
3019.669	1020.95833
3021.732	1027.625
3023.794	1027.95833
3025.854	1033.625
3027.914	1037.29167
3029.971	1048.29167
3032.028	1047.625
3034.083	1039.625
3036.137	1014.95833
3038.19	979.95833
3040.242	963.29167
3042.292	957.625
3044.341	940.625
3046.388	955.29167
3048.435	924.95833
3050.48	933.29167
3052.524	934.625
3054.566	917.29167
3056.607	923.95833
3058.647	900.29167
3060.686	870.95833
3062.723	850.29167
3064.759	803.95833
3066.794	-1.04167
3068.828	3.625
3070.86	1.625
