-0.839	400.875
3.438	473.20833
7.711	147.875
11.981	62.20833
16.247	43.875
20.509	49.54167
24.768	45.54167
29.024	55.20833
33.276	46.20833
37.524	49.875
41.769	46.20833
46.01	34.875
50.247	52.875
54.481	58.20833
58.712	61.875
62.939	52.20833
67.162	64.875
71.382	58.54167
75.599	47.20833
79.812	64.20833
84.021	77.20833
88.227	59.20833
92.429	57.20833
96.628	54.20833
100.823	73.54167
105.015	74.875
109.204	67.54167
113.388	74.20833
117.57	77.875
121.748	89.875
125.922	79.54167
130.093	98.54167
134.261	99.875
138.425	98.20833
142.585	136.20833
146.742	128.875
150.896	161.54167
155.046	194.875
159.193	305.875
163.336	500.54167
167.476	926.875
171.613	1709.54167
175.746	2838.875
179.875	4229.20833
184.002	5524.54167
188.124	6435.54167
192.244	6837.875
196.36	6812.875
200.472	6686.54167
204.581	6553.875
208.687	6471.54167
212.79	6398.875
216.889	6431.54167
220.984	6506.20833
225.077	6552.20833
229.165	6653.54167
233.251	6675.20833
237.333	6723.20833
241.412	6691.54167
245.487	6625.875
249.559	6566.54167
253.628	6530.54167
257.694	6432.54167
261.756	6387.54167
265.814	6257.54167
269.87	6043.20833
273.922	5834.54167
277.97	5639.20833
282.016	5509.20833
286.058	5459.875
290.097	5508.20833
294.132	5544.875
298.164	5505.54167
302.193	5252.54167
306.219	4907.875
310.241	4508.20833
314.26	4157.54167
318.276	3893.20833
322.288	3671.875
326.297	3534.875
330.303	3400.875
334.305	3293.20833
338.305	3255.54167
342.301	3237.20833
346.294	3194.54167
350.283	3167.20833
354.269	3123.875
358.252	3113.54167
362.232	3089.54167
366.209	3091.20833
370.182	3045.875
374.152	3042.20833
378.119	3041.54167
382.083	3013.20833
386.043	3058.54167
390	3016.54167
393.954	3035.875
397.905	3018.875
401.852	3005.54167
405.797	2974.54167
409.738	2937.54167
413.676	2972.20833
417.61	2987.20833
421.542	2933.54167
425.47	2900.54167
429.396	2877.54167
433.318	2852.20833
437.236	2873.875
441.152	2878.20833
445.065	2839.875
448.974	2839.875
452.88	2797.20833
456.783	2784.875
460.683	2766.875
464.58	2767.875
468.473	2764.54167
472.364	2803.875
476.251	2778.875
480.135	2800.54167
484.016	2835.20833
487.894	2848.54167
491.769	2854.20833
495.641	2849.875
499.509	2861.875
503.375	2851.20833
507.237	2865.875
511.096	2841.54167
514.952	2945.54167
518.805	3021.54167
522.655	3052.875
526.502	2930.54167
530.346	2868.875
534.187	2843.54167
538.024	2878.54167
541.859	2902.54167
545.69	2910.20833
549.519	2893.54167
553.344	2851.875
557.166	2822.54167
560.985	2779.20833
564.802	2725.54167
568.615	2681.875
572.425	2642.875
576.232	2638.875
580.036	2634.875
583.836	2622.54167
587.634	2647.54167
591.429	2653.875
595.221	2708.54167
599.01	2745.54167
602.796	2762.54167
606.578	2799.875
610.358	2774.20833
614.135	2748.20833
617.909	2771.875
621.679	2713.20833
625.447	2679.875
629.212	2677.875
632.973	2704.20833
636.732	2666.875
640.488	2705.20833
644.241	2681.54167
647.991	2661.20833
651.737	2690.875
655.481	2642.20833
659.222	2642.20833
662.96	2647.20833
666.695	2666.54167
670.427	2676.54167
674.156	2698.54167
677.882	2662.54167
681.605	2679.875
685.325	2676.875
689.043	2637.20833
692.757	2617.54167
696.468	2624.54167
700.177	2626.54167
703.882	2621.875
707.585	2604.875
711.284	2594.875
714.981	2573.875
718.675	2594.875
722.366	2614.875
726.054	2588.20833
729.739	2588.875
733.421	2607.20833
737.1	2589.20833
740.777	2599.20833
744.45	2614.20833
748.121	2643.20833
751.789	2691.20833
755.453	2685.875
759.115	2699.875
762.774	2707.54167
766.431	2729.875
770.084	2776.875
773.734	2790.54167
777.382	2836.20833
781.027	2866.54167
784.669	2889.20833
788.308	2903.875
791.944	2919.20833
795.577	2895.875
799.208	2931.875
802.835	2944.20833
806.46	2950.54167
810.082	2967.54167
813.701	2988.875
817.317	3009.875
820.931	3013.875
824.542	2993.54167
828.149	2963.20833
831.754	2940.54167
835.357	2937.20833
838.956	2952.875
842.553	2945.20833
846.146	2909.20833
849.737	2928.875
853.326	2897.20833
856.911	2907.875
860.493	2941.875
864.073	2954.20833
867.65	3006.20833
871.225	3046.20833
874.796	3033.20833
878.365	3040.20833
881.931	3037.20833
885.494	3062.54167
889.054	3074.54167
892.612	3079.54167
896.166	3047.875
899.719	3019.20833
903.268	2968.54167
906.814	2931.54167
910.358	2909.54167
913.899	2902.875
917.438	2920.875
920.973	2896.20833
924.506	2947.875
928.036	3005.54167
931.564	3043.54167
935.088	3098.54167
938.61	3082.875
942.129	3125.20833
945.646	3209.20833
949.16	3238.54167
952.671	3302.20833
956.179	3287.20833
959.685	3269.20833
963.188	3278.875
966.688	3230.875
970.185	3141.54167
973.68	3073.54167
977.173	3018.20833
980.662	3000.875
984.149	3005.875
987.633	2975.20833
991.114	3030.20833
994.593	3066.20833
998.069	3157.20833
1001.542	3244.875
1005.013	3206.54167
1008.481	3044.875
1011.947	2979.20833
1015.409	2971.875
1018.869	2968.54167
1022.327	2955.54167
1025.782	2919.875
1029.234	2920.54167
1032.683	2878.20833
1036.13	2778.20833
1039.574	2701.875
1043.016	2605.54167
1046.455	2572.54167
1049.891	2561.875
1053.325	2555.54167
1056.756	2547.20833
1060.184	2568.875
1063.61	2576.20833
1067.033	2586.875
1070.454	2581.20833
1073.872	2625.20833
1077.287	2637.875
1080.7	2622.20833
1084.11	2607.875
1087.517	2574.54167
1090.922	2532.54167
1094.325	2521.20833
1097.724	2502.54167
1101.122	2514.875
1104.516	2510.54167
1107.908	2512.20833
1111.298	2555.20833
1114.684	2605.875
1118.069	2612.20833
1121.45	2678.54167
1124.83	2635.54167
1128.206	2653.54167
1131.58	2707.875
1134.951	2786.54167
1138.32	2830.875
1141.687	2970.20833
1145.05	3020.54167
1148.412	3089.875
1151.77	3068.20833
1155.126	3039.20833
1158.48	3027.20833
1161.831	3036.54167
1165.18	3059.54167
1168.525	3106.54167
1171.869	3157.54167
1175.21	3160.20833
1178.548	3160.54167
1181.884	3195.875
1185.217	3242.54167
1188.548	3296.54167
1191.877	3358.875
1195.202	3463.54167
1198.526	3523.54167
1201.846	3548.20833
1205.165	3507.875
1208.48	3511.20833
1211.794	3482.20833
1215.104	3463.20833
1218.413	3462.54167
1221.719	3453.54167
1225.022	3400.875
1228.323	3362.20833
1231.621	3352.20833
1234.917	3303.20833
1238.21	3325.875
1241.501	3294.20833
1244.79	3294.875
1248.076	3289.20833
1251.359	3315.20833
1254.64	3432.20833
1257.919	3419.54167
1261.195	3464.875
1264.468	3578.54167
1267.74	3604.875
1271.008	3601.54167
1274.275	3543.54167
1277.538	3554.20833
1280.8	3560.54167
1284.059	3501.54167
1287.315	3586.54167
1290.569	3558.20833
1293.821	3600.54167
1297.07	3622.20833
1300.317	3630.20833
1303.562	3641.20833
1306.803	3609.54167
1310.043	3578.875
1313.28	3551.54167
1316.515	3561.875
1319.747	3522.54167
1322.977	3477.20833
1326.204	3431.875
1329.429	3360.875
1332.652	3363.875
1335.872	3323.20833
1339.09	3278.20833
1342.306	3254.875
1345.519	3239.20833
1348.729	3184.54167
1351.938	3199.20833
1355.144	3150.54167
1358.347	3092.875
1361.548	3076.875
1364.747	3066.54167
1367.944	3032.54167
1371.138	3033.20833
1374.329	3047.54167
1377.518	3074.20833
1380.705	3126.54167
1383.89	3066.54167
1387.072	2998.54167
1390.252	2880.20833
1393.429	2775.875
1396.605	2713.20833
1399.777	2618.875
1402.948	2587.54167
1406.116	2566.54167
1409.282	2536.875
1412.445	2546.20833
1415.606	2574.54167
1418.765	2595.875
1421.921	2645.54167
1425.075	2709.54167
1428.227	2807.20833
1431.376	2923.20833
1434.524	3043.20833
1437.668	3111.54167
1440.811	3167.20833
1443.951	3216.54167
1447.089	3224.875
1450.224	3207.54167
1453.357	3195.20833
1456.488	3164.875
1459.617	3094.875
1462.743	3050.54167
1465.867	3004.54167
1468.989	2954.54167
1472.108	2909.54167
1475.225	2850.875
1478.34	2824.20833
1481.453	2833.875
1484.563	2846.20833
1487.671	2876.54167
1490.776	2938.875
1493.88	2996.875
1496.981	3026.54167
1500.08	3081.20833
1503.176	3124.54167
1506.271	3144.54167
1509.363	3205.54167
1512.452	3237.875
1515.54	3276.20833
1518.625	3323.20833
1521.708	3410.20833
1524.789	3511.875
1527.867	3672.20833
1530.944	3832.54167
1534.018	4011.875
1537.089	4141.20833
1540.159	4174.20833
1543.226	4173.20833
1546.291	4126.20833
1549.354	4007.875
1552.415	3919.875
1555.473	3811.54167
1558.529	3722.54167
1561.583	3687.875
1564.634	3639.54167
1567.684	3667.54167
1570.731	3683.875
1573.776	3720.20833
1576.819	3801.54167
1579.859	3808.20833
1582.898	3851.20833
1585.934	3921.875
1588.968	3935.875
1591.999	3929.54167
1595.029	3928.54167
1598.056	3957.875
1601.081	3969.20833
1604.104	3939.54167
1607.125	3915.54167
1610.144	3821.54167
1613.16	3737.20833
1616.174	3660.54167
1619.186	3585.875
1622.196	3486.875
1625.203	3421.20833
1628.209	3339.875
1631.212	3312.54167
1634.213	3279.20833
1637.212	3277.875
1640.209	3214.54167
1643.203	3119.875
1646.196	3020.20833
1649.186	2892.20833
1652.174	2781.875
1655.16	2691.54167
1658.144	2600.54167
1661.125	2455.875
1664.105	2356.20833
1667.082	2258.20833
1670.057	2150.875
1673.03	2010.54167
1676.001	1871.20833
1678.97	1773.54167
1681.937	1658.54167
1684.901	1567.875
1687.863	1532.54167
1690.824	1442.20833
1693.782	1444.20833
1696.738	1348.54167
1699.692	1324.875
1702.643	1287.54167
1705.593	1287.875
1708.54	1259.54167
1711.486	1265.875
1714.429	1234.20833
1717.37	1227.20833
1720.309	1198.20833
1723.246	1219.20833
1726.181	1174.20833
1729.113	1171.20833
1732.044	1161.20833
1734.972	1134.875
1737.899	1156.875
1740.823	1150.875
1743.745	1133.20833
1746.665	1096.54167
1749.583	1081.20833
1752.499	1061.875
1755.413	1051.20833
1758.325	1038.54167
1761.235	1016.875
1764.142	1004.20833
1767.048	992.20833
1769.951	997.54167
1772.852	985.54167
1775.752	986.875
1778.649	987.54167
1781.544	980.54167
1784.437	950.20833
1787.328	954.20833
1790.217	939.20833
1793.104	922.20833
1795.989	925.20833
1798.872	921.20833
1801.753	941.20833
1804.631	919.54167
1807.508	936.20833
1810.383	935.54167
1813.255	909.20833
1816.126	921.54167
1818.994	914.875
1821.861	895.20833
1824.725	909.20833
1827.587	888.54167
1830.448	884.875
1833.306	863.875
1836.162	863.875
1839.017	867.20833
1841.869	869.875
1844.719	876.20833
1847.567	855.20833
1850.414	846.54167
1853.258	851.54167
1856.1	862.875
1858.94	856.54167
1861.778	842.20833
1864.614	851.20833
1867.448	847.20833
1870.28	829.20833
1873.111	854.875
1875.939	847.20833
1878.765	857.54167
1881.589	835.54167
1884.411	828.20833
1887.231	843.875
1890.049	831.54167
1892.865	842.54167
1895.68	813.54167
1898.492	831.875
1901.302	803.875
1904.11	807.54167
1906.916	801.54167
1909.721	796.875
1912.523	800.875
1915.323	803.20833
1918.122	783.20833
1920.918	802.20833
1923.712	786.54167
1926.505	789.54167
1929.295	775.20833
1932.084	788.20833
1934.87	782.875
1937.655	776.875
1940.438	773.875
1943.218	770.20833
1945.997	782.54167
1948.774	793.20833
1951.549	782.875
1954.322	773.54167
1957.093	782.20833
1959.862	758.875
1962.629	757.54167
1965.394	750.54167
1968.157	741.875
1970.918	754.875
1973.678	737.54167
1976.435	758.20833
1979.19	736.875
1981.944	732.20833
1984.696	741.875
1987.445	725.875
1990.193	735.54167
1992.939	749.54167
1995.683	728.875
1998.425	708.54167
2001.165	743.20833
2003.903	723.20833
2006.639	729.54167
2009.374	733.20833
2012.106	731.20833
2014.837	704.875
2017.566	729.20833
2020.292	722.54167
2023.017	720.20833
2025.74	721.875
2028.461	712.20833
2031.18	718.20833
2033.898	708.20833
2036.613	715.54167
2039.327	708.54167
2042.038	699.875
2044.748	689.54167
2047.456	708.20833
2050.162	689.875
2052.866	691.54167
2055.568	705.20833
2058.268	688.20833
2060.967	698.20833
2063.663	677.875
2066.358	683.20833
2069.051	684.20833
2071.742	686.54167
2074.431	698.54167
2077.118	689.54167
2079.804	669.875
2082.487	686.54167
2085.169	689.875
2087.849	704.54167
2090.527	683.20833
2093.203	683.875
2095.877	704.875
2098.55	695.875
2101.22	701.875
2103.889	716.20833
2106.556	693.875
2109.221	717.20833
2111.884	718.20833
2114.546	759.54167
2117.205	792.54167
2119.863	849.875
2122.519	862.20833
2125.173	928.54167
2127.825	982.20833
2130.475	978.54167
2133.124	966.54167
2135.771	931.875
2138.416	903.875
2141.059	853.875
2143.7	832.54167
2146.339	778.875
2148.977	748.54167
2151.613	745.20833
2154.247	722.54167
2156.879	706.54167
2159.51	694.875
2162.138	685.54167
2164.765	689.20833
2167.39	670.875
2170.013	695.20833
2172.634	668.875
2175.254	661.20833
2177.872	701.875
2180.488	648.54167
2183.102	663.875
2185.714	640.54167
2188.325	626.54167
2190.934	637.875
2193.541	638.20833
2196.146	637.20833
2198.75	613.20833
2201.351	620.20833
2203.951	610.54167
2206.549	614.875
2209.146	616.54167
2211.74	613.20833
2214.333	622.20833
2216.924	597.875
2219.514	617.875
2222.101	603.875
2224.687	612.54167
2227.271	596.875
2229.853	584.875
2232.433	587.54167
2235.012	600.20833
2237.589	599.875
2240.164	608.54167
2242.738	590.20833
2245.309	577.54167
2247.879	593.20833
2250.448	596.54167
2253.014	574.54167
2255.579	561.875
2258.142	578.20833
2260.703	561.54167
2263.262	573.54167
2265.82	564.54167
2268.376	562.20833
2270.93	552.875
2273.483	549.54167
2276.033	562.875
2278.583	551.54167
2281.13	540.54167
2283.675	541.20833
2286.219	552.54167
2288.761	540.20833
2291.302	542.875
2293.841	548.875
2296.377	530.875
2298.913	549.54167
2301.446	545.54167
2303.978	548.20833
2306.508	536.54167
2309.037	537.54167
2311.563	536.54167
2314.088	530.54167
2316.612	520.875
2319.133	531.875
2321.653	523.20833
2324.171	522.54167
2326.688	540.875
2329.202	524.20833
2331.715	532.875
2334.227	529.20833
2336.736	528.875
2339.244	515.875
2341.751	516.20833
2344.255	530.54167
2346.758	528.20833
2349.259	499.54167
2351.759	512.20833
2354.257	510.20833
2356.753	518.54167
2359.247	516.54167
2361.74	524.875
2364.231	513.875
2366.721	528.875
2369.209	517.875
2371.695	517.20833
2374.179	512.54167
2376.662	503.54167
2379.143	519.875
2381.622	506.54167
2384.1	516.54167
2386.576	512.54167
2389.051	533.875
2391.524	535.875
2393.995	515.54167
2396.464	515.20833
2398.932	511.54167
2401.398	506.875
2403.863	505.54167
2406.325	499.54167
2408.787	513.20833
2411.246	502.875
2413.704	497.20833
2416.16	508.20833
2418.615	505.875
2421.068	524.875
2423.519	519.875
2425.969	502.54167
2428.417	508.20833
2430.863	525.20833
2433.308	511.54167
2435.751	522.875
2438.193	515.875
2440.633	515.875
2443.071	513.20833
2445.508	505.875
2447.943	509.20833
2450.376	501.54167
2452.808	508.20833
2455.238	504.875
2457.667	539.54167
2460.093	494.875
2462.519	490.54167
2464.942	507.20833
2467.365	501.54167
2469.785	517.20833
2472.204	507.20833
2474.621	502.20833
2477.037	515.20833
2479.451	501.54167
2481.863	489.20833
2484.274	493.875
2486.683	500.20833
2489.091	507.54167
2491.497	502.54167
2493.901	513.20833
2496.304	507.54167
2498.705	514.20833
2501.105	504.54167
2503.503	532.54167
2505.899	499.20833
2508.294	515.54167
2510.687	508.20833
2513.079	502.875
2515.469	500.20833
2517.858	506.54167
2520.245	513.875
2522.63	495.54167
2525.014	493.20833
2527.396	495.875
2529.776	493.875
2532.156	509.20833
2534.533	505.54167
2536.909	492.20833
2539.283	486.875
2541.656	484.875
2544.027	509.875
2546.397	502.875
2548.765	498.20833
2551.131	500.54167
2553.496	509.20833
2555.86	507.54167
2558.221	497.54167
2560.582	500.20833
2562.94	493.54167
2565.298	513.20833
2567.653	517.54167
2570.007	501.54167
2572.36	511.875
2574.711	497.54167
2577.06	528.875
2579.408	519.875
2581.754	498.875
2584.099	518.20833
2586.442	500.875
2588.784	512.20833
2591.124	511.20833
2593.463	517.875
2595.8	523.875
2598.135	500.875
2600.469	508.54167
2602.802	519.875
2605.133	533.54167
2607.462	502.20833
2609.79	500.54167
2612.116	518.20833
2614.441	513.875
2616.764	526.875
2619.086	518.54167
2621.406	505.875
2623.725	528.54167
2626.042	519.875
2628.358	507.54167
2630.672	519.875
2632.985	531.54167
2635.296	525.875
2637.606	523.54167
2639.914	521.20833
2642.22	527.54167
2644.525	519.54167
2646.829	521.20833
2649.131	538.54167
2651.432	532.54167
2653.731	535.54167
2656.028	536.875
2658.324	557.20833
2660.619	534.54167
2662.912	552.20833
2665.204	527.875
2667.494	535.875
2669.782	547.875
2672.07	543.875
2674.355	557.20833
2676.639	542.875
2678.922	527.54167
2681.203	549.20833
2683.483	531.875
2685.761	530.54167
2688.038	543.875
2690.313	558.20833
2692.587	557.20833
2694.859	542.875
2697.13	550.20833
2699.399	562.20833
2701.667	567.54167
2703.933	571.54167
2706.198	566.54167
2708.461	572.20833
2710.723	577.54167
2712.984	571.20833
2715.243	577.54167
2717.5	573.20833
2719.757	588.54167
2722.011	577.875
2724.264	586.875
2726.516	605.20833
2728.766	586.54167
2731.015	596.20833
2733.262	593.54167
2735.508	589.20833
2737.753	589.875
2739.996	581.875
2742.237	580.875
2744.477	598.20833
2746.716	595.875
2748.953	591.54167
2751.189	590.875
2753.423	577.20833
2755.656	574.20833
2757.887	573.54167
2760.117	573.20833
2762.346	564.54167
2764.573	562.875
2766.798	564.54167
2769.022	567.54167
2771.245	579.20833
2773.467	575.54167
2775.686	583.20833
2777.905	593.20833
2780.122	603.875
2782.337	596.20833
2784.552	586.20833
2786.764	593.20833
2788.976	590.875
2791.186	605.20833
2793.394	603.875
2795.601	607.54167
2797.807	629.875
2800.011	625.54167
2802.214	627.20833
2804.415	630.20833
2806.615	637.20833
2808.814	641.54167
2811.011	641.54167
2813.206	630.875
2815.401	666.54167
2817.594	654.54167
2819.785	661.54167
2821.975	658.875
2824.164	663.20833
2826.351	676.54167
2828.537	687.20833
2830.722	696.54167
2832.905	702.54167
2835.086	727.875
2837.267	751.20833
2839.445	760.54167
2841.623	778.20833
2843.799	795.54167
2845.974	830.54167
2848.147	860.20833
2850.319	877.54167
2852.489	908.875
2854.659	923.875
2856.826	936.875
2858.993	958.54167
2861.158	937.875
2863.321	944.20833
2865.483	949.54167
2867.644	963.20833
2869.804	945.20833
2871.962	962.54167
2874.118	951.54167
2876.274	955.875
2878.428	957.20833
2880.58	944.875
2882.731	924.54167
2884.881	947.20833
2887.03	934.54167
2889.177	940.54167
2891.322	962.54167
2893.467	962.54167
2895.61	955.875
2897.751	978.20833
2899.892	967.54167
2902.03	974.875
2904.168	991.20833
2906.304	994.875
2908.439	1008.875
2910.572	1005.875
2912.704	1006.875
2914.835	1006.54167
2916.965	1004.54167
2919.093	1026.875
2921.219	997.54167
2923.345	1026.54167
2925.469	985.54167
2927.591	994.875
2929.712	962.20833
2931.832	968.54167
2933.951	956.54167
2936.068	946.875
2938.184	920.875
2940.299	905.54167
2942.412	890.20833
2944.524	856.54167
2946.634	848.20833
2948.744	811.20833
2950.851	836.54167
2952.958	803.875
2955.063	789.54167
2957.167	780.875
2959.269	767.20833
2961.371	791.54167
2963.471	733.54167
2965.569	753.20833
2967.666	732.20833
2969.762	715.875
2971.857	723.875
2973.95	692.54167
2976.042	684.875
2978.133	674.20833
2980.222	666.20833
2982.31	660.54167
2984.396	642.20833
2986.482	631.875
2988.566	638.54167
2990.648	634.875
2992.73	622.875
2994.81	625.54167
2996.889	623.875
2998.966	626.54167
3001.042	623.54167
3003.117	622.875
3005.191	624.54167
3007.263	618.875
3009.334	611.54167
3011.403	616.54167
3013.472	594.54167
3015.539	592.875
3017.604	588.20833
3019.669	554.20833
3021.732	565.875
3023.794	577.54167
3025.854	564.20833
3027.914	565.20833
3029.971	571.875
3032.028	560.54167
3034.083	573.875
3036.137	556.875
3038.19	536.20833
3040.242	530.20833
3042.292	528.875
3044.341	514.875
3046.388	525.54167
3048.435	501.20833
3050.48	514.875
3052.524	513.54167
3054.566	491.20833
3056.607	496.20833
3058.647	488.20833
3060.686	477.20833
3062.723	468.875
3064.759	444.54167
3066.794	-1.45833
3068.828	3.54167
3070.86	2.54167
