-0.839	445.66667
3.438	535.66667
7.711	174
11.981	62
16.247	46.66667
20.509	51.66667
24.768	47.33333
29.024	59.33333
33.276	46
37.524	52
41.769	44
46.01	31.33333
50.247	51.33333
54.481	61.33333
58.712	64
62.939	49.66667
67.162	67
71.382	55.66667
75.599	47.66667
79.812	66.66667
84.021	76.33333
88.227	60
92.429	60
96.628	53.66667
100.823	74.66667
105.015	74.66667
109.204	68.66667
113.388	73.33333
117.57	80
121.748	90.33333
125.922	83.33333
130.093	102.33333
134.261	103.33333
138.425	101
142.585	139.33333
146.742	130.33333
150.896	155.66667
155.046	195.33333
159.193	309.33333
163.336	518
167.476	928.66667
171.613	1732.33333
175.746	2869.33333
179.875	4266
184.002	5614.66667
188.124	6510.66667
192.244	6954
196.36	6920
200.472	6802
204.581	6703
208.687	6548.66667
212.79	6552
216.889	6551
220.984	6630.33333
225.077	6683
229.165	6744.66667
233.251	6799.66667
237.333	6808
241.412	6793.33333
245.487	6755
249.559	6682.66667
253.628	6653.33333
257.694	6545.66667
261.756	6580
265.814	6379.66667
269.87	6194.33333
273.922	5927.33333
277.97	5754.33333
282.016	5658
286.058	5600.33333
290.097	5646
294.132	5689.33333
298.164	5634.33333
302.193	5422.33333
306.219	5052
310.241	4651.33333
314.26	4299.33333
318.276	4031
322.288	3840.66667
326.297	3687.66667
330.303	3591
334.305	3540.33333
338.305	3468
342.301	3418
346.294	3396.66667
350.283	3362.33333
354.269	3383.66667
358.252	3323
362.232	3311.66667
366.209	3285
370.182	3282.33333
374.152	3256
378.119	3267
382.083	3262.33333
386.043	3280.33333
390	3261.66667
393.954	3297.33333
397.905	3274
401.852	3280.33333
405.797	3242.33333
409.738	3279.66667
413.676	3361
417.61	3403
421.542	3278.33333
425.47	3152
429.396	3125.66667
433.318	3122.66667
437.236	3090.33333
441.152	3144.66667
445.065	3067
448.974	3089.33333
452.88	3032.33333
456.783	3028.33333
460.683	2989.33333
464.58	2999
468.473	3013.33333
472.364	3010
476.251	3040
480.135	3084
484.016	3095.33333
487.894	3111.33333
491.769	3110.33333
495.641	3099.33333
499.509	3132.66667
503.375	3125
507.237	3124
511.096	3116.33333
514.952	3149
518.805	3192
522.655	3202
526.502	3142.66667
530.346	3103.66667
534.187	3118.33333
538.024	3105.66667
541.859	3117
545.69	3152.33333
549.519	3113.33333
553.344	3098.66667
557.166	3066.66667
560.985	3033.66667
564.802	3002.33333
568.615	2958.66667
572.425	2899.66667
576.232	2894.33333
580.036	2899
583.836	2887.33333
587.634	2884.66667
591.429	2922
595.221	2971
599.01	3030
602.796	3002.66667
606.578	3044
610.358	3071.66667
614.135	3019
617.909	3022.66667
621.679	2982.66667
625.447	2953.33333
629.212	2957
632.973	2989.66667
636.732	2958
640.488	2966.66667
644.241	2920.33333
647.991	2922.33333
651.737	2947.66667
655.481	2913.33333
659.222	2934.33333
662.96	2931.66667
666.695	2920.33333
670.427	2933.66667
674.156	2941.33333
677.882	2938.66667
681.605	2953
685.325	2902.33333
689.043	2898.33333
692.757	2876.33333
696.468	2895.33333
700.177	2870.66667
703.882	2861.66667
707.585	2840
711.284	2821.66667
714.981	2831.66667
718.675	2836.66667
722.366	2838.66667
726.054	2822.33333
729.739	2825.33333
733.421	2828.33333
737.1	2822.33333
740.777	2848.33333
744.45	2853.66667
748.121	2878.66667
751.789	2921.66667
755.453	2902.33333
759.115	2917.33333
762.774	2941
766.431	2964
770.084	2999.33333
773.734	3019
777.382	3094
781.027	3110
784.669	3127.33333
788.308	3114
791.944	3133.33333
795.577	3116.66667
799.208	3146.33333
802.835	3163.33333
806.46	3175.33333
810.082	3197
813.701	3189
817.317	3237.66667
820.931	3215.66667
824.542	3213.66667
828.149	3170.66667
831.754	3171
835.357	3179
838.956	3168.66667
842.553	3179.66667
846.146	3186.66667
849.737	3155.33333
853.326	3119
856.911	3114
860.493	3153.33333
864.073	3167.33333
867.65	3272.66667
871.225	3298.66667
874.796	3240
878.365	3221.66667
881.931	3243.66667
885.494	3261.33333
889.054	3273.33333
892.612	3262.33333
896.166	3224.33333
899.719	3198
903.268	3163.33333
906.814	3126
910.358	3126.66667
913.899	3116
917.438	3087.66667
920.973	3085
924.506	3120.33333
928.036	3194.66667
931.564	3209
935.088	3262.33333
938.61	3247.33333
942.129	3304.33333
945.646	3364
949.16	3433
952.671	3459
956.179	3490.33333
959.685	3461
963.188	3442.33333
966.688	3397.33333
970.185	3325
973.68	3255.66667
977.173	3191.66667
980.662	3123
984.149	3140.66667
987.633	3145.66667
991.114	3173
994.593	3247.66667
998.069	3295.66667
1001.542	3429.33333
1005.013	3384
1008.481	3187.33333
1011.947	3123.66667
1015.409	3116.33333
1018.869	3111.66667
1022.327	3103.33333
1025.782	3068.33333
1029.234	3058.33333
1032.683	3013.66667
1036.13	2929
1039.574	2838.33333
1043.016	2752.66667
1046.455	2710.33333
1049.891	2691.66667
1053.325	2702.33333
1056.756	2696.33333
1060.184	2700.33333
1063.61	2728
1067.033	2731.33333
1070.454	2747.33333
1073.872	2771.33333
1077.287	2737.33333
1080.7	2762
1084.11	2737.66667
1087.517	2729.33333
1090.922	2676.66667
1094.325	2654.66667
1097.724	2645.33333
1101.122	2646.66667
1104.516	2627.33333
1107.908	2637
1111.298	2689.33333
1114.684	2727
1118.069	2730
1121.45	2756.66667
1124.83	2759.66667
1128.206	2783
1131.58	2810.66667
1134.951	2878
1138.32	2963.66667
1141.687	3059.33333
1145.05	3128.66667
1148.412	3127.66667
1151.77	3134.66667
1155.126	3166
1158.48	3116.66667
1161.831	3149.33333
1165.18	3170.66667
1168.525	3205.66667
1171.869	3232.33333
1175.21	3245.33333
1178.548	3269
1181.884	3317.33333
1185.217	3359.66667
1188.548	3413.33333
1191.877	3517
1195.202	3607
1198.526	3654.33333
1201.846	3669.33333
1205.165	3674
1208.48	3628.33333
1211.794	3597.66667
1215.104	3606.33333
1218.413	3616
1221.719	3566
1225.022	3517.33333
1228.323	3469.33333
1231.621	3434.33333
1234.917	3429.33333
1238.21	3420.33333
1241.501	3386.33333
1244.79	3373.66667
1248.076	3406
1251.359	3431.66667
1254.64	3522.33333
1257.919	3523
1261.195	3579.33333
1264.468	3663
1267.74	3698
1271.008	3729.66667
1274.275	3688.33333
1277.538	3633.33333
1280.8	3645
1284.059	3672.66667
1287.315	3700
1290.569	3682.33333
1293.821	3726.33333
1297.07	3757.33333
1300.317	3727.33333
1303.562	3752.66667
1306.803	3707.33333
1310.043	3694
1313.28	3651
1316.515	3644.33333
1319.747	3598.66667
1322.977	3615.33333
1326.204	3545.33333
1329.429	3487.66667
1332.652	3488.33333
1335.872	3445.33333
1339.09	3438.33333
1342.306	3380.33333
1345.519	3349.33333
1348.729	3297
1351.938	3281.33333
1355.144	3232
1358.347	3183.66667
1361.548	3183.66667
1364.747	3171
1367.944	3126.33333
1371.138	3157.66667
1374.329	3145
1377.518	3159.66667
1380.705	3218.66667
1383.89	3182.66667
1387.072	3094.33333
1390.252	2954.66667
1393.429	2861.33333
1396.605	2781.66667
1399.777	2703.66667
1402.948	2679.33333
1406.116	2658.33333
1409.282	2649.33333
1412.445	2681.66667
1415.606	2690
1418.765	2719
1421.921	2753.33333
1425.075	2816.66667
1428.227	2919.66667
1431.376	3028.66667
1434.524	3127
1437.668	3229
1440.811	3253.66667
1443.951	3285
1447.089	3303.33333
1450.224	3278.33333
1453.357	3307.66667
1456.488	3243.33333
1459.617	3208.33333
1462.743	3186.66667
1465.867	3097.33333
1468.989	3054.66667
1472.108	3010.33333
1475.225	2991.66667
1478.34	2920.66667
1481.453	2939.66667
1484.563	2928.33333
1487.671	2965.66667
1490.776	3006.33333
1493.88	3046.66667
1496.981	3081.66667
1500.08	3135.33333
1503.176	3216.33333
1506.271	3227.66667
1509.363	3270.66667
1512.452	3275.66667
1515.54	3313
1518.625	3371.66667
1521.708	3479.66667
1524.789	3566.66667
1527.867	3687.33333
1530.944	3895.66667
1534.018	4049
1537.089	4185.66667
1540.159	4239.66667
1543.226	4229.33333
1546.291	4151
1549.354	4050.33333
1552.415	3976
1555.473	3877.66667
1558.529	3810
1561.583	3750
1564.634	3742
1567.684	3748.66667
1570.731	3766.33333
1573.776	3820
1576.819	3874
1579.859	3922
1582.898	3946.66667
1585.934	4021
1588.968	4030.33333
1591.999	4008.33333
1595.029	4012.33333
1598.056	4017.33333
1601.081	4075.66667
1604.104	4046.33333
1607.125	4001.66667
1610.144	3913.66667
1613.16	3860
1616.174	3767
1619.186	3693.66667
1622.196	3582
1625.203	3504
1628.209	3457
1631.212	3399.33333
1634.213	3393
1637.212	3376
1640.209	3358.33333
1643.203	3223.33333
1646.196	3110.66667
1649.186	2976.33333
1652.174	2855
1655.16	2754.33333
1658.144	2684.33333
1661.125	2560
1664.105	2443.66667
1667.082	2340.33333
1670.057	2246.33333
1673.03	2113
1676.001	1973
1678.97	1858.33333
1681.937	1743.33333
1684.901	1661.33333
1687.863	1599.33333
1690.824	1510.33333
1693.782	1506.33333
1696.738	1446.33333
1699.692	1419.33333
1702.643	1371.33333
1705.593	1362.66667
1708.54	1346.66667
1711.486	1329.33333
1714.429	1295
1717.37	1282.33333
1720.309	1278.33333
1723.246	1269.33333
1726.181	1254.66667
1729.113	1253.66667
1732.044	1231.66667
1734.972	1223
1737.899	1215
1740.823	1216
1743.745	1214
1746.665	1160.66667
1749.583	1150.66667
1752.499	1133
1755.413	1114.66667
1758.325	1085.33333
1761.235	1101
1764.142	1071.33333
1767.048	1054.33333
1769.951	1051
1772.852	1059.33333
1775.752	1086
1778.649	1112
1781.544	1070.33333
1784.437	1017.33333
1787.328	1025.33333
1790.217	1002.33333
1793.104	979.66667
1795.989	983
1798.872	976.66667
1801.753	978
1804.631	985.66667
1807.508	987.33333
1810.383	984.33333
1813.255	979
1816.126	975.33333
1818.994	971
1821.861	956
1824.725	966.66667
1827.587	954.33333
1830.448	948.33333
1833.306	915.33333
1836.162	937.66667
1839.017	921.66667
1841.869	922
1844.719	912.66667
1847.567	889
1850.414	889.66667
1853.258	902
1856.1	912.33333
1858.94	915.33333
1861.778	902.66667
1864.614	892.66667
1867.448	899.66667
1870.28	878.66667
1873.111	916
1875.939	894.66667
1878.765	903
1881.589	880
1884.411	875
1887.231	887.33333
1890.049	880.66667
1892.865	870.33333
1895.68	873
1898.492	885.66667
1901.302	872.66667
1904.11	870.66667
1906.916	848.33333
1909.721	840.33333
1912.523	837
1915.323	830.66667
1918.122	823
1920.918	845.33333
1923.712	843.66667
1926.505	827.33333
1929.295	815.33333
1932.084	831.33333
1934.87	822.33333
1937.655	811
1940.438	820
1943.218	822
1945.997	826.66667
1948.774	840.33333
1951.549	817.33333
1954.322	806
1957.093	808.33333
1959.862	800
1962.629	790.66667
1965.394	796.33333
1968.157	782
1970.918	785.66667
1973.678	784.33333
1976.435	787.66667
1979.19	788.33333
1981.944	779
1984.696	777
1987.445	756.66667
1990.193	773
1992.939	775.66667
1995.683	766.66667
1998.425	754.33333
2001.165	774
2003.903	755.66667
2006.639	750
2009.374	761
2012.106	760.33333
2014.837	738.33333
2017.566	752.33333
2020.292	744
2023.017	749.33333
2025.74	734.33333
2028.461	741.66667
2031.18	742.66667
2033.898	738.33333
2036.613	744.66667
2039.327	746.33333
2042.038	735.33333
2044.748	715
2047.456	727.33333
2050.162	721.66667
2052.866	723.33333
2055.568	727.66667
2058.268	710
2060.967	716.66667
2063.663	706
2066.358	707.33333
2069.051	701.33333
2071.742	711.66667
2074.431	703.66667
2077.118	699
2079.804	701.33333
2082.487	707.33333
2085.169	703.66667
2087.849	720
2090.527	694.33333
2093.203	703.66667
2095.877	708.33333
2098.55	705
2101.22	709.33333
2103.889	719.66667
2106.556	721
2109.221	725.33333
2111.884	729
2114.546	767.66667
2117.205	804.33333
2119.863	847.33333
2122.519	893
2125.173	941.33333
2127.825	1003.33333
2130.475	1014
2133.124	993.33333
2135.771	958
2138.416	923
2141.059	860
2143.7	838.66667
2146.339	790.33333
2148.977	745.33333
2151.613	747
2154.247	716
2156.879	709.66667
2159.51	696.66667
2162.138	682
2164.765	687.66667
2167.39	663.33333
2170.013	680.66667
2172.634	683.66667
2175.254	662
2177.872	699.66667
2180.488	650
2183.102	654
2185.714	639.33333
2188.325	622
2190.934	623.33333
2193.541	635.66667
2196.146	625
2198.75	617.66667
2201.351	606.66667
2203.951	592.33333
2206.549	624.66667
2209.146	613
2211.74	593.66667
2214.333	603.66667
2216.924	575.66667
2219.514	590
2222.101	585
2224.687	592.33333
2227.271	584
2229.853	576.33333
2232.433	570.66667
2235.012	588.66667
2237.589	582
2240.164	595
2242.738	582.33333
2245.309	564.33333
2247.879	578.33333
2250.448	568
2253.014	558.33333
2255.579	536.66667
2258.142	542
2260.703	543
2263.262	554.33333
2265.82	528.33333
2268.376	534
2270.93	519.33333
2273.483	526
2276.033	532
2278.583	528.66667
2281.13	515.66667
2283.675	515
2286.219	518
2288.761	516.33333
2291.302	525.33333
2293.841	531.66667
2296.377	492.66667
2298.913	510.66667
2301.446	515
2303.978	508.66667
2306.508	492.33333
2309.037	505.66667
2311.563	496
2314.088	507
2316.612	477.66667
2319.133	497.66667
2321.653	494.33333
2324.171	494
2326.688	500
2329.202	492
2331.715	481.66667
2334.227	483.66667
2336.736	489
2339.244	468
2341.751	466.33333
2344.255	474.33333
2346.758	482.66667
2349.259	464.33333
2351.759	473.66667
2354.257	454.33333
2356.753	464.66667
2359.247	470
2361.74	475.66667
2364.231	475.66667
2366.721	468
2369.209	464.33333
2371.695	460.33333
2374.179	448
2376.662	444
2379.143	465.66667
2381.622	458.66667
2384.1	466.33333
2386.576	461
2389.051	465.66667
2391.524	476.66667
2393.995	469
2396.464	454.33333
2398.932	445.33333
2401.398	441.33333
2403.863	449.66667
2406.325	441
2408.787	441.33333
2411.246	446.33333
2413.704	436.33333
2416.16	428.33333
2418.615	430.33333
2421.068	437
2423.519	441.33333
2425.969	424.66667
2428.417	443
2430.863	461
2433.308	451.66667
2435.751	440.33333
2438.193	434.66667
2440.633	443
2443.071	440
2445.508	426.66667
2447.943	424.33333
2450.376	426
2452.808	428.66667
2455.238	413.33333
2457.667	458.66667
2460.093	424.66667
2462.519	414.66667
2464.942	431
2467.365	427.66667
2469.785	431.66667
2472.204	423.33333
2474.621	414.66667
2477.037	430.33333
2479.451	402.66667
2481.863	400
2484.274	406.33333
2486.683	413.33333
2489.091	420.66667
2491.497	410.66667
2493.901	414.33333
2496.304	408
2498.705	413.66667
2501.105	410.33333
2503.503	432
2505.899	386
2508.294	416.66667
2510.687	408.66667
2513.079	402
2515.469	395
2517.858	407.33333
2520.245	412
2522.63	404.66667
2525.014	388.33333
2527.396	393
2529.776	390
2532.156	409
2534.533	392
2536.909	385.66667
2539.283	382
2541.656	384.66667
2544.027	410
2546.397	385.66667
2548.765	382.66667
2551.131	392
2553.496	390.33333
2555.86	394.33333
2558.221	390.33333
2560.582	388.66667
2562.94	374.66667
2565.298	382.66667
2567.653	395.33333
2570.007	369.33333
2572.36	397.66667
2574.711	375.33333
2577.06	396.33333
2579.408	394
2581.754	380.33333
2584.099	389.66667
2586.442	382
2588.784	382
2591.124	378.33333
2593.463	387
2595.8	386.33333
2598.135	368.66667
2600.469	377.66667
2602.802	390.66667
2605.133	393
2607.462	376
2609.79	373.33333
2612.116	384.33333
2614.441	382.33333
2616.764	376.66667
2619.086	386.33333
2621.406	369.33333
2623.725	390.33333
2626.042	383.33333
2628.358	378.66667
2630.672	364
2632.985	387.66667
2635.296	378
2637.606	376.66667
2639.914	363.66667
2642.22	370.66667
2644.525	370.66667
2646.829	387.66667
2649.131	392
2651.432	392.66667
2653.731	378.66667
2656.028	381.33333
2658.324	392.66667
2660.619	374
2662.912	393.66667
2665.204	368.33333
2667.494	396
2669.782	376.66667
2672.07	388.33333
2674.355	388.66667
2676.639	382.33333
2678.922	375.33333
2681.203	377.33333
2683.483	368
2685.761	375.66667
2688.038	379.66667
2690.313	390
2692.587	380.66667
2694.859	372
2697.13	377
2699.399	395.33333
2701.667	398.66667
2703.933	384.33333
2706.198	397.33333
2708.461	400
2710.723	403
2712.984	395
2715.243	397
2717.5	388.33333
2719.757	405
2722.011	402
2724.264	413.66667
2726.516	421
2728.766	406.33333
2731.015	419
2733.262	416.66667
2735.508	409
2737.753	404
2739.996	398
2742.237	405.66667
2744.477	405.66667
2746.716	409
2748.953	389.66667
2751.189	402.66667
2753.423	388.33333
2755.656	372
2757.887	377.33333
2760.117	379
2762.346	374.66667
2764.573	372.33333
2766.798	367
2769.022	383
2771.245	386
2773.467	385.66667
2775.686	379.33333
2777.905	387.66667
2780.122	391
2782.337	394.33333
2784.552	392.33333
2786.764	390
2788.976	392.66667
2791.186	395
2793.394	404.66667
2795.601	407.33333
2797.807	424.33333
2800.011	419.66667
2802.214	418
2804.415	422
2806.615	421
2808.814	422
2811.011	426
2813.206	430.66667
2815.401	447
2817.594	452
2819.785	450
2821.975	443
2824.164	445.66667
2826.351	471.66667
2828.537	486.66667
2830.722	488.66667
2832.905	500
2835.086	516.66667
2837.267	545.66667
2839.445	562
2841.623	572.33333
2843.799	609.66667
2845.974	633
2848.147	655.33333
2850.319	679
2852.489	717
2854.659	716.33333
2856.826	734.66667
2858.993	761.66667
2861.158	737
2863.321	736
2865.483	756.66667
2867.644	760
2869.804	754.66667
2871.962	758
2874.118	776.33333
2876.274	803
2878.428	781.66667
2880.58	776.66667
2882.731	750.33333
2884.881	745.66667
2887.03	763.33333
2889.177	757.33333
2891.322	770
2893.467	763.33333
2895.61	754
2897.751	788
2899.892	786.33333
2902.03	777
2904.168	793
2906.304	794.66667
2908.439	802.66667
2910.572	784.66667
2912.704	802.33333
2914.835	816.33333
2916.965	808
2919.093	817
2921.219	798.33333
2923.345	822.66667
2925.469	782.33333
2927.591	784.33333
2929.712	761.66667
2931.832	756.66667
2933.951	736
2936.068	733.33333
2938.184	708.33333
2940.299	696.66667
2942.412	661
2944.524	638.33333
2946.634	640.33333
2948.744	600
2950.851	617.33333
2952.958	577
2955.063	573.66667
2957.167	561.33333
2959.269	532.66667
2961.371	551.66667
2963.471	516
2965.569	527.33333
2967.666	492.33333
2969.762	483
2971.857	474.66667
2973.95	461.66667
2976.042	462.66667
2978.133	445.66667
2980.222	440.66667
2982.31	426.33333
2984.396	405
2986.482	409.66667
2988.566	401
2990.648	391.33333
2992.73	394.33333
2994.81	382.33333
2996.889	393
2998.966	380.33333
3001.042	393.33333
3003.117	379.66667
3005.191	383
3007.263	374.66667
3009.334	359.33333
3011.403	378.33333
3013.472	347.66667
3015.539	357.66667
3017.604	373
3019.669	332.33333
3021.732	336.66667
3023.794	338.66667
3025.854	332.66667
3027.914	337.66667
3029.971	339.33333
3032.028	327
3034.083	342.33333
3036.137	334
3038.19	319.33333
3040.242	310.33333
3042.292	306
3044.341	308
3046.388	314.66667
3048.435	300.66667
3050.48	315.66667
3052.524	303
3054.566	288.66667
3056.607	296.66667
3058.647	283
3060.686	279.33333
3062.723	269.66667
3064.759	262.66667
3066.794	-1.66667
3068.828	3
3070.86	1.66667
