-0.839	454.45833
3.438	526.79167
7.711	162.125
11.981	65.45833
16.247	46.125
20.509	47.79167
24.768	45.125
29.024	54.125
33.276	48.45833
37.524	49.125
41.769	49.79167
46.01	35.125
50.247	45.125
54.481	58.79167
58.712	59.45833
62.939	50.45833
67.162	63.79167
71.382	57.125
75.599	46.125
79.812	61.45833
84.021	81.45833
88.227	59.79167
92.429	62.125
96.628	53.125
100.823	72.79167
105.015	81.79167
109.204	66.79167
113.388	76.45833
117.57	75.79167
121.748	86.125
125.922	80.45833
130.093	99.125
134.261	98.125
138.425	100.79167
142.585	136.45833
146.742	130.45833
150.896	154.79167
155.046	195.125
159.193	301.79167
163.336	511.79167
167.476	932.45833
171.613	1724.79167
175.746	2886.79167
179.875	4249.125
184.002	5627.45833
188.124	6535.125
192.244	6887.79167
196.36	6874.79167
200.472	6726.79167
204.581	6669.79167
208.687	6521.79167
212.79	6497.125
216.889	6548.125
220.984	6548.125
225.077	6646.79167
229.165	6677.45833
233.251	6778.125
237.333	6762.125
241.412	6724.79167
245.487	6677.125
249.559	6618.79167
253.628	6577.125
257.694	6508.79167
261.756	6471.125
265.814	6340.79167
269.87	6094.79167
273.922	5923.79167
277.97	5707.45833
282.016	5592.79167
286.058	5547.125
290.097	5595.125
294.132	5621.125
298.164	5563.125
302.193	5341.79167
306.219	4975.79167
310.241	4618.125
314.26	4240.125
318.276	3986.45833
322.288	3836.79167
326.297	3643.79167
330.303	3560.125
334.305	3452.45833
338.305	3412.79167
342.301	3344.45833
346.294	3329.45833
350.283	3293.125
354.269	3305.125
358.252	3255.45833
362.232	3278.79167
366.209	3253.45833
370.182	3226.125
374.152	3181.79167
378.119	3216.45833
382.083	3217.125
386.043	3218.79167
390	3190.79167
393.954	3220.45833
397.905	3212.79167
401.852	3218.79167
405.797	3154.45833
409.738	3206.79167
413.676	3288.45833
417.61	3331.45833
421.542	3176.45833
425.47	3075.79167
429.396	3064.79167
433.318	3053.45833
437.236	3021.45833
441.152	3048.79167
445.065	2996.45833
448.974	3009.45833
452.88	2951.125
456.783	2952.79167
460.683	2929.79167
464.58	2932.125
468.473	2944.45833
472.364	2944.45833
476.251	2958.125
480.135	2986.125
484.016	3016.79167
487.894	3017.125
491.769	3040.79167
495.641	3017.45833
499.509	3038.79167
503.375	3036.45833
507.237	3020.125
511.096	3048.79167
514.952	3080.125
518.805	3130.79167
522.655	3123.125
526.502	3066.125
530.346	3041.125
534.187	3017.125
538.024	3063.45833
541.859	3064.79167
545.69	3084.125
549.519	3067.79167
553.344	3049.125
557.166	2987.125
560.985	2985.45833
564.802	2911.125
568.615	2878.125
572.425	2824.45833
576.232	2827.45833
580.036	2826.79167
583.836	2827.79167
587.634	2834.45833
591.429	2818.79167
595.221	2893.125
599.01	2933.79167
602.796	2936.79167
606.578	2974.45833
610.358	2983.45833
614.135	2963.45833
617.909	2942.79167
621.679	2924.79167
625.447	2882.125
629.212	2885.79167
632.973	2885.79167
636.732	2907.125
640.488	2905.125
644.241	2859.125
647.991	2867.45833
651.737	2860.79167
655.481	2839.125
659.222	2843.125
662.96	2811.79167
666.695	2842.45833
670.427	2874.79167
674.156	2875.45833
677.882	2858.45833
681.605	2862.79167
685.325	2839.125
689.043	2855.125
692.757	2803.125
696.468	2811.45833
700.177	2803.125
703.882	2780.125
707.585	2792.45833
711.284	2775.79167
714.981	2754.79167
718.675	2770.79167
722.366	2766.125
726.054	2750.79167
729.739	2748.125
733.421	2774.45833
737.1	2767.125
740.777	2764.125
744.45	2792.79167
748.121	2826.45833
751.789	2859.79167
755.453	2865.125
759.115	2893.125
762.774	2884.125
766.431	2902.125
770.084	2954.125
773.734	2963.45833
777.382	3022.125
781.027	3020.79167
784.669	3047.79167
788.308	3055.45833
791.944	3076.45833
795.577	3050.45833
799.208	3091.125
802.835	3104.45833
806.46	3104.45833
810.082	3136.79167
813.701	3131.79167
817.317	3140.125
820.931	3154.79167
824.542	3151.45833
828.149	3125.125
831.754	3111.125
835.357	3096.45833
838.956	3099.45833
842.553	3127.79167
846.146	3131.45833
849.737	3082.79167
853.326	3055.79167
856.911	3078.79167
860.493	3107.125
864.073	3132.45833
867.65	3212.45833
871.225	3265.79167
874.796	3186.79167
878.365	3187.79167
881.931	3199.45833
885.494	3214.45833
889.054	3253.125
892.612	3201.79167
896.166	3199.125
899.719	3178.125
903.268	3100.45833
906.814	3100.125
910.358	3081.125
913.899	3063.125
917.438	3031.79167
920.973	3033.45833
924.506	3078.45833
928.036	3133.79167
931.564	3150.45833
935.088	3198.79167
938.61	3202.45833
942.129	3249.125
945.646	3317.45833
949.16	3386.79167
952.671	3419.45833
956.179	3410.79167
959.685	3392.125
963.188	3402.125
966.688	3356.45833
970.185	3254.79167
973.68	3208.79167
977.173	3150.45833
980.662	3122.125
984.149	3100.79167
987.633	3059.45833
991.114	3135.125
994.593	3176.45833
998.069	3258.45833
1001.542	3390.79167
1005.013	3334.45833
1008.481	3129.125
1011.947	3067.125
1015.409	3050.125
1018.869	3051.45833
1022.327	3051.45833
1025.782	3041.79167
1029.234	3025.45833
1032.683	2983.79167
1036.13	2897.125
1039.574	2797.125
1043.016	2719.45833
1046.455	2676.125
1049.891	2642.125
1053.325	2647.125
1056.756	2662.79167
1060.184	2656.45833
1063.61	2663.79167
1067.033	2710.45833
1070.454	2717.125
1073.872	2721.79167
1077.287	2733.45833
1080.7	2722.125
1084.11	2705.79167
1087.517	2682.79167
1090.922	2636.45833
1094.325	2595.79167
1097.724	2602.45833
1101.122	2597.45833
1104.516	2587.45833
1107.908	2579.45833
1111.298	2647.45833
1114.684	2657.45833
1118.069	2699.45833
1121.45	2736.45833
1124.83	2731.45833
1128.206	2772.125
1131.58	2764.79167
1134.951	2829.45833
1138.32	2926.125
1141.687	3036.45833
1145.05	3118.125
1148.412	3126.125
1151.77	3117.125
1155.126	3118.125
1158.48	3081.45833
1161.831	3128.79167
1165.18	3144.125
1168.525	3174.79167
1171.869	3202.125
1175.21	3248.45833
1178.548	3273.45833
1181.884	3303.79167
1185.217	3340.45833
1188.548	3404.45833
1191.877	3475.79167
1195.202	3570.45833
1198.526	3600.79167
1201.846	3660.125
1205.165	3651.125
1208.48	3598.45833
1211.794	3558.125
1215.104	3566.125
1218.413	3562.125
1221.719	3563.45833
1225.022	3493.45833
1228.323	3434.45833
1231.621	3427.79167
1234.917	3409.45833
1238.21	3403.125
1241.501	3382.79167
1244.79	3390.45833
1248.076	3367.45833
1251.359	3420.45833
1254.64	3493.125
1257.919	3500.125
1261.195	3570.125
1264.468	3637.45833
1267.74	3675.45833
1271.008	3689.125
1274.275	3650.45833
1277.538	3636.79167
1280.8	3623.45833
1284.059	3634.45833
1287.315	3653.45833
1290.569	3678.79167
1293.821	3688.79167
1297.07	3711.125
1300.317	3704.79167
1303.562	3708.125
1306.803	3692.125
1310.043	3666.79167
1313.28	3639.45833
1316.515	3622.45833
1319.747	3587.45833
1322.977	3562.125
1326.204	3494.79167
1329.429	3483.79167
1332.652	3467.125
1335.872	3420.45833
1339.09	3395.79167
1342.306	3350.125
1345.519	3293.79167
1348.729	3254.125
1351.938	3262.45833
1355.144	3203.79167
1358.347	3140.79167
1361.548	3139.45833
1364.747	3104.45833
1367.944	3123.45833
1371.138	3111.125
1374.329	3102.125
1377.518	3158.79167
1380.705	3189.45833
1383.89	3132.45833
1387.072	3063.125
1390.252	2957.125
1393.429	2839.45833
1396.605	2746.125
1399.777	2675.125
1402.948	2631.45833
1406.116	2635.79167
1409.282	2616.125
1412.445	2625.79167
1415.606	2674.125
1418.765	2679.79167
1421.921	2726.125
1425.075	2808.79167
1428.227	2875.125
1431.376	3006.79167
1434.524	3088.45833
1437.668	3178.125
1440.811	3245.79167
1443.951	3275.125
1447.089	3291.45833
1450.224	3259.125
1453.357	3294.45833
1456.488	3242.79167
1459.617	3204.79167
1462.743	3166.79167
1465.867	3077.45833
1468.989	3079.125
1472.108	2988.79167
1475.225	2942.45833
1478.34	2923.79167
1481.453	2914.45833
1484.563	2925.45833
1487.671	2967.79167
1490.776	2980.45833
1493.88	3059.125
1496.981	3066.45833
1500.08	3113.45833
1503.176	3172.125
1506.271	3205.125
1509.363	3251.79167
1512.452	3280.45833
1515.54	3309.45833
1518.625	3345.45833
1521.708	3442.45833
1524.789	3556.45833
1527.867	3673.45833
1530.944	3861.79167
1534.018	4045.125
1537.089	4200.125
1540.159	4206.45833
1543.226	4208.79167
1546.291	4108.79167
1549.354	4035.79167
1552.415	3931.45833
1555.473	3877.125
1558.529	3803.125
1561.583	3772.125
1564.634	3696.125
1567.684	3701.79167
1570.731	3756.125
1573.776	3798.79167
1576.819	3854.79167
1579.859	3890.45833
1582.898	3942.79167
1585.934	3984.125
1588.968	3996.79167
1591.999	3995.125
1595.029	4018.125
1598.056	4031.79167
1601.081	4038.79167
1604.104	4015.45833
1607.125	3984.125
1610.144	3874.79167
1613.16	3818.79167
1616.174	3749.79167
1619.186	3657.45833
1622.196	3549.79167
1625.203	3480.79167
1628.209	3413.79167
1631.212	3359.125
1634.213	3345.45833
1637.212	3361.79167
1640.209	3261.45833
1643.203	3164.125
1646.196	3043.125
1649.186	2939.45833
1652.174	2822.45833
1655.16	2707.79167
1658.144	2638.125
1661.125	2523.79167
1664.105	2423.125
1667.082	2286.45833
1670.057	2195.125
1673.03	2072.125
1676.001	1949.79167
1678.97	1817.45833
1681.937	1708.79167
1684.901	1626.79167
1687.863	1573.45833
1690.824	1484.79167
1693.782	1484.125
1696.738	1414.45833
1699.692	1391.79167
1702.643	1347.45833
1705.593	1326.79167
1708.54	1332.45833
1711.486	1323.125
1714.429	1273.45833
1717.37	1258.79167
1720.309	1253.125
1723.246	1244.45833
1726.181	1232.79167
1729.113	1217.45833
1732.044	1195.79167
1734.972	1192.125
1737.899	1192.125
1740.823	1190.79167
1743.745	1176.125
1746.665	1132.79167
1749.583	1115.45833
1752.499	1105.45833
1755.413	1099.79167
1758.325	1086.125
1761.235	1077.45833
1764.142	1059.79167
1767.048	1046.45833
1769.951	1031.45833
1772.852	1043.45833
1775.752	1081.125
1778.649	1091.45833
1781.544	1046.125
1784.437	999.125
1787.328	999.45833
1790.217	987.45833
1793.104	970.125
1795.989	966.79167
1798.872	952.79167
1801.753	957.125
1804.631	961.45833
1807.508	978.125
1810.383	961.45833
1813.255	949.125
1816.126	952.125
1818.994	950.45833
1821.861	927.125
1824.725	931.45833
1827.587	939.45833
1830.448	923.79167
1833.306	909.125
1836.162	908.125
1839.017	892.79167
1841.869	892.45833
1844.719	891.125
1847.567	887.45833
1850.414	874.79167
1853.258	879.45833
1856.1	895.125
1858.94	888.125
1861.778	875.125
1864.614	877.125
1867.448	879.45833
1870.28	869.45833
1873.111	895.125
1875.939	865.45833
1878.765	890.125
1881.589	859.125
1884.411	871.125
1887.231	853.45833
1890.049	855.45833
1892.865	865.45833
1895.68	844.125
1898.492	868.45833
1901.302	848.45833
1904.11	844.45833
1906.916	834.45833
1909.721	820.45833
1912.523	824.79167
1915.323	809.45833
1918.122	809.79167
1920.918	812.125
1923.712	820.45833
1926.505	810.45833
1929.295	798.125
1932.084	823.45833
1934.87	818.79167
1937.655	793.125
1940.438	802.125
1943.218	804.125
1945.997	796.45833
1948.774	809.45833
1951.549	808.79167
1954.322	796.79167
1957.093	784.79167
1959.862	786.79167
1962.629	791.125
1965.394	775.79167
1968.157	753.45833
1970.918	767.79167
1973.678	757.125
1976.435	782.79167
1979.19	761.79167
1981.944	748.125
1984.696	759.45833
1987.445	748.125
1990.193	749.79167
1992.939	760.79167
1995.683	755.79167
1998.425	727.79167
2001.165	767.125
2003.903	748.125
2006.639	743.45833
2009.374	743.125
2012.106	743.79167
2014.837	714.45833
2017.566	741.79167
2020.292	743.45833
2023.017	734.79167
2025.74	730.45833
2028.461	708.79167
2031.18	724.45833
2033.898	720.45833
2036.613	719.125
2039.327	725.125
2042.038	700.125
2044.748	703.79167
2047.456	723.79167
2050.162	685.79167
2052.866	696.125
2055.568	708.125
2058.268	702.79167
2060.967	707.125
2063.663	687.79167
2066.358	692.125
2069.051	683.45833
2071.742	693.125
2074.431	693.125
2077.118	687.125
2079.804	667.45833
2082.487	693.45833
2085.169	690.45833
2087.849	705.79167
2090.527	686.79167
2093.203	695.45833
2095.877	699.45833
2098.55	687.45833
2101.22	704.125
2103.889	713.45833
2106.556	695.45833
2109.221	713.125
2111.884	722.125
2114.546	750.125
2117.205	783.45833
2119.863	836.79167
2122.519	878.125
2125.173	939.79167
2127.825	983.45833
2130.475	1000.45833
2133.124	981.125
2135.771	947.45833
2138.416	915.79167
2141.059	854.125
2143.7	827.125
2146.339	790.45833
2148.977	734.79167
2151.613	726.45833
2154.247	713.79167
2156.879	695.125
2159.51	680.125
2162.138	666.79167
2164.765	670.125
2167.39	657.125
2170.013	686.79167
2172.634	667.45833
2175.254	645.79167
2177.872	682.79167
2180.488	641.79167
2183.102	638.45833
2185.714	638.125
2188.325	614.45833
2190.934	629.125
2193.541	631.79167
2196.146	608.125
2198.75	597.125
2201.351	601.125
2203.951	588.125
2206.549	602.45833
2209.146	605.45833
2211.74	590.79167
2214.333	605.45833
2216.924	573.125
2219.514	585.79167
2222.101	587.79167
2224.687	597.45833
2227.271	576.45833
2229.853	564.125
2232.433	557.45833
2235.012	577.125
2237.589	577.45833
2240.164	587.45833
2242.738	572.125
2245.309	548.79167
2247.879	567.125
2250.448	573.45833
2253.014	542.125
2255.579	534.45833
2258.142	534.125
2260.703	521.45833
2263.262	529.45833
2265.82	527.45833
2268.376	524.125
2270.93	509.45833
2273.483	509.79167
2276.033	517.45833
2278.583	519.79167
2281.13	507.79167
2283.675	502.45833
2286.219	509.45833
2288.761	510.125
2291.302	515.45833
2293.841	518.79167
2296.377	485.45833
2298.913	497.125
2301.446	506.45833
2303.978	500.79167
2306.508	495.45833
2309.037	501.79167
2311.563	496.125
2314.088	489.79167
2316.612	470.125
2319.133	493.79167
2321.653	484.45833
2324.171	479.79167
2326.688	492.79167
2329.202	482.125
2331.715	486.79167
2334.227	467.125
2336.736	478.125
2339.244	473.79167
2341.751	459.125
2344.255	481.79167
2346.758	466.125
2349.259	463.125
2351.759	475.79167
2354.257	460.45833
2356.753	446.125
2359.247	460.125
2361.74	463.45833
2364.231	464.125
2366.721	468.79167
2369.209	453.125
2371.695	452.45833
2374.179	455.45833
2376.662	451.45833
2379.143	464.45833
2381.622	439.45833
2384.1	466.45833
2386.576	456.45833
2389.051	466.45833
2391.524	462.45833
2393.995	459.79167
2396.464	437.79167
2398.932	441.79167
2401.398	444.45833
2403.863	449.79167
2406.325	436.79167
2408.787	442.45833
2411.246	440.125
2413.704	435.125
2416.16	427.125
2418.615	430.125
2421.068	438.45833
2423.519	442.125
2425.969	426.125
2428.417	435.125
2430.863	453.79167
2433.308	430.125
2435.751	435.45833
2438.193	429.79167
2440.633	429.125
2443.071	432.125
2445.508	429.125
2447.943	421.79167
2450.376	421.125
2452.808	429.125
2455.238	422.79167
2457.667	451.79167
2460.093	421.125
2462.519	415.45833
2464.942	424.45833
2467.365	417.125
2469.785	427.79167
2472.204	423.79167
2474.621	409.125
2477.037	431.79167
2479.451	397.79167
2481.863	389.125
2484.274	409.45833
2486.683	415.45833
2489.091	417.79167
2491.497	405.45833
2493.901	415.45833
2496.304	405.79167
2498.705	418.45833
2501.105	401.45833
2503.503	430.125
2505.899	389.45833
2508.294	423.79167
2510.687	402.125
2513.079	404.45833
2515.469	392.125
2517.858	396.125
2520.245	410.45833
2522.63	399.79167
2525.014	388.125
2527.396	380.79167
2529.776	379.125
2532.156	408.125
2534.533	383.45833
2536.909	383.125
2539.283	373.45833
2541.656	376.45833
2544.027	397.45833
2546.397	382.45833
2548.765	379.79167
2551.131	386.125
2553.496	390.79167
2555.86	398.45833
2558.221	380.45833
2560.582	389.125
2562.94	372.79167
2565.298	388.79167
2567.653	388.79167
2570.007	369.45833
2572.36	376.45833
2574.711	366.79167
2577.06	400.125
2579.408	381.45833
2581.754	381.79167
2584.099	386.45833
2586.442	377.45833
2588.784	382.79167
2591.124	379.125
2593.463	373.79167
2595.8	377.125
2598.135	366.79167
2600.469	370.79167
2602.802	380.79167
2605.133	382.79167
2607.462	365.79167
2609.79	359.125
2612.116	381.79167
2614.441	379.79167
2616.764	378.79167
2619.086	363.79167
2621.406	369.79167
2623.725	385.45833
2626.042	371.79167
2628.358	368.79167
2630.672	369.79167
2632.985	389.45833
2635.296	379.125
2637.606	377.45833
2639.914	363.45833
2642.22	364.79167
2644.525	372.45833
2646.829	373.79167
2649.131	378.79167
2651.432	390.125
2653.731	380.79167
2656.028	391.45833
2658.324	386.125
2660.619	380.79167
2662.912	386.125
2665.204	367.79167
2667.494	379.79167
2669.782	368.79167
2672.07	386.125
2674.355	386.79167
2676.639	376.79167
2678.922	365.79167
2681.203	380.79167
2683.483	364.45833
2685.761	353.125
2688.038	379.125
2690.313	390.125
2692.587	372.125
2694.859	374.125
2697.13	379.79167
2699.399	390.125
2701.667	393.79167
2703.933	398.45833
2706.198	393.45833
2708.461	399.45833
2710.723	396.125
2712.984	392.125
2715.243	400.45833
2717.5	389.79167
2719.757	400.45833
2722.011	397.79167
2724.264	414.125
2726.516	414.79167
2728.766	402.125
2731.015	398.79167
2733.262	415.45833
2735.508	401.125
2737.753	405.125
2739.996	392.79167
2742.237	391.79167
2744.477	401.79167
2746.716	411.125
2748.953	390.45833
2751.189	399.79167
2753.423	387.79167
2755.656	373.45833
2757.887	370.45833
2760.117	378.79167
2762.346	371.125
2764.573	374.125
2766.798	379.125
2769.022	380.45833
2771.245	386.45833
2773.467	388.79167
2775.686	383.125
2777.905	384.79167
2780.122	387.45833
2782.337	393.79167
2784.552	390.125
2786.764	393.125
2788.976	403.45833
2791.186	400.45833
2793.394	405.45833
2795.601	407.45833
2797.807	427.45833
2800.011	415.79167
2802.214	416.45833
2804.415	410.45833
2806.615	424.45833
2808.814	418.79167
2811.011	428.125
2813.206	425.45833
2815.401	445.45833
2817.594	448.79167
2819.785	456.79167
2821.975	460.125
2824.164	450.125
2826.351	466.125
2828.537	487.125
2830.722	489.125
2832.905	496.125
2835.086	511.79167
2837.267	549.125
2839.445	556.79167
2841.623	581.45833
2843.799	601.79167
2845.974	641.79167
2848.147	657.79167
2850.319	668.45833
2852.489	712.125
2854.659	722.125
2856.826	734.125
2858.993	762.125
2861.158	734.79167
2863.321	752.45833
2865.483	761.125
2867.644	758.125
2869.804	748.79167
2871.962	763.125
2874.118	763.125
2876.274	806.79167
2878.428	788.125
2880.58	771.79167
2882.731	748.79167
2884.881	754.79167
2887.03	752.45833
2889.177	753.125
2891.322	764.45833
2893.467	763.79167
2895.61	753.45833
2897.751	788.125
2899.892	778.79167
2902.03	782.79167
2904.168	781.79167
2906.304	780.45833
2908.439	801.79167
2910.572	800.125
2912.704	795.79167
2914.835	794.79167
2916.965	793.125
2919.093	817.125
2921.219	793.125
2923.345	794.45833
2925.469	781.125
2927.591	789.79167
2929.712	751.125
2931.832	763.125
2933.951	740.45833
2936.068	727.79167
2938.184	718.125
2940.299	686.79167
2942.412	667.45833
2944.524	627.45833
2946.634	641.79167
2948.744	595.125
2950.851	607.79167
2952.958	572.45833
2955.063	575.125
2957.167	550.45833
2959.269	527.45833
2961.371	555.45833
2963.471	519.125
2965.569	522.79167
2967.666	485.125
2969.762	493.125
2971.857	481.45833
2973.95	448.45833
2976.042	459.125
2978.133	457.125
2980.222	429.125
2982.31	406.79167
2984.396	393.125
2986.482	413.79167
2988.566	404.79167
2990.648	394.45833
2992.73	392.125
2994.81	379.125
2996.889	389.125
2998.966	383.125
3001.042	390.79167
3003.117	386.45833
3005.191	382.79167
3007.263	377.45833
3009.334	371.45833
3011.403	372.125
3013.472	363.79167
3015.539	358.125
3017.604	369.125
3019.669	338.125
3021.732	333.79167
3023.794	344.45833
3025.854	333.125
3027.914	330.45833
3029.971	340.125
3032.028	333.125
3034.083	337.125
3036.137	327.79167
3038.19	316.45833
3040.242	304.79167
3042.292	299.125
3044.341	301.45833
3046.388	319.45833
3048.435	288.79167
3050.48	314.79167
3052.524	306.125
3054.566	285.79167
3056.607	295.125
3058.647	292.79167
3060.686	278.79167
3062.723	274.79167
3064.759	253.79167
3066.794	-1.54167
3068.828	1.79167
3070.86	3.45833
