-0.839	397.79167
3.438	482.79167
7.711	148.79167
11.981	59.125
16.247	42.125
20.509	53.125
24.768	45.45833
29.024	53.45833
33.276	43.45833
37.524	50.45833
41.769	47.45833
46.01	34.79167
50.247	47.125
54.481	59.79167
58.712	60.45833
62.939	51.45833
67.162	61.45833
71.382	56.45833
75.599	43.45833
79.812	61.45833
84.021	79.125
88.227	58.79167
92.429	60.125
96.628	55.125
100.823	73.125
105.015	75.125
109.204	68.125
113.388	74.79167
117.57	78.125
121.748	85.45833
125.922	75.125
130.093	97.79167
134.261	97.45833
138.425	97.125
142.585	138.79167
146.742	130.45833
150.896	156.45833
155.046	192.79167
159.193	308.125
163.336	507.45833
167.476	931.125
171.613	1698.79167
175.746	2837.125
179.875	4217.45833
184.002	5515.125
188.124	6412.45833
192.244	6805.79167
196.36	6777.79167
200.472	6609.79167
204.581	6514.125
208.687	6407.45833
212.79	6396.125
216.889	6401.45833
220.984	6455.125
225.077	6511.79167
229.165	6604.45833
233.251	6661.79167
237.333	6669.45833
241.412	6607.45833
245.487	6581.45833
249.559	6511.79167
253.628	6473.45833
257.694	6412.45833
261.756	6359.125
265.814	6200.45833
269.87	5970.79167
273.922	5779.79167
277.97	5587.125
282.016	5497.125
286.058	5447.45833
290.097	5499.79167
294.132	5522.79167
298.164	5481.125
302.193	5243.125
306.219	4860.125
310.241	4469.125
314.26	4116.45833
318.276	3823.125
322.288	3676.125
326.297	3505.45833
330.303	3371.45833
334.305	3292.79167
338.305	3241.45833
342.301	3169.45833
346.294	3152.79167
350.283	3134.79167
354.269	3105.125
358.252	3105.79167
362.232	3080.79167
366.209	3066.79167
370.182	3020.79167
374.152	2989.45833
378.119	3003.125
382.083	2992.79167
386.043	2998.45833
390	2960.45833
393.954	2946.125
397.905	2940.45833
401.852	2956.125
405.797	2910.125
409.738	2931.45833
413.676	2919.79167
417.61	2919.79167
421.542	2870.79167
425.47	2851.79167
429.396	2840.125
433.318	2808.45833
437.236	2811.125
441.152	2820.79167
445.065	2770.79167
448.974	2765.45833
452.88	2727.79167
456.783	2728.125
460.683	2695.79167
464.58	2709.125
468.473	2706.79167
472.364	2737.125
476.251	2727.125
480.135	2758.45833
484.016	2798.45833
487.894	2815.45833
491.769	2807.79167
495.641	2781.125
499.509	2809.45833
503.375	2808.125
507.237	2804.125
511.096	2824.45833
514.952	2895.79167
518.805	2952.125
522.655	2980.79167
526.502	2884.45833
530.346	2811.45833
534.187	2845.125
538.024	2815.79167
541.859	2842.45833
545.69	2853.45833
549.519	2833.125
553.344	2821.79167
557.166	2790.125
560.985	2734.125
564.802	2693.79167
568.615	2626.125
572.425	2579.45833
576.232	2579.45833
580.036	2577.125
583.836	2597.79167
587.634	2606.125
591.429	2619.125
595.221	2654.79167
599.01	2704.125
602.796	2729.79167
606.578	2727.45833
610.358	2751.125
614.135	2705.79167
617.909	2716.125
621.679	2676.45833
625.447	2665.125
629.212	2651.125
632.973	2648.45833
636.732	2647.79167
640.488	2641.79167
644.241	2641.45833
647.991	2622.79167
651.737	2655.79167
655.481	2626.45833
659.222	2612.45833
662.96	2617.125
666.695	2627.125
670.427	2636.79167
674.156	2679.125
677.882	2629.79167
681.605	2646.125
685.325	2595.125
689.043	2610.79167
692.757	2569.125
696.468	2591.79167
700.177	2574.79167
703.882	2549.125
707.585	2559.125
711.284	2581.125
714.981	2544.125
718.675	2569.79167
722.366	2567.79167
726.054	2553.45833
729.739	2559.45833
733.421	2568.79167
737.1	2550.45833
740.777	2559.125
744.45	2581.125
748.121	2587.45833
751.789	2660.125
755.453	2629.45833
759.115	2673.45833
762.774	2690.45833
766.431	2693.45833
770.084	2730.125
773.734	2731.79167
777.382	2821.79167
781.027	2817.125
784.669	2858.79167
788.308	2866.125
791.944	2891.79167
795.577	2861.125
799.208	2883.79167
802.835	2917.125
806.46	2923.79167
810.082	2939.79167
813.701	2955.125
817.317	2970.79167
820.931	2969.45833
824.542	2970.125
828.149	2914.79167
831.754	2933.125
835.357	2914.125
838.956	2896.45833
842.553	2952.125
846.146	2928.79167
849.737	2883.79167
853.326	2893.125
856.911	2897.125
860.493	2932.45833
864.073	2933.125
867.65	2984.125
871.225	3031.45833
874.796	3020.79167
878.365	3014.79167
881.931	3026.45833
885.494	3038.125
889.054	3043.79167
892.612	3070.79167
896.166	3007.45833
899.719	2986.125
903.268	2919.125
906.814	2930.45833
910.358	2926.125
913.899	2905.79167
917.438	2888.125
920.973	2892.79167
924.506	2950.45833
928.036	2963.45833
931.564	3016.79167
935.088	3045.125
938.61	3048.125
942.129	3113.125
945.646	3152.125
949.16	3223.45833
952.671	3286.45833
956.179	3284.45833
959.685	3237.125
963.188	3259.45833
966.688	3196.125
970.185	3103.79167
973.68	3055.79167
977.173	2994.45833
980.662	2962.45833
984.149	2938.45833
987.633	2942.45833
991.114	2987.45833
994.593	3033.79167
998.069	3131.79167
1001.542	3224.45833
1005.013	3169.79167
1008.481	3005.125
1011.947	2984.79167
1015.409	2963.125
1018.869	2961.125
1022.327	2936.125
1025.782	2916.79167
1029.234	2884.45833
1032.683	2880.125
1036.13	2802.79167
1039.574	2673.79167
1043.016	2590.79167
1046.455	2562.45833
1049.891	2519.125
1053.325	2547.79167
1056.756	2531.45833
1060.184	2559.125
1063.61	2568.45833
1067.033	2573.79167
1070.454	2576.79167
1073.872	2610.45833
1077.287	2582.125
1080.7	2595.125
1084.11	2583.125
1087.517	2571.79167
1090.922	2526.45833
1094.325	2507.45833
1097.724	2500.125
1101.122	2521.45833
1104.516	2505.125
1107.908	2484.125
1111.298	2550.125
1114.684	2558.125
1118.069	2597.45833
1121.45	2642.125
1124.83	2608.125
1128.206	2657.45833
1131.58	2684.79167
1134.951	2765.79167
1138.32	2862.125
1141.687	2961.45833
1145.05	3049.125
1148.412	3083.125
1151.77	3083.79167
1155.126	3051.79167
1158.48	3024.79167
1161.831	3033.79167
1165.18	3033.45833
1168.525	3109.45833
1171.869	3125.79167
1175.21	3149.45833
1178.548	3168.125
1181.884	3184.79167
1185.217	3240.79167
1188.548	3302.79167
1191.877	3359.45833
1195.202	3448.125
1198.526	3499.45833
1201.846	3543.125
1205.165	3498.45833
1208.48	3479.45833
1211.794	3446.125
1215.104	3450.45833
1218.413	3446.45833
1221.719	3460.45833
1225.022	3385.125
1228.323	3342.125
1231.621	3350.45833
1234.917	3306.125
1238.21	3324.79167
1241.501	3306.79167
1244.79	3298.125
1248.076	3309.125
1251.359	3354.125
1254.64	3425.125
1257.919	3428.45833
1261.195	3520.125
1264.468	3576.45833
1267.74	3613.125
1271.008	3629.45833
1274.275	3600.125
1277.538	3558.125
1280.8	3548.45833
1284.059	3504.45833
1287.315	3566.79167
1290.569	3563.45833
1293.821	3593.45833
1297.07	3612.79167
1300.317	3638.79167
1303.562	3636.79167
1306.803	3598.45833
1310.043	3581.79167
1313.28	3545.125
1316.515	3511.79167
1319.747	3496.79167
1322.977	3453.125
1326.204	3422.125
1329.429	3345.125
1332.652	3328.79167
1335.872	3271.79167
1339.09	3245.125
1342.306	3234.125
1345.519	3211.125
1348.729	3164.45833
1351.938	3169.125
1355.144	3105.79167
1358.347	3047.125
1361.548	3057.125
1364.747	3028.79167
1367.944	2985.45833
1371.138	3037.45833
1374.329	3046.125
1377.518	3070.45833
1380.705	3099.45833
1383.89	3073.45833
1387.072	2968.79167
1390.252	2863.125
1393.429	2751.45833
1396.605	2683.45833
1399.777	2595.79167
1402.948	2578.125
1406.116	2554.79167
1409.282	2549.79167
1412.445	2532.45833
1415.606	2584.79167
1418.765	2595.45833
1421.921	2638.45833
1425.075	2725.125
1428.227	2802.79167
1431.376	2916.79167
1434.524	3042.79167
1437.668	3107.125
1440.811	3175.125
1443.951	3186.125
1447.089	3212.79167
1450.224	3189.45833
1453.357	3175.45833
1456.488	3143.125
1459.617	3132.125
1462.743	3089.45833
1465.867	2999.79167
1468.989	2958.79167
1472.108	2905.125
1475.225	2860.125
1478.34	2823.125
1481.453	2830.79167
1484.563	2831.45833
1487.671	2866.79167
1490.776	2921.125
1493.88	2992.79167
1496.981	3004.45833
1500.08	3066.79167
1503.176	3128.125
1506.271	3164.45833
1509.363	3205.79167
1512.452	3219.45833
1515.54	3273.79167
1518.625	3303.125
1521.708	3401.125
1524.789	3509.125
1527.867	3671.45833
1530.944	3866.45833
1534.018	3987.79167
1537.089	4179.45833
1540.159	4211.79167
1543.226	4200.45833
1546.291	4094.79167
1549.354	4017.125
1552.415	3918.79167
1555.473	3833.125
1558.529	3737.125
1561.583	3707.79167
1564.634	3677.79167
1567.684	3675.125
1570.731	3683.45833
1573.776	3758.79167
1576.819	3806.125
1579.859	3852.79167
1582.898	3849.79167
1585.934	3921.45833
1588.968	3946.125
1591.999	3923.79167
1595.029	3947.125
1598.056	3957.79167
1601.081	3967.79167
1604.104	3951.125
1607.125	3922.79167
1610.144	3838.45833
1613.16	3768.125
1616.174	3665.125
1619.186	3579.45833
1622.196	3480.45833
1625.203	3395.125
1628.209	3324.79167
1631.212	3259.45833
1634.213	3251.79167
1637.212	3224.45833
1640.209	3167.45833
1643.203	3086.125
1646.196	2982.45833
1649.186	2844.79167
1652.174	2746.45833
1655.16	2639.45833
1658.144	2560.45833
1661.125	2417.79167
1664.105	2321.45833
1667.082	2224.125
1670.057	2128.45833
1673.03	2005.79167
1676.001	1865.45833
1678.97	1757.79167
1681.937	1658.45833
1684.901	1571.45833
1687.863	1503.45833
1690.824	1431.125
1693.782	1423.45833
1696.738	1341.125
1699.692	1329.45833
1702.643	1280.79167
1705.593	1274.45833
1708.54	1273.125
1711.486	1268.45833
1714.429	1200.125
1717.37	1215.125
1720.309	1183.45833
1723.246	1180.45833
1726.181	1156.125
1729.113	1161.45833
1732.044	1154.125
1734.972	1144.125
1737.899	1141.79167
1740.823	1124.125
1743.745	1129.79167
1746.665	1092.125
1749.583	1068.125
1752.499	1055.45833
1755.413	1037.45833
1758.325	1022.125
1761.235	1011.45833
1764.142	985.79167
1767.048	986.45833
1769.951	971.79167
1772.852	980.125
1775.752	976.125
1778.649	982.45833
1781.544	978.79167
1784.437	939.79167
1787.328	943.125
1790.217	916.79167
1793.104	911.125
1795.989	912.125
1798.872	913.79167
1801.753	929.125
1804.631	908.79167
1807.508	919.45833
1810.383	917.45833
1813.255	896.125
1816.126	907.79167
1818.994	894.45833
1821.861	871.79167
1824.725	889.79167
1827.587	875.45833
1830.448	878.79167
1833.306	855.45833
1836.162	865.45833
1839.017	861.79167
1841.869	851.79167
1844.719	857.45833
1847.567	843.125
1850.414	824.79167
1853.258	834.79167
1856.1	846.125
1858.94	854.79167
1861.778	838.125
1864.614	824.125
1867.448	828.45833
1870.28	813.45833
1873.111	837.79167
1875.939	829.125
1878.765	842.45833
1881.589	823.45833
1884.411	827.45833
1887.231	827.45833
1890.049	810.125
1892.865	821.79167
1895.68	803.45833
1898.492	820.125
1901.302	802.79167
1904.11	806.45833
1906.916	800.125
1909.721	782.45833
1912.523	799.45833
1915.323	783.125
1918.122	771.79167
1920.918	785.79167
1923.712	781.125
1926.505	766.125
1929.295	765.45833
1932.084	780.45833
1934.87	773.45833
1937.655	756.79167
1940.438	764.125
1943.218	766.45833
1945.997	770.45833
1948.774	785.45833
1951.549	770.45833
1954.322	763.79167
1957.093	749.45833
1959.862	752.125
1962.629	739.125
1965.394	746.79167
1968.157	729.45833
1970.918	744.45833
1973.678	738.125
1976.435	741.45833
1979.19	735.79167
1981.944	739.79167
1984.696	727.45833
1987.445	714.45833
1990.193	733.125
1992.939	741.125
1995.683	731.79167
1998.425	700.45833
2001.165	738.45833
2003.903	711.45833
2006.639	712.125
2009.374	730.79167
2012.106	721.45833
2014.837	702.125
2017.566	714.79167
2020.292	703.45833
2023.017	718.45833
2025.74	700.79167
2028.461	705.45833
2031.18	696.45833
2033.898	700.125
2036.613	690.79167
2039.327	701.45833
2042.038	683.79167
2044.748	687.125
2047.456	694.45833
2050.162	665.45833
2052.866	678.45833
2055.568	705.79167
2058.268	674.79167
2060.967	694.125
2063.663	679.45833
2066.358	682.45833
2069.051	675.45833
2071.742	686.125
2074.431	684.79167
2077.118	669.45833
2079.804	675.45833
2082.487	674.45833
2085.169	685.125
2087.849	689.79167
2090.527	672.45833
2093.203	678.45833
2095.877	676.45833
2098.55	676.45833
2101.22	686.45833
2103.889	691.125
2106.556	692.125
2109.221	712.79167
2111.884	703.45833
2114.546	747.79167
2117.205	784.79167
2119.863	839.79167
2122.519	863.79167
2125.173	914.45833
2127.825	978.45833
2130.475	981.45833
2133.124	964.125
2135.771	923.125
2138.416	901.45833
2141.059	845.79167
2143.7	817.79167
2146.339	771.45833
2148.977	734.45833
2151.613	739.125
2154.247	720.45833
2156.879	709.125
2159.51	678.79167
2162.138	681.79167
2164.765	667.125
2167.39	664.45833
2170.013	681.79167
2172.634	669.79167
2175.254	664.79167
2177.872	679.125
2180.488	645.125
2183.102	647.45833
2185.714	647.125
2188.325	618.45833
2190.934	632.125
2193.541	637.79167
2196.146	617.45833
2198.75	618.45833
2201.351	612.125
2203.951	604.45833
2206.549	627.125
2209.146	611.45833
2211.74	613.125
2214.333	612.45833
2216.924	590.79167
2219.514	597.45833
2222.101	592.45833
2224.687	609.79167
2227.271	596.79167
2229.853	584.125
2232.433	578.79167
2235.012	595.79167
2237.589	589.125
2240.164	608.79167
2242.738	577.125
2245.309	580.79167
2247.879	590.79167
2250.448	590.45833
2253.014	563.79167
2255.579	560.125
2258.142	558.45833
2260.703	549.79167
2263.262	555.45833
2265.82	554.125
2268.376	563.79167
2270.93	543.45833
2273.483	528.79167
2276.033	551.79167
2278.583	543.125
2281.13	550.45833
2283.675	537.79167
2286.219	543.45833
2288.761	547.125
2291.302	540.125
2293.841	554.125
2296.377	520.45833
2298.913	525.79167
2301.446	546.45833
2303.978	548.79167
2306.508	532.45833
2309.037	535.45833
2311.563	529.45833
2314.088	534.125
2316.612	515.45833
2319.133	520.125
2321.653	519.125
2324.171	514.79167
2326.688	524.125
2329.202	520.45833
2331.715	520.45833
2334.227	520.45833
2336.736	521.45833
2339.244	519.45833
2341.751	496.45833
2344.255	521.79167
2346.758	521.79167
2349.259	506.125
2351.759	515.79167
2354.257	508.125
2356.753	517.45833
2359.247	514.45833
2361.74	518.125
2364.231	505.79167
2366.721	517.125
2369.209	510.125
2371.695	507.125
2374.179	506.79167
2376.662	495.79167
2379.143	516.125
2381.622	504.45833
2384.1	515.79167
2386.576	507.45833
2389.051	529.79167
2391.524	517.79167
2393.995	520.125
2396.464	502.79167
2398.932	514.45833
2401.398	500.125
2403.863	507.125
2406.325	508.45833
2408.787	505.45833
2411.246	503.79167
2413.704	502.125
2416.16	503.79167
2418.615	509.125
2421.068	517.45833
2423.519	505.45833
2425.969	502.125
2428.417	507.79167
2430.863	528.45833
2433.308	514.45833
2435.751	516.45833
2438.193	513.79167
2440.633	508.125
2443.071	511.125
2445.508	498.45833
2447.943	504.45833
2450.376	491.125
2452.808	505.125
2455.238	498.125
2457.667	534.79167
2460.093	503.125
2462.519	491.125
2464.942	504.79167
2467.365	509.45833
2469.785	512.79167
2472.204	505.45833
2474.621	490.45833
2477.037	521.45833
2479.451	487.125
2481.863	488.45833
2484.274	493.79167
2486.683	499.79167
2489.091	502.125
2491.497	502.45833
2493.901	506.45833
2496.304	500.45833
2498.705	511.45833
2501.105	499.45833
2503.503	532.79167
2505.899	486.79167
2508.294	513.79167
2510.687	511.45833
2513.079	504.79167
2515.469	497.45833
2517.858	492.125
2520.245	511.45833
2522.63	498.45833
2525.014	502.45833
2527.396	499.79167
2529.776	492.79167
2532.156	509.125
2534.533	495.125
2536.909	495.125
2539.283	483.125
2541.656	489.45833
2544.027	515.45833
2546.397	498.125
2548.765	495.79167
2551.131	494.79167
2553.496	490.79167
2555.86	499.45833
2558.221	502.45833
2560.582	499.45833
2562.94	485.125
2565.298	497.125
2567.653	512.125
2570.007	495.45833
2572.36	506.45833
2574.711	495.45833
2577.06	508.125
2579.408	514.45833
2581.754	499.125
2584.099	514.45833
2586.442	503.125
2588.784	506.79167
2591.124	518.45833
2593.463	503.79167
2595.8	523.79167
2598.135	501.45833
2600.469	508.79167
2602.802	511.79167
2605.133	516.79167
2607.462	497.45833
2609.79	497.79167
2612.116	517.125
2614.441	520.45833
2616.764	509.45833
2619.086	514.45833
2621.406	499.125
2623.725	528.45833
2626.042	520.45833
2628.358	515.125
2630.672	512.79167
2632.985	530.125
2635.296	522.45833
2637.606	524.79167
2639.914	510.45833
2642.22	518.125
2644.525	523.45833
2646.829	521.125
2649.131	544.45833
2651.432	531.45833
2653.731	528.125
2656.028	546.125
2658.324	549.79167
2660.619	528.45833
2662.912	546.79167
2665.204	521.125
2667.494	538.45833
2669.782	541.125
2672.07	547.45833
2674.355	546.45833
2676.639	535.125
2678.922	530.79167
2681.203	544.79167
2683.483	534.45833
2685.761	537.79167
2688.038	558.125
2690.313	563.79167
2692.587	559.79167
2694.859	539.79167
2697.13	547.125
2699.399	558.79167
2701.667	568.125
2703.933	562.79167
2706.198	571.125
2708.461	571.79167
2710.723	574.79167
2712.984	568.79167
2715.243	580.125
2717.5	571.125
2719.757	584.79167
2722.011	572.45833
2724.264	591.79167
2726.516	604.79167
2728.766	583.79167
2731.015	590.125
2733.262	599.79167
2735.508	589.79167
2737.753	593.79167
2739.996	581.79167
2742.237	587.125
2744.477	589.125
2746.716	601.45833
2748.953	576.125
2751.189	580.45833
2753.423	586.125
2755.656	565.79167
2757.887	566.45833
2760.117	579.79167
2762.346	564.45833
2764.573	559.79167
2766.798	566.79167
2769.022	580.125
2771.245	576.79167
2773.467	573.45833
2775.686	574.79167
2777.905	586.45833
2780.122	598.125
2782.337	602.45833
2784.552	584.79167
2786.764	594.125
2788.976	589.45833
2791.186	600.79167
2793.394	603.79167
2795.601	613.125
2797.807	626.45833
2800.011	626.125
2802.214	626.79167
2804.415	637.125
2806.615	633.125
2808.814	644.79167
2811.011	635.79167
2813.206	644.125
2815.401	654.125
2817.594	662.79167
2819.785	663.45833
2821.975	655.125
2824.164	660.125
2826.351	680.45833
2828.537	690.45833
2830.722	701.45833
2832.905	701.125
2835.086	732.125
2837.267	761.79167
2839.445	766.125
2841.623	790.125
2843.799	806.45833
2845.974	840.125
2848.147	857.125
2850.319	882.79167
2852.489	921.79167
2854.659	936.45833
2856.826	933.79167
2858.993	973.125
2861.158	948.45833
2863.321	948.125
2865.483	962.79167
2867.644	959.45833
2869.804	938.125
2871.962	948.45833
2874.118	959.45833
2876.274	966.79167
2878.428	966.45833
2880.58	945.125
2882.731	949.79167
2884.881	940.45833
2887.03	958.45833
2889.177	962.125
2891.322	957.79167
2893.467	955.125
2895.61	961.45833
2897.751	981.79167
2899.892	978.45833
2902.03	981.79167
2904.168	988.79167
2906.304	990.45833
2908.439	1017.45833
2910.572	998.79167
2912.704	1018.79167
2914.835	1011.79167
2916.965	1013.79167
2919.093	1027.79167
2921.219	1001.79167
2923.345	1023.79167
2925.469	993.45833
2927.591	994.125
2929.712	974.125
2931.832	955.125
2933.951	945.45833
2936.068	927.125
2938.184	934.125
2940.299	901.79167
2942.412	895.125
2944.524	848.79167
2946.634	843.125
2948.744	802.125
2950.851	829.79167
2952.958	797.45833
2955.063	807.45833
2957.167	787.125
2959.269	761.79167
2961.371	787.79167
2963.471	759.45833
2965.569	748.79167
2967.666	719.125
2969.762	721.79167
2971.857	706.45833
2973.95	686.45833
2976.042	695.79167
2978.133	675.79167
2980.222	670.79167
2982.31	655.125
2984.396	637.45833
2986.482	637.79167
2988.566	644.125
2990.648	639.125
2992.73	630.45833
2994.81	615.79167
2996.889	630.79167
2998.966	625.125
3001.042	634.45833
3003.117	624.79167
3005.191	619.79167
3007.263	619.45833
3009.334	606.45833
3011.403	613.45833
3013.472	594.79167
3015.539	598.45833
3017.604	602.79167
3019.669	565.125
3021.732	563.125
3023.794	565.45833
3025.854	568.79167
3027.914	565.125
3029.971	577.79167
3032.028	568.125
3034.083	568.45833
3036.137	563.45833
3038.19	536.45833
3040.242	528.45833
3042.292	532.125
3044.341	532.79167
3046.388	525.45833
3048.435	501.79167
3050.48	525.45833
3052.524	520.125
3054.566	488.125
3056.607	507.45833
3058.647	494.45833
3060.686	485.125
3062.723	464.79167
3064.759	452.125
3066.794	-2.54167
3068.828	2.79167
3070.86	3.45833
