-0.839	425.375
3.438	462.04167
7.711	128.375
11.981	52.70833
16.247	42.70833
20.509	40.70833
24.768	41.70833
29.024	45.70833
33.276	43.04167
37.524	51.70833
41.769	41.70833
46.01	33.70833
50.247	48.70833
54.481	58.70833
58.712	62.70833
62.939	51.04167
67.162	63.04167
71.382	58.375
75.599	44.375
79.812	63.04167
84.021	81.375
88.227	56.70833
92.429	61.375
96.628	47.04167
100.823	63.70833
105.015	71.70833
109.204	74.04167
113.388	72.375
117.57	69.04167
121.748	87.04167
125.922	75.375
130.093	89.375
134.261	95.70833
138.425	90.70833
142.585	135.04167
146.742	130.375
150.896	158.70833
155.046	181.70833
159.193	285.70833
163.336	492.04167
167.476	895.04167
171.613	1642.70833
175.746	2760.04167
179.875	4075.04167
184.002	5379.04167
188.124	6181.375
192.244	6441.04167
196.36	6351.375
200.472	6180.70833
204.581	5968.375
208.687	5773.04167
212.79	5699.04167
216.889	5624.375
220.984	5681.70833
225.077	5748.70833
229.165	5719.70833
233.251	5742.375
237.333	5710.70833
241.412	5684.70833
245.487	5615.04167
249.559	5529.70833
253.628	5462.375
257.694	5391.70833
261.756	5322.04167
265.814	5218.375
269.87	5068.375
273.922	4951.375
277.97	4891.70833
282.016	4900.04167
286.058	4909.375
290.097	5009.375
294.132	5050.375
298.164	4965.375
302.193	4745.04167
306.219	4403.375
310.241	4001.375
314.26	3657.375
318.276	3336.70833
322.288	3127.70833
326.297	2954.70833
330.303	2846.375
334.305	2767.04167
338.305	2706.04167
342.301	2663.375
346.294	2632.04167
350.283	2587.04167
354.269	2561.04167
358.252	2531.04167
362.232	2504.375
366.209	2510.04167
370.182	2474.70833
374.152	2455.70833
378.119	2478.375
382.083	2464.70833
386.043	2483.375
390	2440.375
393.954	2415.375
397.905	2394.04167
401.852	2373.375
405.797	2323.04167
409.738	2314.70833
413.676	2293.04167
417.61	2279.04167
421.542	2264.375
425.47	2232.70833
429.396	2207.375
433.318	2204.04167
437.236	2189.375
441.152	2188.375
445.065	2150.375
448.974	2155.375
452.88	2102.04167
456.783	2115.375
460.683	2085.04167
464.58	2103.375
468.473	2102.04167
472.364	2119.04167
476.251	2126.70833
480.135	2105.375
484.016	2156.375
487.894	2162.70833
491.769	2191.375
495.641	2180.70833
499.509	2193.04167
503.375	2206.375
507.237	2219.375
511.096	2318.375
514.952	2645.70833
518.805	3040.375
522.655	3163.70833
526.502	2612.04167
530.346	2250.70833
534.187	2178.70833
538.024	2157.375
541.859	2148.375
545.69	2168.04167
549.519	2134.375
553.344	2130.04167
557.166	2097.04167
560.985	2067.04167
564.802	2037.375
568.615	2009.70833
572.425	1982.70833
576.232	1954.70833
580.036	1941.70833
583.836	1969.70833
587.634	1979.70833
591.429	1963.375
595.221	1985.375
599.01	2022.04167
602.796	2050.04167
606.578	2072.04167
610.358	2059.70833
614.135	2063.70833
617.909	2043.70833
621.679	2046.375
625.447	2042.04167
629.212	2035.04167
632.973	2043.04167
636.732	2028.375
640.488	2027.04167
644.241	2000.04167
647.991	2000.375
651.737	1997.70833
655.481	1979.375
659.222	1996.04167
662.96	1970.04167
666.695	2012.04167
670.427	2007.375
674.156	2008.70833
677.882	2009.375
681.605	2017.375
685.325	1996.375
689.043	2001.375
692.757	1996.04167
696.468	2012.04167
700.177	2013.375
703.882	1977.375
707.585	2009.375
711.284	2016.04167
714.981	1994.04167
718.675	2024.70833
722.366	2025.04167
726.054	2027.375
729.739	2025.04167
733.421	2024.04167
737.1	2003.375
740.777	2021.04167
744.45	2042.04167
748.121	2062.04167
751.789	2102.375
755.453	2098.375
759.115	2080.375
762.774	2128.375
766.431	2171.70833
770.084	2168.375
773.734	2195.375
777.382	2235.70833
781.027	2239.70833
784.669	2255.70833
788.308	2260.375
791.944	2299.375
795.577	2302.04167
799.208	2339.375
802.835	2346.375
806.46	2343.70833
810.082	2373.04167
813.701	2347.70833
817.317	2379.375
820.931	2382.375
824.542	2396.375
828.149	2355.70833
831.754	2363.70833
835.357	2345.04167
838.956	2346.375
842.553	2335.04167
846.146	2346.375
849.737	2351.375
853.326	2355.375
856.911	2332.04167
860.493	2377.04167
864.073	2387.04167
867.65	2432.04167
871.225	2460.04167
874.796	2446.04167
878.365	2489.04167
881.931	2509.04167
885.494	2529.70833
889.054	2527.70833
892.612	2553.375
896.166	2535.04167
899.719	2495.375
903.268	2480.70833
906.814	2457.04167
910.358	2436.04167
913.899	2418.70833
917.438	2405.375
920.973	2382.70833
924.506	2431.70833
928.036	2467.04167
931.564	2497.70833
935.088	2520.375
938.61	2554.375
942.129	2578.04167
945.646	2640.375
949.16	2712.70833
952.671	2732.375
956.179	2767.70833
959.685	2695.04167
963.188	2688.375
966.688	2631.375
970.185	2566.04167
973.68	2525.375
977.173	2524.04167
980.662	2524.375
984.149	2528.375
987.633	2529.04167
991.114	2564.375
994.593	2644.70833
998.069	2710.70833
1001.542	2770.70833
1005.013	2723.70833
1008.481	2556.04167
1011.947	2509.375
1015.409	2493.04167
1018.869	2502.04167
1022.327	2509.04167
1025.782	2476.375
1029.234	2475.70833
1032.683	2454.04167
1036.13	2384.70833
1039.574	2284.04167
1043.016	2235.70833
1046.455	2211.70833
1049.891	2147.70833
1053.325	2180.375
1056.756	2177.375
1060.184	2183.70833
1063.61	2198.375
1067.033	2205.04167
1070.454	2199.04167
1073.872	2234.04167
1077.287	2242.375
1080.7	2220.70833
1084.11	2263.375
1087.517	2235.04167
1090.922	2199.70833
1094.325	2165.70833
1097.724	2170.04167
1101.122	2157.70833
1104.516	2147.04167
1107.908	2141.375
1111.298	2195.70833
1114.684	2209.70833
1118.069	2245.04167
1121.45	2247.04167
1124.83	2243.04167
1128.206	2272.70833
1131.58	2314.70833
1134.951	2353.375
1138.32	2438.375
1141.687	2536.70833
1145.05	2590.375
1148.412	2617.70833
1151.77	2596.70833
1155.126	2605.70833
1158.48	2608.70833
1161.831	2617.375
1165.18	2645.375
1168.525	2656.70833
1171.869	2704.04167
1175.21	2743.70833
1178.548	2758.70833
1181.884	2799.04167
1185.217	2793.04167
1188.548	2861.70833
1191.877	2888.375
1195.202	2978.70833
1198.526	2989.375
1201.846	3014.375
1205.165	3030.375
1208.48	2998.70833
1211.794	2984.04167
1215.104	3004.04167
1218.413	2983.04167
1221.719	2994.375
1225.022	2946.375
1228.323	2948.04167
1231.621	2963.70833
1234.917	2951.375
1238.21	2949.70833
1241.501	2956.04167
1244.79	2956.70833
1248.076	2960.04167
1251.359	2977.375
1254.64	3054.70833
1257.919	3066.375
1261.195	3092.375
1264.468	3162.375
1267.74	3215.375
1271.008	3182.70833
1274.275	3175.70833
1277.538	3168.375
1280.8	3159.04167
1284.059	3146.375
1287.315	3197.04167
1290.569	3185.70833
1293.821	3199.04167
1297.07	3221.375
1300.317	3248.04167
1303.562	3216.70833
1306.803	3196.04167
1310.043	3166.04167
1313.28	3124.70833
1316.515	3070.70833
1319.747	3057.375
1322.977	3011.375
1326.204	2986.375
1329.429	2967.70833
1332.652	2947.04167
1335.872	2934.70833
1339.09	2891.375
1342.306	2893.04167
1345.519	2888.375
1348.729	2866.70833
1351.938	2840.375
1355.144	2802.70833
1358.347	2779.375
1361.548	2778.70833
1364.747	2786.375
1367.944	2778.04167
1371.138	2812.375
1374.329	2841.70833
1377.518	2870.70833
1380.705	2882.375
1383.89	2891.04167
1387.072	2809.70833
1390.252	2696.375
1393.429	2619.375
1396.605	2529.375
1399.777	2466.04167
1402.948	2431.04167
1406.116	2412.70833
1409.282	2440.04167
1412.445	2462.375
1415.606	2491.70833
1418.765	2513.70833
1421.921	2566.70833
1425.075	2613.375
1428.227	2694.375
1431.376	2812.375
1434.524	2897.375
1437.668	2951.70833
1440.811	2986.375
1443.951	2989.04167
1447.089	3010.04167
1450.224	3002.375
1453.357	2965.70833
1456.488	2951.70833
1459.617	2918.04167
1462.743	2862.04167
1465.867	2813.375
1468.989	2792.70833
1472.108	2718.375
1475.225	2670.04167
1478.34	2651.375
1481.453	2647.375
1484.563	2650.70833
1487.671	2691.375
1490.776	2732.70833
1493.88	2781.70833
1496.981	2849.70833
1500.08	2898.375
1503.176	2946.70833
1506.271	3008.70833
1509.363	3022.04167
1512.452	3053.04167
1515.54	3109.375
1518.625	3189.70833
1521.708	3287.70833
1524.789	3435.70833
1527.867	3657.70833
1530.944	3827.04167
1534.018	4048.70833
1537.089	4163.375
1540.159	4165.70833
1543.226	4165.375
1546.291	4040.375
1549.354	3926.70833
1552.415	3799.375
1555.473	3676.375
1558.529	3623.04167
1561.583	3578.70833
1564.634	3508.375
1567.684	3489.375
1570.731	3477.70833
1573.776	3505.04167
1576.819	3513.70833
1579.859	3545.375
1582.898	3576.70833
1585.934	3609.375
1588.968	3600.70833
1591.999	3606.375
1595.029	3583.04167
1598.056	3638.04167
1601.081	3599.04167
1604.104	3618.04167
1607.125	3580.04167
1610.144	3518.375
1613.16	3418.375
1616.174	3364.375
1619.186	3272.04167
1622.196	3170.375
1625.203	3086.70833
1628.209	3059.04167
1631.212	3036.70833
1634.213	2995.04167
1637.212	2957.70833
1640.209	2913.375
1643.203	2847.70833
1646.196	2755.70833
1649.186	2668.04167
1652.174	2612.375
1655.16	2541.04167
1658.144	2471.70833
1661.125	2363.70833
1664.105	2277.04167
1667.082	2168.70833
1670.057	2074.375
1673.03	1945.04167
1676.001	1842.70833
1678.97	1715.375
1681.937	1643.04167
1684.901	1570.70833
1687.863	1523.70833
1690.824	1453.70833
1693.782	1424.70833
1696.738	1392.70833
1699.692	1355.70833
1702.643	1327.375
1705.593	1313.04167
1708.54	1295.375
1711.486	1293.375
1714.429	1271.375
1717.37	1268.04167
1720.309	1243.375
1723.246	1237.375
1726.181	1218.375
1729.113	1232.375
1732.044	1203.70833
1734.972	1206.70833
1737.899	1195.70833
1740.823	1190.375
1743.745	1198.375
1746.665	1163.70833
1749.583	1136.70833
1752.499	1141.70833
1755.413	1104.70833
1758.325	1093.70833
1761.235	1085.375
1764.142	1070.375
1767.048	1066.375
1769.951	1067.375
1772.852	1058.375
1775.752	1058.375
1778.649	1050.70833
1781.544	1047.70833
1784.437	1023.04167
1787.328	1048.375
1790.217	1031.04167
1793.104	1001.375
1795.989	1010.04167
1798.872	1006.04167
1801.753	1019.375
1804.631	1008.04167
1807.508	1040.70833
1810.383	1028.375
1813.255	1016.04167
1816.126	1025.70833
1818.994	1016.70833
1821.861	1008.04167
1824.725	994.70833
1827.587	1007.70833
1830.448	1004.70833
1833.306	973.70833
1836.162	998.70833
1839.017	972.375
1841.869	988.04167
1844.719	987.04167
1847.567	983.70833
1850.414	965.04167
1853.258	973.70833
1856.1	988.375
1858.94	997.70833
1861.778	999.70833
1864.614	974.04167
1867.448	993.70833
1870.28	970.04167
1873.111	1007.04167
1875.939	987.375
1878.765	1009.70833
1881.589	983.375
1884.411	992.375
1887.231	999.04167
1890.049	986.375
1892.865	990.70833
1895.68	981.375
1898.492	985.70833
1901.302	964.70833
1904.11	967.04167
1906.916	968.70833
1909.721	964.04167
1912.523	978.70833
1915.323	958.04167
1918.122	970.70833
1920.918	966.04167
1923.712	965.70833
1926.505	974.375
1929.295	962.70833
1932.084	968.04167
1934.87	964.04167
1937.655	955.70833
1940.438	959.04167
1943.218	966.375
1945.997	977.04167
1948.774	990.70833
1951.549	978.04167
1954.322	975.375
1957.093	984.375
1959.862	976.375
1962.629	986.04167
1965.394	962.375
1968.157	948.70833
1970.918	974.375
1973.678	962.375
1976.435	976.375
1979.19	959.375
1981.944	958.375
1984.696	973.04167
1987.445	962.04167
1990.193	972.375
1992.939	983.04167
1995.683	975.04167
1998.425	947.70833
2001.165	995.04167
2003.903	965.70833
2006.639	960.375
2009.374	969.375
2012.106	973.70833
2014.837	957.70833
2017.566	973.04167
2020.292	983.70833
2023.017	975.70833
2025.74	977.70833
2028.461	968.375
2031.18	983.375
2033.898	968.70833
2036.613	988.375
2039.327	990.04167
2042.038	974.04167
2044.748	977.70833
2047.456	992.70833
2050.162	961.70833
2052.866	973.70833
2055.568	992.375
2058.268	976.04167
2060.967	988.70833
2063.663	980.04167
2066.358	985.375
2069.051	981.04167
2071.742	989.375
2074.431	1005.70833
2077.118	990.70833
2079.804	987.04167
2082.487	1007.04167
2085.169	1008.375
2087.849	1029.375
2090.527	1022.04167
2093.203	1028.70833
2095.877	1036.04167
2098.55	1044.04167
2101.22	1065.04167
2103.889	1083.375
2106.556	1086.04167
2109.221	1143.70833
2111.884	1182.70833
2114.546	1248.375
2117.205	1352.375
2119.863	1435.04167
2122.519	1527.70833
2125.173	1620.04167
2127.825	1694.70833
2130.475	1713.04167
2133.124	1655.70833
2135.771	1615.70833
2138.416	1537.04167
2141.059	1442.04167
2143.7	1396.04167
2146.339	1336.375
2148.977	1269.70833
2151.613	1248.375
2154.247	1216.375
2156.879	1193.70833
2159.51	1173.70833
2162.138	1168.70833
2164.765	1164.04167
2167.39	1139.70833
2170.013	1153.04167
2172.634	1145.375
2175.254	1132.04167
2177.872	1149.375
2180.488	1123.375
2183.102	1130.375
2185.714	1108.04167
2188.325	1099.70833
2190.934	1093.70833
2193.541	1106.375
2196.146	1085.375
2198.75	1076.70833
2201.351	1087.375
2203.951	1077.04167
2206.549	1086.70833
2209.146	1077.70833
2211.74	1069.04167
2214.333	1091.70833
2216.924	1061.04167
2219.514	1065.375
2222.101	1055.375
2224.687	1082.70833
2227.271	1068.70833
2229.853	1051.70833
2232.433	1066.04167
2235.012	1069.70833
2237.589	1080.04167
2240.164	1094.375
2242.738	1070.70833
2245.309	1074.04167
2247.879	1071.70833
2250.448	1084.375
2253.014	1039.70833
2255.579	1061.04167
2258.142	1063.04167
2260.703	1037.375
2263.262	1056.70833
2265.82	1057.375
2268.376	1061.04167
2270.93	1047.70833
2273.483	1042.70833
2276.033	1061.375
2278.583	1057.04167
2281.13	1063.375
2283.675	1047.70833
2286.219	1074.375
2288.761	1075.375
2291.302	1075.70833
2293.841	1072.375
2296.377	1052.04167
2298.913	1071.375
2301.446	1076.375
2303.978	1066.70833
2306.508	1059.04167
2309.037	1076.04167
2311.563	1092.04167
2314.088	1089.70833
2316.612	1075.375
2319.133	1087.375
2321.653	1084.70833
2324.171	1090.375
2326.688	1102.375
2329.202	1084.04167
2331.715	1101.70833
2334.227	1113.04167
2336.736	1088.375
2339.244	1098.04167
2341.751	1089.375
2344.255	1104.70833
2346.758	1110.375
2349.259	1099.04167
2351.759	1109.375
2354.257	1119.375
2356.753	1120.70833
2359.247	1121.70833
2361.74	1127.04167
2364.231	1129.70833
2366.721	1127.04167
2369.209	1127.04167
2371.695	1124.70833
2374.179	1135.04167
2376.662	1134.04167
2379.143	1163.70833
2381.622	1146.70833
2384.1	1156.70833
2386.576	1154.375
2389.051	1173.375
2391.524	1184.375
2393.995	1169.375
2396.464	1177.375
2398.932	1175.70833
2401.398	1171.70833
2403.863	1170.04167
2406.325	1163.04167
2408.787	1178.70833
2411.246	1170.04167
2413.704	1196.70833
2416.16	1191.375
2418.615	1190.375
2421.068	1196.70833
2423.519	1195.70833
2425.969	1205.70833
2428.417	1226.04167
2430.863	1239.04167
2433.308	1221.70833
2435.751	1225.04167
2438.193	1233.70833
2440.633	1235.70833
2443.071	1244.04167
2445.508	1243.70833
2447.943	1244.70833
2450.376	1237.70833
2452.808	1251.70833
2455.238	1256.70833
2457.667	1276.04167
2460.093	1278.04167
2462.519	1252.04167
2464.942	1268.70833
2467.365	1281.04167
2469.785	1280.375
2472.204	1266.04167
2474.621	1269.375
2477.037	1286.04167
2479.451	1277.04167
2481.863	1287.70833
2484.274	1294.04167
2486.683	1288.04167
2489.091	1302.375
2491.497	1306.04167
2493.901	1315.04167
2496.304	1305.375
2498.705	1325.375
2501.105	1317.375
2503.503	1361.04167
2505.899	1322.04167
2508.294	1354.375
2510.687	1337.04167
2513.079	1336.70833
2515.469	1336.375
2517.858	1352.375
2520.245	1355.70833
2522.63	1349.70833
2525.014	1351.70833
2527.396	1343.375
2529.776	1358.375
2532.156	1369.70833
2534.533	1358.04167
2536.909	1367.04167
2539.283	1379.04167
2541.656	1379.04167
2544.027	1409.70833
2546.397	1380.375
2548.765	1392.04167
2551.131	1402.70833
2553.496	1397.04167
2555.86	1422.375
2558.221	1433.375
2560.582	1415.04167
2562.94	1400.375
2565.298	1423.375
2567.653	1448.375
2570.007	1426.70833
2572.36	1451.04167
2574.711	1445.70833
2577.06	1466.04167
2579.408	1464.04167
2581.754	1458.70833
2584.099	1478.70833
2586.442	1479.70833
2588.784	1468.375
2591.124	1492.70833
2593.463	1486.04167
2595.8	1502.04167
2598.135	1472.375
2600.469	1479.375
2602.802	1525.375
2605.133	1538.70833
2607.462	1503.04167
2609.79	1514.04167
2612.116	1525.375
2614.441	1524.375
2616.764	1534.04167
2619.086	1546.375
2621.406	1534.375
2623.725	1558.04167
2626.042	1564.70833
2628.358	1550.70833
2630.672	1564.375
2632.985	1586.70833
2635.296	1581.70833
2637.606	1585.375
2639.914	1573.04167
2642.22	1609.375
2644.525	1605.04167
2646.829	1626.70833
2649.131	1640.375
2651.432	1644.04167
2653.731	1654.70833
2656.028	1664.04167
2658.324	1663.70833
2660.619	1647.70833
2662.912	1669.04167
2665.204	1671.70833
2667.494	1689.04167
2669.782	1674.70833
2672.07	1693.375
2674.355	1702.04167
2676.639	1689.04167
2678.922	1685.04167
2681.203	1700.04167
2683.483	1702.70833
2685.761	1691.04167
2688.038	1718.375
2690.313	1731.375
2692.587	1724.70833
2694.859	1723.375
2697.13	1717.04167
2699.399	1745.70833
2701.667	1750.375
2703.933	1751.375
2706.198	1771.04167
2708.461	1777.375
2710.723	1788.04167
2712.984	1796.375
2715.243	1816.375
2717.5	1803.375
2719.757	1828.70833
2722.011	1824.375
2724.264	1834.375
2726.516	1859.04167
2728.766	1859.375
2731.015	1878.70833
2733.262	1869.04167
2735.508	1879.70833
2737.753	1896.375
2739.996	1863.375
2742.237	1874.70833
2744.477	1897.375
2746.716	1871.04167
2748.953	1862.04167
2751.189	1888.04167
2753.423	1859.375
2755.656	1852.375
2757.887	1856.70833
2760.117	1861.04167
2762.346	1866.375
2764.573	1871.70833
2766.798	1862.375
2769.022	1883.375
2771.245	1885.70833
2773.467	1892.70833
2775.686	1904.375
2777.905	1914.70833
2780.122	1916.375
2782.337	1932.04167
2784.552	1941.375
2786.764	1954.375
2788.976	1960.04167
2791.186	1976.70833
2793.394	1969.70833
2795.601	1994.70833
2797.807	2016.375
2800.011	2026.375
2802.214	2047.375
2804.415	2071.375
2806.615	2062.04167
2808.814	2059.70833
2811.011	2061.375
2813.206	2061.70833
2815.401	2084.375
2817.594	2095.70833
2819.785	2116.375
2821.975	2102.04167
2824.164	2124.70833
2826.351	2125.375
2828.537	2139.375
2830.722	2173.375
2832.905	2169.70833
2835.086	2194.04167
2837.267	2228.70833
2839.445	2261.375
2841.623	2269.04167
2843.799	2302.04167
2845.974	2325.04167
2848.147	2377.70833
2850.319	2417.375
2852.489	2430.70833
2854.659	2454.70833
2856.826	2467.04167
2858.993	2466.70833
2861.158	2491.375
2863.321	2486.70833
2865.483	2489.375
2867.644	2496.70833
2869.804	2502.70833
2871.962	2482.04167
2874.118	2489.70833
2876.274	2470.375
2878.428	2456.04167
2880.58	2458.375
2882.731	2434.04167
2884.881	2436.70833
2887.03	2446.375
2889.177	2434.70833
2891.322	2486.70833
2893.467	2473.70833
2895.61	2471.375
2897.751	2502.04167
2899.892	2491.04167
2902.03	2493.70833
2904.168	2538.375
2906.304	2537.04167
2908.439	2570.375
2910.572	2554.70833
2912.704	2566.04167
2914.835	2568.375
2916.965	2572.70833
2919.093	2595.375
2921.219	2556.375
2923.345	2573.04167
2925.469	2547.04167
2927.591	2550.04167
2929.712	2502.70833
2931.832	2470.04167
2933.951	2468.375
2936.068	2424.375
2938.184	2411.375
2940.299	2397.04167
2942.412	2349.70833
2944.524	2326.70833
2946.634	2341.70833
2948.744	2291.375
2950.851	2346.70833
2952.958	2290.70833
2955.063	2277.375
2957.167	2282.375
2959.269	2265.04167
2961.371	2290.04167
2963.471	2252.04167
2965.569	2264.375
2967.666	2221.04167
2969.762	2230.375
2971.857	2213.04167
2973.95	2194.375
2976.042	2180.04167
2978.133	2146.70833
2980.222	2127.04167
2982.31	2090.375
2984.396	2062.04167
2986.482	2085.04167
2988.566	2078.04167
2990.648	2054.04167
2992.73	2071.04167
2994.81	2057.70833
2996.889	2062.04167
2998.966	2073.04167
3001.042	2072.70833
3003.117	2080.70833
3005.191	2075.70833
3007.263	2072.70833
3009.334	2049.375
3011.403	2031.70833
3013.472	1998.04167
3015.539	1992.375
3017.604	1971.375
3019.669	1920.04167
3021.732	1924.70833
3023.794	1938.375
3025.854	1937.375
3027.914	1938.70833
3029.971	1937.375
3032.028	1946.375
3034.083	1943.04167
3036.137	1899.70833
3038.19	1858.70833
3040.242	1819.375
3042.292	1780.04167
3044.341	1761.70833
3046.388	1769.375
3048.435	1718.375
3050.48	1739.70833
3052.524	1721.375
3054.566	1721.375
3056.607	1722.04167
3058.647	1674.04167
3060.686	1634.375
3062.723	1576.04167
3064.759	1542.70833
3066.794	-0.29167
3068.828	0.04167
3070.86	-1.95833
