-0.839	403.04167
3.438	419.70833
7.711	127.04167
11.981	51.70833
16.247	44.375
20.509	39.70833
24.768	39.70833
29.024	48.04167
33.276	40.04167
37.524	46.70833
41.769	36.375
46.01	31.375
50.247	47.70833
54.481	54.70833
58.712	66.04167
62.939	42.70833
67.162	59.70833
71.382	52.70833
75.599	43.70833
79.812	55.375
84.021	79.70833
88.227	51.70833
92.429	55.70833
96.628	42.70833
100.823	62.04167
105.015	63.375
109.204	68.04167
113.388	70.04167
117.57	61.70833
121.748	79.375
125.922	70.375
130.093	82.04167
134.261	91.70833
138.425	78.375
142.585	122.70833
146.742	114.375
150.896	131.70833
155.046	158.04167
159.193	254.375
163.336	414.375
167.476	760.04167
171.613	1392.70833
175.746	2328.375
179.875	3488.375
184.002	4526.70833
188.124	5311.04167
192.244	5514.04167
196.36	5432.70833
200.472	5244.70833
204.581	5069.04167
208.687	4890.70833
212.79	4798.375
216.889	4773.375
220.984	4761.375
225.077	4756.04167
229.165	4773.04167
233.251	4723.04167
237.333	4713.04167
241.412	4650.04167
245.487	4596.04167
249.559	4545.70833
253.628	4520.04167
257.694	4476.04167
261.756	4482.70833
265.814	4406.04167
269.87	4315.70833
273.922	4264.375
277.97	4264.70833
282.016	4263.375
286.058	4329.70833
290.097	4454.375
294.132	4501.70833
298.164	4467.04167
302.193	4287.375
306.219	3989.375
310.241	3661.04167
314.26	3338.04167
318.276	3045.70833
322.288	2852.70833
326.297	2655.70833
330.303	2541.70833
334.305	2460.70833
338.305	2378.375
342.301	2357.375
346.294	2308.04167
350.283	2279.375
354.269	2274.375
358.252	2258.70833
362.232	2225.04167
366.209	2217.04167
370.182	2160.70833
374.152	2172.04167
378.119	2157.70833
382.083	2162.70833
386.043	2142.04167
390	2119.375
393.954	2106.70833
397.905	2098.70833
401.852	2089.04167
405.797	2067.04167
409.738	2052.70833
413.676	2058.04167
417.61	2047.375
421.542	2032.70833
425.47	2000.70833
429.396	2001.375
433.318	1986.375
437.236	1962.70833
441.152	1984.375
445.065	1932.375
448.974	1928.04167
452.88	1913.375
456.783	1918.04167
460.683	1883.375
464.58	1895.70833
468.473	1922.04167
472.364	1912.70833
476.251	1912.375
480.135	1925.70833
484.016	1939.375
487.894	1963.70833
491.769	1954.375
495.641	1973.04167
499.509	1984.04167
503.375	1988.375
507.237	2000.70833
511.096	2025.04167
514.952	2197.04167
518.805	2387.04167
522.655	2484.04167
526.502	2176.04167
530.346	2006.04167
534.187	1983.375
538.024	1958.70833
541.859	1951.70833
545.69	1967.70833
549.519	1958.375
553.344	1934.04167
557.166	1911.375
560.985	1880.70833
564.802	1862.70833
568.615	1845.04167
572.425	1818.70833
576.232	1811.70833
580.036	1815.70833
583.836	1822.04167
587.634	1806.04167
591.429	1806.70833
595.221	1847.70833
599.01	1876.70833
602.796	1878.375
606.578	1898.04167
610.358	1912.375
614.135	1872.70833
617.909	1886.04167
621.679	1861.04167
625.447	1868.375
629.212	1863.70833
632.973	1864.375
636.732	1852.04167
640.488	1860.04167
644.241	1817.375
647.991	1836.04167
651.737	1825.04167
655.481	1786.04167
659.222	1814.70833
662.96	1801.375
666.695	1829.375
670.427	1852.375
674.156	1847.04167
677.882	1853.375
681.605	1827.70833
685.325	1822.70833
689.043	1835.04167
692.757	1824.70833
696.468	1826.70833
700.177	1827.70833
703.882	1814.70833
707.585	1807.70833
711.284	1806.375
714.981	1839.375
718.675	1840.04167
722.366	1849.70833
726.054	1828.70833
729.739	1843.70833
733.421	1841.375
737.1	1819.70833
740.777	1869.375
744.45	1854.70833
748.121	1854.375
751.789	1906.04167
755.453	1898.375
759.115	1920.04167
762.774	1938.375
766.431	1931.375
770.084	1967.70833
773.734	1984.375
777.382	2013.04167
781.027	2012.70833
784.669	2032.375
788.308	2031.375
791.944	2044.375
795.577	2090.04167
799.208	2099.70833
802.835	2101.04167
806.46	2115.375
810.082	2119.70833
813.701	2115.70833
817.317	2123.375
820.931	2101.375
824.542	2149.70833
828.149	2117.70833
831.754	2098.70833
835.357	2100.04167
838.956	2116.04167
842.553	2099.375
846.146	2099.70833
849.737	2075.04167
853.326	2098.375
856.911	2103.375
860.493	2143.375
864.073	2132.375
867.65	2181.70833
871.225	2211.70833
874.796	2215.375
878.365	2201.70833
881.931	2213.70833
885.494	2239.70833
889.054	2253.375
892.612	2275.04167
896.166	2261.04167
899.719	2223.70833
903.268	2202.04167
906.814	2183.375
910.358	2167.70833
913.899	2129.04167
917.438	2140.04167
920.973	2118.375
924.506	2147.04167
928.036	2207.375
931.564	2200.04167
935.088	2250.375
938.61	2223.70833
942.129	2260.04167
945.646	2322.04167
949.16	2365.04167
952.671	2427.04167
956.179	2407.375
959.685	2364.70833
963.188	2353.70833
966.688	2300.04167
970.185	2233.04167
973.68	2214.70833
977.173	2186.70833
980.662	2187.375
984.149	2203.70833
987.633	2166.375
991.114	2225.375
994.593	2300.04167
998.069	2348.70833
1001.542	2427.375
1005.013	2361.70833
1008.481	2213.04167
1011.947	2191.70833
1015.409	2187.375
1018.869	2173.04167
1022.327	2198.375
1025.782	2153.375
1029.234	2154.70833
1032.683	2144.04167
1036.13	2057.04167
1039.574	2003.04167
1043.016	1941.04167
1046.455	1908.70833
1049.891	1878.70833
1053.325	1899.04167
1056.756	1902.70833
1060.184	1910.70833
1063.61	1925.375
1067.033	1912.04167
1070.454	1922.70833
1073.872	1966.04167
1077.287	1943.70833
1080.7	1960.375
1084.11	1963.70833
1087.517	1949.70833
1090.922	1930.375
1094.325	1907.70833
1097.724	1901.375
1101.122	1892.70833
1104.516	1896.04167
1107.908	1895.375
1111.298	1918.375
1114.684	1952.375
1118.069	1967.375
1121.45	1997.70833
1124.83	1989.04167
1128.206	2026.04167
1131.58	2061.375
1134.951	2113.04167
1138.32	2176.70833
1141.687	2263.375
1145.05	2294.375
1148.412	2290.70833
1151.77	2295.375
1155.126	2302.375
1158.48	2301.04167
1161.831	2314.70833
1165.18	2316.04167
1168.525	2374.375
1171.869	2385.04167
1175.21	2399.04167
1178.548	2420.70833
1181.884	2449.04167
1185.217	2458.04167
1188.548	2507.375
1191.877	2547.04167
1195.202	2592.04167
1198.526	2662.375
1201.846	2648.70833
1205.165	2647.375
1208.48	2660.70833
1211.794	2657.04167
1215.104	2641.04167
1218.413	2668.375
1221.719	2653.375
1225.022	2626.375
1228.323	2598.70833
1231.621	2601.70833
1234.917	2578.04167
1238.21	2617.375
1241.501	2605.70833
1244.79	2588.375
1248.076	2596.375
1251.359	2630.04167
1254.64	2671.04167
1257.919	2695.375
1261.195	2739.70833
1264.468	2795.04167
1267.74	2819.70833
1271.008	2826.70833
1274.275	2802.375
1277.538	2794.04167
1280.8	2772.70833
1284.059	2760.04167
1287.315	2811.375
1290.569	2844.04167
1293.821	2851.70833
1297.07	2860.70833
1300.317	2854.04167
1303.562	2818.375
1306.803	2816.04167
1310.043	2792.04167
1313.28	2768.04167
1316.515	2704.375
1319.747	2709.04167
1322.977	2653.04167
1326.204	2619.04167
1329.429	2575.70833
1332.652	2572.70833
1335.872	2563.04167
1339.09	2561.04167
1342.306	2536.375
1345.519	2525.375
1348.729	2472.375
1351.938	2473.70833
1355.144	2431.04167
1358.347	2400.70833
1361.548	2424.70833
1364.747	2437.70833
1367.944	2403.375
1371.138	2426.375
1374.329	2457.04167
1377.518	2482.375
1380.705	2496.70833
1383.89	2479.04167
1387.072	2407.04167
1390.252	2327.04167
1393.429	2259.04167
1396.605	2203.70833
1399.777	2144.375
1402.948	2125.375
1406.116	2117.04167
1409.282	2135.375
1412.445	2133.375
1415.606	2186.70833
1418.765	2186.04167
1421.921	2260.375
1425.075	2294.04167
1428.227	2357.375
1431.376	2455.70833
1434.524	2516.375
1437.668	2570.04167
1440.811	2583.70833
1443.951	2606.70833
1447.089	2618.04167
1450.224	2610.375
1453.357	2581.375
1456.488	2581.70833
1459.617	2538.70833
1462.743	2502.375
1465.867	2442.375
1468.989	2416.70833
1472.108	2377.04167
1475.225	2319.04167
1478.34	2327.375
1481.453	2303.375
1484.563	2318.70833
1487.671	2360.04167
1490.776	2392.70833
1493.88	2450.70833
1496.981	2489.70833
1500.08	2553.04167
1503.176	2553.375
1506.271	2573.70833
1509.363	2629.70833
1512.452	2649.375
1515.54	2695.375
1518.625	2735.04167
1521.708	2811.70833
1524.789	2920.04167
1527.867	3050.375
1530.944	3241.04167
1534.018	3393.70833
1537.089	3536.70833
1540.159	3604.04167
1543.226	3541.04167
1546.291	3472.04167
1549.354	3383.04167
1552.415	3299.04167
1555.473	3182.04167
1558.529	3096.70833
1561.583	3063.375
1564.634	3026.04167
1567.684	2997.04167
1570.731	3000.375
1573.776	3023.04167
1576.819	3027.375
1579.859	3034.375
1582.898	3050.70833
1585.934	3093.375
1588.968	3088.70833
1591.999	3066.04167
1595.029	3065.70833
1598.056	3116.04167
1601.081	3127.70833
1604.104	3097.375
1607.125	3069.375
1610.144	2987.70833
1613.16	2906.70833
1616.174	2844.70833
1619.186	2777.04167
1622.196	2697.04167
1625.203	2610.04167
1628.209	2565.375
1631.212	2541.375
1634.213	2527.04167
1637.212	2482.04167
1640.209	2441.70833
1643.203	2357.04167
1646.196	2292.375
1649.186	2249.70833
1652.174	2193.375
1655.16	2157.70833
1658.144	2086.04167
1661.125	2007.04167
1664.105	1932.375
1667.082	1870.04167
1670.057	1752.04167
1673.03	1674.04167
1676.001	1558.70833
1678.97	1470.70833
1681.937	1366.04167
1684.901	1312.70833
1687.863	1287.70833
1690.824	1215.70833
1693.782	1205.04167
1696.738	1160.04167
1699.692	1149.04167
1702.643	1110.04167
1705.593	1096.04167
1708.54	1093.70833
1711.486	1087.375
1714.429	1055.04167
1717.37	1051.375
1720.309	1019.375
1723.246	1022.375
1726.181	1001.375
1729.113	1022.70833
1732.044	1008.04167
1734.972	990.375
1737.899	994.04167
1740.823	991.70833
1743.745	986.70833
1746.665	951.04167
1749.583	943.375
1752.499	920.375
1755.413	918.70833
1758.325	885.375
1761.235	899.04167
1764.142	871.375
1767.048	862.04167
1769.951	874.375
1772.852	860.04167
1775.752	850.70833
1778.649	861.70833
1781.544	864.375
1784.437	831.375
1787.328	856.375
1790.217	851.375
1793.104	813.04167
1795.989	821.04167
1798.872	812.375
1801.753	832.375
1804.631	826.04167
1807.508	839.375
1810.383	814.375
1813.255	808.375
1816.126	818.70833
1818.994	815.70833
1821.861	802.04167
1824.725	799.04167
1827.587	812.375
1830.448	804.70833
1833.306	767.04167
1836.162	798.375
1839.017	784.70833
1841.869	775.04167
1844.719	786.375
1847.567	771.04167
1850.414	761.375
1853.258	768.04167
1856.1	787.04167
1858.94	788.375
1861.778	777.04167
1864.614	772.375
1867.448	778.375
1870.28	770.70833
1873.111	772.375
1875.939	767.70833
1878.765	788.70833
1881.589	764.70833
1884.411	770.70833
1887.231	776.70833
1890.049	770.04167
1892.865	768.70833
1895.68	750.375
1898.492	763.375
1901.302	748.70833
1904.11	753.04167
1906.916	746.375
1909.721	747.70833
1912.523	761.375
1915.323	739.70833
1918.122	744.375
1920.918	748.375
1923.712	735.70833
1926.505	736.04167
1929.295	732.70833
1932.084	751.70833
1934.87	745.04167
1937.655	737.70833
1940.438	733.70833
1943.218	737.375
1945.997	749.70833
1948.774	742.04167
1951.549	747.70833
1954.322	729.70833
1957.093	740.70833
1959.862	726.04167
1962.629	720.70833
1965.394	724.70833
1968.157	709.04167
1970.918	724.04167
1973.678	725.04167
1976.435	741.04167
1979.19	716.04167
1981.944	713.70833
1984.696	712.04167
1987.445	707.04167
1990.193	716.375
1992.939	732.375
1995.683	717.04167
1998.425	698.70833
2001.165	742.375
2003.903	710.70833
2006.639	703.375
2009.374	705.375
2012.106	725.04167
2014.837	692.375
2017.566	707.375
2020.292	710.375
2023.017	722.375
2025.74	700.375
2028.461	689.70833
2031.18	708.375
2033.898	700.70833
2036.613	713.70833
2039.327	714.04167
2042.038	703.70833
2044.748	717.04167
2047.456	713.04167
2050.162	691.70833
2052.866	697.70833
2055.568	704.04167
2058.268	701.04167
2060.967	706.70833
2063.663	695.04167
2066.358	701.04167
2069.051	688.375
2071.742	696.04167
2074.431	713.70833
2077.118	703.04167
2079.804	700.70833
2082.487	694.375
2085.169	699.375
2087.849	715.70833
2090.527	695.70833
2093.203	704.375
2095.877	732.04167
2098.55	716.04167
2101.22	741.375
2103.889	752.70833
2106.556	747.04167
2109.221	777.04167
2111.884	814.04167
2114.546	861.375
2117.205	929.04167
2119.863	998.70833
2122.519	1040.375
2125.173	1097.70833
2127.825	1149.375
2130.475	1146.04167
2133.124	1100.375
2135.771	1051.70833
2138.416	1012.70833
2141.059	950.04167
2143.7	918.04167
2146.339	862.04167
2148.977	814.04167
2151.613	815.375
2154.247	802.70833
2156.879	780.70833
2159.51	759.375
2162.138	740.70833
2164.765	744.04167
2167.39	733.04167
2170.013	743.04167
2172.634	737.04167
2175.254	729.04167
2177.872	745.04167
2180.488	708.04167
2183.102	717.70833
2185.714	706.375
2188.325	696.70833
2190.934	696.04167
2193.541	712.70833
2196.146	690.70833
2198.75	695.04167
2201.351	694.04167
2203.951	675.375
2206.549	692.375
2209.146	691.04167
2211.74	681.04167
2214.333	687.375
2216.924	678.04167
2219.514	679.70833
2222.101	676.04167
2224.687	686.375
2227.271	670.70833
2229.853	666.375
2232.433	656.70833
2235.012	688.04167
2237.589	669.04167
2240.164	692.375
2242.738	676.70833
2245.309	669.70833
2247.879	685.375
2250.448	690.70833
2253.014	662.04167
2255.579	657.375
2258.142	664.70833
2260.703	653.375
2263.262	657.70833
2265.82	654.375
2268.376	665.70833
2270.93	643.375
2273.483	644.375
2276.033	657.70833
2278.583	650.375
2281.13	652.04167
2283.675	643.04167
2286.219	647.70833
2288.761	644.375
2291.302	659.04167
2293.841	659.70833
2296.377	635.04167
2298.913	651.04167
2301.446	656.70833
2303.978	650.70833
2306.508	644.375
2309.037	653.04167
2311.563	659.70833
2314.088	661.04167
2316.612	638.04167
2319.133	648.04167
2321.653	654.70833
2324.171	641.70833
2326.688	660.04167
2329.202	642.70833
2331.715	653.70833
2334.227	648.375
2336.736	655.70833
2339.244	650.70833
2341.751	642.04167
2344.255	657.375
2346.758	654.70833
2349.259	641.04167
2351.759	646.70833
2354.257	652.04167
2356.753	647.70833
2359.247	656.70833
2361.74	660.70833
2364.231	651.04167
2366.721	661.375
2369.209	651.375
2371.695	654.04167
2374.179	647.70833
2376.662	656.375
2379.143	667.375
2381.622	660.04167
2384.1	664.04167
2386.576	666.04167
2389.051	675.04167
2391.524	688.04167
2393.995	674.375
2396.464	672.375
2398.932	662.04167
2401.398	675.04167
2403.863	665.70833
2406.325	671.70833
2408.787	672.375
2411.246	672.70833
2413.704	662.70833
2416.16	673.04167
2418.615	677.70833
2421.068	681.04167
2423.519	670.04167
2425.969	671.04167
2428.417	675.70833
2430.863	698.04167
2433.308	703.70833
2435.751	684.04167
2438.193	690.375
2440.633	689.70833
2443.071	693.04167
2445.508	683.375
2447.943	686.375
2450.376	684.04167
2452.808	684.375
2455.238	688.70833
2457.667	723.70833
2460.093	678.70833
2462.519	688.70833
2464.942	697.375
2467.365	709.04167
2469.785	707.375
2472.204	705.04167
2474.621	700.375
2477.037	726.04167
2479.451	692.04167
2481.863	686.70833
2484.274	688.70833
2486.683	708.70833
2489.091	710.70833
2491.497	708.70833
2493.901	719.04167
2496.304	713.70833
2498.705	715.70833
2501.105	708.70833
2503.503	729.04167
2505.899	716.04167
2508.294	728.04167
2510.687	719.04167
2513.079	720.375
2515.469	714.70833
2517.858	717.04167
2520.245	730.70833
2522.63	730.70833
2525.014	714.04167
2527.396	725.375
2529.776	719.04167
2532.156	725.04167
2534.533	717.375
2536.909	726.70833
2539.283	722.375
2541.656	738.375
2544.027	754.04167
2546.397	738.70833
2548.765	737.70833
2551.131	738.375
2553.496	743.70833
2555.86	755.70833
2558.221	743.70833
2560.582	747.375
2562.94	744.70833
2565.298	745.375
2567.653	776.375
2570.007	748.70833
2572.36	759.70833
2574.711	744.70833
2577.06	781.375
2579.408	771.375
2581.754	776.70833
2584.099	767.04167
2586.442	771.375
2588.784	782.375
2591.124	778.04167
2593.463	780.375
2595.8	778.70833
2598.135	771.375
2600.469	758.70833
2602.802	800.04167
2605.133	798.04167
2607.462	788.04167
2609.79	777.04167
2612.116	801.375
2614.441	792.375
2616.764	794.375
2619.086	802.70833
2621.406	797.375
2623.725	808.375
2626.042	813.70833
2628.358	810.04167
2630.672	808.70833
2632.985	835.04167
2635.296	817.04167
2637.606	838.70833
2639.914	811.70833
2642.22	831.375
2644.525	818.375
2646.829	833.04167
2649.131	845.375
2651.432	857.70833
2653.731	844.70833
2656.028	851.375
2658.324	859.04167
2660.619	840.375
2662.912	866.70833
2665.204	859.70833
2667.494	877.375
2669.782	852.04167
2672.07	871.04167
2674.355	892.70833
2676.639	864.70833
2678.922	854.70833
2681.203	882.375
2683.483	859.375
2685.761	869.70833
2688.038	876.70833
2690.313	895.70833
2692.587	896.04167
2694.859	892.70833
2697.13	892.375
2699.399	902.70833
2701.667	913.375
2703.933	913.04167
2706.198	911.70833
2708.461	931.70833
2710.723	923.04167
2712.984	926.04167
2715.243	937.04167
2717.5	938.70833
2719.757	953.70833
2722.011	953.375
2724.264	965.375
2726.516	981.70833
2728.766	961.04167
2731.015	959.04167
2733.262	969.375
2735.508	968.70833
2737.753	961.04167
2739.996	960.375
2742.237	962.70833
2744.477	969.04167
2746.716	969.70833
2748.953	972.04167
2751.189	967.70833
2753.423	969.70833
2755.656	955.04167
2757.887	958.04167
2760.117	959.70833
2762.346	955.70833
2764.573	958.375
2766.798	956.70833
2769.022	970.04167
2771.245	963.375
2773.467	986.375
2775.686	978.04167
2777.905	989.375
2780.122	988.375
2782.337	996.04167
2784.552	988.375
2786.764	1016.375
2788.976	1021.04167
2791.186	1007.375
2793.394	1024.70833
2795.601	1046.375
2797.807	1049.375
2800.011	1054.04167
2802.214	1083.375
2804.415	1069.70833
2806.615	1074.70833
2808.814	1079.375
2811.011	1093.375
2813.206	1079.04167
2815.401	1100.04167
2817.594	1108.375
2819.785	1118.70833
2821.975	1109.375
2824.164	1122.375
2826.351	1145.375
2828.537	1161.70833
2830.722	1167.04167
2832.905	1157.70833
2835.086	1198.04167
2837.267	1213.04167
2839.445	1228.04167
2841.623	1236.70833
2843.799	1273.70833
2845.974	1307.70833
2848.147	1325.375
2850.319	1333.70833
2852.489	1361.375
2854.659	1366.04167
2856.826	1388.375
2858.993	1416.04167
2861.158	1397.375
2863.321	1389.70833
2865.483	1420.04167
2867.644	1404.375
2869.804	1407.375
2871.962	1399.04167
2874.118	1382.375
2876.274	1402.375
2878.428	1383.375
2880.58	1396.70833
2882.731	1396.70833
2884.881	1395.04167
2887.03	1388.375
2889.177	1389.04167
2891.322	1382.04167
2893.467	1400.04167
2895.61	1394.04167
2897.751	1422.70833
2899.892	1404.04167
2902.03	1418.375
2904.168	1440.04167
2906.304	1427.04167
2908.439	1462.70833
2910.572	1434.04167
2912.704	1450.04167
2914.835	1454.70833
2916.965	1450.70833
2919.093	1476.70833
2921.219	1429.375
2923.345	1455.04167
2925.469	1422.04167
2927.591	1413.375
2929.712	1372.04167
2931.832	1370.04167
2933.951	1379.70833
2936.068	1351.70833
2938.184	1324.70833
2940.299	1303.70833
2942.412	1296.70833
2944.524	1285.04167
2946.634	1269.70833
2948.744	1223.375
2950.851	1260.70833
2952.958	1222.375
2955.063	1226.375
2957.167	1228.375
2959.269	1191.70833
2961.371	1225.04167
2963.471	1192.04167
2965.569	1203.04167
2967.666	1163.04167
2969.762	1178.04167
2971.857	1157.375
2973.95	1136.375
2976.042	1135.70833
2978.133	1128.375
2980.222	1114.375
2982.31	1082.70833
2984.396	1068.04167
2986.482	1073.70833
2988.566	1064.04167
2990.648	1067.04167
2992.73	1070.375
2994.81	1074.375
2996.889	1065.70833
2998.966	1063.04167
3001.042	1059.04167
3003.117	1062.70833
3005.191	1057.375
3007.263	1059.375
3009.334	1039.70833
3011.403	1042.04167
3013.472	1008.70833
3015.539	1021.70833
3017.604	1030.70833
3019.669	987.04167
3021.732	998.04167
3023.794	989.04167
3025.854	976.375
3027.914	987.04167
3029.971	1001.70833
3032.028	988.04167
3034.083	989.70833
3036.137	978.70833
3038.19	949.70833
3040.242	913.375
3042.292	896.70833
3044.341	892.70833
3046.388	911.375
3048.435	871.375
3050.48	890.375
3052.524	882.375
3054.566	860.70833
3056.607	878.70833
3058.647	862.375
3060.686	827.375
3062.723	794.375
3064.759	783.04167
3066.794	-1.625
3068.828	-2.29167
3070.86	-1.625
