-0.839	453.95833
3.438	495.95833
7.711	138.625
11.981	59.625
16.247	46.29167
20.509	45.95833
24.768	43.29167
29.024	46.95833
33.276	41.29167
37.524	45.625
41.769	39.625
46.01	35.625
50.247	53.29167
54.481	60.625
58.712	68.95833
62.939	48.29167
67.162	62.29167
71.382	56.95833
75.599	45.625
79.812	65.95833
84.021	82.29167
88.227	61.625
92.429	61.95833
96.628	50.95833
100.823	63.95833
105.015	74.29167
109.204	78.625
113.388	76.29167
117.57	69.95833
121.748	89.95833
125.922	81.95833
130.093	96.625
134.261	100.29167
138.425	97.95833
142.585	138.95833
146.742	134.625
150.896	157.625
155.046	194.625
159.193	307.625
163.336	520.29167
167.476	960.95833
171.613	1748.29167
175.746	2949.29167
179.875	4396.625
184.002	5734.95833
188.124	6668.29167
192.244	6958.625
196.36	6830.95833
200.472	6603.95833
204.581	6404.625
208.687	6236.625
212.79	6129.625
216.889	6069.625
220.984	6102.29167
225.077	6142.29167
229.165	6152.29167
233.251	6161.625
237.333	6141.625
241.412	6089.625
245.487	6066.29167
249.559	6030.625
253.628	5949.29167
257.694	5929.625
261.756	5881.625
265.814	5797.625
269.87	5664.625
273.922	5569.29167
277.97	5530.95833
282.016	5527.29167
286.058	5611.95833
290.097	5832.95833
294.132	5886.625
298.164	5821.29167
302.193	5545.625
306.219	5156.29167
310.241	4703.29167
314.26	4251.625
318.276	3869.29167
322.288	3590.95833
326.297	3356.625
330.303	3170.625
334.305	3094.95833
338.305	2979.625
342.301	2933.29167
346.294	2869.95833
350.283	2846.95833
354.269	2810.29167
358.252	2791.95833
362.232	2775.95833
366.209	2753.95833
370.182	2728.625
374.152	2716.625
378.119	2686.625
382.083	2686.625
386.043	2707.95833
390	2667.95833
393.954	2659.95833
397.905	2617.29167
401.852	2602.95833
405.797	2572.625
409.738	2558.95833
413.676	2560.29167
417.61	2536.625
421.542	2505.625
425.47	2475.95833
429.396	2457.625
433.318	2459.625
437.236	2452.95833
441.152	2443.95833
445.065	2414.29167
448.974	2380.625
452.88	2354.95833
456.783	2346.625
460.683	2335.29167
464.58	2337.29167
468.473	2350.95833
472.364	2331.625
476.251	2334.95833
480.135	2360.95833
484.016	2403.29167
487.894	2395.625
491.769	2399.625
495.641	2417.95833
499.509	2426.29167
503.375	2427.95833
507.237	2425.625
511.096	2449.625
514.952	2542.625
518.805	2666.95833
522.655	2699.95833
526.502	2546.625
530.346	2407.95833
534.187	2409.625
538.024	2412.625
541.859	2382.29167
545.69	2418.29167
549.519	2432.625
553.344	2396.29167
557.166	2353.29167
560.985	2329.95833
564.802	2294.95833
568.615	2274.625
572.425	2236.29167
576.232	2222.95833
580.036	2227.29167
583.836	2237.95833
587.634	2247.625
591.429	2208.29167
595.221	2258.29167
599.01	2293.29167
602.796	2322.625
606.578	2348.29167
610.358	2337.29167
614.135	2305.29167
617.909	2305.625
621.679	2305.95833
625.447	2284.29167
629.212	2293.29167
632.973	2309.95833
636.732	2317.625
640.488	2301.95833
644.241	2266.95833
647.991	2263.29167
651.737	2278.625
655.481	2228.625
659.222	2241.29167
662.96	2231.95833
666.695	2263.29167
670.427	2275.625
674.156	2265.29167
677.882	2273.29167
681.605	2286.95833
685.325	2231.625
689.043	2284.29167
692.757	2254.29167
696.468	2265.29167
700.177	2266.29167
703.882	2268.95833
707.585	2272.625
711.284	2286.625
714.981	2272.29167
718.675	2272.625
722.366	2300.95833
726.054	2262.29167
729.739	2287.29167
733.421	2288.625
737.1	2277.29167
740.777	2323.95833
744.45	2333.29167
748.121	2356.95833
751.789	2385.95833
755.453	2381.625
759.115	2385.95833
762.774	2426.625
766.431	2440.29167
770.084	2457.625
773.734	2493.29167
777.382	2525.625
781.027	2577.625
784.669	2570.625
788.308	2587.625
791.944	2613.625
795.577	2633.29167
799.208	2673.625
802.835	2673.95833
806.46	2692.95833
810.082	2716.625
813.701	2692.625
817.317	2718.95833
820.931	2715.29167
824.542	2717.625
828.149	2695.29167
831.754	2682.625
835.357	2680.625
838.956	2687.29167
842.553	2667.29167
846.146	2652.625
849.737	2649.29167
853.326	2676.95833
856.911	2670.95833
860.493	2713.95833
864.073	2762.29167
867.65	2780.95833
871.225	2810.29167
874.796	2825.625
878.365	2838.625
881.931	2858.95833
885.494	2884.95833
889.054	2858.95833
892.612	2886.95833
896.166	2868.95833
899.719	2850.625
903.268	2823.29167
906.814	2767.95833
910.358	2751.625
913.899	2746.95833
917.438	2758.29167
920.973	2720.95833
924.506	2766.29167
928.036	2770.625
931.564	2827.29167
935.088	2862.95833
938.61	2872.95833
942.129	2891.95833
945.646	2965.95833
949.16	2999.95833
952.671	3095.625
956.179	3079.29167
959.685	3035.95833
963.188	3008.95833
966.688	2945.625
970.185	2888.625
973.68	2843.29167
977.173	2814.29167
980.662	2782.95833
984.149	2804.625
987.633	2785.95833
991.114	2848.29167
994.593	2935.95833
998.069	3051.29167
1001.542	3093.29167
1005.013	3064.625
1008.481	2902.95833
1011.947	2845.29167
1015.409	2820.29167
1018.869	2832.625
1022.327	2829.29167
1025.782	2816.625
1029.234	2816.95833
1032.683	2802.29167
1036.13	2716.625
1039.574	2591.625
1043.016	2544.29167
1046.455	2509.95833
1049.891	2475.625
1053.325	2504.95833
1056.756	2481.95833
1060.184	2515.29167
1063.61	2521.625
1067.033	2534.29167
1070.454	2553.29167
1073.872	2555.625
1077.287	2560.29167
1080.7	2575.29167
1084.11	2564.95833
1087.517	2556.29167
1090.922	2514.95833
1094.325	2518.29167
1097.724	2486.29167
1101.122	2487.625
1104.516	2479.29167
1107.908	2482.95833
1111.298	2535.29167
1114.684	2557.29167
1118.069	2581.29167
1121.45	2622.95833
1124.83	2623.95833
1128.206	2639.29167
1131.58	2689.625
1134.951	2765.29167
1138.32	2841.625
1141.687	2947.95833
1145.05	3024.95833
1148.412	3017.29167
1151.77	3019.625
1155.126	3026.625
1158.48	3038.29167
1161.831	3047.95833
1165.18	3071.95833
1168.525	3113.625
1171.869	3153.625
1175.21	3179.95833
1178.548	3213.95833
1181.884	3215.95833
1185.217	3221.95833
1188.548	3285.625
1191.877	3354.29167
1195.202	3415.29167
1198.526	3476.29167
1201.846	3492.625
1205.165	3501.29167
1208.48	3482.625
1211.794	3470.29167
1215.104	3504.95833
1218.413	3496.95833
1221.719	3465.95833
1225.022	3442.29167
1228.323	3439.95833
1231.621	3431.29167
1234.917	3428.625
1238.21	3464.625
1241.501	3427.95833
1244.79	3445.625
1248.076	3452.95833
1251.359	3459.95833
1254.64	3545.29167
1257.919	3548.95833
1261.195	3587.29167
1264.468	3640.29167
1267.74	3690.95833
1271.008	3719.95833
1274.275	3673.29167
1277.538	3671.625
1280.8	3671.625
1284.059	3660.95833
1287.315	3703.95833
1290.569	3730.625
1293.821	3747.95833
1297.07	3769.29167
1300.317	3787.625
1303.562	3779.29167
1306.803	3717.625
1310.043	3687.625
1313.28	3628.625
1316.515	3595.95833
1319.747	3542.625
1322.977	3498.625
1326.204	3465.29167
1329.429	3404.95833
1332.652	3388.625
1335.872	3371.625
1339.09	3364.625
1342.306	3336.29167
1345.519	3337.29167
1348.729	3290.29167
1351.938	3274.625
1355.144	3225.625
1358.347	3205.625
1361.548	3220.95833
1364.747	3202.625
1367.944	3194.95833
1371.138	3239.29167
1374.329	3256.29167
1377.518	3306.95833
1380.705	3341.625
1383.89	3304.625
1387.072	3215.95833
1390.252	3099.95833
1393.429	2986.625
1396.605	2915.625
1399.777	2869.625
1402.948	2840.625
1406.116	2809.29167
1409.282	2820.95833
1412.445	2831.29167
1415.606	2847.625
1418.765	2917.95833
1421.921	2977.95833
1425.075	3032.625
1428.227	3133.625
1431.376	3243.95833
1434.524	3346.29167
1437.668	3439.95833
1440.811	3431.625
1443.951	3468.29167
1447.089	3481.625
1450.224	3457.625
1453.357	3435.625
1456.488	3401.95833
1459.617	3375.29167
1462.743	3311.95833
1465.867	3236.625
1468.989	3234.29167
1472.108	3140.95833
1475.225	3082.625
1478.34	3053.625
1481.453	3052.95833
1484.563	3058.29167
1487.671	3131.95833
1490.776	3166.95833
1493.88	3238.95833
1496.981	3289.29167
1500.08	3317.95833
1503.176	3370.29167
1506.271	3442.29167
1509.363	3500.29167
1512.452	3551.29167
1515.54	3619.625
1518.625	3691.625
1521.708	3808.625
1524.789	3972.29167
1527.867	4175.29167
1530.944	4435.625
1534.018	4647.625
1537.089	4820.625
1540.159	4861.95833
1543.226	4773.29167
1546.291	4631.95833
1549.354	4546.29167
1552.415	4358.29167
1555.473	4243.625
1558.529	4170.29167
1561.583	4132.625
1564.634	4110.29167
1567.684	4067.625
1570.731	4025.95833
1573.776	4056.29167
1576.819	4085.95833
1579.859	4119.95833
1582.898	4155.95833
1585.934	4169.625
1588.968	4179.29167
1591.999	4191.29167
1595.029	4175.29167
1598.056	4212.625
1601.081	4210.95833
1604.104	4197.95833
1607.125	4171.95833
1610.144	4064.625
1613.16	3985.625
1616.174	3839.95833
1619.186	3749.29167
1622.196	3656.625
1625.203	3547.95833
1628.209	3477.625
1631.212	3432.29167
1634.213	3366.95833
1637.212	3320.625
1640.209	3264.625
1643.203	3158.625
1646.196	3075.625
1649.186	2974.95833
1652.174	2900.29167
1655.16	2823.95833
1658.144	2748.625
1661.125	2616.625
1664.105	2519.95833
1667.082	2402.29167
1670.057	2281.29167
1673.03	2152.95833
1676.001	2033.29167
1678.97	1884.29167
1681.937	1821.29167
1684.901	1707.95833
1687.863	1653.29167
1690.824	1596.625
1693.782	1582.29167
1696.738	1516.625
1699.692	1477.625
1702.643	1456.625
1705.593	1427.95833
1708.54	1415.95833
1711.486	1408.625
1714.429	1372.625
1717.37	1374.625
1720.309	1342.95833
1723.246	1357.29167
1726.181	1292.625
1729.113	1311.29167
1732.044	1299.29167
1734.972	1289.625
1737.899	1292.625
1740.823	1266.29167
1743.745	1274.625
1746.665	1232.29167
1749.583	1218.95833
1752.499	1183.29167
1755.413	1181.625
1758.325	1149.625
1761.235	1143.95833
1764.142	1127.29167
1767.048	1125.29167
1769.951	1105.95833
1772.852	1104.29167
1775.752	1109.625
1778.649	1099.29167
1781.544	1089.95833
1784.437	1071.29167
1787.328	1088.95833
1790.217	1065.95833
1793.104	1028.29167
1795.989	1040.29167
1798.872	1036.95833
1801.753	1051.95833
1804.631	1048.625
1807.508	1063.29167
1810.383	1040.625
1813.255	1024.29167
1816.126	1042.625
1818.994	1018.95833
1821.861	1012.95833
1824.725	1009.625
1827.587	1025.625
1830.448	1005.625
1833.306	985.29167
1836.162	995.625
1839.017	981.29167
1841.869	968.95833
1844.719	987.29167
1847.567	960.29167
1850.414	966.95833
1853.258	968.625
1856.1	977.95833
1858.94	986.625
1861.778	973.95833
1864.614	956.95833
1867.448	975.29167
1870.28	951.29167
1873.111	981.95833
1875.939	957.95833
1878.765	984.625
1881.589	949.95833
1884.411	961.625
1887.231	962.625
1890.049	943.29167
1892.865	960.29167
1895.68	938.625
1898.492	947.29167
1901.302	935.625
1904.11	938.29167
1906.916	925.95833
1909.721	935.95833
1912.523	935.29167
1915.323	913.95833
1918.122	928.29167
1920.918	922.625
1923.712	917.625
1926.505	915.29167
1929.295	896.625
1932.084	931.625
1934.87	921.29167
1937.655	911.625
1940.438	905.95833
1943.218	904.625
1945.997	906.95833
1948.774	921.29167
1951.549	910.95833
1954.322	902.625
1957.093	908.95833
1959.862	901.625
1962.629	897.95833
1965.394	883.29167
1968.157	873.29167
1970.918	893.95833
1973.678	889.95833
1976.435	880.29167
1979.19	874.95833
1981.944	875.95833
1984.696	868.625
1987.445	858.29167
1990.193	860.625
1992.939	887.29167
1995.683	880.29167
1998.425	848.29167
2001.165	882.625
2003.903	859.95833
2006.639	858.29167
2009.374	854.95833
2012.106	862.625
2014.837	845.95833
2017.566	867.95833
2020.292	862.95833
2023.017	864.625
2025.74	849.95833
2028.461	852.29167
2031.18	856.625
2033.898	835.625
2036.613	866.625
2039.327	851.29167
2042.038	830.625
2044.748	842.625
2047.456	826.29167
2050.162	817.29167
2052.866	836.95833
2055.568	841.29167
2058.268	825.625
2060.967	833.625
2063.663	812.95833
2066.358	829.95833
2069.051	818.29167
2071.742	835.29167
2074.431	836.625
2077.118	828.625
2079.804	821.29167
2082.487	820.29167
2085.169	836.625
2087.849	855.95833
2090.527	837.625
2093.203	848.29167
2095.877	854.95833
2098.55	859.29167
2101.22	871.95833
2103.889	894.29167
2106.556	890.29167
2109.221	935.625
2111.884	969.29167
2114.546	1052.625
2117.205	1131.29167
2119.863	1228.95833
2122.519	1323.29167
2125.173	1401.95833
2127.825	1476.29167
2130.475	1457.625
2133.124	1406.95833
2135.771	1358.625
2138.416	1285.95833
2141.059	1206.29167
2143.7	1152.625
2146.339	1064.625
2148.977	998.95833
2151.613	990.625
2154.247	954.29167
2156.879	932.29167
2159.51	915.95833
2162.138	877.95833
2164.765	889.95833
2167.39	850.95833
2170.013	870.95833
2172.634	847.625
2175.254	835.95833
2177.872	889.625
2180.488	814.95833
2183.102	828.625
2185.714	814.95833
2188.325	792.95833
2190.934	807.625
2193.541	806.95833
2196.146	791.95833
2198.75	778.29167
2201.351	781.625
2203.951	762.95833
2206.549	798.95833
2209.146	765.29167
2211.74	770.625
2214.333	772.95833
2216.924	758.95833
2219.514	769.95833
2222.101	743.95833
2224.687	768.625
2227.271	738.95833
2229.853	741.625
2232.433	737.95833
2235.012	749.95833
2237.589	761.625
2240.164	742.29167
2242.738	747.95833
2245.309	736.625
2247.879	739.95833
2250.448	739.625
2253.014	712.29167
2255.579	705.29167
2258.142	714.625
2260.703	703.29167
2263.262	699.29167
2265.82	698.29167
2268.376	709.625
2270.93	680.95833
2273.483	681.95833
2276.033	691.625
2278.583	677.29167
2281.13	686.95833
2283.675	676.29167
2286.219	680.625
2288.761	672.29167
2291.302	678.29167
2293.841	694.29167
2296.377	661.625
2298.913	668.625
2301.446	686.95833
2303.978	676.29167
2306.508	665.29167
2309.037	670.95833
2311.563	679.95833
2314.088	676.95833
2316.612	648.625
2319.133	660.95833
2321.653	667.95833
2324.171	645.625
2326.688	669.29167
2329.202	649.625
2331.715	647.95833
2334.227	659.625
2336.736	655.95833
2339.244	644.625
2341.751	636.29167
2344.255	654.95833
2346.758	647.29167
2349.259	634.625
2351.759	643.625
2354.257	629.29167
2356.753	638.625
2359.247	646.29167
2361.74	645.29167
2364.231	639.95833
2366.721	642.29167
2369.209	632.95833
2371.695	631.29167
2374.179	635.625
2376.662	627.625
2379.143	652.625
2381.622	636.95833
2384.1	636.625
2386.576	630.95833
2389.051	652.625
2391.524	648.95833
2393.995	636.95833
2396.464	627.29167
2398.932	623.29167
2401.398	633.95833
2403.863	619.95833
2406.325	632.625
2408.787	632.29167
2411.246	625.95833
2413.704	633.29167
2416.16	619.95833
2418.615	632.29167
2421.068	636.95833
2423.519	628.625
2425.969	619.625
2428.417	636.95833
2430.863	629.625
2433.308	632.625
2435.751	637.95833
2438.193	630.29167
2440.633	634.625
2443.071	631.625
2445.508	611.95833
2447.943	619.29167
2450.376	613.95833
2452.808	628.95833
2455.238	611.95833
2457.667	638.29167
2460.093	614.95833
2462.519	607.95833
2464.942	617.95833
2467.365	619.29167
2469.785	626.625
2472.204	615.29167
2474.621	603.625
2477.037	627.625
2479.451	606.95833
2481.863	608.29167
2484.274	598.95833
2486.683	619.625
2489.091	621.95833
2491.497	625.625
2493.901	613.625
2496.304	615.95833
2498.705	620.95833
2501.105	596.95833
2503.503	638.625
2505.899	607.95833
2508.294	626.95833
2510.687	604.625
2513.079	618.29167
2515.469	598.625
2517.858	605.625
2520.245	616.95833
2522.63	598.29167
2525.014	600.625
2527.396	589.29167
2529.776	602.625
2532.156	612.625
2534.533	598.95833
2536.909	597.95833
2539.283	595.29167
2541.656	595.625
2544.027	617.625
2546.397	620.95833
2548.765	600.95833
2551.131	607.625
2553.496	609.95833
2555.86	619.29167
2558.221	610.95833
2560.582	604.625
2562.94	594.29167
2565.298	604.625
2567.653	628.95833
2570.007	593.625
2572.36	619.625
2574.711	604.29167
2577.06	621.95833
2579.408	615.95833
2581.754	615.29167
2584.099	609.29167
2586.442	610.95833
2588.784	616.625
2591.124	622.625
2593.463	605.29167
2595.8	611.625
2598.135	597.29167
2600.469	615.625
2602.802	628.29167
2605.133	623.95833
2607.462	603.95833
2609.79	611.29167
2612.116	616.29167
2614.441	621.625
2616.764	617.625
2619.086	616.625
2621.406	609.29167
2623.725	636.29167
2626.042	625.29167
2628.358	616.625
2630.672	622.95833
2632.985	639.625
2635.296	624.95833
2637.606	634.625
2639.914	620.29167
2642.22	626.95833
2644.525	618.95833
2646.829	634.625
2649.131	636.29167
2651.432	642.625
2653.731	635.95833
2656.028	649.95833
2658.324	640.625
2660.619	638.95833
2662.912	657.29167
2665.204	642.29167
2667.494	649.95833
2669.782	639.625
2672.07	654.95833
2674.355	657.95833
2676.639	648.29167
2678.922	657.625
2681.203	663.95833
2683.483	642.29167
2685.761	638.625
2688.038	658.625
2690.313	675.29167
2692.587	669.625
2694.859	653.29167
2697.13	653.625
2699.399	669.95833
2701.667	677.95833
2703.933	692.625
2706.198	684.95833
2708.461	698.95833
2710.723	688.29167
2712.984	680.29167
2715.243	699.29167
2717.5	692.29167
2719.757	703.625
2722.011	703.29167
2724.264	735.95833
2726.516	737.625
2728.766	719.625
2731.015	709.29167
2733.262	713.625
2735.508	711.95833
2737.753	709.95833
2739.996	698.29167
2742.237	697.29167
2744.477	717.95833
2746.716	705.29167
2748.953	707.625
2751.189	708.29167
2753.423	693.95833
2755.656	691.29167
2757.887	689.625
2760.117	694.95833
2762.346	691.625
2764.573	691.95833
2766.798	696.95833
2769.022	700.625
2771.245	695.625
2773.467	708.29167
2775.686	712.29167
2777.905	715.625
2780.122	713.95833
2782.337	725.95833
2784.552	712.29167
2786.764	741.625
2788.976	734.95833
2791.186	739.625
2793.394	760.29167
2795.601	763.625
2797.807	781.625
2800.011	793.29167
2802.214	799.625
2804.415	798.95833
2806.615	801.29167
2808.814	827.95833
2811.011	815.625
2813.206	826.625
2815.401	842.95833
2817.594	840.95833
2819.785	871.95833
2821.975	856.625
2824.164	883.95833
2826.351	894.29167
2828.537	921.29167
2830.722	941.625
2832.905	933.95833
2835.086	973.29167
2837.267	1003.625
2839.445	1024.625
2841.623	1057.625
2843.799	1076.625
2845.974	1115.95833
2848.147	1151.625
2850.319	1172.95833
2852.489	1214.29167
2854.659	1223.95833
2856.826	1242.95833
2858.993	1262.95833
2861.158	1246.95833
2863.321	1241.625
2865.483	1260.625
2867.644	1252.29167
2869.804	1249.625
2871.962	1235.95833
2874.118	1251.95833
2876.274	1233.95833
2878.428	1226.625
2880.58	1224.29167
2882.731	1225.95833
2884.881	1211.95833
2887.03	1224.29167
2889.177	1213.95833
2891.322	1246.95833
2893.467	1225.95833
2895.61	1228.625
2897.751	1268.29167
2899.892	1246.625
2902.03	1253.625
2904.168	1255.95833
2906.304	1254.625
2908.439	1276.625
2910.572	1255.625
2912.704	1275.95833
2914.835	1278.625
2916.965	1286.95833
2919.093	1283.625
2921.219	1235.95833
2923.345	1265.625
2925.469	1229.95833
2927.591	1219.95833
2929.712	1196.29167
2931.832	1186.29167
2933.951	1155.625
2936.068	1128.29167
2938.184	1117.95833
2940.299	1083.625
2942.412	1058.29167
2944.524	1015.95833
2946.634	1013.95833
2948.744	951.95833
2950.851	989.625
2952.958	927.29167
2955.063	927.95833
2957.167	910.95833
2959.269	884.95833
2961.371	890.29167
2963.471	865.625
2965.569	860.29167
2967.666	825.95833
2969.762	822.95833
2971.857	808.625
2973.95	780.625
2976.042	764.95833
2978.133	759.29167
2980.222	740.95833
2982.31	722.625
2984.396	709.625
2986.482	700.625
2988.566	696.95833
2990.648	695.95833
2992.73	680.625
2994.81	683.625
2996.889	680.95833
2998.966	674.625
3001.042	674.29167
3003.117	664.95833
3005.191	669.625
3007.263	656.625
3009.334	655.95833
3011.403	650.625
3013.472	629.625
3015.539	629.625
3017.604	632.29167
3019.669	598.95833
3021.732	605.29167
3023.794	618.95833
3025.854	590.95833
3027.914	584.29167
3029.971	603.95833
3032.028	592.95833
3034.083	595.625
3036.137	582.29167
3038.19	553.95833
3040.242	543.625
3042.292	531.95833
3044.341	534.95833
3046.388	556.29167
3048.435	519.625
3050.48	540.625
3052.524	529.29167
3054.566	503.29167
3056.607	521.95833
3058.647	501.95833
3060.686	487.95833
3062.723	474.95833
3064.759	449.95833
3066.794	0.625
3068.828	-0.70833
3070.86	-3.04167
