-0.839	431.625
3.438	460.29167
7.711	125.95833
11.981	50.95833
16.247	44.95833
20.509	43.625
24.768	44.95833
29.024	44.95833
33.276	42.29167
37.524	46.29167
41.769	39.625
46.01	35.29167
50.247	48.95833
54.481	60.29167
58.712	66.29167
62.939	46.625
67.162	58.625
71.382	56.95833
75.599	46.625
79.812	62.625
84.021	79.29167
88.227	54.29167
92.429	56.95833
96.628	46.95833
100.823	65.29167
105.015	72.95833
109.204	70.29167
113.388	74.625
117.57	66.29167
121.748	80.29167
125.922	73.29167
130.093	92.625
134.261	100.625
138.425	93.625
142.585	131.29167
146.742	127.625
150.896	149.29167
155.046	176.95833
159.193	285.625
163.336	481.95833
167.476	871.95833
171.613	1619.625
175.746	2718.29167
179.875	4058.29167
184.002	5275.625
188.124	6085.95833
192.244	6353.625
196.36	6239.625
200.472	6057.95833
204.581	5847.625
208.687	5634.95833
212.79	5560.29167
216.889	5545.95833
220.984	5574.625
225.077	5573.95833
229.165	5567.625
233.251	5615.29167
237.333	5578.625
241.412	5509.29167
245.487	5467.625
249.559	5373.625
253.628	5328.29167
257.694	5233.95833
261.756	5182.29167
265.814	5067.29167
269.87	4906.29167
273.922	4799.625
277.97	4792.95833
282.016	4769.29167
286.058	4826.29167
290.097	4891.625
294.132	4919.95833
298.164	4864.95833
302.193	4586.29167
306.219	4257.625
310.241	3895.625
314.26	3560.29167
318.276	3264.29167
322.288	3058.95833
326.297	2873.95833
330.303	2756.29167
334.305	2689.95833
338.305	2606.29167
342.301	2561.29167
346.294	2519.625
350.283	2495.95833
354.269	2459.625
358.252	2441.95833
362.232	2440.95833
366.209	2416.625
370.182	2370.625
374.152	2370.95833
378.119	2379.625
382.083	2363.625
386.043	2377.29167
390	2324.95833
393.954	2321.95833
397.905	2284.29167
401.852	2280.29167
405.797	2237.29167
409.738	2220.625
413.676	2201.29167
417.61	2192.29167
421.542	2153.29167
425.47	2155.625
429.396	2118.29167
433.318	2120.95833
437.236	2111.29167
441.152	2109.95833
445.065	2050.625
448.974	2049.625
452.88	2036.29167
456.783	2028.625
460.683	2010.29167
464.58	2015.625
468.473	2024.29167
472.364	2019.95833
476.251	2033.625
480.135	2032.29167
484.016	2065.625
487.894	2078.29167
491.769	2112.625
495.641	2096.95833
499.509	2082.625
503.375	2123.95833
507.237	2149.95833
511.096	2206.625
514.952	2551.625
518.805	2942.625
522.655	3066.625
526.502	2529.29167
530.346	2158.95833
534.187	2113.29167
538.024	2074.29167
541.859	2052.29167
545.69	2073.95833
549.519	2036.95833
553.344	2042.625
557.166	1986.625
560.985	1979.625
564.802	1945.625
568.615	1924.29167
572.425	1887.29167
576.232	1879.95833
580.036	1884.29167
583.836	1892.95833
587.634	1895.95833
591.429	1885.29167
595.221	1918.29167
599.01	1958.29167
602.796	1985.95833
606.578	1979.29167
610.358	1982.95833
614.135	1981.95833
617.909	1963.29167
621.679	1968.95833
625.447	1955.625
629.212	1960.29167
632.973	1957.29167
636.732	1938.625
640.488	1965.29167
644.241	1920.625
647.991	1919.625
651.737	1939.95833
655.481	1899.95833
659.222	1899.625
662.96	1875.625
666.695	1922.625
670.427	1920.625
674.156	1924.625
677.882	1938.29167
681.605	1943.29167
685.325	1913.29167
689.043	1920.625
692.757	1909.95833
696.468	1914.95833
700.177	1921.95833
703.882	1903.95833
707.585	1904.29167
711.284	1912.29167
714.981	1912.95833
718.675	1943.29167
722.366	1935.95833
726.054	1921.29167
729.739	1905.95833
733.421	1935.29167
737.1	1947.625
740.777	1952.29167
744.45	1936.29167
748.121	1968.29167
751.789	2012.625
755.453	2001.625
759.115	2017.625
762.774	2041.625
766.431	2072.625
770.084	2083.95833
773.734	2108.95833
777.382	2151.625
781.027	2168.625
784.669	2183.29167
788.308	2174.95833
791.944	2192.95833
795.577	2236.29167
799.208	2237.625
802.835	2254.625
806.46	2252.95833
810.082	2258.95833
813.701	2276.95833
817.317	2303.95833
820.931	2286.29167
824.542	2296.29167
828.149	2272.625
831.754	2264.625
835.357	2278.95833
838.956	2273.625
842.553	2266.625
846.146	2246.625
849.737	2262.29167
853.326	2262.29167
856.911	2282.625
860.493	2335.29167
864.073	2326.625
867.65	2355.95833
871.225	2392.29167
874.796	2395.29167
878.365	2415.625
881.931	2425.625
885.494	2449.29167
889.054	2458.625
892.612	2472.95833
896.166	2466.29167
899.719	2432.95833
903.268	2389.29167
906.814	2362.29167
910.358	2349.625
913.899	2340.625
917.438	2332.29167
920.973	2320.625
924.506	2357.95833
928.036	2399.625
931.564	2439.29167
935.088	2467.29167
938.61	2470.29167
942.129	2508.625
945.646	2568.625
949.16	2623.95833
952.671	2659.95833
956.179	2685.29167
959.685	2605.29167
963.188	2604.95833
966.688	2536.95833
970.185	2472.29167
973.68	2435.95833
977.173	2450.29167
980.662	2417.95833
984.149	2451.29167
987.633	2422.29167
991.114	2473.95833
994.593	2560.29167
998.069	2625.95833
1001.542	2691.29167
1005.013	2610.95833
1008.481	2456.29167
1011.947	2435.625
1015.409	2427.95833
1018.869	2418.29167
1022.327	2420.95833
1025.782	2412.625
1029.234	2413.625
1032.683	2376.95833
1036.13	2301.95833
1039.574	2211.625
1043.016	2150.29167
1046.455	2116.625
1049.891	2068.95833
1053.325	2085.95833
1056.756	2088.625
1060.184	2091.625
1063.61	2109.625
1067.033	2121.29167
1070.454	2125.95833
1073.872	2152.625
1077.287	2137.95833
1080.7	2168.625
1084.11	2157.95833
1087.517	2153.29167
1090.922	2130.29167
1094.325	2094.625
1097.724	2090.625
1101.122	2096.625
1104.516	2072.625
1107.908	2083.95833
1111.298	2132.95833
1114.684	2149.95833
1118.069	2164.29167
1121.45	2184.95833
1124.83	2190.625
1128.206	2215.29167
1131.58	2283.625
1134.951	2313.95833
1138.32	2374.29167
1141.687	2454.95833
1145.05	2539.29167
1148.412	2549.625
1151.77	2549.625
1155.126	2564.29167
1158.48	2534.29167
1161.831	2591.625
1165.18	2578.95833
1168.525	2619.625
1171.869	2673.625
1175.21	2693.625
1178.548	2701.95833
1181.884	2726.625
1185.217	2715.29167
1188.548	2787.625
1191.877	2829.625
1195.202	2896.625
1198.526	2916.29167
1201.846	2941.29167
1205.165	2943.625
1208.48	2938.95833
1211.794	2908.625
1215.104	2893.625
1218.413	2926.29167
1221.719	2905.625
1225.022	2870.625
1228.323	2859.625
1231.621	2831.29167
1234.917	2857.625
1238.21	2884.625
1241.501	2867.95833
1244.79	2883.625
1248.076	2888.95833
1251.359	2888.29167
1254.64	2990.29167
1257.919	2981.625
1261.195	3027.625
1264.468	3084.95833
1267.74	3106.29167
1271.008	3132.29167
1274.275	3120.29167
1277.538	3064.625
1280.8	3057.625
1284.059	3067.29167
1287.315	3118.625
1290.569	3126.95833
1293.821	3144.625
1297.07	3155.95833
1300.317	3144.625
1303.562	3140.29167
1306.803	3135.625
1310.043	3084.29167
1313.28	3017.95833
1316.515	3005.29167
1319.747	2973.29167
1322.977	2922.625
1326.204	2903.29167
1329.429	2861.625
1332.652	2831.625
1335.872	2861.29167
1339.09	2829.95833
1342.306	2811.95833
1345.519	2798.625
1348.729	2766.95833
1351.938	2754.29167
1355.144	2711.29167
1358.347	2681.29167
1361.548	2695.29167
1364.747	2716.95833
1367.944	2698.625
1371.138	2736.29167
1374.329	2753.95833
1377.518	2769.29167
1380.705	2802.625
1383.89	2787.95833
1387.072	2676.625
1390.252	2619.29167
1393.429	2532.29167
1396.605	2468.95833
1399.777	2399.29167
1402.948	2376.95833
1406.116	2347.29167
1409.282	2363.625
1412.445	2387.625
1415.606	2398.29167
1418.765	2444.625
1421.921	2490.625
1425.075	2552.29167
1428.227	2612.29167
1431.376	2737.95833
1434.524	2808.29167
1437.668	2853.95833
1440.811	2886.625
1443.951	2907.625
1447.089	2917.95833
1450.224	2882.625
1453.357	2907.29167
1456.488	2868.95833
1459.617	2848.95833
1462.743	2821.625
1465.867	2757.625
1468.989	2711.625
1472.108	2671.625
1475.225	2604.95833
1478.34	2599.95833
1481.453	2594.625
1484.563	2571.95833
1487.671	2661.625
1490.776	2705.625
1493.88	2725.625
1496.981	2799.29167
1500.08	2827.625
1503.176	2879.29167
1506.271	2932.95833
1509.363	2967.625
1512.452	3018.29167
1515.54	3051.29167
1518.625	3127.29167
1521.708	3242.29167
1524.789	3389.95833
1527.867	3540.625
1530.944	3780.625
1534.018	3962.29167
1537.089	4105.95833
1540.159	4138.625
1543.226	4103.95833
1546.291	3983.29167
1549.354	3874.29167
1552.415	3738.29167
1555.473	3653.29167
1558.529	3586.29167
1561.583	3517.29167
1564.634	3474.95833
1567.684	3475.95833
1570.731	3447.625
1573.776	3479.95833
1576.819	3499.625
1579.859	3506.95833
1582.898	3527.29167
1585.934	3545.29167
1588.968	3560.95833
1591.999	3552.29167
1595.029	3548.625
1598.056	3562.95833
1601.081	3579.625
1604.104	3548.29167
1607.125	3527.29167
1610.144	3449.29167
1613.16	3367.95833
1616.174	3270.95833
1619.186	3204.29167
1622.196	3130.625
1625.203	3050.95833
1628.209	3000.95833
1631.212	2934.29167
1634.213	2885.95833
1637.212	2854.95833
1640.209	2797.625
1643.203	2740.29167
1646.196	2658.625
1649.186	2584.95833
1652.174	2524.625
1655.16	2435.625
1658.144	2366.95833
1661.125	2267.95833
1664.105	2196.29167
1667.082	2116.95833
1670.057	2003.625
1673.03	1877.625
1676.001	1790.625
1678.97	1655.95833
1681.937	1598.95833
1684.901	1509.625
1687.863	1470.29167
1690.824	1410.29167
1693.782	1386.625
1696.738	1330.95833
1699.692	1312.625
1702.643	1291.95833
1705.593	1274.625
1708.54	1261.29167
1711.486	1255.625
1714.429	1226.29167
1717.37	1207.95833
1720.309	1189.95833
1723.246	1207.95833
1726.181	1168.625
1729.113	1194.29167
1732.044	1163.29167
1734.972	1158.29167
1737.899	1163.625
1740.823	1152.95833
1743.745	1167.95833
1746.665	1117.625
1749.583	1092.625
1752.499	1101.29167
1755.413	1082.95833
1758.325	1047.95833
1761.235	1055.29167
1764.142	1035.29167
1767.048	1024.29167
1769.951	1021.625
1772.852	1013.625
1775.752	1023.29167
1778.649	1015.625
1781.544	1018.625
1784.437	999.29167
1787.328	1008.29167
1790.217	996.95833
1793.104	993.625
1795.989	968.29167
1798.872	970.625
1801.753	990.29167
1804.631	996.95833
1807.508	1007.29167
1810.383	980.95833
1813.255	971.625
1816.126	988.29167
1818.994	972.625
1821.861	979.625
1824.725	975.625
1827.587	962.625
1830.448	981.29167
1833.306	942.625
1836.162	964.625
1839.017	950.95833
1841.869	964.29167
1844.719	966.29167
1847.567	938.625
1850.414	939.625
1853.258	929.95833
1856.1	971.29167
1858.94	964.95833
1861.778	956.29167
1864.614	943.95833
1867.448	955.625
1870.28	944.95833
1873.111	976.29167
1875.939	955.29167
1878.765	965.625
1881.589	960.625
1884.411	963.625
1887.231	962.29167
1890.049	946.95833
1892.865	949.625
1895.68	954.29167
1898.492	950.29167
1901.302	944.95833
1904.11	948.95833
1906.916	932.95833
1909.721	938.625
1912.523	946.29167
1915.323	918.29167
1918.122	930.95833
1920.918	941.625
1923.712	927.625
1926.505	943.95833
1929.295	929.29167
1932.084	950.625
1934.87	944.625
1937.655	944.95833
1940.438	929.625
1943.218	945.625
1945.997	945.29167
1948.774	967.95833
1951.549	957.625
1954.322	948.29167
1957.093	959.29167
1959.862	951.625
1962.629	944.625
1965.394	947.625
1968.157	941.29167
1970.918	946.95833
1973.678	950.29167
1976.435	944.95833
1979.19	939.625
1981.944	942.95833
1984.696	940.95833
1987.445	935.625
1990.193	936.29167
1992.939	962.95833
1995.683	944.95833
1998.425	923.95833
2001.165	962.95833
2003.903	945.625
2006.639	945.625
2009.374	947.29167
2012.106	958.29167
2014.837	928.625
2017.566	968.29167
2020.292	962.95833
2023.017	981.625
2025.74	970.29167
2028.461	947.625
2031.18	962.95833
2033.898	953.95833
2036.613	956.95833
2039.327	966.95833
2042.038	952.95833
2044.748	955.625
2047.456	963.29167
2050.162	951.625
2052.866	960.29167
2055.568	975.29167
2058.268	965.95833
2060.967	969.95833
2063.663	948.95833
2066.358	974.29167
2069.051	966.625
2071.742	982.95833
2074.431	983.29167
2077.118	972.95833
2079.804	976.625
2082.487	987.95833
2085.169	996.625
2087.849	1026.95833
2090.527	998.95833
2093.203	1022.29167
2095.877	1035.625
2098.55	1046.95833
2101.22	1048.95833
2103.889	1077.29167
2106.556	1084.625
2109.221	1136.625
2111.884	1169.625
2114.546	1256.29167
2117.205	1341.29167
2119.863	1424.29167
2122.519	1515.625
2125.173	1620.29167
2127.825	1693.95833
2130.475	1698.95833
2133.124	1657.625
2135.771	1591.625
2138.416	1535.29167
2141.059	1449.625
2143.7	1387.95833
2146.339	1322.625
2148.977	1252.29167
2151.613	1243.29167
2154.247	1197.95833
2156.879	1183.95833
2159.51	1173.29167
2162.138	1154.29167
2164.765	1147.29167
2167.39	1127.625
2170.013	1137.29167
2172.634	1138.625
2175.254	1123.29167
2177.872	1153.95833
2180.488	1114.29167
2183.102	1124.625
2185.714	1116.95833
2188.325	1099.29167
2190.934	1108.625
2193.541	1098.95833
2196.146	1088.625
2198.75	1073.29167
2201.351	1072.625
2203.951	1060.625
2206.549	1086.625
2209.146	1077.95833
2211.74	1070.95833
2214.333	1070.625
2216.924	1042.95833
2219.514	1069.625
2222.101	1063.29167
2224.687	1075.625
2227.271	1055.29167
2229.853	1060.95833
2232.433	1053.625
2235.012	1073.625
2237.589	1082.625
2240.164	1082.29167
2242.738	1080.95833
2245.309	1068.95833
2247.879	1077.95833
2250.448	1078.625
2253.014	1052.625
2255.579	1050.29167
2258.142	1071.29167
2260.703	1050.625
2263.262	1055.29167
2265.82	1059.29167
2268.376	1061.625
2270.93	1060.29167
2273.483	1051.95833
2276.033	1063.95833
2278.583	1065.95833
2281.13	1062.95833
2283.675	1059.625
2286.219	1060.95833
2288.761	1057.29167
2291.302	1083.29167
2293.841	1080.29167
2296.377	1059.625
2298.913	1072.29167
2301.446	1081.95833
2303.978	1077.95833
2306.508	1077.95833
2309.037	1087.29167
2311.563	1092.625
2314.088	1099.29167
2316.612	1086.29167
2319.133	1099.625
2321.653	1101.95833
2324.171	1096.95833
2326.688	1097.625
2329.202	1112.29167
2331.715	1111.29167
2334.227	1104.95833
2336.736	1119.625
2339.244	1118.95833
2341.751	1102.29167
2344.255	1117.95833
2346.758	1123.29167
2349.259	1118.29167
2351.759	1122.29167
2354.257	1128.625
2356.753	1114.95833
2359.247	1127.29167
2361.74	1133.625
2364.231	1125.625
2366.721	1155.625
2369.209	1138.625
2371.695	1136.95833
2374.179	1149.625
2376.662	1139.29167
2379.143	1194.625
2381.622	1150.29167
2384.1	1179.29167
2386.576	1166.625
2389.051	1194.625
2391.524	1198.95833
2393.995	1202.29167
2396.464	1188.95833
2398.932	1195.95833
2401.398	1199.29167
2403.863	1184.29167
2406.325	1189.29167
2408.787	1197.29167
2411.246	1199.29167
2413.704	1203.29167
2416.16	1211.625
2418.615	1219.29167
2421.068	1236.625
2423.519	1227.95833
2425.969	1223.29167
2428.417	1243.95833
2430.863	1248.29167
2433.308	1260.95833
2435.751	1241.95833
2438.193	1245.29167
2440.633	1254.625
2443.071	1262.625
2445.508	1245.29167
2447.943	1270.625
2450.376	1261.29167
2452.808	1285.29167
2455.238	1277.625
2457.667	1310.29167
2460.093	1287.29167
2462.519	1284.29167
2464.942	1269.95833
2467.365	1298.95833
2469.785	1307.95833
2472.204	1297.29167
2474.621	1298.29167
2477.037	1327.625
2479.451	1295.625
2481.863	1304.29167
2484.274	1320.29167
2486.683	1320.625
2489.091	1340.95833
2491.497	1330.29167
2493.901	1334.625
2496.304	1337.625
2498.705	1358.625
2501.105	1344.29167
2503.503	1372.29167
2505.899	1347.625
2508.294	1388.29167
2510.687	1355.625
2513.079	1376.29167
2515.469	1365.95833
2517.858	1367.625
2520.245	1400.625
2522.63	1394.29167
2525.014	1394.95833
2527.396	1387.95833
2529.776	1392.95833
2532.156	1408.625
2534.533	1390.95833
2536.909	1407.29167
2539.283	1394.95833
2541.656	1434.29167
2544.027	1432.95833
2546.397	1432.29167
2548.765	1429.95833
2551.131	1428.29167
2553.496	1441.625
2555.86	1455.95833
2558.221	1448.29167
2560.582	1450.625
2562.94	1439.29167
2565.298	1441.95833
2567.653	1480.95833
2570.007	1477.29167
2572.36	1486.95833
2574.711	1487.625
2577.06	1507.29167
2579.408	1509.95833
2581.754	1506.95833
2584.099	1519.29167
2586.442	1536.29167
2588.784	1511.625
2591.124	1524.29167
2593.463	1536.29167
2595.8	1518.625
2598.135	1517.95833
2600.469	1533.95833
2602.802	1547.95833
2605.133	1572.625
2607.462	1545.29167
2609.79	1559.625
2612.116	1551.625
2614.441	1563.95833
2616.764	1574.625
2619.086	1592.625
2621.406	1583.29167
2623.725	1613.95833
2626.042	1614.625
2628.358	1589.29167
2630.672	1602.29167
2632.985	1623.95833
2635.296	1641.625
2637.606	1634.625
2639.914	1633.625
2642.22	1646.29167
2644.525	1663.625
2646.829	1667.625
2649.131	1680.29167
2651.432	1690.29167
2653.731	1690.29167
2656.028	1716.29167
2658.324	1692.95833
2660.619	1702.95833
2662.912	1734.95833
2665.204	1709.29167
2667.494	1737.625
2669.782	1709.29167
2672.07	1727.95833
2674.355	1739.625
2676.639	1740.29167
2678.922	1750.95833
2681.203	1757.625
2683.483	1742.625
2685.761	1737.625
2688.038	1760.29167
2690.313	1771.95833
2692.587	1778.95833
2694.859	1770.29167
2697.13	1782.625
2699.399	1804.95833
2701.667	1799.625
2703.933	1803.29167
2706.198	1825.95833
2708.461	1815.95833
2710.723	1844.29167
2712.984	1822.29167
2715.243	1854.95833
2717.5	1862.95833
2719.757	1905.95833
2722.011	1878.95833
2724.264	1911.625
2726.516	1913.625
2728.766	1918.95833
2731.015	1933.95833
2733.262	1924.625
2735.508	1928.29167
2737.753	1940.29167
2739.996	1932.95833
2742.237	1932.29167
2744.477	1929.625
2746.716	1941.29167
2748.953	1914.29167
2751.189	1921.29167
2753.423	1915.29167
2755.656	1906.625
2757.887	1913.29167
2760.117	1941.95833
2762.346	1917.95833
2764.573	1918.625
2766.798	1923.625
2769.022	1947.625
2771.245	1955.29167
2773.467	1958.29167
2775.686	1958.29167
2777.905	1979.95833
2780.122	1981.29167
2782.337	2004.29167
2784.552	1985.29167
2786.764	2004.625
2788.976	2030.29167
2791.186	2050.95833
2793.394	2035.625
2795.601	2063.95833
2797.807	2096.29167
2800.011	2075.95833
2802.214	2112.625
2804.415	2110.29167
2806.615	2112.95833
2808.814	2127.29167
2811.011	2142.29167
2813.206	2146.625
2815.401	2128.95833
2817.594	2168.29167
2819.785	2170.625
2821.975	2164.625
2824.164	2170.625
2826.351	2185.95833
2828.537	2213.625
2830.722	2236.95833
2832.905	2223.95833
2835.086	2266.625
2837.267	2300.625
2839.445	2315.29167
2841.623	2350.29167
2843.799	2356.625
2845.974	2400.625
2848.147	2436.625
2850.319	2451.29167
2852.489	2500.625
2854.659	2503.29167
2856.826	2524.29167
2858.993	2555.95833
2861.158	2539.625
2863.321	2556.29167
2865.483	2561.625
2867.644	2578.95833
2869.804	2557.625
2871.962	2557.625
2874.118	2550.29167
2876.274	2531.625
2878.428	2526.625
2880.58	2531.625
2882.731	2492.29167
2884.881	2520.29167
2887.03	2528.29167
2889.177	2505.29167
2891.322	2521.95833
2893.467	2513.625
2895.61	2516.29167
2897.751	2554.625
2899.892	2543.625
2902.03	2563.95833
2904.168	2602.29167
2906.304	2606.95833
2908.439	2633.95833
2910.572	2607.625
2912.704	2625.95833
2914.835	2635.29167
2916.965	2626.29167
2919.093	2658.625
2921.219	2602.625
2923.345	2636.625
2925.469	2618.29167
2927.591	2591.625
2929.712	2534.29167
2931.832	2539.29167
2933.951	2507.95833
2936.068	2488.95833
2938.184	2459.95833
2940.299	2430.625
2942.412	2427.95833
2944.524	2398.95833
2946.634	2407.95833
2948.744	2363.625
2950.851	2393.625
2952.958	2349.95833
2955.063	2340.625
2957.167	2355.625
2959.269	2332.625
2961.371	2365.95833
2963.471	2331.95833
2965.569	2341.29167
2967.666	2318.625
2969.762	2301.29167
2971.857	2285.625
2973.95	2238.29167
2976.042	2228.95833
2978.133	2211.29167
2980.222	2180.29167
2982.31	2151.95833
2984.396	2141.95833
2986.482	2134.95833
2988.566	2139.95833
2990.648	2126.29167
2992.73	2125.29167
2994.81	2111.95833
2996.889	2138.95833
2998.966	2135.95833
3001.042	2144.29167
3003.117	2141.29167
3005.191	2131.29167
3007.263	2136.95833
3009.334	2121.625
3011.403	2104.95833
3013.472	2062.29167
3015.539	2054.95833
3017.604	2045.29167
3019.669	2007.95833
3021.732	2018.625
3023.794	2017.95833
3025.854	1996.625
3027.914	1992.625
3029.971	2011.29167
3032.028	2012.95833
3034.083	2001.29167
3036.137	1943.29167
3038.19	1923.625
3040.242	1886.625
3042.292	1852.625
3044.341	1829.625
3046.388	1836.95833
3048.435	1782.29167
3050.48	1818.29167
3052.524	1797.95833
3054.566	1779.625
3056.607	1770.625
3058.647	1723.29167
3060.686	1685.29167
3062.723	1629.625
3064.759	1595.625
3066.794	0.29167
3068.828	-2.375
3070.86	-1.04167
