-0.839	434.08333
3.438	478.41667
7.711	129.41667
11.981	52.41667
16.247	44.75
20.509	39.75
24.768	41.41667
29.024	43.41667
33.276	43.75
37.524	46.41667
41.769	38.41667
46.01	35.75
50.247	50.08333
54.481	60.75
58.712	65.41667
62.939	51.41667
67.162	61.41667
71.382	52.41667
75.599	49.41667
79.812	60.08333
84.021	83.75
88.227	60.75
92.429	61.08333
96.628	42.08333
100.823	67.75
105.015	75.08333
109.204	71.41667
113.388	73.08333
117.57	69.75
121.748	82.41667
125.922	76.75
130.093	95.08333
134.261	98.75
138.425	92.41667
142.585	132.08333
146.742	130.75
150.896	149.75
155.046	189.08333
159.193	293.75
163.336	497.75
167.476	947.41667
171.613	1748.41667
175.746	2903.08333
179.875	4309.75
184.002	5633.08333
188.124	6525.08333
192.244	6800.08333
196.36	6723.75
200.472	6526.41667
204.581	6346.41667
208.687	6114.75
212.79	6023.75
216.889	5982.75
220.984	6017.75
225.077	6035.08333
229.165	6060.08333
233.251	6029.41667
237.333	6024.41667
241.412	5976.41667
245.487	5943.08333
249.559	5862.75
253.628	5849.41667
257.694	5814.41667
261.756	5758.41667
265.814	5660.75
269.87	5528.08333
273.922	5451.75
277.97	5457.75
282.016	5441.75
286.058	5546.08333
290.097	5722.75
294.132	5761.41667
298.164	5702.75
302.193	5457.41667
306.219	5060.08333
310.241	4608.75
314.26	4168.41667
318.276	3776.75
322.288	3524.41667
326.297	3280.08333
330.303	3129.75
334.305	3021.41667
338.305	2944.41667
342.301	2866.08333
346.294	2856.41667
350.283	2820.41667
354.269	2774.41667
358.252	2742.75
362.232	2722.08333
366.209	2702.41667
370.182	2662.08333
374.152	2652.75
378.119	2665.41667
382.083	2642.41667
386.043	2653.75
390	2595.41667
393.954	2580.75
397.905	2567.75
401.852	2560.08333
405.797	2512.08333
409.738	2499.08333
413.676	2485.75
417.61	2479.08333
421.542	2440.41667
425.47	2433.41667
429.396	2414.08333
433.318	2400.41667
437.236	2393.41667
441.152	2409.08333
445.065	2353.08333
448.974	2332.41667
452.88	2312.08333
456.783	2290.41667
460.683	2284.75
464.58	2284.41667
468.473	2290.41667
472.364	2284.08333
476.251	2290.41667
480.135	2285.41667
484.016	2342.75
487.894	2369.41667
491.769	2373.41667
495.641	2364.75
499.509	2371.08333
503.375	2370.41667
507.237	2366.75
511.096	2379.08333
514.952	2484.41667
518.805	2593.08333
522.655	2637.41667
526.502	2447.08333
530.346	2375.41667
534.187	2359.41667
538.024	2339.08333
541.859	2350.41667
545.69	2369.75
549.519	2351.08333
553.344	2334.41667
557.166	2293.75
560.985	2274.08333
564.802	2239.75
568.615	2222.41667
572.425	2164.08333
576.232	2180.41667
580.036	2190.41667
583.836	2171.08333
587.634	2161.41667
591.429	2183.41667
595.221	2214.08333
599.01	2226.08333
602.796	2261.75
606.578	2275.41667
610.358	2281.75
614.135	2256.08333
617.909	2253.75
621.679	2237.08333
625.447	2230.75
629.212	2240.08333
632.973	2258.08333
636.732	2249.41667
640.488	2254.75
644.241	2199.08333
647.991	2216.08333
651.737	2212.75
655.481	2186.75
659.222	2183.08333
662.96	2182.41667
666.695	2203.75
670.427	2227.41667
674.156	2214.75
677.882	2235.75
681.605	2238.08333
685.325	2225.41667
689.043	2240.08333
692.757	2215.41667
696.468	2212.75
700.177	2225.08333
703.882	2218.75
707.585	2222.08333
711.284	2229.41667
714.981	2214.08333
718.675	2235.41667
722.366	2256.08333
726.054	2244.08333
729.739	2223.08333
733.421	2233.75
737.1	2244.08333
740.777	2240.08333
744.45	2272.41667
748.121	2294.08333
751.789	2324.08333
755.453	2318.08333
759.115	2336.41667
762.774	2347.41667
766.431	2383.41667
770.084	2399.41667
773.734	2423.75
777.382	2489.41667
781.027	2501.41667
784.669	2517.08333
788.308	2527.41667
791.944	2553.75
795.577	2569.75
799.208	2588.75
802.835	2598.75
806.46	2609.75
810.082	2628.08333
813.701	2636.75
817.317	2646.41667
820.931	2638.75
824.542	2652.41667
828.149	2630.41667
831.754	2623.75
835.357	2616.08333
838.956	2628.41667
842.553	2635.41667
846.146	2627.41667
849.737	2592.75
853.326	2618.75
856.911	2625.75
860.493	2669.08333
864.073	2692.08333
867.65	2721.75
871.225	2754.41667
874.796	2766.75
878.365	2802.41667
881.931	2787.75
885.494	2830.08333
889.054	2818.41667
892.612	2843.08333
896.166	2818.08333
899.719	2790.75
903.268	2765.41667
906.814	2705.41667
910.358	2711.75
913.899	2679.75
917.438	2674.08333
920.973	2672.75
924.506	2709.08333
928.036	2758.75
931.564	2781.75
935.088	2786.08333
938.61	2785.41667
942.129	2848.08333
945.646	2910.41667
949.16	2970.08333
952.671	3008.75
956.179	3041.41667
959.685	2965.08333
963.188	2930.08333
966.688	2893.08333
970.185	2843.75
973.68	2791.75
977.173	2772.08333
980.662	2729.08333
984.149	2755.75
987.633	2750.08333
991.114	2789.75
994.593	2880.08333
998.069	2954.08333
1001.542	3049.08333
1005.013	2975.75
1008.481	2829.75
1011.947	2766.41667
1015.409	2748.41667
1018.869	2766.41667
1022.327	2782.75
1025.782	2741.41667
1029.234	2761.08333
1032.683	2719.75
1036.13	2641.08333
1039.574	2541.08333
1043.016	2493.08333
1046.455	2446.75
1049.891	2412.08333
1053.325	2437.08333
1056.756	2426.41667
1060.184	2443.08333
1063.61	2468.41667
1067.033	2470.75
1070.454	2488.41667
1073.872	2507.41667
1077.287	2511.75
1080.7	2522.41667
1084.11	2509.08333
1087.517	2489.41667
1090.922	2476.08333
1094.325	2446.41667
1097.724	2425.41667
1101.122	2429.75
1104.516	2421.41667
1107.908	2438.41667
1111.298	2482.41667
1114.684	2486.75
1118.069	2528.41667
1121.45	2566.08333
1124.83	2566.41667
1128.206	2597.75
1131.58	2661.75
1134.951	2704.08333
1138.32	2787.75
1141.687	2877.75
1145.05	2969.75
1148.412	2966.08333
1151.77	2950.41667
1155.126	2956.08333
1158.48	2958.41667
1161.831	2979.41667
1165.18	3027.75
1168.525	3020.41667
1171.869	3085.08333
1175.21	3074.08333
1178.548	3124.75
1181.884	3152.41667
1185.217	3187.75
1188.548	3215.75
1191.877	3256.41667
1195.202	3329.75
1198.526	3409.75
1201.846	3412.75
1205.165	3421.41667
1208.48	3407.75
1211.794	3389.41667
1215.104	3410.08333
1218.413	3431.08333
1221.719	3401.41667
1225.022	3375.41667
1228.323	3358.41667
1231.621	3338.41667
1234.917	3344.75
1238.21	3355.41667
1241.501	3357.08333
1244.79	3330.08333
1248.076	3363.08333
1251.359	3387.41667
1254.64	3462.75
1257.919	3455.41667
1261.195	3543.41667
1264.468	3585.41667
1267.74	3625.08333
1271.008	3627.41667
1274.275	3606.75
1277.538	3586.41667
1280.8	3588.08333
1284.059	3580.41667
1287.315	3616.75
1290.569	3658.08333
1293.821	3659.75
1297.07	3669.75
1300.317	3662.41667
1303.562	3664.08333
1306.803	3624.08333
1310.043	3591.08333
1313.28	3548.75
1316.515	3519.75
1319.747	3451.75
1322.977	3427.75
1326.204	3380.08333
1329.429	3346.08333
1332.652	3310.75
1335.872	3291.41667
1339.09	3285.08333
1342.306	3267.75
1345.519	3235.08333
1348.729	3199.08333
1351.938	3190.41667
1355.144	3143.08333
1358.347	3103.41667
1361.548	3117.41667
1364.747	3139.08333
1367.944	3098.75
1371.138	3146.08333
1374.329	3188.08333
1377.518	3207.41667
1380.705	3253.08333
1383.89	3224.41667
1387.072	3124.08333
1390.252	3038.41667
1393.429	2931.41667
1396.605	2873.41667
1399.777	2795.41667
1402.948	2771.75
1406.116	2757.08333
1409.282	2766.75
1412.445	2768.75
1415.606	2800.75
1418.765	2860.08333
1421.921	2905.08333
1425.075	2955.41667
1428.227	3043.75
1431.376	3168.75
1434.524	3284.75
1437.668	3333.41667
1440.811	3379.41667
1443.951	3366.75
1447.089	3377.75
1450.224	3400.08333
1453.357	3347.75
1456.488	3321.08333
1459.617	3279.41667
1462.743	3253.75
1465.867	3163.75
1468.989	3126.41667
1472.108	3089.75
1475.225	3028.75
1478.34	3006.75
1481.453	2979.41667
1484.563	3005.08333
1487.671	3046.08333
1490.776	3109.08333
1493.88	3162.75
1496.981	3214.75
1500.08	3257.75
1503.176	3305.75
1506.271	3373.75
1509.363	3401.75
1512.452	3445.08333
1515.54	3538.08333
1518.625	3601.08333
1521.708	3725.08333
1524.789	3902.75
1527.867	4053.75
1530.944	4329.41667
1534.018	4531.41667
1537.089	4732.08333
1540.159	4744.08333
1543.226	4662.75
1546.291	4550.41667
1549.354	4436.41667
1552.415	4305.75
1555.473	4175.75
1558.529	4082.08333
1561.583	4020.08333
1564.634	3989.08333
1567.684	3969.41667
1570.731	3947.75
1573.776	3986.75
1576.819	4008.41667
1579.859	4017.41667
1582.898	4075.08333
1585.934	4073.75
1588.968	4048.41667
1591.999	4099.08333
1595.029	4056.75
1598.056	4106.08333
1601.081	4115.41667
1604.104	4083.08333
1607.125	4058.41667
1610.144	3948.75
1613.16	3860.41667
1616.174	3786.41667
1619.186	3641.41667
1622.196	3561.75
1625.203	3473.08333
1628.209	3378.41667
1631.212	3325.75
1634.213	3306.75
1637.212	3232.75
1640.209	3180.41667
1643.203	3108.08333
1646.196	3003.08333
1649.186	2895.41667
1652.174	2833.08333
1655.16	2733.75
1658.144	2692.08333
1661.125	2563.41667
1664.105	2455.08333
1667.082	2356.41667
1670.057	2241.75
1673.03	2105.41667
1676.001	1980.75
1678.97	1857.08333
1681.937	1763.08333
1684.901	1661.75
1687.863	1615.08333
1690.824	1556.08333
1693.782	1545.41667
1696.738	1468.75
1699.692	1445.75
1702.643	1403.75
1705.593	1391.75
1708.54	1371.75
1711.486	1367.75
1714.429	1336.08333
1717.37	1319.08333
1720.309	1297.41667
1723.246	1322.41667
1726.181	1279.08333
1729.113	1280.75
1732.044	1254.75
1734.972	1260.75
1737.899	1253.08333
1740.823	1238.41667
1743.745	1243.41667
1746.665	1201.75
1749.583	1179.75
1752.499	1149.41667
1755.413	1149.08333
1758.325	1126.41667
1761.235	1118.41667
1764.142	1079.41667
1767.048	1074.41667
1769.951	1086.41667
1772.852	1070.08333
1775.752	1057.75
1778.649	1070.75
1781.544	1051.08333
1784.437	1043.41667
1787.328	1040.75
1790.217	1035.41667
1793.104	1008.75
1795.989	1009.08333
1798.872	1000.75
1801.753	1022.75
1804.631	1008.41667
1807.508	1018.08333
1810.383	1022.75
1813.255	1006.41667
1816.126	997.75
1818.994	986.41667
1821.861	993.08333
1824.725	993.08333
1827.587	986.08333
1830.448	967.75
1833.306	955.75
1836.162	957.08333
1839.017	969.41667
1841.869	951.75
1844.719	955.75
1847.567	931.41667
1850.414	932.41667
1853.258	929.41667
1856.1	957.75
1858.94	963.75
1861.778	938.08333
1864.614	921.41667
1867.448	935.08333
1870.28	934.08333
1873.111	949.75
1875.939	943.08333
1878.765	951.75
1881.589	933.75
1884.411	933.75
1887.231	951.41667
1890.049	927.08333
1892.865	928.75
1895.68	914.41667
1898.492	917.75
1901.302	915.41667
1904.11	908.08333
1906.916	905.08333
1909.721	885.75
1912.523	901.75
1915.323	879.75
1918.122	885.41667
1920.918	901.41667
1923.712	882.75
1926.505	894.41667
1929.295	875.75
1932.084	900.08333
1934.87	896.75
1937.655	884.75
1940.438	874.75
1943.218	884.41667
1945.997	886.41667
1948.774	897.41667
1951.549	888.41667
1954.322	876.08333
1957.093	881.75
1959.862	867.41667
1962.629	876.41667
1965.394	874.75
1968.157	856.75
1970.918	865.08333
1973.678	856.41667
1976.435	856.41667
1979.19	846.08333
1981.944	845.75
1984.696	846.08333
1987.445	836.41667
1990.193	857.41667
1992.939	850.41667
1995.683	858.75
1998.425	811.08333
2001.165	861.41667
2003.903	829.41667
2006.639	823.75
2009.374	832.75
2012.106	844.41667
2014.837	817.08333
2017.566	830.08333
2020.292	838.08333
2023.017	837.75
2025.74	826.08333
2028.461	819.08333
2031.18	834.41667
2033.898	813.08333
2036.613	817.75
2039.327	827.08333
2042.038	803.75
2044.748	820.41667
2047.456	806.41667
2050.162	797.08333
2052.866	806.75
2055.568	811.41667
2058.268	801.08333
2060.967	816.08333
2063.663	795.08333
2066.358	800.41667
2069.051	796.41667
2071.742	798.08333
2074.431	818.75
2077.118	807.75
2079.804	799.08333
2082.487	798.08333
2085.169	812.08333
2087.849	821.41667
2090.527	806.41667
2093.203	826.75
2095.877	836.75
2098.55	836.08333
2101.22	845.08333
2103.889	855.75
2106.556	862.75
2109.221	903.75
2111.884	941.75
2114.546	1009.75
2117.205	1098.75
2119.863	1210.08333
2122.519	1274.75
2125.173	1365.41667
2127.825	1416.08333
2130.475	1421.08333
2133.124	1368.41667
2135.771	1302.41667
2138.416	1246.41667
2141.059	1150.08333
2143.7	1104.08333
2146.339	1038.75
2148.977	968.41667
2151.613	963.41667
2154.247	931.08333
2156.879	903.08333
2159.51	873.41667
2162.138	864.08333
2164.765	849.41667
2167.39	837.41667
2170.013	850.08333
2172.634	832.75
2175.254	818.08333
2177.872	834.08333
2180.488	808.75
2183.102	810.75
2185.714	785.41667
2188.325	771.41667
2190.934	763.75
2193.541	777.41667
2196.146	770.08333
2198.75	767.75
2201.351	756.75
2203.951	745.08333
2206.549	775.08333
2209.146	749.41667
2211.74	742.41667
2214.333	757.41667
2216.924	729.41667
2219.514	738.08333
2222.101	713.08333
2224.687	738.08333
2227.271	715.08333
2229.853	715.75
2232.433	701.41667
2235.012	729.75
2237.589	722.08333
2240.164	722.41667
2242.738	718.75
2245.309	714.41667
2247.879	708.41667
2250.448	716.41667
2253.014	695.75
2255.579	678.75
2258.142	687.41667
2260.703	681.75
2263.262	679.41667
2265.82	665.75
2268.376	685.08333
2270.93	671.41667
2273.483	649.75
2276.033	678.08333
2278.583	655.75
2281.13	658.41667
2283.675	646.41667
2286.219	655.08333
2288.761	665.41667
2291.302	652.75
2293.841	667.08333
2296.377	643.08333
2298.913	647.08333
2301.446	662.08333
2303.978	652.75
2306.508	642.75
2309.037	648.75
2311.563	650.41667
2314.088	646.08333
2316.612	624.41667
2319.133	646.08333
2321.653	639.41667
2324.171	647.41667
2326.688	642.75
2329.202	641.75
2331.715	639.08333
2334.227	634.75
2336.736	629.75
2339.244	622.41667
2341.751	612.41667
2344.255	636.41667
2346.758	614.41667
2349.259	615.75
2351.759	620.08333
2354.257	619.41667
2356.753	611.08333
2359.247	627.75
2361.74	620.41667
2364.231	622.08333
2366.721	620.41667
2369.209	624.08333
2371.695	613.41667
2374.179	618.75
2376.662	603.41667
2379.143	630.41667
2381.622	623.41667
2384.1	638.08333
2386.576	605.08333
2389.051	624.75
2391.524	641.41667
2393.995	621.08333
2396.464	612.75
2398.932	617.08333
2401.398	618.75
2403.863	601.08333
2406.325	604.41667
2408.787	603.75
2411.246	605.41667
2413.704	600.08333
2416.16	604.75
2418.615	610.75
2421.068	618.41667
2423.519	614.08333
2425.969	599.75
2428.417	613.41667
2430.863	641.41667
2433.308	612.08333
2435.751	611.41667
2438.193	613.75
2440.633	609.41667
2443.071	611.75
2445.508	598.08333
2447.943	606.41667
2450.376	591.08333
2452.808	599.08333
2455.238	592.41667
2457.667	625.75
2460.093	608.08333
2462.519	591.08333
2464.942	591.75
2467.365	612.75
2469.785	606.75
2472.204	599.41667
2474.621	598.41667
2477.037	612.75
2479.451	585.75
2481.863	586.41667
2484.274	588.75
2486.683	591.75
2489.091	609.08333
2491.497	599.08333
2493.901	594.08333
2496.304	592.75
2498.705	602.08333
2501.105	592.41667
2503.503	621.41667
2505.899	585.41667
2508.294	609.08333
2510.687	587.75
2513.079	602.75
2515.469	589.41667
2517.858	589.08333
2520.245	607.08333
2522.63	592.08333
2525.014	585.08333
2527.396	590.08333
2529.776	576.75
2532.156	593.08333
2534.533	584.41667
2536.909	592.75
2539.283	570.08333
2541.656	586.41667
2544.027	608.08333
2546.397	593.41667
2548.765	579.75
2551.131	588.41667
2553.496	590.08333
2555.86	596.08333
2558.221	589.75
2560.582	586.08333
2562.94	581.08333
2565.298	586.41667
2567.653	608.08333
2570.007	569.75
2572.36	605.08333
2574.711	590.08333
2577.06	607.41667
2579.408	590.41667
2581.754	595.75
2584.099	597.08333
2586.442	598.41667
2588.784	604.75
2591.124	605.08333
2593.463	605.08333
2595.8	606.75
2598.135	589.08333
2600.469	598.41667
2602.802	613.08333
2605.133	605.41667
2607.462	593.41667
2609.79	594.41667
2612.116	594.75
2614.441	601.41667
2616.764	603.08333
2619.086	604.75
2621.406	598.75
2623.725	608.75
2626.042	610.41667
2628.358	594.08333
2630.672	598.08333
2632.985	612.41667
2635.296	608.75
2637.606	610.75
2639.914	606.75
2642.22	614.08333
2644.525	613.08333
2646.829	618.75
2649.131	631.41667
2651.432	617.75
2653.731	625.41667
2656.028	628.75
2658.324	623.41667
2660.619	614.75
2662.912	636.75
2665.204	613.75
2667.494	633.08333
2669.782	622.75
2672.07	630.75
2674.355	648.08333
2676.639	635.41667
2678.922	622.75
2681.203	643.75
2683.483	629.41667
2685.761	626.41667
2688.038	639.08333
2690.313	655.75
2692.587	636.75
2694.859	636.75
2697.13	649.08333
2699.399	644.08333
2701.667	653.08333
2703.933	666.41667
2706.198	670.41667
2708.461	674.41667
2710.723	675.08333
2712.984	674.75
2715.243	685.08333
2717.5	675.08333
2719.757	728.08333
2722.011	830.08333
2724.264	811.08333
2726.516	820.41667
2728.766	753.08333
2731.015	701.08333
2733.262	706.08333
2735.508	691.75
2737.753	694.41667
2739.996	672.41667
2742.237	675.08333
2744.477	691.08333
2746.716	697.75
2748.953	676.41667
2751.189	690.75
2753.423	666.41667
2755.656	670.41667
2757.887	660.75
2760.117	676.41667
2762.346	673.08333
2764.573	666.75
2766.798	674.75
2769.022	684.08333
2771.245	678.08333
2773.467	688.75
2775.686	691.75
2777.905	705.08333
2780.122	709.41667
2782.337	707.41667
2784.552	705.08333
2786.764	721.08333
2788.976	718.41667
2791.186	735.75
2793.394	738.41667
2795.601	761.75
2797.807	759.75
2800.011	754.75
2802.214	772.75
2804.415	787.75
2806.615	785.08333
2808.814	798.08333
2811.011	813.41667
2813.206	801.08333
2815.401	827.75
2817.594	827.41667
2819.785	850.75
2821.975	840.08333
2824.164	848.08333
2826.351	879.75
2828.537	885.41667
2830.722	905.41667
2832.905	911.08333
2835.086	954.41667
2837.267	968.75
2839.445	991.08333
2841.623	1017.08333
2843.799	1063.41667
2845.974	1082.08333
2848.147	1124.08333
2850.319	1139.41667
2852.489	1154.41667
2854.659	1182.75
2856.826	1213.08333
2858.993	1218.75
2861.158	1202.41667
2863.321	1198.41667
2865.483	1226.08333
2867.644	1225.75
2869.804	1214.41667
2871.962	1200.41667
2874.118	1203.75
2876.274	1209.75
2878.428	1201.75
2880.58	1187.08333
2882.731	1177.75
2884.881	1183.08333
2887.03	1178.75
2889.177	1185.75
2891.322	1195.08333
2893.467	1180.08333
2895.61	1193.41667
2897.751	1225.08333
2899.892	1207.75
2902.03	1214.41667
2904.168	1215.08333
2906.304	1217.75
2908.439	1251.08333
2910.572	1216.08333
2912.704	1235.08333
2914.835	1249.08333
2916.965	1222.41667
2919.093	1244.41667
2921.219	1214.41667
2923.345	1227.75
2925.469	1201.41667
2927.591	1200.08333
2929.712	1156.08333
2931.832	1144.08333
2933.951	1133.41667
2936.068	1103.75
2938.184	1072.75
2940.299	1042.41667
2942.412	1034.75
2944.524	997.08333
2946.634	988.75
2948.744	936.41667
2950.851	957.08333
2952.958	897.41667
2955.063	907.08333
2957.167	891.41667
2959.269	877.75
2961.371	879.41667
2963.471	831.75
2965.569	846.41667
2967.666	795.41667
2969.762	808.08333
2971.857	771.41667
2973.95	762.08333
2976.042	755.75
2978.133	740.75
2980.222	719.41667
2982.31	703.41667
2984.396	683.75
2986.482	684.41667
2988.566	679.75
2990.648	677.08333
2992.73	682.41667
2994.81	662.75
2996.889	672.75
2998.966	659.41667
3001.042	663.08333
3003.117	661.08333
3005.191	655.75
3007.263	647.75
3009.334	639.41667
3011.403	637.75
3013.472	614.08333
3015.539	622.08333
3017.604	628.08333
3019.669	584.41667
3021.732	588.41667
3023.794	596.41667
3025.854	595.41667
3027.914	584.41667
3029.971	594.08333
3032.028	574.75
3034.083	572.08333
3036.137	581.75
3038.19	545.75
3040.242	541.75
3042.292	534.08333
3044.341	526.75
3046.388	543.75
3048.435	513.41667
3050.48	529.75
3052.524	513.75
3054.566	496.08333
3056.607	511.75
3058.647	494.08333
3060.686	468.41667
3062.723	450.75
3064.759	453.08333
3066.794	1.08333
3068.828	-1.91667
3070.86	0.75
