-0.839	472.83333
3.438	490.16667
7.711	138.16667
11.981	52.5
16.247	43.83333
20.509	43.16667
24.768	45.5
29.024	43.5
33.276	43.16667
37.524	46.5
41.769	43.83333
46.01	35.5
50.247	51.16667
54.481	59.16667
58.712	62.5
62.939	46.16667
67.162	63.16667
71.382	55.83333
75.599	47.83333
79.812	66.16667
84.021	77.83333
88.227	56.5
92.429	60.83333
96.628	48.16667
100.823	65.5
105.015	75.83333
109.204	75.16667
113.388	76.16667
117.57	70.16667
121.748	86.83333
125.922	78.16667
130.093	96.83333
134.261	100.83333
138.425	97.83333
142.585	142.83333
146.742	137.83333
150.896	160.16667
155.046	206.83333
159.193	317.5
163.336	547.83333
167.476	1015.83333
171.613	1864.83333
175.746	3155.5
179.875	4667.83333
184.002	6075.83333
188.124	7000.5
192.244	7279.5
196.36	7176.16667
200.472	6981.83333
204.581	6697.5
208.687	6482.5
212.79	6338.5
216.889	6341.5
220.984	6257.16667
225.077	6326.5
229.165	6309.83333
233.251	6330.5
237.333	6305.16667
241.412	6238.5
245.487	6165.16667
249.559	6097.83333
253.628	6030.83333
257.694	5971.5
261.756	5945.5
265.814	5851.5
269.87	5702.16667
273.922	5554.16667
277.97	5456.83333
282.016	5424.5
286.058	5454.83333
290.097	5518.83333
294.132	5599.5
298.164	5548.83333
302.193	5293.83333
306.219	4892.16667
310.241	4416.16667
314.26	4030.5
318.276	3700.83333
322.288	3423.16667
326.297	3224.83333
330.303	3099.16667
334.305	2984.5
338.305	2919.83333
342.301	2869.16667
346.294	2822.83333
350.283	2783.5
354.269	2755.16667
358.252	2742.5
362.232	2693.83333
366.209	2702.16667
370.182	2638.5
374.152	2643.5
378.119	2635.5
382.083	2612.5
386.043	2636.16667
390	2588.83333
393.954	2582.83333
397.905	2565.83333
401.852	2552.5
405.797	2514.83333
409.738	2483.83333
413.676	2486.83333
417.61	2475.83333
421.542	2455.16667
425.47	2425.5
429.396	2395.5
433.318	2380.16667
437.236	2373.5
441.152	2375.5
445.065	2324.5
448.974	2329.83333
452.88	2307.5
456.783	2275.83333
460.683	2262.83333
464.58	2276.5
468.473	2280.83333
472.364	2284.16667
476.251	2278.5
480.135	2291.83333
484.016	2314.16667
487.894	2317.83333
491.769	2342.5
495.641	2350.5
499.509	2339.83333
503.375	2362.16667
507.237	2343.83333
511.096	2345.5
514.952	2418.83333
518.805	2475.16667
522.655	2508.5
526.502	2403.5
530.346	2333.83333
534.187	2333.16667
538.024	2345.16667
541.859	2312.5
545.69	2346.83333
549.519	2332.16667
553.344	2317.83333
557.166	2276.83333
560.985	2275.5
564.802	2229.5
568.615	2224.16667
572.425	2174.16667
576.232	2166.83333
580.036	2157.83333
583.836	2165.16667
587.634	2137.83333
591.429	2150.16667
595.221	2193.83333
599.01	2205.16667
602.796	2237.16667
606.578	2265.5
610.358	2257.83333
614.135	2230.16667
617.909	2248.83333
621.679	2233.5
625.447	2199.5
629.212	2225.83333
632.973	2228.5
636.732	2227.5
640.488	2243.83333
644.241	2167.83333
647.991	2198.16667
651.737	2198.83333
655.481	2176.5
659.222	2191.83333
662.96	2175.5
666.695	2197.5
670.427	2208.16667
674.156	2234.83333
677.882	2199.5
681.605	2210.5
685.325	2185.5
689.043	2180.16667
692.757	2163.5
696.468	2176.16667
700.177	2184.16667
703.882	2174.5
707.585	2167.83333
711.284	2168.5
714.981	2185.5
718.675	2186.83333
722.366	2196.5
726.054	2186.16667
729.739	2183.16667
733.421	2197.5
737.1	2178.5
740.777	2216.83333
744.45	2223.83333
748.121	2235.5
751.789	2290.16667
755.453	2276.83333
759.115	2300.83333
762.774	2305.16667
766.431	2325.5
770.084	2358.5
773.734	2357.5
777.382	2416.16667
781.027	2455.16667
784.669	2442.83333
788.308	2478.83333
791.944	2487.16667
795.577	2516.16667
799.208	2541.5
802.835	2530.16667
806.46	2557.83333
810.082	2578.16667
813.701	2601.83333
817.317	2613.5
820.931	2596.83333
824.542	2620.5
828.149	2579.16667
831.754	2564.83333
835.357	2567.83333
838.956	2540.16667
842.553	2556.5
846.146	2531.5
849.737	2536.16667
853.326	2509.5
856.911	2532.83333
860.493	2569.16667
864.073	2591.16667
867.65	2641.5
871.225	2677.5
874.796	2655.16667
878.365	2686.83333
881.931	2718.5
885.494	2724.83333
889.054	2726.5
892.612	2745.16667
896.166	2732.5
899.719	2708.5
903.268	2677.16667
906.814	2617.83333
910.358	2629.5
913.899	2593.83333
917.438	2611.16667
920.973	2603.16667
924.506	2628.16667
928.036	2653.83333
931.564	2685.83333
935.088	2729.83333
938.61	2730.5
942.129	2745.16667
945.646	2837.83333
949.16	2898.16667
952.671	2941.83333
956.179	2977.83333
959.685	2935.5
963.188	2910.16667
966.688	2889.5
970.185	2819.83333
973.68	2750.83333
977.173	2743.83333
980.662	2738.16667
984.149	2723.5
987.633	2735.5
991.114	2782.5
994.593	2888.83333
998.069	2954.16667
1001.542	3035.5
1005.013	2952.5
1008.481	2783.5
1011.947	2710.16667
1015.409	2722.16667
1018.869	2716.83333
1022.327	2694.83333
1025.782	2701.83333
1029.234	2712.83333
1032.683	2674.83333
1036.13	2588.83333
1039.574	2474.16667
1043.016	2419.16667
1046.455	2375.5
1049.891	2339.83333
1053.325	2356.83333
1056.756	2341.83333
1060.184	2384.83333
1063.61	2377.5
1067.033	2395.5
1070.454	2387.83333
1073.872	2430.5
1077.287	2447.16667
1080.7	2440.16667
1084.11	2434.16667
1087.517	2417.83333
1090.922	2377.16667
1094.325	2364.5
1097.724	2334.83333
1101.122	2324.5
1104.516	2333.5
1107.908	2344.5
1111.298	2393.16667
1114.684	2412.83333
1118.069	2437.83333
1121.45	2474.83333
1124.83	2451.83333
1128.206	2476.16667
1131.58	2509.5
1134.951	2597.5
1138.32	2675.83333
1141.687	2816.83333
1145.05	2861.5
1148.412	2891.16667
1151.77	2883.83333
1155.126	2875.16667
1158.48	2860.83333
1161.831	2843.5
1165.18	2890.5
1168.525	2927.5
1171.869	2987.16667
1175.21	2998.16667
1178.548	3025.16667
1181.884	3052.5
1185.217	3072.16667
1188.548	3135.83333
1191.877	3191.16667
1195.202	3285.5
1198.526	3331.83333
1201.846	3334.5
1205.165	3320.16667
1208.48	3319.5
1211.794	3321.16667
1215.104	3307.16667
1218.413	3324.83333
1221.719	3316.83333
1225.022	3264.83333
1228.323	3239.5
1231.621	3227.83333
1234.917	3211.16667
1238.21	3221.5
1241.501	3229.5
1244.79	3204.83333
1248.076	3199.5
1251.359	3248.16667
1254.64	3317.83333
1257.919	3326.16667
1261.195	3380.5
1264.468	3476.83333
1267.74	3508.5
1271.008	3527.16667
1274.275	3495.5
1277.538	3468.83333
1280.8	3465.83333
1284.059	3443.16667
1287.315	3502.83333
1290.569	3508.5
1293.821	3529.16667
1297.07	3533.83333
1300.317	3557.5
1303.562	3554.83333
1306.803	3531.83333
1310.043	3496.83333
1313.28	3432.83333
1316.515	3405.5
1319.747	3402.83333
1322.977	3341.83333
1326.204	3295.5
1329.429	3273.83333
1332.652	3249.16667
1335.872	3226.16667
1339.09	3182.5
1342.306	3198.5
1345.519	3139.16667
1348.729	3130.16667
1351.938	3104.83333
1355.144	3082.83333
1358.347	3043.5
1361.548	3017.16667
1364.747	3052.5
1367.944	3022.83333
1371.138	3039.16667
1374.329	3052.5
1377.518	3107.5
1380.705	3143.16667
1383.89	3101.16667
1387.072	3035.83333
1390.252	2877.16667
1393.429	2798.83333
1396.605	2714.16667
1399.777	2624.5
1402.948	2624.5
1406.116	2581.5
1409.282	2619.16667
1412.445	2596.83333
1415.606	2638.5
1418.765	2709.16667
1421.921	2746.5
1425.075	2793.5
1428.227	2898.16667
1431.376	3008.83333
1434.524	3123.5
1437.668	3215.83333
1440.811	3261.16667
1443.951	3260.83333
1447.089	3263.16667
1450.224	3273.83333
1453.357	3250.5
1456.488	3234.5
1459.617	3168.16667
1462.743	3154.5
1465.867	3060.5
1468.989	3019.83333
1472.108	2975.83333
1475.225	2920.16667
1478.34	2904.5
1481.453	2884.16667
1484.563	2896.83333
1487.671	2916.16667
1490.776	2991.83333
1493.88	3041.16667
1496.981	3119.5
1500.08	3155.83333
1503.176	3202.83333
1506.271	3263.83333
1509.363	3302.5
1512.452	3331.16667
1515.54	3388.5
1518.625	3458.5
1521.708	3557.5
1524.789	3718.16667
1527.867	3917.16667
1530.944	4167.83333
1534.018	4332.5
1537.089	4493.83333
1540.159	4520.16667
1543.226	4509.83333
1546.291	4379.16667
1549.354	4248.83333
1552.415	4140.5
1555.473	4035.16667
1558.529	3914.16667
1561.583	3890.5
1564.634	3831.16667
1567.684	3820.16667
1570.731	3837.16667
1573.776	3863.5
1576.819	3870.5
1579.859	3887.5
1582.898	3951.16667
1585.934	3998.16667
1588.968	4012.16667
1591.999	3985.83333
1595.029	3990.5
1598.056	4005.16667
1601.081	4017.16667
1604.104	4026.16667
1607.125	3956.83333
1610.144	3866.5
1613.16	3782.83333
1616.174	3699.5
1619.186	3575.5
1622.196	3499.5
1625.203	3419.83333
1628.209	3361.16667
1631.212	3347.16667
1634.213	3307.5
1637.212	3310.5
1640.209	3246.5
1643.203	3146.16667
1646.196	3060.5
1649.186	2959.5
1652.174	2871.16667
1655.16	2765.83333
1658.144	2704.5
1661.125	2566.83333
1664.105	2479.83333
1667.082	2384.5
1670.057	2236.16667
1673.03	2097.5
1676.001	1963.5
1678.97	1814.16667
1681.937	1709.16667
1684.901	1609.16667
1687.863	1565.83333
1690.824	1497.16667
1693.782	1467.83333
1696.738	1408.16667
1699.692	1384.83333
1702.643	1339.5
1705.593	1323.83333
1708.54	1306.83333
1711.486	1305.16667
1714.429	1272.5
1717.37	1259.16667
1720.309	1246.5
1723.246	1236.5
1726.181	1215.83333
1729.113	1216.16667
1732.044	1207.5
1734.972	1196.83333
1737.899	1185.16667
1740.823	1186.83333
1743.745	1183.16667
1746.665	1137.5
1749.583	1119.5
1752.499	1117.16667
1755.413	1087.5
1758.325	1059.16667
1761.235	1056.83333
1764.142	1033.16667
1767.048	1026.5
1769.951	1025.83333
1772.852	1012.16667
1775.752	1012.5
1778.649	1017.83333
1781.544	1008.5
1784.437	986.83333
1787.328	985.5
1790.217	984.5
1793.104	950.5
1795.989	953.16667
1798.872	956.83333
1801.753	976.83333
1804.631	971.83333
1807.508	967.16667
1810.383	962.16667
1813.255	953.5
1816.126	950.16667
1818.994	939.16667
1821.861	933.16667
1824.725	929.16667
1827.587	930.16667
1830.448	921.83333
1833.306	897.16667
1836.162	923.5
1839.017	904.16667
1841.869	913.83333
1844.719	906.83333
1847.567	893.83333
1850.414	888.16667
1853.258	889.83333
1856.1	898.83333
1858.94	905.16667
1861.778	885.83333
1864.614	888.83333
1867.448	892.83333
1870.28	883.83333
1873.111	903.16667
1875.939	889.16667
1878.765	899.83333
1881.589	883.83333
1884.411	877.16667
1887.231	888.83333
1890.049	870.16667
1892.865	874.83333
1895.68	876.16667
1898.492	871.83333
1901.302	847.5
1904.11	848.16667
1906.916	847.5
1909.721	837.83333
1912.523	853.16667
1915.323	836.16667
1918.122	836.5
1920.918	845.5
1923.712	835.16667
1926.505	835.16667
1929.295	810.83333
1932.084	835.5
1934.87	840.5
1937.655	830.83333
1940.438	824.5
1943.218	820.16667
1945.997	832.5
1948.774	842.5
1951.549	844.83333
1954.322	828.83333
1957.093	832.5
1959.862	808.83333
1962.629	807.5
1965.394	815.16667
1968.157	812.5
1970.918	812.5
1973.678	800.5
1976.435	805.5
1979.19	794.5
1981.944	786.16667
1984.696	786.5
1987.445	782.83333
1990.193	792.16667
1992.939	814.5
1995.683	792.83333
1998.425	772.83333
2001.165	795.5
2003.903	782.16667
2006.639	773.83333
2009.374	772.16667
2012.106	787.5
2014.837	762.16667
2017.566	785.83333
2020.292	778.5
2023.017	775.16667
2025.74	769.83333
2028.461	771.83333
2031.18	758.16667
2033.898	760.16667
2036.613	762.83333
2039.327	769.5
2042.038	743.83333
2044.748	760.5
2047.456	754.83333
2050.162	753.16667
2052.866	750.5
2055.568	751.83333
2058.268	758.5
2060.967	755.16667
2063.663	729.5
2066.358	746.83333
2069.051	736.16667
2071.742	747.83333
2074.431	760.83333
2077.118	747.5
2079.804	727.5
2082.487	742.16667
2085.169	751.83333
2087.849	762.5
2090.527	747.16667
2093.203	760.5
2095.877	757.5
2098.55	761.5
2101.22	787.83333
2103.889	785.5
2106.556	793.83333
2109.221	818.16667
2111.884	837.83333
2114.546	902.5
2117.205	964.83333
2119.863	1043.5
2122.519	1124.16667
2125.173	1203.5
2127.825	1292.16667
2130.475	1277.16667
2133.124	1260.83333
2135.771	1216.16667
2138.416	1153.5
2141.059	1065.16667
2143.7	1028.83333
2146.339	958.16667
2148.977	900.83333
2151.613	898.16667
2154.247	846.5
2156.879	840.16667
2159.51	812.83333
2162.138	794.83333
2164.765	787.83333
2167.39	766.5
2170.013	787.16667
2172.634	781.16667
2175.254	756.83333
2177.872	790.83333
2180.488	736.5
2183.102	745.83333
2185.714	746.5
2188.325	719.83333
2190.934	731.83333
2193.541	727.5
2196.146	710.16667
2198.75	702.5
2201.351	700.16667
2203.951	676.5
2206.549	686.83333
2209.146	689.5
2211.74	672.5
2214.333	697.83333
2216.924	682.83333
2219.514	681.16667
2222.101	667.5
2224.687	671.16667
2227.271	665.16667
2229.853	659.5
2232.433	631.16667
2235.012	663.5
2237.589	665.83333
2240.164	666.83333
2242.738	653.5
2245.309	655.83333
2247.879	657.16667
2250.448	661.5
2253.014	625.16667
2255.579	613.5
2258.142	622.83333
2260.703	612.16667
2263.262	608.16667
2265.82	612.5
2268.376	620.5
2270.93	609.83333
2273.483	599.83333
2276.033	612.83333
2278.583	605.83333
2281.13	598.16667
2283.675	587.5
2286.219	604.16667
2288.761	597.16667
2291.302	592.5
2293.841	602.5
2296.377	583.83333
2298.913	583.83333
2301.446	605.16667
2303.978	586.5
2306.508	568.83333
2309.037	591.16667
2311.563	584.16667
2314.088	598.5
2316.612	567.83333
2319.133	587.83333
2321.653	579.5
2324.171	562.5
2326.688	583.16667
2329.202	567.5
2331.715	577.83333
2334.227	563.83333
2336.736	566.83333
2339.244	562.5
2341.751	555.5
2344.255	573.83333
2346.758	561.16667
2349.259	556.5
2351.759	545.83333
2354.257	559.5
2356.753	557.5
2359.247	560.83333
2361.74	569.5
2364.231	556.5
2366.721	560.16667
2369.209	551.83333
2371.695	553.16667
2374.179	551.83333
2376.662	542.83333
2379.143	567.83333
2381.622	552.16667
2384.1	560.83333
2386.576	537.16667
2389.051	559.16667
2391.524	570.16667
2393.995	563.83333
2396.464	548.83333
2398.932	549.83333
2401.398	553.5
2403.863	548.16667
2406.325	541.83333
2408.787	543.5
2411.246	552.16667
2413.704	540.5
2416.16	545.5
2418.615	542.83333
2421.068	555.16667
2423.519	541.5
2425.969	527.83333
2428.417	546.83333
2430.863	556.5
2433.308	565.83333
2435.751	544.16667
2438.193	535.83333
2440.633	548.16667
2443.071	544.16667
2445.508	533.16667
2447.943	539.5
2450.376	524.16667
2452.808	532.83333
2455.238	529.83333
2457.667	562.16667
2460.093	534.16667
2462.519	520.83333
2464.942	528.83333
2467.365	546.16667
2469.785	536.5
2472.204	525.83333
2474.621	525.83333
2477.037	544.16667
2479.451	513.5
2481.863	522.16667
2484.274	526.5
2486.683	529.16667
2489.091	535.16667
2491.497	533.83333
2493.901	534.5
2496.304	525.16667
2498.705	533.83333
2501.105	524.16667
2503.503	551.83333
2505.899	520.16667
2508.294	541.5
2510.687	514.83333
2513.079	516.16667
2515.469	516.83333
2517.858	512.5
2520.245	540.16667
2522.63	514.16667
2525.014	511.5
2527.396	520.83333
2529.776	509.16667
2532.156	530.16667
2534.533	508.83333
2536.909	519.16667
2539.283	498.83333
2541.656	509.83333
2544.027	535.16667
2546.397	525.83333
2548.765	519.5
2551.131	522.16667
2553.496	521.5
2555.86	529.5
2558.221	514.83333
2560.582	521.16667
2562.94	510.5
2565.298	515.5
2567.653	540.16667
2570.007	505.5
2572.36	520.5
2574.711	508.83333
2577.06	532.16667
2579.408	520.5
2581.754	510.5
2584.099	528.5
2586.442	514.83333
2588.784	517.5
2591.124	525.5
2593.463	513.83333
2595.8	515.83333
2598.135	513.83333
2600.469	525.16667
2602.802	532.16667
2605.133	535.5
2607.462	506.83333
2609.79	517.5
2612.116	525.83333
2614.441	520.16667
2616.764	538.16667
2619.086	522.5
2621.406	521.5
2623.725	535.5
2626.042	534.16667
2628.358	527.16667
2630.672	527.16667
2632.985	539.83333
2635.296	540.5
2637.606	525.83333
2639.914	519.16667
2642.22	529.83333
2644.525	535.16667
2646.829	535.5
2649.131	550.5
2651.432	549.16667
2653.731	534.83333
2656.028	546.16667
2658.324	547.16667
2660.619	537.5
2662.912	556.5
2665.204	537.5
2667.494	559.16667
2669.782	537.83333
2672.07	550.83333
2674.355	558.83333
2676.639	546.83333
2678.922	540.16667
2681.203	567.16667
2683.483	540.16667
2685.761	541.5
2688.038	559.5
2690.313	569.16667
2692.587	562.16667
2694.859	542.5
2697.13	567.83333
2699.399	554.16667
2701.667	572.5
2703.933	580.16667
2706.198	578.5
2708.461	590.5
2710.723	580.83333
2712.984	588.83333
2715.243	587.16667
2717.5	583.83333
2719.757	603.16667
2722.011	599.83333
2724.264	604.16667
2726.516	630.5
2728.766	602.16667
2731.015	602.5
2733.262	599.16667
2735.508	598.83333
2737.753	603.5
2739.996	586.83333
2742.237	590.5
2744.477	600.83333
2746.716	596.83333
2748.953	594.16667
2751.189	596.83333
2753.423	584.83333
2755.656	580.83333
2757.887	571.16667
2760.117	591.16667
2762.346	571.16667
2764.573	570.83333
2766.798	569.83333
2769.022	579.83333
2771.245	573.83333
2773.467	591.83333
2775.686	590.83333
2777.905	601.83333
2780.122	596.16667
2782.337	608.5
2784.552	604.16667
2786.764	622.16667
2788.976	619.5
2791.186	618.16667
2793.394	619.83333
2795.601	645.5
2797.807	632.83333
2800.011	656.16667
2802.214	660.5
2804.415	671.16667
2806.615	660.5
2808.814	675.16667
2811.011	689.83333
2813.206	675.83333
2815.401	687.5
2817.594	702.83333
2819.785	721.16667
2821.975	705.83333
2824.164	726.83333
2826.351	747.83333
2828.537	756.16667
2830.722	771.83333
2832.905	786.5
2835.086	805.83333
2837.267	855.5
2839.445	869.5
2841.623	891.5
2843.799	925.83333
2845.974	964.5
2848.147	986.16667
2850.319	1016.16667
2852.489	1052.5
2854.659	1056.16667
2856.826	1073.16667
2858.993	1092.83333
2861.158	1079.5
2863.321	1083.16667
2865.483	1118.83333
2867.644	1099.83333
2869.804	1095.16667
2871.962	1102.5
2874.118	1110.83333
2876.274	1111.16667
2878.428	1094.16667
2880.58	1092.5
2882.731	1079.83333
2884.881	1089.16667
2887.03	1089.5
2889.177	1089.5
2891.322	1105.16667
2893.467	1089.16667
2895.61	1095.16667
2897.751	1122.16667
2899.892	1117.16667
2902.03	1134.16667
2904.168	1132.16667
2906.304	1150.16667
2908.439	1154.16667
2910.572	1145.83333
2912.704	1166.5
2914.835	1165.16667
2916.965	1148.5
2919.093	1168.5
2921.219	1120.5
2923.345	1153.5
2925.469	1124.16667
2927.591	1117.16667
2929.712	1086.83333
2931.832	1072.83333
2933.951	1054.16667
2936.068	1028.5
2938.184	992.83333
2940.299	982.16667
2942.412	958.5
2944.524	928.16667
2946.634	907.16667
2948.744	847.5
2950.851	889.83333
2952.958	844.83333
2955.063	834.83333
2957.167	819.83333
2959.269	781.5
2961.371	817.16667
2963.471	758.83333
2965.569	766.83333
2967.666	726.83333
2969.762	735.5
2971.857	710.5
2973.95	690.16667
2976.042	692.16667
2978.133	670.16667
2980.222	659.16667
2982.31	639.16667
2984.396	616.83333
2986.482	622.5
2988.566	627.16667
2990.648	606.16667
2992.73	597.5
2994.81	591.5
2996.889	608.16667
2998.966	586.83333
3001.042	599.83333
3003.117	589.5
3005.191	587.5
3007.263	577.83333
3009.334	581.5
3011.403	572.16667
3013.472	552.5
3015.539	559.5
3017.604	562.83333
3019.669	530.83333
3021.732	528.16667
3023.794	532.83333
3025.854	515.83333
3027.914	514.83333
3029.971	519.83333
3032.028	515.5
3034.083	516.83333
3036.137	516.83333
3038.19	499.16667
3040.242	478.5
3042.292	466.5
3044.341	465.16667
3046.388	492.16667
3048.435	453.83333
3050.48	474.5
3052.524	459.83333
3054.566	447.5
3056.607	457.83333
3058.647	436.5
3060.686	421.5
3062.723	413.83333
3064.759	396.5
3066.794	-0.5
3068.828	-1.83333
3070.86	-1.83333
