-0.839	401.91667
3.438	439.91667
7.711	125.58333
11.981	49.58333
16.247	44.58333
20.509	42.25
24.768	42.91667
29.024	43.91667
33.276	37.25
37.524	47.91667
41.769	34.58333
46.01	31.91667
50.247	50.25
54.481	60.25
58.712	61.91667
62.939	45.25
67.162	57.25
71.382	52.58333
75.599	43.25
79.812	58.91667
84.021	76.25
88.227	52.25
92.429	53.58333
96.628	45.58333
100.823	61.25
105.015	68.58333
109.204	67.91667
113.388	67.91667
117.57	67.25
121.748	79.25
125.922	65.58333
130.093	87.58333
134.261	91.25
138.425	80.25
142.585	121.58333
146.742	116.58333
150.896	131.91667
155.046	151.25
159.193	249.58333
163.336	409.25
167.476	749.58333
171.613	1380.25
175.746	2344.91667
179.875	3484.58333
184.002	4547.58333
188.124	5248.58333
192.244	5495.25
196.36	5402.91667
200.472	5215.25
204.581	5044.58333
208.687	4835.91667
212.79	4768.58333
216.889	4701.91667
220.984	4710.58333
225.077	4726.25
229.165	4713.58333
233.251	4678.91667
237.333	4658.91667
241.412	4614.58333
245.487	4583.91667
249.559	4546.58333
253.628	4488.25
257.694	4470.58333
261.756	4455.25
265.814	4392.91667
269.87	4298.58333
273.922	4241.91667
277.97	4231.58333
282.016	4253.25
286.058	4294.25
290.097	4411.58333
294.132	4473.58333
298.164	4427.58333
302.193	4256.91667
306.219	3955.58333
310.241	3606.25
314.26	3309.25
318.276	3024.91667
322.288	2808.58333
326.297	2636.91667
330.303	2531.58333
334.305	2454.58333
338.305	2377.25
342.301	2311.58333
346.294	2288.58333
350.283	2258.58333
354.269	2238.58333
358.252	2219.58333
362.232	2220.25
366.209	2189.91667
370.182	2144.25
374.152	2156.25
378.119	2134.91667
382.083	2124.58333
386.043	2138.91667
390	2091.58333
393.954	2100.58333
397.905	2065.25
401.852	2090.91667
405.797	2054.25
409.738	2020.91667
413.676	2017.58333
417.61	2020.25
421.542	1994.25
425.47	1990.91667
429.396	1976.58333
433.318	1969.58333
437.236	1936.25
441.152	1969.91667
445.065	1909.91667
448.974	1917.58333
452.88	1879.58333
456.783	1879.25
460.683	1862.91667
464.58	1867.58333
468.473	1867.58333
472.364	1879.58333
476.251	1873.91667
480.135	1909.91667
484.016	1938.91667
487.894	1942.25
491.769	1948.58333
495.641	1951.25
499.509	1964.58333
503.375	1966.58333
507.237	1972.91667
511.096	1999.25
514.952	2176.58333
518.805	2385.58333
522.655	2441.58333
526.502	2160.91667
530.346	1996.25
534.187	1928.58333
538.024	1939.25
541.859	1917.58333
545.69	1948.58333
549.519	1927.91667
553.344	1902.91667
557.166	1864.91667
560.985	1858.58333
564.802	1842.58333
568.615	1816.91667
572.425	1791.25
576.232	1786.58333
580.036	1784.25
583.836	1800.25
587.634	1793.58333
591.429	1773.25
595.221	1816.91667
599.01	1848.58333
602.796	1852.58333
606.578	1878.91667
610.358	1867.58333
614.135	1828.25
617.909	1842.25
621.679	1852.91667
625.447	1821.91667
629.212	1828.91667
632.973	1833.25
636.732	1831.58333
640.488	1827.25
644.241	1796.58333
647.991	1802.25
651.737	1799.91667
655.481	1777.25
659.222	1788.25
662.96	1765.25
666.695	1795.91667
670.427	1810.25
674.156	1816.91667
677.882	1811.58333
681.605	1818.91667
685.325	1806.25
689.043	1808.58333
692.757	1798.58333
696.468	1796.58333
700.177	1793.25
703.882	1804.91667
707.585	1804.25
711.284	1807.58333
714.981	1786.91667
718.675	1817.25
722.366	1808.91667
726.054	1790.91667
729.739	1797.25
733.421	1794.91667
737.1	1809.91667
740.777	1835.91667
744.45	1831.58333
748.121	1853.91667
751.789	1870.91667
755.453	1860.91667
759.115	1869.58333
762.774	1903.25
766.431	1910.58333
770.084	1920.58333
773.734	1930.58333
777.382	1982.58333
781.027	2021.58333
784.669	2002.25
788.308	2021.25
791.944	2050.58333
795.577	2071.58333
799.208	2077.25
802.835	2083.58333
806.46	2079.91667
810.082	2091.58333
813.701	2090.58333
817.317	2104.58333
820.931	2082.58333
824.542	2113.25
828.149	2101.25
831.754	2081.25
835.357	2075.91667
838.956	2095.25
842.553	2073.25
846.146	2075.91667
849.737	2064.91667
853.326	2093.58333
856.911	2105.25
860.493	2133.91667
864.073	2120.58333
867.65	2163.58333
871.225	2204.25
874.796	2185.91667
878.365	2202.25
881.931	2211.91667
885.494	2241.25
889.054	2270.25
892.612	2249.91667
896.166	2230.91667
899.719	2223.25
903.268	2184.25
906.814	2147.25
910.358	2144.91667
913.899	2133.25
917.438	2120.91667
920.973	2118.25
924.506	2139.25
928.036	2153.91667
931.564	2177.58333
935.088	2215.25
938.61	2223.25
942.129	2238.25
945.646	2306.91667
949.16	2344.91667
952.671	2380.58333
956.179	2383.91667
959.685	2356.25
963.188	2320.25
966.688	2275.91667
970.185	2216.91667
973.68	2203.25
977.173	2196.91667
980.662	2181.58333
984.149	2174.58333
987.633	2175.91667
991.114	2198.25
994.593	2273.25
998.069	2328.58333
1001.542	2377.91667
1005.013	2321.25
1008.481	2204.91667
1011.947	2171.58333
1015.409	2143.91667
1018.869	2164.91667
1022.327	2161.25
1025.782	2136.25
1029.234	2130.25
1032.683	2119.25
1036.13	2037.91667
1039.574	1969.91667
1043.016	1920.58333
1046.455	1920.58333
1049.891	1873.58333
1053.325	1881.25
1056.756	1866.25
1060.184	1909.25
1063.61	1887.25
1067.033	1909.58333
1070.454	1909.58333
1073.872	1953.58333
1077.287	1935.25
1080.7	1945.91667
1084.11	1934.91667
1087.517	1929.91667
1090.922	1917.25
1094.325	1904.25
1097.724	1881.58333
1101.122	1890.91667
1104.516	1873.25
1107.908	1874.91667
1111.298	1920.58333
1114.684	1939.25
1118.069	1953.58333
1121.45	1979.91667
1124.83	1964.91667
1128.206	2012.58333
1131.58	2062.25
1134.951	2108.91667
1138.32	2167.58333
1141.687	2238.91667
1145.05	2301.58333
1148.412	2292.25
1151.77	2279.91667
1155.126	2291.58333
1158.48	2270.25
1161.831	2301.25
1165.18	2311.58333
1168.525	2336.91667
1171.869	2382.58333
1175.21	2397.91667
1178.548	2422.58333
1181.884	2427.25
1185.217	2441.25
1188.548	2499.25
1191.877	2527.58333
1195.202	2602.58333
1198.526	2634.91667
1201.846	2643.58333
1205.165	2638.25
1208.48	2655.91667
1211.794	2653.58333
1215.104	2617.58333
1218.413	2659.91667
1221.719	2635.58333
1225.022	2601.58333
1228.323	2586.91667
1231.621	2578.25
1234.917	2558.91667
1238.21	2603.25
1241.501	2590.58333
1244.79	2590.58333
1248.076	2595.25
1251.359	2610.58333
1254.64	2678.58333
1257.919	2686.25
1261.195	2722.25
1264.468	2767.91667
1267.74	2814.91667
1271.008	2808.58333
1274.275	2807.58333
1277.538	2777.91667
1280.8	2783.91667
1284.059	2756.25
1287.315	2784.25
1290.569	2786.58333
1293.821	2822.91667
1297.07	2840.58333
1300.317	2839.25
1303.562	2833.25
1306.803	2787.25
1310.043	2774.91667
1313.28	2731.58333
1316.515	2713.58333
1319.747	2682.91667
1322.977	2648.58333
1326.204	2614.25
1329.429	2569.91667
1332.652	2567.25
1335.872	2555.91667
1339.09	2534.58333
1342.306	2517.91667
1345.519	2515.58333
1348.729	2474.91667
1351.938	2457.58333
1355.144	2422.25
1358.347	2405.91667
1361.548	2409.58333
1364.747	2413.58333
1367.944	2385.25
1371.138	2421.91667
1374.329	2436.58333
1377.518	2464.25
1380.705	2487.58333
1383.89	2463.25
1387.072	2383.25
1390.252	2314.58333
1393.429	2255.25
1396.605	2211.25
1399.777	2143.25
1402.948	2113.58333
1406.116	2105.58333
1409.282	2115.91667
1412.445	2126.91667
1415.606	2176.91667
1418.765	2213.91667
1421.921	2243.25
1425.075	2287.58333
1428.227	2353.58333
1431.376	2444.25
1434.524	2507.58333
1437.668	2575.91667
1440.811	2578.25
1443.951	2581.58333
1447.089	2590.91667
1450.224	2610.91667
1453.357	2585.58333
1456.488	2562.91667
1459.617	2513.91667
1462.743	2492.58333
1465.867	2435.91667
1468.989	2405.58333
1472.108	2383.25
1475.225	2328.58333
1478.34	2307.58333
1481.453	2307.58333
1484.563	2291.58333
1487.671	2341.58333
1490.776	2400.25
1493.88	2440.91667
1496.981	2482.91667
1500.08	2501.25
1503.176	2565.91667
1506.271	2567.25
1509.363	2611.25
1512.452	2641.58333
1515.54	2649.91667
1518.625	2714.58333
1521.708	2809.91667
1524.789	2923.91667
1527.867	3045.91667
1530.944	3229.25
1534.018	3384.58333
1537.089	3514.58333
1540.159	3580.58333
1543.226	3528.58333
1546.291	3470.91667
1549.354	3352.91667
1552.415	3258.91667
1555.473	3164.58333
1558.529	3106.58333
1561.583	3031.58333
1564.634	3012.91667
1567.684	3003.58333
1570.731	2983.91667
1573.776	3000.25
1576.819	3018.25
1579.859	3021.25
1582.898	3036.25
1585.934	3075.25
1588.968	3068.58333
1591.999	3053.58333
1595.029	3065.25
1598.056	3100.91667
1601.081	3118.58333
1604.104	3083.58333
1607.125	3069.91667
1610.144	2999.91667
1613.16	2909.58333
1616.174	2821.58333
1619.186	2778.25
1622.196	2679.58333
1625.203	2604.25
1628.209	2563.25
1631.212	2526.58333
1634.213	2496.91667
1637.212	2464.91667
1640.209	2397.91667
1643.203	2344.58333
1646.196	2294.91667
1649.186	2225.58333
1652.174	2171.91667
1655.16	2116.25
1658.144	2069.25
1661.125	1994.58333
1664.105	1931.25
1667.082	1839.25
1670.057	1726.58333
1673.03	1636.91667
1676.001	1543.58333
1678.97	1442.58333
1681.937	1379.25
1684.901	1291.25
1687.863	1253.58333
1690.824	1209.58333
1693.782	1211.91667
1696.738	1139.91667
1699.692	1145.58333
1702.643	1104.58333
1705.593	1086.25
1708.54	1084.25
1711.486	1091.91667
1714.429	1054.91667
1717.37	1065.58333
1720.309	1026.91667
1723.246	1047.25
1726.181	995.91667
1729.113	1000.58333
1732.044	993.58333
1734.972	984.91667
1737.899	987.58333
1740.823	985.25
1743.745	1002.91667
1746.665	938.25
1749.583	926.25
1752.499	928.25
1755.413	913.91667
1758.325	893.58333
1761.235	876.91667
1764.142	875.91667
1767.048	870.25
1769.951	849.58333
1772.852	858.58333
1775.752	848.25
1778.649	846.91667
1781.544	861.25
1784.437	825.25
1787.328	850.91667
1790.217	841.25
1793.104	814.58333
1795.989	803.58333
1798.872	801.58333
1801.753	818.58333
1804.631	815.25
1807.508	825.91667
1810.383	821.58333
1813.255	813.25
1816.126	802.91667
1818.994	793.91667
1821.861	805.25
1824.725	795.58333
1827.587	805.91667
1830.448	794.58333
1833.306	774.25
1836.162	795.25
1839.017	773.91667
1841.869	777.91667
1844.719	768.58333
1847.567	764.58333
1850.414	757.25
1853.258	756.25
1856.1	775.91667
1858.94	787.25
1861.778	766.58333
1864.614	762.25
1867.448	767.91667
1870.28	766.25
1873.111	777.91667
1875.939	770.58333
1878.765	772.91667
1881.589	763.91667
1884.411	755.58333
1887.231	766.91667
1890.049	757.25
1892.865	765.58333
1895.68	753.25
1898.492	761.25
1901.302	748.58333
1904.11	755.58333
1906.916	748.91667
1909.721	729.91667
1912.523	747.58333
1915.323	734.91667
1918.122	756.58333
1920.918	744.25
1923.712	726.25
1926.505	738.58333
1929.295	728.25
1932.084	736.91667
1934.87	738.91667
1937.655	737.25
1940.438	724.25
1943.218	736.25
1945.997	742.25
1948.774	731.25
1951.549	742.91667
1954.322	722.58333
1957.093	725.25
1959.862	726.58333
1962.629	717.58333
1965.394	724.91667
1968.157	710.91667
1970.918	727.25
1973.678	706.25
1976.435	715.91667
1979.19	717.91667
1981.944	717.25
1984.696	708.58333
1987.445	709.58333
1990.193	715.91667
1992.939	725.25
1995.683	713.58333
1998.425	699.91667
2001.165	732.25
2003.903	708.25
2006.639	709.58333
2009.374	707.58333
2012.106	716.25
2014.837	689.58333
2017.566	716.25
2020.292	710.58333
2023.017	716.91667
2025.74	691.58333
2028.461	697.58333
2031.18	704.91667
2033.898	698.91667
2036.613	701.91667
2039.327	709.58333
2042.038	677.58333
2044.748	692.25
2047.456	701.58333
2050.162	682.91667
2052.866	685.91667
2055.568	692.91667
2058.268	702.91667
2060.967	696.25
2063.663	691.58333
2066.358	692.25
2069.051	682.91667
2071.742	698.25
2074.431	714.25
2077.118	694.25
2079.804	686.91667
2082.487	695.25
2085.169	701.58333
2087.849	708.25
2090.527	697.91667
2093.203	712.25
2095.877	718.91667
2098.55	727.25
2101.22	736.91667
2103.889	752.25
2106.556	741.91667
2109.221	780.58333
2111.884	799.58333
2114.546	861.91667
2117.205	922.25
2119.863	998.58333
2122.519	1044.25
2125.173	1098.25
2127.825	1137.25
2130.475	1140.58333
2133.124	1094.25
2135.771	1036.58333
2138.416	1004.91667
2141.059	945.91667
2143.7	916.58333
2146.339	851.25
2148.977	810.58333
2151.613	824.58333
2154.247	783.25
2156.879	779.58333
2159.51	755.58333
2162.138	747.58333
2164.765	751.58333
2167.39	726.25
2170.013	756.58333
2172.634	737.91667
2175.254	735.91667
2177.872	752.91667
2180.488	703.91667
2183.102	713.91667
2185.714	699.25
2188.325	681.91667
2190.934	694.25
2193.541	699.25
2196.146	697.91667
2198.75	688.58333
2201.351	699.91667
2203.951	676.25
2206.549	693.58333
2209.146	680.91667
2211.74	672.25
2214.333	695.25
2216.924	666.58333
2219.514	698.91667
2222.101	706.25
2224.687	697.91667
2227.271	671.58333
2229.853	673.58333
2232.433	665.58333
2235.012	686.58333
2237.589	675.91667
2240.164	682.91667
2242.738	677.91667
2245.309	676.91667
2247.879	671.58333
2250.448	679.58333
2253.014	655.91667
2255.579	646.91667
2258.142	668.58333
2260.703	644.25
2263.262	644.58333
2265.82	644.25
2268.376	655.58333
2270.93	641.25
2273.483	642.58333
2276.033	648.25
2278.583	643.25
2281.13	637.91667
2283.675	652.58333
2286.219	654.91667
2288.761	655.91667
2291.302	640.25
2293.841	655.58333
2296.377	642.91667
2298.913	641.91667
2301.446	666.25
2303.978	642.25
2306.508	653.25
2309.037	659.25
2311.563	653.91667
2314.088	657.91667
2316.612	633.91667
2319.133	655.58333
2321.653	640.91667
2324.171	638.25
2326.688	663.58333
2329.202	652.58333
2331.715	648.91667
2334.227	649.58333
2336.736	644.25
2339.244	644.91667
2341.751	644.25
2344.255	656.58333
2346.758	646.25
2349.259	634.58333
2351.759	648.25
2354.257	642.58333
2356.753	648.25
2359.247	649.91667
2361.74	658.91667
2364.231	644.58333
2366.721	658.58333
2369.209	650.25
2371.695	662.91667
2374.179	655.58333
2376.662	649.58333
2379.143	675.25
2381.622	663.25
2384.1	663.58333
2386.576	660.25
2389.051	676.91667
2391.524	683.91667
2393.995	675.25
2396.464	672.91667
2398.932	660.25
2401.398	678.25
2403.863	655.91667
2406.325	665.91667
2408.787	668.25
2411.246	668.58333
2413.704	668.91667
2416.16	672.25
2418.615	680.25
2421.068	681.91667
2423.519	672.25
2425.969	670.58333
2428.417	688.58333
2430.863	708.58333
2433.308	687.25
2435.751	690.91667
2438.193	688.91667
2440.633	692.91667
2443.071	697.91667
2445.508	682.25
2447.943	676.58333
2450.376	679.58333
2452.808	690.91667
2455.238	695.91667
2457.667	709.58333
2460.093	696.91667
2462.519	688.25
2464.942	706.25
2467.365	699.58333
2469.785	696.91667
2472.204	690.25
2474.621	689.25
2477.037	726.91667
2479.451	686.91667
2481.863	693.25
2484.274	702.58333
2486.683	703.25
2489.091	720.25
2491.497	705.25
2493.901	702.91667
2496.304	716.25
2498.705	732.58333
2501.105	707.25
2503.503	738.91667
2505.899	708.58333
2508.294	749.91667
2510.687	714.91667
2513.079	702.91667
2515.469	724.58333
2517.858	727.58333
2520.245	736.58333
2522.63	719.58333
2525.014	723.91667
2527.396	706.58333
2529.776	719.91667
2532.156	727.58333
2534.533	720.58333
2536.909	727.25
2539.283	720.58333
2541.656	732.25
2544.027	751.91667
2546.397	738.58333
2548.765	733.91667
2551.131	739.25
2553.496	749.58333
2555.86	745.58333
2558.221	741.58333
2560.582	741.58333
2562.94	734.58333
2565.298	744.91667
2567.653	764.58333
2570.007	758.25
2572.36	755.91667
2574.711	757.58333
2577.06	779.25
2579.408	767.91667
2581.754	766.58333
2584.099	764.91667
2586.442	764.58333
2588.784	776.91667
2591.124	777.91667
2593.463	779.58333
2595.8	775.58333
2598.135	767.91667
2600.469	778.25
2602.802	806.58333
2605.133	795.58333
2607.462	781.25
2609.79	782.25
2612.116	785.25
2614.441	793.91667
2616.764	800.91667
2619.086	803.58333
2621.406	794.25
2623.725	812.91667
2626.042	811.58333
2628.358	824.91667
2630.672	804.91667
2632.985	831.25
2635.296	820.58333
2637.606	826.58333
2639.914	826.91667
2642.22	823.91667
2644.525	821.25
2646.829	838.25
2649.131	859.25
2651.432	844.58333
2653.731	843.25
2656.028	858.58333
2658.324	850.91667
2660.619	844.91667
2662.912	866.25
2665.204	848.91667
2667.494	868.58333
2669.782	848.91667
2672.07	873.25
2674.355	878.25
2676.639	865.91667
2678.922	861.58333
2681.203	882.91667
2683.483	858.91667
2685.761	878.91667
2688.038	879.91667
2690.313	897.25
2692.587	894.25
2694.859	878.25
2697.13	891.91667
2699.399	904.91667
2701.667	924.25
2703.933	925.91667
2706.198	923.91667
2708.461	919.58333
2710.723	923.25
2712.984	929.25
2715.243	945.91667
2717.5	936.91667
2719.757	955.58333
2722.011	937.58333
2724.264	956.58333
2726.516	968.58333
2728.766	955.25
2731.015	972.25
2733.262	956.25
2735.508	970.58333
2737.753	967.58333
2739.996	951.58333
2742.237	952.25
2744.477	968.25
2746.716	969.58333
2748.953	952.58333
2751.189	975.58333
2753.423	958.91667
2755.656	957.91667
2757.887	958.58333
2760.117	968.91667
2762.346	963.58333
2764.573	960.25
2766.798	970.58333
2769.022	973.25
2771.245	976.25
2773.467	968.25
2775.686	987.25
2777.905	987.91667
2780.122	991.58333
2782.337	994.58333
2784.552	994.25
2786.764	1018.91667
2788.976	1016.25
2791.186	1024.25
2793.394	1037.58333
2795.601	1042.91667
2797.807	1061.25
2800.011	1051.91667
2802.214	1073.58333
2804.415	1081.91667
2806.615	1080.25
2808.814	1084.25
2811.011	1094.91667
2813.206	1096.58333
2815.401	1096.25
2817.594	1126.91667
2819.785	1131.91667
2821.975	1101.25
2824.164	1130.91667
2826.351	1143.25
2828.537	1148.91667
2830.722	1165.91667
2832.905	1162.25
2835.086	1200.58333
2837.267	1216.58333
2839.445	1251.58333
2841.623	1237.58333
2843.799	1281.25
2845.974	1286.58333
2848.147	1319.58333
2850.319	1330.91667
2852.489	1379.91667
2854.659	1363.25
2856.826	1384.91667
2858.993	1408.25
2861.158	1389.58333
2863.321	1402.25
2865.483	1416.91667
2867.644	1414.91667
2869.804	1403.91667
2871.962	1407.25
2874.118	1402.25
2876.274	1398.25
2878.428	1394.25
2880.58	1393.91667
2882.731	1379.25
2884.881	1387.91667
2887.03	1374.25
2889.177	1391.91667
2891.322	1399.58333
2893.467	1380.25
2895.61	1394.58333
2897.751	1415.91667
2899.892	1399.58333
2902.03	1410.91667
2904.168	1441.58333
2906.304	1438.25
2908.439	1459.58333
2910.572	1433.25
2912.704	1449.25
2914.835	1459.91667
2916.965	1451.25
2919.093	1475.25
2921.219	1416.91667
2923.345	1444.25
2925.469	1428.91667
2927.591	1415.58333
2929.712	1387.58333
2931.832	1393.91667
2933.951	1368.91667
2936.068	1362.91667
2938.184	1332.91667
2940.299	1305.91667
2942.412	1301.58333
2944.524	1276.58333
2946.634	1280.58333
2948.744	1225.58333
2950.851	1260.25
2952.958	1220.25
2955.063	1211.91667
2957.167	1233.58333
2959.269	1198.25
2961.371	1226.91667
2963.471	1182.91667
2965.569	1200.25
2967.666	1174.25
2969.762	1177.58333
2971.857	1158.91667
2973.95	1119.91667
2976.042	1129.58333
2978.133	1117.25
2980.222	1117.25
2982.31	1074.25
2984.396	1068.91667
2986.482	1090.91667
2988.566	1064.25
2990.648	1073.91667
2992.73	1059.91667
2994.81	1061.91667
2996.889	1073.25
2998.966	1062.58333
3001.042	1071.91667
3003.117	1073.25
3005.191	1067.91667
3007.263	1071.25
3009.334	1049.58333
3011.403	1037.25
3013.472	1027.58333
3015.539	1027.25
3017.604	1036.58333
3019.669	983.25
3021.732	984.58333
3023.794	995.91667
3025.854	986.58333
3027.914	991.25
3029.971	998.91667
3032.028	992.91667
3034.083	987.25
3036.137	979.58333
3038.19	944.58333
3040.242	932.25
3042.292	902.25
3044.341	897.58333
3046.388	903.91667
3048.435	877.25
3050.48	884.91667
3052.524	891.25
3054.566	870.91667
3056.607	876.91667
3058.647	852.58333
3060.686	812.58333
3062.723	807.91667
3064.759	784.58333
3066.794	0.91667
3068.828	-1.08333
3070.86	-2.08333
