-0.839	427.70833
3.438	455.70833
7.711	123.04167
11.981	53.70833
16.247	44.04167
20.509	41.70833
24.768	41.70833
29.024	46.04167
33.276	42.375
37.524	44.70833
41.769	37.04167
46.01	36.04167
50.247	49.70833
54.481	59.70833
58.712	62.375
62.939	48.70833
67.162	57.04167
71.382	51.375
75.599	44.70833
79.812	62.70833
84.021	77.04167
88.227	56.375
92.429	56.70833
96.628	44.375
100.823	70.04167
105.015	75.04167
109.204	72.375
113.388	73.375
117.57	67.375
121.748	82.70833
125.922	71.375
130.093	95.04167
134.261	96.04167
138.425	90.70833
142.585	129.375
146.742	129.70833
150.896	149.375
155.046	178.04167
159.193	282.375
163.336	491.70833
167.476	883.375
171.613	1619.375
175.746	2709.375
179.875	4048.04167
184.002	5284.70833
188.124	6113.04167
192.244	6386.70833
196.36	6327.70833
200.472	6088.04167
204.581	5867.04167
208.687	5682.04167
212.79	5578.375
216.889	5631.70833
220.984	5608.70833
225.077	5605.04167
229.165	5647.04167
233.251	5644.375
237.333	5601.70833
241.412	5572.70833
245.487	5472.375
249.559	5427.04167
253.628	5326.70833
257.694	5296.04167
261.756	5220.04167
265.814	5086.375
269.87	4965.375
273.922	4856.375
277.97	4813.70833
282.016	4805.375
286.058	4824.04167
290.097	4920.70833
294.132	4936.375
298.164	4903.375
302.193	4640.70833
306.219	4290.04167
310.241	3920.70833
314.26	3613.375
318.276	3299.375
322.288	3070.70833
326.297	2892.70833
330.303	2776.375
334.305	2681.70833
338.305	2627.375
342.301	2570.04167
346.294	2545.375
350.283	2528.70833
354.269	2492.04167
358.252	2459.04167
362.232	2454.375
366.209	2440.375
370.182	2425.04167
374.152	2404.04167
378.119	2418.375
382.083	2392.375
386.043	2414.04167
390	2360.04167
393.954	2348.375
397.905	2318.375
401.852	2314.70833
405.797	2277.375
409.738	2262.70833
413.676	2236.70833
417.61	2216.04167
421.542	2197.70833
425.47	2192.375
429.396	2132.375
433.318	2130.375
437.236	2156.70833
441.152	2125.70833
445.065	2072.04167
448.974	2080.375
452.88	2064.375
456.783	2049.04167
460.683	2028.70833
464.58	2042.375
468.473	2039.70833
472.364	2058.04167
476.251	2064.70833
480.135	2052.70833
484.016	2084.70833
487.894	2088.70833
491.769	2119.70833
495.641	2115.70833
499.509	2099.04167
503.375	2141.70833
507.237	2159.04167
511.096	2231.04167
514.952	2568.70833
518.805	2996.375
522.655	3103.04167
526.502	2545.04167
530.346	2197.70833
534.187	2131.70833
538.024	2094.70833
541.859	2081.04167
545.69	2084.375
549.519	2082.70833
553.344	2058.04167
557.166	2029.70833
560.985	2004.70833
564.802	1990.70833
568.615	1952.70833
572.425	1911.04167
576.232	1917.375
580.036	1908.04167
583.836	1922.375
587.634	1935.70833
591.429	1897.70833
595.221	1943.375
599.01	1972.375
602.796	2015.375
606.578	2030.04167
610.358	2014.70833
614.135	1989.04167
617.909	2000.70833
621.679	1991.04167
625.447	1954.04167
629.212	1988.375
632.973	1985.04167
636.732	1952.375
640.488	1960.70833
644.241	1938.04167
647.991	1930.04167
651.737	1956.375
655.481	1913.70833
659.222	1917.375
662.96	1911.70833
666.695	1929.375
670.427	1937.70833
674.156	1950.70833
677.882	1974.70833
681.605	1958.04167
685.325	1932.04167
689.043	1955.04167
692.757	1924.04167
696.468	1938.70833
700.177	1954.04167
703.882	1942.70833
707.585	1929.70833
711.284	1938.70833
714.981	1948.375
718.675	1970.04167
722.366	1965.04167
726.054	1937.04167
729.739	1936.375
733.421	1934.375
737.1	1948.70833
740.777	1966.375
744.45	1974.04167
748.121	1999.375
751.789	2062.375
755.453	2026.04167
759.115	2023.04167
762.774	2081.375
766.431	2073.70833
770.084	2105.04167
773.734	2121.375
777.382	2173.375
781.027	2187.04167
784.669	2220.70833
788.308	2218.70833
791.944	2239.375
795.577	2246.04167
799.208	2268.04167
802.835	2276.70833
806.46	2284.04167
810.082	2299.04167
813.701	2288.70833
817.317	2319.375
820.931	2320.375
824.542	2339.375
828.149	2303.70833
831.754	2295.70833
835.357	2269.375
838.956	2274.70833
842.553	2289.70833
846.146	2281.70833
849.737	2279.04167
853.326	2284.375
856.911	2295.04167
860.493	2331.70833
864.073	2349.04167
867.65	2389.04167
871.225	2435.04167
874.796	2409.70833
878.365	2415.70833
881.931	2439.375
885.494	2483.375
889.054	2448.70833
892.612	2479.375
896.166	2464.04167
899.719	2455.04167
903.268	2422.04167
906.814	2390.375
910.358	2391.375
913.899	2354.04167
917.438	2349.70833
920.973	2322.04167
924.506	2374.04167
928.036	2378.04167
931.564	2435.04167
935.088	2478.70833
938.61	2491.04167
942.129	2515.375
945.646	2595.04167
949.16	2643.70833
952.671	2677.375
956.179	2674.04167
959.685	2637.375
963.188	2602.375
966.688	2574.70833
970.185	2485.375
973.68	2477.375
977.173	2464.375
980.662	2451.04167
984.149	2461.375
987.633	2470.70833
991.114	2492.375
994.593	2565.375
998.069	2635.04167
1001.542	2704.70833
1005.013	2658.375
1008.481	2490.375
1011.947	2463.375
1015.409	2431.70833
1018.869	2456.04167
1022.327	2459.04167
1025.782	2431.375
1029.234	2413.04167
1032.683	2421.70833
1036.13	2324.04167
1039.574	2229.70833
1043.016	2164.375
1046.455	2138.70833
1049.891	2081.04167
1053.325	2124.04167
1056.756	2119.375
1060.184	2130.70833
1063.61	2143.375
1067.033	2146.70833
1070.454	2135.70833
1073.872	2179.70833
1077.287	2153.375
1080.7	2179.375
1084.11	2185.375
1087.517	2155.70833
1090.922	2154.70833
1094.325	2132.04167
1097.724	2104.04167
1101.122	2133.04167
1104.516	2096.375
1107.908	2097.375
1111.298	2156.04167
1114.684	2169.04167
1118.069	2178.375
1121.45	2218.70833
1124.83	2203.70833
1128.206	2234.04167
1131.58	2300.70833
1134.951	2332.70833
1138.32	2387.70833
1141.687	2489.04167
1145.05	2545.70833
1148.412	2555.375
1151.77	2561.70833
1155.126	2564.70833
1158.48	2542.70833
1161.831	2590.04167
1165.18	2610.70833
1168.525	2633.70833
1171.869	2676.70833
1175.21	2695.70833
1178.548	2720.70833
1181.884	2733.70833
1185.217	2766.375
1188.548	2832.375
1191.877	2847.375
1195.202	2924.70833
1198.526	2966.375
1201.846	2982.375
1205.165	2946.04167
1208.48	2940.70833
1211.794	2936.70833
1215.104	2929.70833
1218.413	2934.70833
1221.719	2908.04167
1225.022	2911.70833
1228.323	2863.70833
1231.621	2878.04167
1234.917	2861.04167
1238.21	2903.04167
1241.501	2894.375
1244.79	2889.70833
1248.076	2901.375
1251.359	2934.375
1254.64	3002.375
1257.919	3021.375
1261.195	3039.04167
1264.468	3100.375
1267.74	3163.04167
1271.008	3170.04167
1274.275	3133.04167
1277.538	3091.70833
1280.8	3071.375
1284.059	3082.70833
1287.315	3121.375
1290.569	3137.375
1293.821	3139.70833
1297.07	3169.70833
1300.317	3179.375
1303.562	3159.375
1306.803	3131.70833
1310.043	3108.04167
1313.28	3052.70833
1316.515	3005.04167
1319.747	3003.70833
1322.977	2977.04167
1326.204	2919.375
1329.429	2883.04167
1332.652	2870.70833
1335.872	2879.70833
1339.09	2840.375
1342.306	2837.70833
1345.519	2819.04167
1348.729	2799.04167
1351.938	2776.70833
1355.144	2736.375
1358.347	2711.04167
1361.548	2732.04167
1364.747	2730.375
1367.944	2708.70833
1371.138	2730.70833
1374.329	2773.70833
1377.518	2795.375
1380.705	2844.70833
1383.89	2825.70833
1387.072	2729.04167
1390.252	2643.375
1393.429	2552.375
1396.605	2483.04167
1399.777	2414.04167
1402.948	2412.375
1406.116	2376.375
1409.282	2394.375
1412.445	2394.04167
1415.606	2423.375
1418.765	2465.375
1421.921	2516.04167
1425.075	2582.04167
1428.227	2622.375
1431.376	2730.375
1434.524	2847.70833
1437.668	2902.375
1440.811	2917.70833
1443.951	2926.04167
1447.089	2953.70833
1450.224	2958.04167
1453.357	2930.375
1456.488	2897.375
1459.617	2872.04167
1462.743	2816.375
1465.867	2751.04167
1468.989	2726.70833
1472.108	2674.04167
1475.225	2610.70833
1478.34	2615.70833
1481.453	2629.70833
1484.563	2613.04167
1487.671	2646.70833
1490.776	2686.04167
1493.88	2743.375
1496.981	2825.375
1500.08	2860.375
1503.176	2890.70833
1506.271	2945.04167
1509.363	3006.70833
1512.452	3022.70833
1515.54	3083.70833
1518.625	3134.70833
1521.708	3224.04167
1524.789	3380.375
1527.867	3592.04167
1530.944	3795.04167
1534.018	3967.04167
1537.089	4101.70833
1540.159	4174.04167
1543.226	4089.04167
1546.291	3992.04167
1549.354	3885.04167
1552.415	3750.04167
1555.473	3650.04167
1558.529	3583.04167
1561.583	3528.04167
1564.634	3491.70833
1567.684	3485.04167
1570.731	3453.04167
1573.776	3473.375
1576.819	3498.70833
1579.859	3509.375
1582.898	3540.04167
1585.934	3578.04167
1588.968	3598.375
1591.999	3549.375
1595.029	3554.70833
1598.056	3575.375
1601.081	3583.04167
1604.104	3587.04167
1607.125	3551.70833
1610.144	3448.04167
1613.16	3375.375
1616.174	3303.04167
1619.186	3216.70833
1622.196	3119.04167
1625.203	3050.70833
1628.209	2992.375
1631.212	2975.04167
1634.213	2927.70833
1637.212	2879.375
1640.209	2839.04167
1643.203	2775.375
1646.196	2670.04167
1649.186	2615.70833
1652.174	2551.375
1655.16	2487.375
1658.144	2382.375
1661.125	2305.04167
1664.105	2217.70833
1667.082	2145.375
1670.057	2024.375
1673.03	1899.04167
1676.001	1790.375
1678.97	1708.04167
1681.937	1609.70833
1684.901	1521.375
1687.863	1486.04167
1690.824	1425.04167
1693.782	1404.375
1696.738	1341.375
1699.692	1319.375
1702.643	1284.04167
1705.593	1276.04167
1708.54	1270.70833
1711.486	1277.04167
1714.429	1245.375
1717.37	1230.375
1720.309	1216.04167
1723.246	1228.70833
1726.181	1186.70833
1729.113	1205.70833
1732.044	1184.04167
1734.972	1152.70833
1737.899	1170.70833
1740.823	1159.375
1743.745	1173.375
1746.665	1130.04167
1749.583	1108.70833
1752.499	1113.375
1755.413	1092.70833
1758.325	1055.04167
1761.235	1069.70833
1764.142	1040.375
1767.048	1018.70833
1769.951	1021.375
1772.852	1024.375
1775.752	1031.04167
1778.649	1032.70833
1781.544	1033.375
1784.437	1010.04167
1787.328	1020.04167
1790.217	1006.70833
1793.104	993.375
1795.989	989.375
1798.872	983.04167
1801.753	1010.70833
1804.631	985.04167
1807.508	1020.04167
1810.383	1013.70833
1813.255	992.04167
1816.126	978.70833
1818.994	981.375
1821.861	985.70833
1824.725	988.04167
1827.587	986.375
1830.448	978.04167
1833.306	955.04167
1836.162	969.375
1839.017	957.375
1841.869	978.375
1844.719	951.375
1847.567	955.375
1850.414	945.375
1853.258	953.70833
1856.1	967.375
1858.94	971.375
1861.778	961.70833
1864.614	959.375
1867.448	963.70833
1870.28	946.04167
1873.111	973.375
1875.939	963.04167
1878.765	985.04167
1881.589	967.04167
1884.411	966.375
1887.231	987.70833
1890.049	965.70833
1892.865	966.04167
1895.68	951.04167
1898.492	951.375
1901.302	952.04167
1904.11	947.04167
1906.916	955.375
1909.721	946.04167
1912.523	950.70833
1915.323	936.70833
1918.122	946.70833
1920.918	943.70833
1923.712	940.04167
1926.505	940.04167
1929.295	941.375
1932.084	954.375
1934.87	954.04167
1937.655	964.70833
1940.438	930.375
1943.218	949.375
1945.997	957.375
1948.774	959.70833
1951.549	962.70833
1954.322	965.375
1957.093	971.70833
1959.862	948.375
1962.629	968.04167
1965.394	940.375
1968.157	940.70833
1970.918	961.04167
1973.678	951.70833
1976.435	952.70833
1979.19	951.70833
1981.944	931.70833
1984.696	935.70833
1987.445	935.70833
1990.193	946.04167
1992.939	966.375
1995.683	955.04167
1998.425	937.04167
2001.165	967.70833
2003.903	945.375
2006.639	947.375
2009.374	952.375
2012.106	962.375
2014.837	942.375
2017.566	969.04167
2020.292	967.375
2023.017	960.04167
2025.74	966.375
2028.461	961.70833
2031.18	967.375
2033.898	957.375
2036.613	971.04167
2039.327	974.04167
2042.038	950.70833
2044.748	963.375
2047.456	968.70833
2050.162	954.04167
2052.866	958.04167
2055.568	969.04167
2058.268	962.375
2060.967	975.70833
2063.663	965.375
2066.358	975.70833
2069.051	972.04167
2071.742	979.375
2074.431	991.375
2077.118	991.04167
2079.804	984.04167
2082.487	994.04167
2085.169	1004.04167
2087.849	1030.375
2090.527	1019.04167
2093.203	1017.70833
2095.877	1039.70833
2098.55	1041.04167
2101.22	1054.04167
2103.889	1074.375
2106.556	1081.375
2109.221	1136.70833
2111.884	1168.70833
2114.546	1252.70833
2117.205	1341.375
2119.863	1443.70833
2122.519	1511.04167
2125.173	1599.375
2127.825	1680.04167
2130.475	1687.70833
2133.124	1649.04167
2135.771	1581.70833
2138.416	1517.70833
2141.059	1452.70833
2143.7	1401.04167
2146.339	1321.375
2148.977	1262.70833
2151.613	1248.375
2154.247	1200.375
2156.879	1193.70833
2159.51	1182.04167
2162.138	1140.70833
2164.765	1147.70833
2167.39	1124.04167
2170.013	1155.70833
2172.634	1142.70833
2175.254	1118.375
2177.872	1151.70833
2180.488	1114.04167
2183.102	1122.70833
2185.714	1104.70833
2188.325	1089.70833
2190.934	1104.70833
2193.541	1091.375
2196.146	1079.70833
2198.75	1074.04167
2201.351	1079.375
2203.951	1065.04167
2206.549	1077.375
2209.146	1059.04167
2211.74	1064.375
2214.333	1077.04167
2216.924	1048.04167
2219.514	1066.04167
2222.101	1055.04167
2224.687	1079.375
2227.271	1066.375
2229.853	1055.04167
2232.433	1055.375
2235.012	1078.375
2237.589	1078.70833
2240.164	1079.70833
2242.738	1068.04167
2245.309	1071.375
2247.879	1083.04167
2250.448	1076.70833
2253.014	1051.70833
2255.579	1039.04167
2258.142	1047.375
2260.703	1040.375
2263.262	1065.04167
2265.82	1057.04167
2268.376	1058.375
2270.93	1050.375
2273.483	1060.70833
2276.033	1065.375
2278.583	1061.375
2281.13	1069.04167
2283.675	1055.04167
2286.219	1062.70833
2288.761	1064.70833
2291.302	1078.70833
2293.841	1082.70833
2296.377	1073.70833
2298.913	1069.04167
2301.446	1096.04167
2303.978	1090.70833
2306.508	1075.04167
2309.037	1088.70833
2311.563	1085.70833
2314.088	1086.04167
2316.612	1082.70833
2319.133	1108.375
2321.653	1092.70833
2324.171	1097.04167
2326.688	1100.04167
2329.202	1084.375
2331.715	1097.04167
2334.227	1098.04167
2336.736	1098.70833
2339.244	1099.04167
2341.751	1093.375
2344.255	1120.70833
2346.758	1119.70833
2349.259	1112.70833
2351.759	1110.375
2354.257	1118.70833
2356.753	1126.375
2359.247	1130.04167
2361.74	1142.04167
2364.231	1133.04167
2366.721	1146.04167
2369.209	1135.70833
2371.695	1150.04167
2374.179	1133.04167
2376.662	1156.70833
2379.143	1169.375
2381.622	1174.04167
2384.1	1154.375
2386.576	1165.04167
2389.051	1191.04167
2391.524	1183.375
2393.995	1203.375
2396.464	1176.04167
2398.932	1184.70833
2401.398	1182.04167
2403.863	1199.70833
2406.325	1175.04167
2408.787	1201.04167
2411.246	1198.375
2413.704	1208.04167
2416.16	1202.04167
2418.615	1205.04167
2421.068	1228.375
2423.519	1213.04167
2425.969	1222.375
2428.417	1231.375
2430.863	1251.375
2433.308	1254.375
2435.751	1254.04167
2438.193	1236.375
2440.633	1256.70833
2443.071	1252.04167
2445.508	1250.04167
2447.943	1241.70833
2450.376	1247.04167
2452.808	1273.375
2455.238	1260.70833
2457.667	1305.70833
2460.093	1273.70833
2462.519	1280.70833
2464.942	1290.04167
2467.365	1309.375
2469.785	1302.70833
2472.204	1292.04167
2474.621	1293.70833
2477.037	1306.04167
2479.451	1299.375
2481.863	1296.70833
2484.274	1311.70833
2486.683	1309.375
2489.091	1336.04167
2491.497	1322.04167
2493.901	1321.70833
2496.304	1335.375
2498.705	1334.04167
2501.105	1334.04167
2503.503	1363.04167
2505.899	1349.70833
2508.294	1372.70833
2510.687	1358.375
2513.079	1363.04167
2515.469	1370.375
2517.858	1361.375
2520.245	1401.375
2522.63	1381.70833
2525.014	1382.70833
2527.396	1377.04167
2529.776	1380.70833
2532.156	1389.375
2534.533	1387.04167
2536.909	1396.70833
2539.283	1375.04167
2541.656	1390.70833
2544.027	1417.04167
2546.397	1418.70833
2548.765	1421.04167
2551.131	1423.70833
2553.496	1429.04167
2555.86	1447.04167
2558.221	1450.70833
2560.582	1431.70833
2562.94	1444.375
2565.298	1446.70833
2567.653	1473.375
2570.007	1435.04167
2572.36	1480.04167
2574.711	1460.04167
2577.06	1493.375
2579.408	1476.04167
2581.754	1489.70833
2584.099	1496.04167
2586.442	1492.375
2588.784	1510.04167
2591.124	1514.70833
2593.463	1520.70833
2595.8	1523.375
2598.135	1513.70833
2600.469	1515.04167
2602.802	1553.375
2605.133	1541.04167
2607.462	1535.04167
2609.79	1528.375
2612.116	1555.04167
2614.441	1558.375
2616.764	1557.04167
2619.086	1579.04167
2621.406	1551.04167
2623.725	1572.04167
2626.042	1585.04167
2628.358	1600.375
2630.672	1591.70833
2632.985	1612.70833
2635.296	1605.70833
2637.606	1627.70833
2639.914	1618.70833
2642.22	1634.70833
2644.525	1644.375
2646.829	1627.375
2649.131	1660.70833
2651.432	1688.375
2653.731	1672.70833
2656.028	1687.04167
2658.324	1679.70833
2660.619	1680.375
2662.912	1702.70833
2665.204	1689.04167
2667.494	1712.375
2669.782	1696.375
2672.07	1716.04167
2674.355	1743.04167
2676.639	1720.04167
2678.922	1700.375
2681.203	1735.375
2683.483	1723.70833
2685.761	1731.04167
2688.038	1743.70833
2690.313	1774.04167
2692.587	1753.70833
2694.859	1748.375
2697.13	1770.04167
2699.399	1770.04167
2701.667	1777.04167
2703.933	1800.375
2706.198	1817.04167
2708.461	1822.375
2710.723	1831.04167
2712.984	1824.375
2715.243	1855.04167
2717.5	1845.04167
2719.757	1877.70833
2722.011	1855.04167
2724.264	1905.70833
2726.516	1902.04167
2728.766	1899.70833
2731.015	1913.04167
2733.262	1891.04167
2735.508	1902.70833
2737.753	1905.70833
2739.996	1878.04167
2742.237	1921.04167
2744.477	1942.375
2746.716	1917.70833
2748.953	1902.04167
2751.189	1898.375
2753.423	1901.04167
2755.656	1892.375
2757.887	1895.04167
2760.117	1895.70833
2762.346	1883.04167
2764.573	1898.375
2766.798	1906.04167
2769.022	1923.70833
2771.245	1943.375
2773.467	1932.375
2775.686	1944.375
2777.905	1950.375
2780.122	1955.375
2782.337	1962.70833
2784.552	1958.04167
2786.764	1990.04167
2788.976	2006.375
2791.186	2011.375
2793.394	2033.70833
2795.601	2042.375
2797.807	2048.70833
2800.011	2069.04167
2802.214	2090.70833
2804.415	2090.04167
2806.615	2102.70833
2808.814	2096.375
2811.011	2115.375
2813.206	2104.70833
2815.401	2128.375
2817.594	2131.70833
2819.785	2165.375
2821.975	2137.375
2824.164	2147.70833
2826.351	2174.375
2828.537	2185.375
2830.722	2205.375
2832.905	2213.04167
2835.086	2239.70833
2837.267	2276.04167
2839.445	2309.04167
2841.623	2301.375
2843.799	2335.70833
2845.974	2379.04167
2848.147	2397.04167
2850.319	2437.04167
2852.489	2466.70833
2854.659	2493.375
2856.826	2501.70833
2858.993	2531.04167
2861.158	2521.04167
2863.321	2517.375
2865.483	2554.375
2867.644	2542.70833
2869.804	2537.375
2871.962	2522.375
2874.118	2505.375
2876.274	2510.04167
2878.428	2513.04167
2880.58	2509.70833
2882.731	2489.04167
2884.881	2495.04167
2887.03	2480.375
2889.177	2474.375
2891.322	2495.375
2893.467	2509.04167
2895.61	2507.70833
2897.751	2558.70833
2899.892	2536.375
2902.03	2533.04167
2904.168	2573.375
2906.304	2566.04167
2908.439	2605.70833
2910.572	2595.70833
2912.704	2618.375
2914.835	2609.04167
2916.965	2617.375
2919.093	2628.70833
2921.219	2599.70833
2923.345	2602.375
2925.469	2578.04167
2927.591	2575.04167
2929.712	2511.04167
2931.832	2509.375
2933.951	2501.70833
2936.068	2454.70833
2938.184	2440.04167
2940.299	2408.375
2942.412	2404.04167
2944.524	2387.70833
2946.634	2367.70833
2948.744	2334.04167
2950.851	2359.375
2952.958	2324.70833
2955.063	2326.375
2957.167	2336.04167
2959.269	2310.375
2961.371	2334.70833
2963.471	2296.375
2965.569	2299.04167
2967.666	2262.375
2969.762	2269.70833
2971.857	2245.70833
2973.95	2232.375
2976.042	2223.04167
2978.133	2190.375
2980.222	2196.375
2982.31	2129.04167
2984.396	2131.70833
2986.482	2113.70833
2988.566	2114.375
2990.648	2112.70833
2992.73	2105.04167
2994.81	2095.375
2996.889	2114.70833
2998.966	2116.70833
3001.042	2119.375
3003.117	2112.04167
3005.191	2111.375
3007.263	2126.04167
3009.334	2095.04167
3011.403	2057.375
3013.472	2027.70833
3015.539	2018.70833
3017.604	2026.04167
3019.669	1970.375
3021.732	1993.04167
3023.794	1978.70833
3025.854	1965.375
3027.914	1979.04167
3029.971	1993.04167
3032.028	1972.375
3034.083	1962.70833
3036.137	1957.375
3038.19	1889.375
3040.242	1857.70833
3042.292	1831.70833
3044.341	1797.375
3046.388	1820.04167
3048.435	1758.375
3050.48	1779.70833
3052.524	1783.375
3054.566	1744.375
3056.607	1752.70833
3058.647	1733.70833
3060.686	1659.70833
3062.723	1624.70833
3064.759	1558.375
3066.794	0.375
3068.828	-1.29167
3070.86	-1.29167
