-0.839	419.04167
3.438	448.70833
7.711	123.04167
11.981	50.70833
16.247	44.375
20.509	44.375
24.768	42.04167
29.024	46.375
33.276	41.04167
37.524	50.04167
41.769	37.70833
46.01	33.70833
50.247	48.70833
54.481	58.04167
58.712	62.70833
62.939	41.04167
67.162	61.04167
71.382	57.375
75.599	43.375
79.812	56.375
84.021	74.375
88.227	56.375
92.429	59.70833
96.628	46.375
100.823	59.70833
105.015	69.375
109.204	71.70833
113.388	73.375
117.57	66.70833
121.748	78.375
125.922	72.04167
130.093	87.70833
134.261	93.04167
138.425	81.04167
142.585	122.04167
146.742	116.70833
150.896	134.70833
155.046	157.04167
159.193	257.70833
163.336	427.70833
167.476	767.375
171.613	1408.375
175.746	2358.04167
179.875	3555.04167
184.002	4622.04167
188.124	5386.70833
192.244	5621.70833
196.36	5510.375
200.472	5343.375
204.581	5152.04167
208.687	4947.70833
212.79	4911.375
216.889	4862.04167
220.984	4834.375
225.077	4843.70833
229.165	4834.04167
233.251	4832.375
237.333	4828.70833
241.412	4785.70833
245.487	4727.04167
249.559	4673.375
253.628	4633.375
257.694	4604.70833
261.756	4597.70833
265.814	4505.70833
269.87	4410.70833
273.922	4328.70833
277.97	4335.04167
282.016	4362.375
286.058	4433.04167
290.097	4541.04167
294.132	4595.04167
298.164	4589.70833
302.193	4357.04167
306.219	4069.04167
310.241	3729.70833
314.26	3416.04167
318.276	3134.04167
322.288	2920.70833
326.297	2736.375
330.303	2627.70833
334.305	2514.70833
338.305	2462.70833
342.301	2424.375
346.294	2410.70833
350.283	2369.375
354.269	2343.375
358.252	2318.70833
362.232	2307.375
366.209	2281.375
370.182	2269.70833
374.152	2237.04167
378.119	2239.375
382.083	2215.375
386.043	2241.375
390	2195.375
393.954	2173.375
397.905	2181.04167
401.852	2193.375
405.797	2149.04167
409.738	2133.375
413.676	2159.04167
417.61	2139.70833
421.542	2134.70833
425.47	2113.70833
429.396	2082.375
433.318	2069.70833
437.236	2051.04167
441.152	2075.375
445.065	2001.70833
448.974	2014.70833
452.88	1989.375
456.783	1993.375
460.683	1973.04167
464.58	1984.70833
468.473	1972.70833
472.364	1990.70833
476.251	1986.04167
480.135	2009.04167
484.016	2029.70833
487.894	2045.04167
491.769	2057.04167
495.641	2066.375
499.509	2061.375
503.375	2075.04167
507.237	2073.375
511.096	2108.04167
514.952	2287.04167
518.805	2487.375
522.655	2543.375
526.502	2267.04167
530.346	2095.70833
534.187	2064.04167
538.024	2044.70833
541.859	2023.375
545.69	2061.375
549.519	2022.70833
553.344	2001.375
557.166	1973.70833
560.985	1949.04167
564.802	1966.04167
568.615	1922.70833
572.425	1906.04167
576.232	1889.70833
580.036	1889.70833
583.836	1902.375
587.634	1899.70833
591.429	1871.70833
595.221	1954.04167
599.01	1936.70833
602.796	1960.70833
606.578	1969.70833
610.358	1990.375
614.135	1958.70833
617.909	1946.04167
621.679	1961.70833
625.447	1935.04167
629.212	1936.375
632.973	1939.70833
636.732	1947.70833
640.488	1936.04167
644.241	1915.70833
647.991	1910.04167
651.737	1917.04167
655.481	1877.04167
659.222	1882.70833
662.96	1868.70833
666.695	1899.04167
670.427	1906.375
674.156	1926.04167
677.882	1937.70833
681.605	1934.375
685.325	1887.375
689.043	1916.04167
692.757	1891.04167
696.468	1895.375
700.177	1911.375
703.882	1893.04167
707.585	1887.375
711.284	1878.04167
714.981	1891.375
718.675	1912.04167
722.366	1918.375
726.054	1887.375
729.739	1904.70833
733.421	1899.375
737.1	1905.375
740.777	1928.375
744.45	1935.70833
748.121	1937.04167
751.789	1985.70833
755.453	1971.375
759.115	1968.375
762.774	2000.04167
766.431	2012.04167
770.084	2013.04167
773.734	2047.70833
777.382	2091.04167
781.027	2095.70833
784.669	2088.04167
788.308	2117.375
791.944	2124.375
795.577	2141.375
799.208	2153.04167
802.835	2171.70833
806.46	2177.04167
810.082	2197.04167
813.701	2176.70833
817.317	2199.04167
820.931	2175.04167
824.542	2210.375
828.149	2182.04167
831.754	2180.375
835.357	2178.70833
838.956	2179.70833
842.553	2174.04167
846.146	2160.70833
849.737	2156.04167
853.326	2162.375
856.911	2163.375
860.493	2189.04167
864.073	2206.375
867.65	2231.04167
871.225	2283.375
874.796	2252.04167
878.365	2273.04167
881.931	2286.375
885.494	2304.375
889.054	2310.375
892.612	2337.70833
896.166	2302.375
899.719	2279.04167
903.268	2249.70833
906.814	2222.70833
910.358	2206.375
913.899	2180.70833
917.438	2204.70833
920.973	2158.375
924.506	2203.375
928.036	2262.70833
931.564	2274.375
935.088	2298.375
938.61	2301.04167
942.129	2320.70833
945.646	2380.375
949.16	2436.375
952.671	2458.375
956.179	2475.04167
959.685	2428.04167
963.188	2411.04167
966.688	2372.04167
970.185	2315.04167
973.68	2273.70833
977.173	2285.375
980.662	2246.375
984.149	2270.375
987.633	2235.04167
991.114	2281.04167
994.593	2346.70833
998.069	2409.70833
1001.542	2478.04167
1005.013	2418.04167
1008.481	2296.375
1011.947	2252.375
1015.409	2234.375
1018.869	2251.04167
1022.327	2233.04167
1025.782	2229.04167
1029.234	2244.375
1032.683	2212.04167
1036.13	2127.70833
1039.574	2058.04167
1043.016	2012.70833
1046.455	1968.04167
1049.891	1947.375
1053.325	1958.375
1056.756	1956.375
1060.184	1968.70833
1063.61	1987.04167
1067.033	2004.70833
1070.454	2002.70833
1073.872	2024.70833
1077.287	2015.375
1080.7	2015.375
1084.11	2008.375
1087.517	2006.375
1090.922	1992.04167
1094.325	1954.04167
1097.724	1961.70833
1101.122	1952.375
1104.516	1934.70833
1107.908	1948.375
1111.298	1987.375
1114.684	1990.70833
1118.069	2024.375
1121.45	2039.375
1124.83	2046.70833
1128.206	2084.70833
1131.58	2113.375
1134.951	2167.70833
1138.32	2215.70833
1141.687	2310.04167
1145.05	2367.70833
1148.412	2363.70833
1151.77	2349.70833
1155.126	2337.04167
1158.48	2343.70833
1161.831	2352.70833
1165.18	2370.04167
1168.525	2398.04167
1171.869	2437.04167
1175.21	2429.70833
1178.548	2479.04167
1181.884	2498.70833
1185.217	2527.04167
1188.548	2552.70833
1191.877	2594.04167
1195.202	2651.04167
1198.526	2697.375
1201.846	2707.375
1205.165	2699.70833
1208.48	2708.375
1211.794	2711.04167
1215.104	2723.70833
1218.413	2731.04167
1221.719	2728.70833
1225.022	2693.375
1228.323	2638.70833
1231.621	2652.04167
1234.917	2620.70833
1238.21	2649.70833
1241.501	2637.70833
1244.79	2641.70833
1248.076	2646.04167
1251.359	2664.70833
1254.64	2740.375
1257.919	2739.70833
1261.195	2806.04167
1264.468	2848.04167
1267.74	2872.70833
1271.008	2901.04167
1274.275	2865.04167
1277.538	2865.04167
1280.8	2835.04167
1284.059	2836.04167
1287.315	2874.375
1290.569	2869.70833
1293.821	2888.04167
1297.07	2915.375
1300.317	2916.375
1303.562	2898.04167
1306.803	2891.70833
1310.043	2822.375
1313.28	2783.375
1316.515	2768.375
1319.747	2744.375
1322.977	2712.375
1326.204	2691.70833
1329.429	2640.04167
1332.652	2621.375
1335.872	2637.70833
1339.09	2621.70833
1342.306	2597.375
1345.519	2574.70833
1348.729	2565.04167
1351.938	2517.04167
1355.144	2474.375
1358.347	2463.375
1361.548	2487.04167
1364.747	2476.70833
1367.944	2445.375
1371.138	2470.04167
1374.329	2505.70833
1377.518	2517.04167
1380.705	2534.04167
1383.89	2549.70833
1387.072	2474.04167
1390.252	2365.375
1393.429	2314.375
1396.605	2256.375
1399.777	2198.375
1402.948	2181.70833
1406.116	2163.70833
1409.282	2201.375
1412.445	2177.375
1415.606	2222.04167
1418.765	2256.04167
1421.921	2291.70833
1425.075	2349.375
1428.227	2393.04167
1431.376	2496.04167
1434.524	2559.04167
1437.668	2634.04167
1440.811	2632.375
1443.951	2645.04167
1447.089	2667.375
1450.224	2663.04167
1453.357	2632.04167
1456.488	2618.04167
1459.617	2582.04167
1462.743	2559.70833
1465.867	2504.70833
1468.989	2465.04167
1472.108	2433.375
1475.225	2383.70833
1478.34	2368.70833
1481.453	2346.70833
1484.563	2369.70833
1487.671	2408.70833
1490.776	2421.375
1493.88	2493.375
1496.981	2518.375
1500.08	2558.70833
1503.176	2583.375
1506.271	2615.70833
1509.363	2675.375
1512.452	2704.70833
1515.54	2722.375
1518.625	2773.375
1521.708	2832.375
1524.789	2969.70833
1527.867	3096.04167
1530.944	3288.70833
1534.018	3432.70833
1537.089	3572.70833
1540.159	3608.375
1543.226	3598.70833
1546.291	3507.70833
1549.354	3403.04167
1552.415	3302.04167
1555.473	3199.70833
1558.529	3157.70833
1561.583	3083.375
1564.634	3052.04167
1567.684	3045.375
1570.731	3026.70833
1573.776	3055.70833
1576.819	3044.375
1579.859	3039.04167
1582.898	3098.70833
1585.934	3101.375
1588.968	3123.375
1591.999	3090.375
1595.029	3096.04167
1598.056	3135.04167
1601.081	3150.04167
1604.104	3133.375
1607.125	3105.70833
1610.144	3035.70833
1613.16	2962.04167
1616.174	2876.04167
1619.186	2827.04167
1622.196	2758.375
1625.203	2675.70833
1628.209	2627.375
1631.212	2588.70833
1634.213	2591.04167
1637.212	2552.04167
1640.209	2487.375
1643.203	2415.70833
1646.196	2356.375
1649.186	2288.375
1652.174	2238.04167
1655.16	2187.04167
1658.144	2148.375
1661.125	2054.375
1664.105	2001.375
1667.082	1911.375
1670.057	1798.04167
1673.03	1702.375
1676.001	1597.375
1678.97	1490.70833
1681.937	1420.375
1684.901	1343.70833
1687.863	1315.04167
1690.824	1252.70833
1693.782	1241.70833
1696.738	1196.04167
1699.692	1165.04167
1702.643	1145.04167
1705.593	1147.70833
1708.54	1112.04167
1711.486	1119.70833
1714.429	1087.375
1717.37	1083.04167
1720.309	1058.375
1723.246	1073.70833
1726.181	1044.04167
1729.113	1048.375
1732.044	1038.70833
1734.972	1031.04167
1737.899	1018.04167
1740.823	1022.70833
1743.745	1037.04167
1746.665	982.04167
1749.583	973.70833
1752.499	970.375
1755.413	950.70833
1758.325	925.04167
1761.235	945.375
1764.142	914.70833
1767.048	902.04167
1769.951	890.04167
1772.852	884.04167
1775.752	885.70833
1778.649	889.04167
1781.544	900.04167
1784.437	855.70833
1787.328	891.70833
1790.217	872.04167
1793.104	855.04167
1795.989	850.70833
1798.872	838.04167
1801.753	864.04167
1804.631	844.375
1807.508	857.70833
1810.383	850.70833
1813.255	847.70833
1816.126	843.04167
1818.994	845.04167
1821.861	835.375
1824.725	828.375
1827.587	832.70833
1830.448	818.70833
1833.306	798.375
1836.162	820.70833
1839.017	806.04167
1841.869	804.04167
1844.719	806.70833
1847.567	799.375
1850.414	793.70833
1853.258	781.04167
1856.1	810.70833
1858.94	821.70833
1861.778	797.70833
1864.614	800.375
1867.448	803.375
1870.28	781.04167
1873.111	805.04167
1875.939	797.375
1878.765	816.70833
1881.589	788.70833
1884.411	794.70833
1887.231	807.70833
1890.049	803.70833
1892.865	790.375
1895.68	776.04167
1898.492	784.70833
1901.302	770.04167
1904.11	773.04167
1906.916	772.70833
1909.721	761.04167
1912.523	774.04167
1915.323	756.04167
1918.122	758.375
1920.918	790.04167
1923.712	757.375
1926.505	769.70833
1929.295	745.375
1932.084	770.04167
1934.87	770.04167
1937.655	757.04167
1940.438	751.04167
1943.218	761.70833
1945.997	759.70833
1948.774	772.70833
1951.549	761.70833
1954.322	755.04167
1957.093	762.04167
1959.862	751.70833
1962.629	755.04167
1965.394	743.375
1968.157	735.375
1970.918	756.375
1973.678	737.04167
1976.435	755.375
1979.19	740.375
1981.944	733.375
1984.696	724.04167
1987.445	721.70833
1990.193	730.375
1992.939	750.04167
1995.683	748.375
1998.425	720.04167
2001.165	754.375
2003.903	731.04167
2006.639	725.04167
2009.374	727.70833
2012.106	732.70833
2014.837	718.04167
2017.566	730.375
2020.292	734.375
2023.017	722.70833
2025.74	734.04167
2028.461	724.375
2031.18	726.04167
2033.898	725.04167
2036.613	720.04167
2039.327	738.70833
2042.038	714.04167
2044.748	714.04167
2047.456	728.04167
2050.162	702.375
2052.866	717.70833
2055.568	724.375
2058.268	721.375
2060.967	717.04167
2063.663	715.70833
2066.358	709.375
2069.051	702.375
2071.742	719.04167
2074.431	722.70833
2077.118	714.375
2079.804	703.375
2082.487	702.70833
2085.169	721.375
2087.849	741.70833
2090.527	713.04167
2093.203	733.70833
2095.877	735.375
2098.55	733.70833
2101.22	746.04167
2103.889	762.04167
2106.556	763.70833
2109.221	786.70833
2111.884	813.70833
2114.546	879.70833
2117.205	930.70833
2119.863	985.375
2122.519	1067.70833
2125.173	1103.04167
2127.825	1158.375
2130.475	1148.375
2133.124	1101.70833
2135.771	1063.04167
2138.416	1034.375
2141.059	958.04167
2143.7	939.04167
2146.339	872.375
2148.977	838.70833
2151.613	825.04167
2154.247	815.375
2156.879	784.375
2159.51	774.04167
2162.138	749.70833
2164.765	761.70833
2167.39	739.70833
2170.013	752.70833
2172.634	753.04167
2175.254	746.375
2177.872	765.70833
2180.488	728.04167
2183.102	741.70833
2185.714	726.375
2188.325	703.375
2190.934	718.375
2193.541	726.375
2196.146	711.04167
2198.75	694.375
2201.351	699.375
2203.951	682.375
2206.549	717.375
2209.146	702.375
2211.74	688.04167
2214.333	700.70833
2216.924	686.04167
2219.514	692.04167
2222.101	689.375
2224.687	696.70833
2227.271	691.04167
2229.853	676.375
2232.433	675.375
2235.012	687.375
2237.589	697.70833
2240.164	707.04167
2242.738	691.70833
2245.309	680.70833
2247.879	687.375
2250.448	693.04167
2253.014	673.04167
2255.579	661.04167
2258.142	671.04167
2260.703	661.375
2263.262	665.375
2265.82	649.04167
2268.376	678.04167
2270.93	659.04167
2273.483	648.70833
2276.033	659.04167
2278.583	650.04167
2281.13	647.375
2283.675	641.375
2286.219	670.04167
2288.761	660.375
2291.302	659.70833
2293.841	658.70833
2296.377	655.04167
2298.913	660.70833
2301.446	670.04167
2303.978	670.375
2306.508	647.04167
2309.037	651.04167
2311.563	664.04167
2314.088	665.375
2316.612	648.375
2319.133	662.04167
2321.653	655.04167
2324.171	635.70833
2326.688	669.70833
2329.202	648.04167
2331.715	649.375
2334.227	655.04167
2336.736	649.375
2339.244	643.04167
2341.751	649.70833
2344.255	663.70833
2346.758	665.375
2349.259	645.375
2351.759	651.70833
2354.257	640.375
2356.753	650.70833
2359.247	666.375
2361.74	673.70833
2364.231	652.70833
2366.721	668.04167
2369.209	660.375
2371.695	664.04167
2374.179	659.375
2376.662	658.70833
2379.143	683.70833
2381.622	675.70833
2384.1	670.375
2386.576	668.70833
2389.051	679.375
2391.524	677.70833
2393.995	680.375
2396.464	665.375
2398.932	671.04167
2401.398	676.70833
2403.863	669.375
2406.325	673.70833
2408.787	673.70833
2411.246	677.70833
2413.704	674.375
2416.16	666.04167
2418.615	685.04167
2421.068	676.375
2423.519	681.70833
2425.969	675.04167
2428.417	693.04167
2430.863	708.70833
2433.308	699.375
2435.751	691.04167
2438.193	689.70833
2440.633	679.04167
2443.071	698.70833
2445.508	677.70833
2447.943	687.375
2450.376	688.04167
2452.808	697.375
2455.238	688.375
2457.667	713.04167
2460.093	686.04167
2462.519	685.375
2464.942	685.70833
2467.365	698.70833
2469.785	703.04167
2472.204	701.375
2474.621	686.70833
2477.037	720.04167
2479.451	698.04167
2481.863	697.04167
2484.274	693.375
2486.683	703.375
2489.091	722.70833
2491.497	712.04167
2493.901	704.70833
2496.304	711.70833
2498.705	723.04167
2501.105	713.375
2503.503	739.70833
2505.899	711.04167
2508.294	735.375
2510.687	716.375
2513.079	730.04167
2515.469	708.70833
2517.858	725.70833
2520.245	737.04167
2522.63	718.70833
2525.014	728.375
2527.396	717.70833
2529.776	720.70833
2532.156	741.04167
2534.533	707.04167
2536.909	726.70833
2539.283	719.04167
2541.656	732.70833
2544.027	756.70833
2546.397	747.70833
2548.765	741.70833
2551.131	748.70833
2553.496	750.70833
2555.86	754.375
2558.221	747.375
2560.582	751.375
2562.94	732.70833
2565.298	744.70833
2567.653	763.04167
2570.007	740.70833
2572.36	752.375
2574.711	749.04167
2577.06	778.04167
2579.408	756.70833
2581.754	765.375
2584.099	756.70833
2586.442	760.70833
2588.784	778.375
2591.124	769.375
2593.463	774.375
2595.8	786.04167
2598.135	777.04167
2600.469	775.04167
2602.802	799.70833
2605.133	797.375
2607.462	776.04167
2609.79	774.04167
2612.116	788.70833
2614.441	798.375
2616.764	795.375
2619.086	793.70833
2621.406	792.04167
2623.725	817.375
2626.042	792.70833
2628.358	809.04167
2630.672	811.70833
2632.985	820.04167
2635.296	825.04167
2637.606	829.375
2639.914	806.70833
2642.22	814.04167
2644.525	823.04167
2646.829	826.375
2649.131	840.70833
2651.432	842.04167
2653.731	840.70833
2656.028	859.70833
2658.324	857.04167
2660.619	841.04167
2662.912	867.375
2665.204	850.70833
2667.494	856.04167
2669.782	860.70833
2672.07	867.375
2674.355	875.70833
2676.639	867.70833
2678.922	848.70833
2681.203	854.375
2683.483	859.04167
2685.761	854.04167
2688.038	889.375
2690.313	895.04167
2692.587	880.04167
2694.859	869.70833
2697.13	889.04167
2699.399	888.70833
2701.667	896.375
2703.933	926.70833
2706.198	904.70833
2708.461	911.70833
2710.723	923.70833
2712.984	910.70833
2715.243	924.04167
2717.5	927.375
2719.757	956.70833
2722.011	928.04167
2724.264	949.70833
2726.516	969.375
2728.766	959.375
2731.015	959.375
2733.262	961.375
2735.508	947.375
2737.753	946.04167
2739.996	962.70833
2742.237	943.375
2744.477	965.04167
2746.716	976.375
2748.953	960.70833
2751.189	963.70833
2753.423	947.70833
2755.656	942.375
2757.887	942.375
2760.117	964.04167
2762.346	939.04167
2764.573	951.04167
2766.798	941.04167
2769.022	951.70833
2771.245	968.375
2773.467	964.375
2775.686	976.70833
2777.905	973.04167
2780.122	989.04167
2782.337	991.70833
2784.552	997.04167
2786.764	998.70833
2788.976	1001.04167
2791.186	1013.70833
2793.394	1028.70833
2795.601	1032.375
2797.807	1050.70833
2800.011	1044.70833
2802.214	1062.04167
2804.415	1072.70833
2806.615	1060.375
2808.814	1080.375
2811.011	1074.375
2813.206	1086.70833
2815.401	1084.04167
2817.594	1111.375
2819.785	1107.70833
2821.975	1096.375
2824.164	1117.04167
2826.351	1133.375
2828.537	1153.04167
2830.722	1157.70833
2832.905	1149.375
2835.086	1179.70833
2837.267	1206.70833
2839.445	1233.375
2841.623	1238.70833
2843.799	1264.04167
2845.974	1278.70833
2848.147	1305.04167
2850.319	1314.70833
2852.489	1342.70833
2854.659	1347.04167
2856.826	1378.375
2858.993	1400.04167
2861.158	1389.375
2863.321	1392.375
2865.483	1398.04167
2867.644	1395.70833
2869.804	1412.04167
2871.962	1380.375
2874.118	1392.375
2876.274	1393.375
2878.428	1379.70833
2880.58	1371.04167
2882.731	1354.70833
2884.881	1370.70833
2887.03	1367.04167
2889.177	1385.375
2891.322	1402.04167
2893.467	1381.04167
2895.61	1374.04167
2897.751	1420.375
2899.892	1406.70833
2902.03	1404.375
2904.168	1430.04167
2906.304	1417.04167
2908.439	1444.375
2910.572	1441.04167
2912.704	1447.70833
2914.835	1440.375
2916.965	1422.375
2919.093	1468.375
2921.219	1413.04167
2923.345	1447.04167
2925.469	1414.375
2927.591	1425.70833
2929.712	1379.375
2931.832	1361.375
2933.951	1357.375
2936.068	1347.375
2938.184	1326.04167
2940.299	1305.375
2942.412	1283.04167
2944.524	1271.70833
2946.634	1250.04167
2948.744	1233.375
2950.851	1251.375
2952.958	1220.04167
2955.063	1211.375
2957.167	1211.375
2959.269	1187.70833
2961.371	1222.375
2963.471	1173.70833
2965.569	1182.70833
2967.666	1160.70833
2969.762	1161.375
2971.857	1144.375
2973.95	1131.375
2976.042	1126.70833
2978.133	1104.04167
2980.222	1084.04167
2982.31	1067.70833
2984.396	1050.04167
2986.482	1047.375
2988.566	1054.04167
2990.648	1060.04167
2992.73	1056.70833
2994.81	1058.375
2996.889	1053.70833
2998.966	1044.70833
3001.042	1057.375
3003.117	1064.04167
3005.191	1058.70833
3007.263	1041.375
3009.334	1030.375
3011.403	1031.70833
3013.472	1004.70833
3015.539	1013.375
3017.604	1012.375
3019.669	977.04167
3021.732	978.04167
3023.794	999.375
3025.854	970.70833
3027.914	976.375
3029.971	970.70833
3032.028	979.04167
3034.083	979.375
3036.137	977.375
3038.19	934.04167
3040.242	922.375
3042.292	900.70833
3044.341	888.375
3046.388	901.70833
3048.435	863.375
3050.48	892.375
3052.524	866.04167
3054.566	852.375
3056.607	854.70833
3058.647	850.04167
3060.686	809.70833
3062.723	800.70833
3064.759	772.04167
3066.794	0.375
3068.828	-1.625
3070.86	-1.29167
