-0.839	410.375
3.438	435.375
7.711	127.70833
11.981	49.70833
16.247	43.70833
20.509	41.375
24.768	40.04167
29.024	45.375
33.276	38.04167
37.524	48.04167
41.769	41.375
46.01	35.70833
50.247	48.70833
54.481	56.375
58.712	64.375
62.939	39.375
67.162	60.70833
71.382	47.70833
75.599	44.70833
79.812	60.70833
84.021	75.375
88.227	55.04167
92.429	61.04167
96.628	42.70833
100.823	60.04167
105.015	66.375
109.204	67.70833
113.388	71.70833
117.57	63.375
121.748	78.375
125.922	68.375
130.093	88.70833
134.261	91.04167
138.425	81.375
142.585	121.04167
146.742	115.70833
150.896	127.70833
155.046	160.04167
159.193	246.70833
163.336	421.04167
167.476	762.375
171.613	1388.375
175.746	2361.04167
179.875	3533.70833
184.002	4595.04167
188.124	5355.04167
192.244	5541.70833
196.36	5466.04167
200.472	5285.375
204.581	5092.375
208.687	4931.04167
212.79	4837.375
216.889	4814.04167
220.984	4794.375
225.077	4770.375
229.165	4803.70833
233.251	4755.04167
237.333	4744.375
241.412	4687.70833
245.487	4657.375
249.559	4628.04167
253.628	4556.04167
257.694	4526.70833
261.756	4509.04167
265.814	4442.70833
269.87	4398.70833
273.922	4299.04167
277.97	4317.70833
282.016	4318.04167
286.058	4373.375
290.097	4491.375
294.132	4548.375
298.164	4499.70833
302.193	4323.04167
306.219	4025.375
310.241	3652.04167
314.26	3351.70833
318.276	3058.375
322.288	2892.04167
326.297	2705.70833
330.303	2571.04167
334.305	2494.04167
338.305	2439.375
342.301	2365.04167
346.294	2357.375
350.283	2322.375
354.269	2307.375
358.252	2276.70833
362.232	2243.70833
366.209	2230.375
370.182	2207.04167
374.152	2192.375
378.119	2175.375
382.083	2164.04167
386.043	2196.375
390	2137.375
393.954	2132.375
397.905	2123.04167
401.852	2114.04167
405.797	2103.70833
409.738	2075.70833
413.676	2087.70833
417.61	2065.375
421.542	2049.70833
425.47	2026.70833
429.396	2022.375
433.318	2014.04167
437.236	2009.04167
441.152	2014.04167
445.065	1954.375
448.974	1969.04167
452.88	1949.70833
456.783	1915.375
460.683	1914.375
464.58	1923.04167
468.473	1930.04167
472.364	1922.04167
476.251	1964.375
480.135	1946.70833
484.016	1998.04167
487.894	1981.375
491.769	1989.70833
495.641	2000.70833
499.509	1995.04167
503.375	2033.70833
507.237	2040.375
511.096	2070.04167
514.952	2225.70833
518.805	2427.04167
522.655	2503.70833
526.502	2206.70833
530.346	2024.04167
534.187	2008.70833
538.024	1994.04167
541.859	1998.375
545.69	2002.70833
549.519	1978.04167
553.344	1955.70833
557.166	1913.375
560.985	1919.375
564.802	1891.04167
568.615	1876.04167
572.425	1856.375
576.232	1832.04167
580.036	1846.04167
583.836	1840.04167
587.634	1846.04167
591.429	1838.70833
595.221	1873.04167
599.01	1896.375
602.796	1891.375
606.578	1909.375
610.358	1911.04167
614.135	1899.375
617.909	1914.375
621.679	1892.375
625.447	1887.375
629.212	1889.375
632.973	1872.70833
636.732	1870.70833
640.488	1881.70833
644.241	1851.04167
647.991	1858.375
651.737	1873.375
655.481	1818.70833
659.222	1845.70833
662.96	1822.375
666.695	1861.04167
670.427	1862.375
674.156	1862.375
677.882	1871.375
681.605	1860.375
685.325	1863.375
689.043	1863.04167
692.757	1827.04167
696.468	1849.70833
700.177	1861.70833
703.882	1840.70833
707.585	1832.375
711.284	1845.70833
714.981	1840.375
718.675	1867.04167
722.366	1867.375
726.054	1844.70833
729.739	1851.375
733.421	1859.04167
737.1	1848.375
740.777	1889.375
744.45	1882.375
748.121	1880.04167
751.789	1927.375
755.453	1918.04167
759.115	1943.375
762.774	1961.70833
766.431	1962.70833
770.084	1969.70833
773.734	1992.04167
777.382	2049.70833
781.027	2030.70833
784.669	2053.70833
788.308	2076.375
791.944	2091.375
795.577	2100.70833
799.208	2116.375
802.835	2133.04167
806.46	2137.375
810.082	2123.70833
813.701	2145.04167
817.317	2127.04167
820.931	2139.04167
824.542	2154.375
828.149	2127.375
831.754	2128.70833
835.357	2145.70833
838.956	2131.70833
842.553	2126.70833
846.146	2120.04167
849.737	2116.04167
853.326	2132.70833
856.911	2137.04167
860.493	2156.70833
864.073	2171.70833
867.65	2209.04167
871.225	2230.70833
874.796	2224.70833
878.365	2240.70833
881.931	2251.04167
885.494	2277.04167
889.054	2282.04167
892.612	2298.375
896.166	2252.04167
899.719	2241.70833
903.268	2216.70833
906.814	2200.70833
910.358	2165.70833
913.899	2168.70833
917.438	2179.375
920.973	2134.375
924.506	2175.70833
928.036	2222.375
931.564	2206.375
935.088	2260.04167
938.61	2242.70833
942.129	2288.04167
945.646	2346.375
949.16	2415.375
952.671	2425.375
956.179	2423.04167
959.685	2407.04167
963.188	2368.70833
966.688	2334.04167
970.185	2270.70833
973.68	2240.70833
977.173	2231.04167
980.662	2204.04167
984.149	2219.375
987.633	2214.375
991.114	2249.04167
994.593	2306.04167
998.069	2369.04167
1001.542	2425.04167
1005.013	2389.375
1008.481	2264.375
1011.947	2212.70833
1015.409	2183.70833
1018.869	2219.70833
1022.327	2199.70833
1025.782	2178.375
1029.234	2197.04167
1032.683	2173.375
1036.13	2078.04167
1039.574	2016.70833
1043.016	1955.70833
1046.455	1922.04167
1049.891	1902.04167
1053.325	1918.04167
1056.756	1918.70833
1060.184	1938.04167
1063.61	1948.375
1067.033	1964.04167
1070.454	1956.375
1073.872	1992.70833
1077.287	1973.375
1080.7	1991.70833
1084.11	1994.04167
1087.517	1991.70833
1090.922	1954.70833
1094.325	1936.04167
1097.724	1907.04167
1101.122	1901.70833
1104.516	1911.375
1107.908	1928.70833
1111.298	1958.70833
1114.684	1984.375
1118.069	1978.04167
1121.45	2005.70833
1124.83	1992.70833
1128.206	2023.70833
1131.58	2069.04167
1134.951	2130.375
1138.32	2175.70833
1141.687	2281.70833
1145.05	2321.04167
1148.412	2319.70833
1151.77	2325.375
1155.126	2316.375
1158.48	2296.04167
1161.831	2347.04167
1165.18	2327.70833
1168.525	2380.375
1171.869	2406.04167
1175.21	2417.70833
1178.548	2433.70833
1181.884	2449.70833
1185.217	2495.375
1188.548	2517.70833
1191.877	2575.375
1195.202	2624.375
1198.526	2680.70833
1201.846	2687.375
1205.165	2678.04167
1208.48	2651.70833
1211.794	2670.04167
1215.104	2692.70833
1218.413	2689.04167
1221.719	2689.04167
1225.022	2658.04167
1228.323	2630.70833
1231.621	2610.70833
1234.917	2611.04167
1238.21	2630.04167
1241.501	2596.375
1244.79	2586.04167
1248.076	2601.70833
1251.359	2655.375
1254.64	2707.70833
1257.919	2716.375
1261.195	2773.04167
1264.468	2824.70833
1267.74	2832.04167
1271.008	2852.375
1274.275	2835.04167
1277.538	2819.70833
1280.8	2808.04167
1284.059	2805.375
1287.315	2843.04167
1290.569	2851.70833
1293.821	2866.375
1297.07	2867.375
1300.317	2872.375
1303.562	2867.375
1306.803	2816.375
1310.043	2800.375
1313.28	2791.04167
1316.515	2745.70833
1319.747	2704.04167
1322.977	2659.70833
1326.204	2656.70833
1329.429	2600.70833
1332.652	2622.04167
1335.872	2593.04167
1339.09	2581.375
1342.306	2581.70833
1345.519	2534.375
1348.729	2491.04167
1351.938	2467.375
1355.144	2447.70833
1358.347	2446.375
1361.548	2455.70833
1364.747	2445.375
1367.944	2427.04167
1371.138	2453.70833
1374.329	2462.04167
1377.518	2493.70833
1380.705	2512.375
1383.89	2496.70833
1387.072	2406.375
1390.252	2339.04167
1393.429	2285.04167
1396.605	2227.04167
1399.777	2173.70833
1402.948	2156.375
1406.116	2126.375
1409.282	2155.04167
1412.445	2150.04167
1415.606	2190.04167
1418.765	2229.375
1421.921	2271.70833
1425.075	2320.70833
1428.227	2392.70833
1431.376	2469.04167
1434.524	2561.04167
1437.668	2591.375
1440.811	2626.70833
1443.951	2629.70833
1447.089	2635.375
1450.224	2643.375
1453.357	2626.70833
1456.488	2598.375
1459.617	2542.375
1462.743	2541.04167
1465.867	2458.70833
1468.989	2441.70833
1472.108	2396.04167
1475.225	2352.70833
1478.34	2330.70833
1481.453	2317.375
1484.563	2329.70833
1487.671	2388.70833
1490.776	2425.375
1493.88	2466.375
1496.981	2500.70833
1500.08	2543.375
1503.176	2569.375
1506.271	2585.04167
1509.363	2641.375
1512.452	2668.04167
1515.54	2706.375
1518.625	2767.04167
1521.708	2829.04167
1524.789	2945.375
1527.867	3071.04167
1530.944	3239.375
1534.018	3431.375
1537.089	3571.04167
1540.159	3612.375
1543.226	3566.375
1546.291	3485.04167
1549.354	3390.375
1552.415	3284.375
1555.473	3217.375
1558.529	3124.04167
1561.583	3090.04167
1564.634	3053.70833
1567.684	3019.04167
1570.731	3011.04167
1573.776	3004.04167
1576.819	3031.70833
1579.859	3030.70833
1582.898	3085.70833
1585.934	3071.04167
1588.968	3092.70833
1591.999	3096.04167
1595.029	3085.375
1598.056	3111.04167
1601.081	3138.70833
1604.104	3114.70833
1607.125	3080.375
1610.144	3014.70833
1613.16	2930.375
1616.174	2873.04167
1619.186	2797.04167
1622.196	2718.375
1625.203	2646.04167
1628.209	2618.375
1631.212	2572.70833
1634.213	2535.04167
1637.212	2475.04167
1640.209	2439.70833
1643.203	2381.375
1646.196	2328.04167
1649.186	2247.375
1652.174	2215.375
1655.16	2164.04167
1658.144	2111.70833
1661.125	2010.04167
1664.105	1944.375
1667.082	1875.04167
1670.057	1773.375
1673.03	1661.04167
1676.001	1569.375
1678.97	1478.375
1681.937	1398.70833
1684.901	1313.04167
1687.863	1299.70833
1690.824	1233.70833
1693.782	1213.04167
1696.738	1171.375
1699.692	1154.70833
1702.643	1125.04167
1705.593	1114.04167
1708.54	1098.04167
1711.486	1102.375
1714.429	1057.70833
1717.37	1061.375
1720.309	1052.04167
1723.246	1051.04167
1726.181	1030.375
1729.113	1029.375
1732.044	1004.375
1734.972	1000.04167
1737.899	1001.04167
1740.823	1001.375
1743.745	1002.375
1746.665	960.375
1749.583	948.04167
1752.499	927.375
1755.413	940.70833
1758.325	894.375
1761.235	914.375
1764.142	878.375
1767.048	881.04167
1769.951	880.04167
1772.852	876.04167
1775.752	871.04167
1778.649	867.70833
1781.544	866.04167
1784.437	839.04167
1787.328	863.375
1790.217	855.70833
1793.104	823.70833
1795.989	829.70833
1798.872	823.04167
1801.753	839.70833
1804.631	836.04167
1807.508	859.04167
1810.383	821.04167
1813.255	826.375
1816.126	830.04167
1818.994	820.04167
1821.861	830.70833
1824.725	815.70833
1827.587	815.70833
1830.448	807.375
1833.306	787.70833
1836.162	791.70833
1839.017	796.375
1841.869	809.04167
1844.719	797.375
1847.567	776.375
1850.414	790.04167
1853.258	774.70833
1856.1	797.70833
1858.94	795.04167
1861.778	786.70833
1864.614	769.04167
1867.448	783.375
1870.28	782.04167
1873.111	808.70833
1875.939	775.70833
1878.765	797.04167
1881.589	777.375
1884.411	778.375
1887.231	795.375
1890.049	774.04167
1892.865	777.04167
1895.68	766.375
1898.492	771.04167
1901.302	743.70833
1904.11	755.375
1906.916	759.04167
1909.721	747.04167
1912.523	764.70833
1915.323	744.04167
1918.122	745.70833
1920.918	756.04167
1923.712	747.375
1926.505	755.70833
1929.295	738.375
1932.084	761.375
1934.87	743.70833
1937.655	745.04167
1940.438	744.375
1943.218	744.375
1945.997	747.375
1948.774	767.70833
1951.549	753.375
1954.322	744.04167
1957.093	753.70833
1959.862	737.70833
1962.629	738.375
1965.394	736.375
1968.157	731.70833
1970.918	734.375
1973.678	727.375
1976.435	742.04167
1979.19	727.375
1981.944	718.04167
1984.696	714.70833
1987.445	720.70833
1990.193	725.375
1992.939	723.04167
1995.683	728.70833
1998.425	703.70833
2001.165	734.375
2003.903	705.04167
2006.639	719.04167
2009.374	721.70833
2012.106	724.70833
2014.837	706.04167
2017.566	725.375
2020.292	720.375
2023.017	725.04167
2025.74	721.375
2028.461	703.04167
2031.18	714.70833
2033.898	702.70833
2036.613	722.70833
2039.327	721.70833
2042.038	696.70833
2044.748	710.04167
2047.456	717.70833
2050.162	693.04167
2052.866	702.375
2055.568	716.375
2058.268	699.375
2060.967	715.70833
2063.663	683.375
2066.358	703.04167
2069.051	695.04167
2071.742	713.70833
2074.431	714.04167
2077.118	700.04167
2079.804	695.375
2082.487	693.70833
2085.169	720.375
2087.849	729.04167
2090.527	710.04167
2093.203	733.04167
2095.877	740.04167
2098.55	737.04167
2101.22	746.04167
2103.889	760.04167
2106.556	759.70833
2109.221	783.375
2111.884	800.375
2114.546	864.70833
2117.205	925.70833
2119.863	986.70833
2122.519	1052.04167
2125.173	1093.375
2127.825	1145.70833
2130.475	1142.375
2133.124	1106.70833
2135.771	1041.375
2138.416	1008.375
2141.059	952.375
2143.7	935.70833
2146.339	876.70833
2148.977	828.70833
2151.613	830.04167
2154.247	796.375
2156.879	785.70833
2159.51	763.375
2162.138	755.375
2164.765	751.04167
2167.39	743.375
2170.013	757.70833
2172.634	749.375
2175.254	743.375
2177.872	769.375
2180.488	729.04167
2183.102	721.70833
2185.714	724.04167
2188.325	699.375
2190.934	707.375
2193.541	710.04167
2196.146	706.375
2198.75	695.04167
2201.351	704.04167
2203.951	686.70833
2206.549	709.375
2209.146	691.04167
2211.74	672.04167
2214.333	700.70833
2216.924	673.375
2219.514	676.375
2222.101	662.70833
2224.687	702.375
2227.271	676.70833
2229.853	676.70833
2232.433	667.375
2235.012	684.375
2237.589	683.375
2240.164	691.04167
2242.738	681.70833
2245.309	678.375
2247.879	680.70833
2250.448	688.70833
2253.014	657.375
2255.579	662.04167
2258.142	652.04167
2260.703	642.70833
2263.262	649.70833
2265.82	649.70833
2268.376	663.70833
2270.93	648.70833
2273.483	640.70833
2276.033	653.375
2278.583	660.375
2281.13	652.375
2283.675	651.04167
2286.219	658.70833
2288.761	657.375
2291.302	666.04167
2293.841	661.70833
2296.377	649.70833
2298.913	652.375
2301.446	657.70833
2303.978	651.70833
2306.508	640.375
2309.037	650.375
2311.563	664.70833
2314.088	672.70833
2316.612	648.04167
2319.133	659.70833
2321.653	648.70833
2324.171	653.70833
2326.688	658.04167
2329.202	660.375
2331.715	658.70833
2334.227	657.04167
2336.736	648.70833
2339.244	653.70833
2341.751	641.375
2344.255	675.375
2346.758	644.70833
2349.259	647.04167
2351.759	653.375
2354.257	644.375
2356.753	649.04167
2359.247	641.70833
2361.74	662.375
2364.231	652.70833
2366.721	664.70833
2369.209	650.70833
2371.695	660.04167
2374.179	651.70833
2376.662	660.04167
2379.143	677.375
2381.622	662.70833
2384.1	664.70833
2386.576	667.04167
2389.051	682.375
2391.524	681.04167
2393.995	686.04167
2396.464	673.70833
2398.932	672.04167
2401.398	662.04167
2403.863	655.375
2406.325	673.04167
2408.787	666.04167
2411.246	666.375
2413.704	673.70833
2416.16	664.70833
2418.615	682.70833
2421.068	683.375
2423.519	680.04167
2425.969	687.375
2428.417	702.04167
2430.863	709.04167
2433.308	703.04167
2435.751	683.375
2438.193	685.70833
2440.633	700.375
2443.071	690.375
2445.508	679.04167
2447.943	685.70833
2450.376	679.70833
2452.808	704.375
2455.238	692.04167
2457.667	719.04167
2460.093	699.375
2462.519	689.04167
2464.942	696.70833
2467.365	713.04167
2469.785	705.04167
2472.204	703.375
2474.621	696.04167
2477.037	724.70833
2479.451	694.70833
2481.863	704.375
2484.274	687.375
2486.683	716.375
2489.091	713.04167
2491.497	722.70833
2493.901	704.04167
2496.304	713.04167
2498.705	731.70833
2501.105	700.70833
2503.503	748.04167
2505.899	699.04167
2508.294	740.04167
2510.687	713.375
2513.079	721.04167
2515.469	716.70833
2517.858	729.04167
2520.245	743.04167
2522.63	728.70833
2525.014	724.70833
2527.396	727.375
2529.776	726.375
2532.156	734.70833
2534.533	727.04167
2536.909	735.70833
2539.283	717.04167
2541.656	740.375
2544.027	754.70833
2546.397	749.375
2548.765	738.375
2551.131	739.04167
2553.496	751.375
2555.86	758.04167
2558.221	752.70833
2560.582	748.04167
2562.94	743.375
2565.298	751.04167
2567.653	768.04167
2570.007	745.375
2572.36	758.375
2574.711	752.70833
2577.06	779.04167
2579.408	776.04167
2581.754	771.375
2584.099	776.04167
2586.442	757.04167
2588.784	780.04167
2591.124	790.70833
2593.463	783.04167
2595.8	785.70833
2598.135	773.04167
2600.469	776.70833
2602.802	795.375
2605.133	796.375
2607.462	785.70833
2609.79	778.375
2612.116	785.375
2614.441	797.04167
2616.764	801.375
2619.086	806.70833
2621.406	800.70833
2623.725	803.04167
2626.042	803.70833
2628.358	808.04167
2630.672	806.70833
2632.985	820.04167
2635.296	821.375
2637.606	824.70833
2639.914	818.70833
2642.22	822.70833
2644.525	821.70833
2646.829	830.04167
2649.131	856.70833
2651.432	854.70833
2653.731	842.375
2656.028	857.375
2658.324	844.375
2660.619	849.70833
2662.912	869.70833
2665.204	849.70833
2667.494	868.375
2669.782	858.04167
2672.07	865.375
2674.355	883.375
2676.639	867.375
2678.922	867.70833
2681.203	876.04167
2683.483	859.04167
2685.761	856.70833
2688.038	879.375
2690.313	904.70833
2692.587	895.04167
2694.859	885.375
2697.13	896.04167
2699.399	895.04167
2701.667	918.375
2703.933	918.04167
2706.198	913.375
2708.461	919.70833
2710.723	932.375
2712.984	929.375
2715.243	941.04167
2717.5	948.04167
2719.757	950.375
2722.011	946.375
2724.264	959.04167
2726.516	977.375
2728.766	946.04167
2731.015	958.70833
2733.262	969.375
2735.508	966.375
2737.753	962.70833
2739.996	937.04167
2742.237	954.375
2744.477	965.70833
2746.716	971.375
2748.953	969.70833
2751.189	976.04167
2753.423	953.70833
2755.656	962.375
2757.887	955.70833
2760.117	950.70833
2762.346	950.375
2764.573	967.375
2766.798	952.04167
2769.022	961.70833
2771.245	953.375
2773.467	959.70833
2775.686	978.375
2777.905	986.70833
2780.122	993.70833
2782.337	1004.04167
2784.552	1000.04167
2786.764	1007.375
2788.976	1019.04167
2791.186	1032.70833
2793.394	1024.375
2795.601	1049.375
2797.807	1048.375
2800.011	1058.375
2802.214	1075.04167
2804.415	1079.70833
2806.615	1081.70833
2808.814	1092.70833
2811.011	1092.04167
2813.206	1088.04167
2815.401	1106.375
2817.594	1108.70833
2819.785	1126.375
2821.975	1117.04167
2824.164	1124.04167
2826.351	1136.04167
2828.537	1154.375
2830.722	1159.375
2832.905	1165.04167
2835.086	1185.375
2837.267	1203.375
2839.445	1227.04167
2841.623	1244.04167
2843.799	1268.375
2845.974	1295.70833
2848.147	1320.70833
2850.319	1331.375
2852.489	1383.70833
2854.659	1365.70833
2856.826	1400.70833
2858.993	1415.375
2861.158	1391.70833
2863.321	1395.70833
2865.483	1406.70833
2867.644	1410.04167
2869.804	1410.04167
2871.962	1391.04167
2874.118	1403.375
2876.274	1398.70833
2878.428	1398.04167
2880.58	1390.70833
2882.731	1349.375
2884.881	1384.04167
2887.03	1385.70833
2889.177	1383.04167
2891.322	1397.04167
2893.467	1402.70833
2895.61	1406.04167
2897.751	1421.375
2899.892	1407.375
2902.03	1417.70833
2904.168	1436.04167
2906.304	1450.375
2908.439	1456.375
2910.572	1449.04167
2912.704	1457.04167
2914.835	1448.70833
2916.965	1454.70833
2919.093	1463.04167
2921.219	1428.70833
2923.345	1455.375
2925.469	1436.375
2927.591	1422.70833
2929.712	1388.04167
2931.832	1385.04167
2933.951	1363.04167
2936.068	1349.70833
2938.184	1331.04167
2940.299	1309.375
2942.412	1299.70833
2944.524	1257.375
2946.634	1288.70833
2948.744	1227.375
2950.851	1264.04167
2952.958	1221.04167
2955.063	1228.04167
2957.167	1238.04167
2959.269	1197.04167
2961.371	1233.04167
2963.471	1194.70833
2965.569	1218.70833
2967.666	1172.375
2969.762	1161.70833
2971.857	1157.70833
2973.95	1133.70833
2976.042	1128.375
2978.133	1114.375
2980.222	1108.70833
2982.31	1073.375
2984.396	1084.70833
2986.482	1069.70833
2988.566	1075.70833
2990.648	1054.375
2992.73	1065.70833
2994.81	1064.70833
2996.889	1073.70833
2998.966	1063.375
3001.042	1082.70833
3003.117	1071.70833
3005.191	1067.375
3007.263	1065.70833
3009.334	1050.04167
3011.403	1050.04167
3013.472	1021.70833
3015.539	1025.04167
3017.604	1025.04167
3019.669	982.70833
3021.732	989.04167
3023.794	1003.70833
3025.854	978.375
3027.914	975.04167
3029.971	997.04167
3032.028	980.04167
3034.083	984.70833
3036.137	972.04167
3038.19	952.70833
3040.242	920.70833
3042.292	909.04167
3044.341	901.375
3046.388	904.04167
3048.435	856.04167
3050.48	897.375
3052.524	883.375
3054.566	859.04167
3056.607	874.70833
3058.647	859.375
3060.686	836.70833
3062.723	816.04167
3064.759	776.70833
3066.794	-0.29167
3068.828	-1.29167
3070.86	-0.625
