-0.839	438.45833
3.438	466.79167
7.711	132.125
11.981	57.79167
16.247	43.79167
20.509	46.125
24.768	46.125
29.024	46.79167
33.276	43.125
37.524	53.45833
41.769	38.125
46.01	36.125
50.247	52.125
54.481	63.125
58.712	69.79167
62.939	50.79167
67.162	59.45833
71.382	59.79167
75.599	50.125
79.812	63.45833
84.021	81.79167
88.227	60.125
92.429	69.45833
96.628	49.45833
100.823	68.79167
105.015	76.45833
109.204	77.125
113.388	77.45833
117.57	72.125
121.748	90.45833
125.922	80.45833
130.093	101.125
134.261	108.125
138.425	103.45833
142.585	145.79167
146.742	143.79167
150.896	170.125
155.046	220.45833
159.193	341.125
163.336	581.45833
167.476	1067.45833
171.613	1992.79167
175.746	3368.79167
179.875	4993.79167
184.002	6503.45833
188.124	7538.79167
192.244	7805.125
196.36	7694.45833
200.472	7434.45833
204.581	7177.45833
208.687	6928.45833
212.79	6822.79167
216.889	6798.45833
220.984	6809.79167
225.077	6823.45833
229.165	6828.125
233.251	6811.79167
237.333	6814.45833
241.412	6749.79167
245.487	6688.125
249.559	6608.79167
253.628	6572.79167
257.694	6509.125
261.756	6461.45833
265.814	6385.45833
269.87	6246.79167
273.922	6130.79167
277.97	6073.79167
282.016	6084.45833
286.058	6215.79167
290.097	6313.125
294.132	6430.79167
298.164	6361.45833
302.193	6061.125
306.219	5635.45833
310.241	5116.45833
314.26	4659.45833
318.276	4235.79167
322.288	3952.79167
326.297	3674.45833
330.303	3501.125
334.305	3384.79167
338.305	3296.79167
342.301	3243.125
346.294	3191.45833
350.283	3183.125
354.269	3129.45833
358.252	3119.79167
362.232	3066.125
366.209	3075.45833
370.182	2997.79167
374.152	2997.45833
378.119	3025.45833
382.083	2979.125
386.043	3009.45833
390	2962.45833
393.954	2939.125
397.905	2929.79167
401.852	2910.125
405.797	2852.125
409.738	2827.45833
413.676	2816.79167
417.61	2786.125
421.542	2766.125
425.47	2755.125
429.396	2727.45833
433.318	2715.79167
437.236	2688.79167
441.152	2722.79167
445.065	2664.45833
448.974	2644.45833
452.88	2640.45833
456.783	2607.79167
460.683	2578.125
464.58	2582.79167
468.473	2588.79167
472.364	2612.45833
476.251	2595.125
480.135	2624.45833
484.016	2648.79167
487.894	2679.125
491.769	2680.45833
495.641	2677.79167
499.509	2695.45833
503.375	2694.125
507.237	2677.45833
511.096	2702.79167
514.952	2741.125
518.805	2861.79167
522.655	2885.125
526.502	2740.79167
530.346	2644.79167
534.187	2668.79167
538.024	2665.79167
541.859	2657.125
545.69	2697.79167
549.519	2673.125
553.344	2639.45833
557.166	2608.45833
560.985	2606.45833
564.802	2549.125
568.615	2533.45833
572.425	2472.125
576.232	2480.45833
580.036	2452.125
583.836	2480.79167
587.634	2472.45833
591.429	2447.79167
595.221	2503.45833
599.01	2539.79167
602.796	2591.45833
606.578	2593.45833
610.358	2580.125
614.135	2577.125
617.909	2587.45833
621.679	2572.125
625.447	2531.125
629.212	2539.79167
632.973	2570.125
636.732	2557.125
640.488	2570.79167
644.241	2520.125
647.991	2504.79167
651.737	2516.79167
655.481	2473.125
659.222	2479.125
662.96	2489.79167
666.695	2529.125
670.427	2531.79167
674.156	2534.125
677.882	2521.79167
681.605	2563.79167
685.325	2517.125
689.043	2534.79167
692.757	2525.79167
696.468	2523.125
700.177	2538.45833
703.882	2512.125
707.585	2529.79167
711.284	2519.79167
714.981	2496.125
718.675	2540.125
722.366	2544.45833
726.054	2524.45833
729.739	2529.125
733.421	2544.125
737.1	2537.45833
740.777	2566.125
744.45	2562.125
748.121	2620.45833
751.789	2640.45833
755.453	2627.125
759.115	2633.125
762.774	2652.79167
766.431	2699.45833
770.084	2715.79167
773.734	2759.45833
777.382	2786.45833
781.027	2830.45833
784.669	2824.125
788.308	2867.79167
791.944	2869.125
795.577	2902.79167
799.208	2955.45833
802.835	2932.45833
806.46	2965.79167
810.082	2968.45833
813.701	2965.125
817.317	2989.125
820.931	2995.125
824.542	3007.125
828.149	2978.79167
831.754	2965.45833
835.357	2962.45833
838.956	2950.125
842.553	2931.125
846.146	2947.45833
849.737	2916.79167
853.326	2921.79167
856.911	2945.79167
860.493	2993.125
864.073	3027.125
867.65	3064.125
871.225	3095.125
874.796	3076.79167
878.365	3125.125
881.931	3138.125
885.494	3159.79167
889.054	3132.125
892.612	3162.45833
896.166	3156.45833
899.719	3097.125
903.268	3109.79167
906.814	3053.125
910.358	3019.45833
913.899	3024.125
917.438	3012.45833
920.973	2987.79167
924.506	3052.45833
928.036	3070.45833
931.564	3103.79167
935.088	3126.125
938.61	3157.79167
942.129	3180.79167
945.646	3262.45833
949.16	3319.79167
952.671	3402.79167
956.179	3413.79167
959.685	3347.125
963.188	3294.79167
966.688	3246.45833
970.185	3170.45833
973.68	3118.45833
977.173	3117.125
980.662	3079.45833
984.149	3104.45833
987.633	3094.79167
991.114	3150.45833
994.593	3237.125
998.069	3342.125
1001.542	3432.125
1005.013	3360.79167
1008.481	3198.125
1011.947	3130.79167
1015.409	3119.45833
1018.869	3158.45833
1022.327	3128.45833
1025.782	3129.45833
1029.234	3141.79167
1032.683	3073.79167
1036.13	2986.125
1039.574	2870.79167
1043.016	2810.125
1046.455	2773.79167
1049.891	2725.45833
1053.325	2735.125
1056.756	2748.125
1060.184	2773.125
1063.61	2784.125
1067.033	2798.79167
1070.454	2794.45833
1073.872	2840.45833
1077.287	2859.125
1080.7	2827.79167
1084.11	2829.125
1087.517	2841.45833
1090.922	2800.125
1094.325	2765.79167
1097.724	2731.45833
1101.122	2761.45833
1104.516	2720.45833
1107.908	2747.45833
1111.298	2794.45833
1114.684	2803.125
1118.069	2846.45833
1121.45	2887.45833
1124.83	2870.45833
1128.206	2918.79167
1131.58	2952.45833
1134.951	3047.125
1138.32	3101.125
1141.687	3243.79167
1145.05	3311.79167
1148.412	3332.79167
1151.77	3312.79167
1155.126	3326.125
1158.48	3302.125
1161.831	3320.45833
1165.18	3366.45833
1168.525	3381.79167
1171.869	3427.79167
1175.21	3444.125
1178.548	3493.45833
1181.884	3515.125
1185.217	3583.125
1188.548	3611.125
1191.877	3676.125
1195.202	3756.79167
1198.526	3819.45833
1201.846	3812.125
1205.165	3839.125
1208.48	3817.79167
1211.794	3841.125
1215.104	3819.79167
1218.413	3820.79167
1221.719	3820.125
1225.022	3824.125
1228.323	3768.45833
1231.621	3756.45833
1234.917	3738.79167
1238.21	3783.125
1241.501	3757.45833
1244.79	3783.45833
1248.076	3783.79167
1251.359	3812.45833
1254.64	3873.79167
1257.919	3902.45833
1261.195	3959.79167
1264.468	4027.45833
1267.74	4066.125
1271.008	4096.125
1274.275	4053.79167
1277.538	4056.45833
1280.8	3998.45833
1284.059	4035.45833
1287.315	4079.79167
1290.569	4095.125
1293.821	4087.45833
1297.07	4123.125
1300.317	4152.125
1303.562	4117.45833
1306.803	4056.125
1310.043	4028.79167
1313.28	3970.125
1316.515	3942.45833
1319.747	3899.125
1322.977	3863.125
1326.204	3792.79167
1329.429	3761.45833
1332.652	3724.45833
1335.872	3724.125
1339.09	3710.125
1342.306	3674.125
1345.519	3659.79167
1348.729	3611.125
1351.938	3583.45833
1355.144	3533.79167
1358.347	3531.79167
1361.548	3525.79167
1364.747	3532.125
1367.944	3533.79167
1371.138	3561.125
1374.329	3590.45833
1377.518	3670.45833
1380.705	3674.79167
1383.89	3645.79167
1387.072	3544.125
1390.252	3423.79167
1393.429	3329.125
1396.605	3221.45833
1399.777	3153.79167
1402.948	3121.125
1406.116	3127.45833
1409.282	3091.79167
1412.445	3140.79167
1415.606	3175.125
1418.765	3217.45833
1421.921	3280.45833
1425.075	3360.79167
1428.227	3425.125
1431.376	3592.45833
1434.524	3677.79167
1437.668	3767.125
1440.811	3785.79167
1443.951	3818.79167
1447.089	3818.125
1450.224	3838.45833
1453.357	3764.79167
1456.488	3755.125
1459.617	3693.45833
1462.743	3632.79167
1465.867	3562.45833
1468.989	3532.79167
1472.108	3450.79167
1475.225	3385.125
1478.34	3370.45833
1481.453	3357.125
1484.563	3329.125
1487.671	3408.125
1490.776	3464.79167
1493.88	3516.45833
1496.981	3587.79167
1500.08	3661.125
1503.176	3718.79167
1506.271	3732.45833
1509.363	3844.45833
1512.452	3880.45833
1515.54	3942.125
1518.625	3999.45833
1521.708	4131.125
1524.789	4348.79167
1527.867	4563.79167
1530.944	4837.79167
1534.018	5106.125
1537.089	5273.125
1540.159	5277.45833
1543.226	5233.125
1546.291	5040.79167
1549.354	4904.125
1552.415	4789.125
1555.473	4642.45833
1558.529	4561.125
1561.583	4478.125
1564.634	4419.125
1567.684	4420.125
1570.731	4402.45833
1573.776	4428.45833
1576.819	4465.79167
1579.859	4478.125
1582.898	4507.79167
1585.934	4554.45833
1588.968	4549.79167
1591.999	4528.79167
1595.029	4567.45833
1598.056	4575.79167
1601.081	4610.45833
1604.104	4593.125
1607.125	4552.79167
1610.144	4424.79167
1613.16	4355.45833
1616.174	4224.79167
1619.186	4121.45833
1622.196	3999.125
1625.203	3909.79167
1628.209	3838.125
1631.212	3803.45833
1634.213	3755.45833
1637.212	3692.79167
1640.209	3615.45833
1643.203	3526.45833
1646.196	3413.45833
1649.186	3318.79167
1652.174	3242.45833
1655.16	3154.125
1658.144	3045.125
1661.125	2922.125
1664.105	2803.125
1667.082	2671.125
1670.057	2540.45833
1673.03	2394.45833
1676.001	2268.125
1678.97	2131.45833
1681.937	1972.45833
1684.901	1890.79167
1687.863	1845.79167
1690.824	1766.45833
1693.782	1742.125
1696.738	1684.125
1699.692	1642.125
1702.643	1613.79167
1705.593	1571.125
1708.54	1554.45833
1711.486	1563.45833
1714.429	1510.125
1717.37	1508.45833
1720.309	1480.79167
1723.246	1493.79167
1726.181	1446.79167
1729.113	1448.45833
1732.044	1421.45833
1734.972	1426.45833
1737.899	1424.79167
1740.823	1398.79167
1743.745	1426.125
1746.665	1360.45833
1749.583	1352.79167
1752.499	1312.45833
1755.413	1306.125
1758.325	1281.125
1761.235	1274.125
1764.142	1248.79167
1767.048	1231.79167
1769.951	1223.125
1772.852	1216.125
1775.752	1225.125
1778.649	1226.125
1781.544	1214.125
1784.437	1198.45833
1787.328	1188.45833
1790.217	1181.79167
1793.104	1155.125
1795.989	1164.79167
1798.872	1154.79167
1801.753	1181.125
1804.631	1163.45833
1807.508	1176.45833
1810.383	1144.45833
1813.255	1133.45833
1816.126	1150.79167
1818.994	1137.125
1821.861	1131.125
1824.725	1121.45833
1827.587	1130.125
1830.448	1135.125
1833.306	1080.79167
1836.162	1104.125
1839.017	1083.125
1841.869	1087.45833
1844.719	1103.45833
1847.567	1073.125
1850.414	1068.125
1853.258	1061.125
1856.1	1091.125
1858.94	1091.125
1861.778	1063.79167
1864.614	1061.125
1867.448	1070.45833
1870.28	1058.125
1873.111	1093.125
1875.939	1076.79167
1878.765	1085.79167
1881.589	1050.79167
1884.411	1059.79167
1887.231	1068.125
1890.049	1050.45833
1892.865	1067.79167
1895.68	1040.79167
1898.492	1051.125
1901.302	1028.79167
1904.11	1030.79167
1906.916	1024.79167
1909.721	1021.79167
1912.523	1037.79167
1915.323	1001.45833
1918.122	1011.45833
1920.918	1018.45833
1923.712	1006.125
1926.505	1012.45833
1929.295	999.125
1932.084	1010.125
1934.87	1019.125
1937.655	989.45833
1940.438	995.125
1943.218	1009.125
1945.997	1010.79167
1948.774	1013.79167
1951.549	1006.125
1954.322	990.125
1957.093	998.79167
1959.862	985.125
1962.629	988.79167
1965.394	978.125
1968.157	968.125
1970.918	976.45833
1973.678	973.45833
1976.435	961.45833
1979.19	955.79167
1981.944	953.45833
1984.696	949.79167
1987.445	945.45833
1990.193	959.125
1992.939	971.79167
1995.683	949.79167
1998.425	937.45833
2001.165	960.79167
2003.903	933.79167
2006.639	925.45833
2009.374	941.125
2012.106	948.125
2014.837	919.45833
2017.566	943.125
2020.292	948.79167
2023.017	939.125
2025.74	924.45833
2028.461	923.45833
2031.18	927.125
2033.898	913.79167
2036.613	918.79167
2039.327	935.79167
2042.038	902.45833
2044.748	910.79167
2047.456	910.45833
2050.162	895.79167
2052.866	908.45833
2055.568	920.125
2058.268	904.125
2060.967	900.125
2063.663	898.79167
2066.358	905.125
2069.051	882.45833
2071.742	896.79167
2074.431	908.125
2077.118	901.125
2079.804	887.45833
2082.487	900.79167
2085.169	912.125
2087.849	915.79167
2090.527	909.79167
2093.203	910.79167
2095.877	922.125
2098.55	933.45833
2101.22	947.45833
2103.889	954.125
2106.556	966.45833
2109.221	1005.125
2111.884	1038.79167
2114.546	1114.79167
2117.205	1202.45833
2119.863	1331.79167
2122.519	1430.125
2125.173	1507.125
2127.825	1591.79167
2130.475	1590.125
2133.124	1534.125
2135.771	1466.45833
2138.416	1394.125
2141.059	1295.79167
2143.7	1236.45833
2146.339	1158.125
2148.977	1083.79167
2151.613	1076.45833
2154.247	1021.125
2156.879	1000.45833
2159.51	975.125
2162.138	951.125
2164.765	932.79167
2167.39	919.125
2170.013	932.45833
2172.634	911.45833
2175.254	901.79167
2177.872	930.45833
2180.488	882.79167
2183.102	889.125
2185.714	864.79167
2188.325	863.125
2190.934	851.125
2193.541	855.45833
2196.146	848.79167
2198.75	839.79167
2201.351	838.79167
2203.951	826.45833
2206.549	828.45833
2209.146	826.125
2211.74	815.45833
2214.333	824.45833
2216.924	797.125
2219.514	813.79167
2222.101	793.125
2224.687	810.79167
2227.271	793.45833
2229.853	784.125
2232.433	769.125
2235.012	798.79167
2237.589	795.45833
2240.164	786.45833
2242.738	789.45833
2245.309	767.125
2247.879	773.45833
2250.448	776.45833
2253.014	751.125
2255.579	737.125
2258.142	743.45833
2260.703	733.79167
2263.262	740.79167
2265.82	734.125
2268.376	729.45833
2270.93	733.45833
2273.483	714.125
2276.033	727.79167
2278.583	719.45833
2281.13	700.79167
2283.675	706.125
2286.219	717.125
2288.761	710.125
2291.302	705.79167
2293.841	727.79167
2296.377	692.79167
2298.913	698.79167
2301.446	710.45833
2303.978	694.79167
2306.508	696.125
2309.037	704.45833
2311.563	687.125
2314.088	698.79167
2316.612	672.79167
2319.133	690.79167
2321.653	684.125
2324.171	681.79167
2326.688	685.125
2329.202	671.45833
2331.715	680.125
2334.227	672.125
2336.736	668.45833
2339.244	673.79167
2341.751	657.79167
2344.255	675.79167
2346.758	662.125
2349.259	656.45833
2351.759	659.79167
2354.257	659.45833
2356.753	657.125
2359.247	648.79167
2361.74	655.45833
2364.231	646.45833
2366.721	663.125
2369.209	662.45833
2371.695	647.79167
2374.179	644.125
2376.662	646.45833
2379.143	661.125
2381.622	648.79167
2384.1	639.45833
2386.576	648.125
2389.051	656.125
2391.524	655.125
2393.995	657.79167
2396.464	642.125
2398.932	635.45833
2401.398	636.79167
2403.863	641.79167
2406.325	637.125
2408.787	638.45833
2411.246	633.125
2413.704	633.45833
2416.16	627.45833
2418.615	632.45833
2421.068	634.79167
2423.519	638.45833
2425.969	622.125
2428.417	634.45833
2430.863	641.79167
2433.308	635.125
2435.751	636.45833
2438.193	624.45833
2440.633	642.79167
2443.071	624.45833
2445.508	611.125
2447.943	617.125
2450.376	606.45833
2452.808	612.125
2455.238	621.125
2457.667	649.125
2460.093	613.79167
2462.519	609.45833
2464.942	598.45833
2467.365	618.125
2469.785	622.79167
2472.204	597.125
2474.621	589.79167
2477.037	619.45833
2479.451	593.45833
2481.863	595.79167
2484.274	593.79167
2486.683	601.45833
2489.091	611.125
2491.497	609.79167
2493.901	603.45833
2496.304	588.45833
2498.705	611.125
2501.105	596.45833
2503.503	628.125
2505.899	585.45833
2508.294	615.79167
2510.687	598.125
2513.079	589.45833
2515.469	590.79167
2517.858	596.79167
2520.245	610.79167
2522.63	592.79167
2525.014	574.79167
2527.396	580.125
2529.776	593.125
2532.156	593.79167
2534.533	587.125
2536.909	581.125
2539.283	568.79167
2541.656	579.79167
2544.027	611.45833
2546.397	579.79167
2548.765	589.125
2551.131	583.45833
2553.496	591.79167
2555.86	592.45833
2558.221	583.125
2560.582	582.79167
2562.94	582.79167
2565.298	580.45833
2567.653	593.79167
2570.007	578.79167
2572.36	587.79167
2574.711	578.125
2577.06	591.79167
2579.408	572.45833
2581.754	574.45833
2584.099	584.45833
2586.442	583.125
2588.784	580.79167
2591.124	579.79167
2593.463	581.125
2595.8	583.45833
2598.135	576.79167
2600.469	575.45833
2602.802	589.125
2605.133	589.125
2607.462	574.79167
2609.79	568.79167
2612.116	578.79167
2614.441	579.79167
2616.764	590.45833
2619.086	587.79167
2621.406	571.125
2623.725	588.79167
2626.042	582.125
2628.358	575.125
2630.672	575.125
2632.985	598.125
2635.296	588.45833
2637.606	591.125
2639.914	574.45833
2642.22	577.45833
2644.525	585.79167
2646.829	590.125
2649.131	596.79167
2651.432	606.79167
2653.731	597.79167
2656.028	603.79167
2658.324	598.79167
2660.619	590.45833
2662.912	604.45833
2665.204	590.125
2667.494	621.45833
2669.782	604.79167
2672.07	602.79167
2674.355	617.45833
2676.639	601.45833
2678.922	596.125
2681.203	611.79167
2683.483	591.125
2685.761	601.45833
2688.038	616.45833
2690.313	627.45833
2692.587	609.125
2694.859	612.125
2697.13	616.125
2699.399	611.79167
2701.667	637.125
2703.933	631.125
2706.198	630.125
2708.461	644.79167
2710.723	648.125
2712.984	637.45833
2715.243	657.79167
2717.5	649.125
2719.757	661.79167
2722.011	651.125
2724.264	671.125
2726.516	672.45833
2728.766	661.79167
2731.015	655.79167
2733.262	664.79167
2735.508	653.79167
2737.753	658.45833
2739.996	647.45833
2742.237	641.79167
2744.477	659.79167
2746.716	647.79167
2748.953	644.125
2751.189	639.125
2753.423	632.79167
2755.656	628.79167
2757.887	625.125
2760.117	636.79167
2762.346	637.125
2764.573	622.45833
2766.798	634.125
2769.022	649.79167
2771.245	643.45833
2773.467	641.79167
2775.686	649.45833
2777.905	648.79167
2780.122	658.45833
2782.337	663.79167
2784.552	667.45833
2786.764	670.45833
2788.976	678.45833
2791.186	697.125
2793.394	698.125
2795.601	705.45833
2797.807	715.125
2800.011	729.79167
2802.214	735.79167
2804.415	737.125
2806.615	752.45833
2808.814	753.125
2811.011	775.125
2813.206	778.79167
2815.401	786.45833
2817.594	808.45833
2819.785	819.45833
2821.975	811.45833
2824.164	825.45833
2826.351	850.45833
2828.537	868.79167
2830.722	871.45833
2832.905	886.125
2835.086	919.125
2837.267	955.79167
2839.445	985.79167
2841.623	1010.79167
2843.799	1050.45833
2845.974	1077.125
2848.147	1130.79167
2850.319	1152.125
2852.489	1195.79167
2854.659	1205.79167
2856.826	1208.79167
2858.993	1244.79167
2861.158	1232.79167
2863.321	1228.79167
2865.483	1254.125
2867.644	1258.45833
2869.804	1252.125
2871.962	1227.125
2874.118	1228.79167
2876.274	1226.45833
2878.428	1233.79167
2880.58	1222.45833
2882.731	1207.125
2884.881	1209.125
2887.03	1220.125
2889.177	1208.125
2891.322	1232.45833
2893.467	1229.45833
2895.61	1222.45833
2897.751	1239.125
2899.892	1234.79167
2902.03	1245.125
2904.168	1262.79167
2906.304	1246.79167
2908.439	1267.45833
2910.572	1236.125
2912.704	1264.45833
2914.835	1271.79167
2916.965	1279.79167
2919.093	1274.45833
2921.219	1242.79167
2923.345	1253.125
2925.469	1243.79167
2927.591	1216.125
2929.712	1163.79167
2931.832	1165.125
2933.951	1136.79167
2936.068	1105.125
2938.184	1085.125
2940.299	1054.125
2942.412	1018.79167
2944.524	978.45833
2946.634	964.79167
2948.744	915.79167
2950.851	934.125
2952.958	875.79167
2955.063	878.45833
2957.167	856.45833
2959.269	819.79167
2961.371	830.79167
2963.471	796.125
2965.569	789.45833
2967.666	756.79167
2969.762	752.125
2971.857	733.125
2973.95	708.125
2976.042	705.79167
2978.133	676.125
2980.222	669.45833
2982.31	647.125
2984.396	625.45833
2986.482	628.79167
2988.566	629.45833
2990.648	606.45833
2992.73	609.79167
2994.81	587.45833
2996.889	595.45833
2998.966	590.45833
3001.042	581.45833
3003.117	581.125
3005.191	565.79167
3007.263	563.125
3009.334	559.125
3011.403	561.125
3013.472	535.45833
3015.539	548.125
3017.604	546.79167
3019.669	511.79167
3021.732	520.79167
3023.794	522.125
3025.854	505.79167
3027.914	498.125
3029.971	497.125
3032.028	496.45833
3034.083	499.125
3036.137	499.125
3038.19	482.125
3040.242	467.79167
3042.292	446.45833
3044.341	449.79167
3046.388	465.125
3048.435	440.45833
3050.48	449.125
3052.524	440.79167
3054.566	421.45833
3056.607	442.79167
3058.647	431.125
3060.686	411.79167
3062.723	389.125
3064.759	377.125
3066.794	-1.20833
3068.828	0.45833
3070.86	-2.54167
