-0.839	463.375
3.438	495.04167
7.711	132.04167
11.981	53.04167
16.247	47.70833
20.509	43.70833
24.768	44.70833
29.024	47.70833
33.276	40.375
37.524	47.04167
41.769	38.04167
46.01	36.04167
50.247	49.04167
54.481	60.375
58.712	66.04167
62.939	48.70833
67.162	62.04167
71.382	50.70833
75.599	46.375
79.812	63.375
84.021	79.04167
88.227	59.04167
92.429	58.70833
96.628	48.375
100.823	64.70833
105.015	75.70833
109.204	75.375
113.388	79.04167
117.57	73.04167
121.748	87.70833
125.922	75.375
130.093	96.70833
134.261	105.04167
138.425	98.375
142.585	141.70833
146.742	140.04167
150.896	160.04167
155.046	204.375
159.193	316.70833
163.336	552.04167
167.476	1001.04167
171.613	1873.70833
175.746	3149.70833
179.875	4689.04167
184.002	6084.375
188.124	7022.375
192.244	7306.70833
196.36	7211.70833
200.472	6961.04167
204.581	6713.04167
208.687	6484.375
212.79	6369.375
216.889	6319.04167
220.984	6332.04167
225.077	6322.04167
229.165	6336.04167
233.251	6371.70833
237.333	6346.375
241.412	6286.70833
245.487	6197.04167
249.559	6139.375
253.628	6033.375
257.694	6017.70833
261.756	5959.04167
265.814	5873.04167
269.87	5702.04167
273.922	5562.375
277.97	5515.375
282.016	5445.70833
286.058	5462.70833
290.097	5561.04167
294.132	5633.375
298.164	5571.375
302.193	5309.70833
306.219	4891.375
310.241	4471.04167
314.26	4041.375
318.276	3688.70833
322.288	3440.04167
326.297	3258.70833
330.303	3090.04167
334.305	3000.375
338.305	2940.70833
342.301	2864.375
346.294	2826.70833
350.283	2804.70833
354.269	2760.04167
358.252	2751.375
362.232	2713.04167
366.209	2679.70833
370.182	2678.70833
374.152	2638.375
378.119	2662.04167
382.083	2649.70833
386.043	2655.04167
390	2611.70833
393.954	2599.04167
397.905	2568.375
401.852	2573.375
405.797	2533.70833
409.738	2526.70833
413.676	2501.70833
417.61	2479.375
421.542	2469.375
425.47	2443.04167
429.396	2409.70833
433.318	2394.375
437.236	2376.375
441.152	2397.04167
445.065	2325.04167
448.974	2332.375
452.88	2306.04167
456.783	2308.375
460.683	2257.70833
464.58	2288.04167
468.473	2280.375
472.364	2279.375
476.251	2293.04167
480.135	2322.375
484.016	2346.70833
487.894	2355.375
491.769	2349.70833
495.641	2356.04167
499.509	2365.70833
503.375	2384.375
507.237	2380.04167
511.096	2367.375
514.952	2429.375
518.805	2503.04167
522.655	2498.04167
526.502	2401.04167
530.346	2354.375
534.187	2357.04167
538.024	2346.375
541.859	2341.70833
545.69	2372.04167
549.519	2349.70833
553.344	2333.375
557.166	2292.375
560.985	2280.375
564.802	2237.70833
568.615	2208.04167
572.425	2162.375
576.232	2155.70833
580.036	2161.70833
583.836	2172.70833
587.634	2173.375
591.429	2174.04167
595.221	2213.04167
599.01	2228.70833
602.796	2264.375
606.578	2283.04167
610.358	2274.04167
614.135	2275.70833
617.909	2248.375
621.679	2254.04167
625.447	2222.70833
629.212	2229.70833
632.973	2254.375
636.732	2239.70833
640.488	2234.375
644.241	2220.04167
647.991	2200.04167
651.737	2229.70833
655.481	2190.04167
659.222	2205.375
662.96	2191.375
666.695	2227.375
670.427	2249.04167
674.156	2239.70833
677.882	2245.04167
681.605	2218.375
685.325	2187.375
689.043	2219.70833
692.757	2203.04167
696.468	2202.70833
700.177	2198.04167
703.882	2177.70833
707.585	2192.375
711.284	2199.04167
714.981	2194.70833
718.675	2210.04167
722.366	2206.04167
726.054	2181.04167
729.739	2205.375
733.421	2214.70833
737.1	2207.375
740.777	2240.375
744.45	2245.04167
748.121	2251.70833
751.789	2297.04167
755.453	2280.04167
759.115	2296.70833
762.774	2331.70833
766.431	2338.04167
770.084	2360.70833
773.734	2380.04167
777.382	2445.04167
781.027	2472.375
784.669	2468.70833
788.308	2482.375
791.944	2499.04167
795.577	2536.70833
799.208	2541.375
802.835	2569.375
806.46	2566.70833
810.082	2595.375
813.701	2609.04167
817.317	2646.375
820.931	2620.375
824.542	2649.375
828.149	2620.70833
831.754	2575.04167
835.357	2565.375
838.956	2592.375
842.553	2584.375
846.146	2546.04167
849.737	2545.04167
853.326	2556.375
856.911	2553.04167
860.493	2593.04167
864.073	2597.70833
867.65	2643.04167
871.225	2682.375
874.796	2687.375
878.365	2679.70833
881.931	2709.70833
885.494	2785.04167
889.054	2753.04167
892.612	2763.04167
896.166	2751.375
899.719	2714.375
903.268	2681.375
906.814	2632.04167
910.358	2638.375
913.899	2627.04167
917.438	2626.70833
920.973	2582.375
924.506	2634.70833
928.036	2685.375
931.564	2708.70833
935.088	2744.375
938.61	2739.04167
942.129	2767.04167
945.646	2834.70833
949.16	2891.375
952.671	2954.04167
956.179	3000.375
959.685	2978.375
963.188	2958.04167
966.688	2888.375
970.185	2851.375
973.68	2773.375
977.173	2750.70833
980.662	2730.375
984.149	2756.04167
987.633	2752.70833
991.114	2810.70833
994.593	2875.04167
998.069	2969.04167
1001.542	3052.375
1005.013	2953.04167
1008.481	2791.70833
1011.947	2746.70833
1015.409	2715.375
1018.869	2742.70833
1022.327	2728.04167
1025.782	2711.375
1029.234	2736.04167
1032.683	2705.70833
1036.13	2599.375
1039.574	2504.70833
1043.016	2434.375
1046.455	2388.04167
1049.891	2365.70833
1053.325	2361.04167
1056.756	2363.04167
1060.184	2410.04167
1063.61	2403.04167
1067.033	2400.04167
1070.454	2397.375
1073.872	2459.375
1077.287	2442.70833
1080.7	2452.04167
1084.11	2436.375
1087.517	2425.04167
1090.922	2400.04167
1094.325	2370.70833
1097.724	2349.375
1101.122	2343.04167
1104.516	2359.70833
1107.908	2353.375
1111.298	2367.70833
1114.684	2424.70833
1118.069	2461.375
1121.45	2472.70833
1124.83	2471.70833
1128.206	2511.70833
1131.58	2537.70833
1134.951	2620.375
1138.32	2692.04167
1141.687	2803.70833
1145.05	2872.375
1148.412	2890.70833
1151.77	2869.70833
1155.126	2851.04167
1158.48	2857.70833
1161.831	2885.70833
1165.18	2892.375
1168.525	2945.375
1171.869	2988.375
1175.21	3017.04167
1178.548	3047.375
1181.884	3080.375
1185.217	3103.375
1188.548	3157.04167
1191.877	3216.70833
1195.202	3295.375
1198.526	3333.70833
1201.846	3356.375
1205.165	3347.375
1208.48	3339.04167
1211.794	3333.375
1215.104	3342.375
1218.413	3343.04167
1221.719	3345.04167
1225.022	3309.70833
1228.323	3247.375
1231.621	3225.375
1234.917	3226.70833
1238.21	3271.375
1241.501	3227.70833
1244.79	3225.04167
1248.076	3214.70833
1251.359	3255.04167
1254.64	3324.70833
1257.919	3339.04167
1261.195	3380.70833
1264.468	3464.70833
1267.74	3537.70833
1271.008	3538.04167
1274.275	3533.04167
1277.538	3488.04167
1280.8	3467.70833
1284.059	3497.70833
1287.315	3503.04167
1290.569	3534.04167
1293.821	3550.04167
1297.07	3575.70833
1300.317	3570.375
1303.562	3567.04167
1306.803	3538.70833
1310.043	3507.70833
1313.28	3459.04167
1316.515	3440.375
1319.747	3395.70833
1322.977	3402.375
1326.204	3318.04167
1329.429	3280.375
1332.652	3248.04167
1335.872	3248.04167
1339.09	3215.04167
1342.306	3222.375
1345.519	3196.375
1348.729	3136.70833
1351.938	3128.04167
1355.144	3078.70833
1358.347	3051.04167
1361.548	3025.04167
1364.747	3036.375
1367.944	3040.375
1371.138	3062.70833
1374.329	3075.375
1377.518	3125.70833
1380.705	3145.70833
1383.89	3132.375
1387.072	3043.04167
1390.252	2907.70833
1393.429	2823.70833
1396.605	2714.04167
1399.777	2638.04167
1402.948	2635.375
1406.116	2608.04167
1409.282	2613.375
1412.445	2620.70833
1415.606	2658.375
1418.765	2696.04167
1421.921	2745.375
1425.075	2812.375
1428.227	2891.375
1431.376	3032.375
1434.524	3150.375
1437.668	3226.70833
1440.811	3260.70833
1443.951	3302.375
1447.089	3289.04167
1450.224	3290.70833
1453.357	3259.04167
1456.488	3245.70833
1459.617	3182.04167
1462.743	3140.375
1465.867	3079.70833
1468.989	3058.375
1472.108	2982.04167
1475.225	2942.375
1478.34	2911.70833
1481.453	2906.04167
1484.563	2927.04167
1487.671	2945.375
1490.776	2998.375
1493.88	3072.70833
1496.981	3125.04167
1500.08	3165.04167
1503.176	3225.70833
1506.271	3273.70833
1509.363	3316.70833
1512.452	3365.375
1515.54	3403.70833
1518.625	3453.375
1521.708	3605.04167
1524.789	3727.375
1527.867	3934.375
1530.944	4143.375
1534.018	4364.70833
1537.089	4503.375
1540.159	4557.04167
1543.226	4499.04167
1546.291	4381.375
1549.354	4269.375
1552.415	4139.04167
1555.473	4017.375
1558.529	3912.375
1561.583	3892.375
1564.634	3851.70833
1567.684	3827.375
1570.731	3835.375
1573.776	3853.70833
1576.819	3898.70833
1579.859	3923.04167
1582.898	3967.70833
1585.934	3986.70833
1588.968	4008.04167
1591.999	3980.70833
1595.029	3992.04167
1598.056	4035.04167
1601.081	4030.70833
1604.104	4015.375
1607.125	3952.70833
1610.144	3866.04167
1613.16	3789.04167
1616.174	3725.70833
1619.186	3622.375
1622.196	3540.70833
1625.203	3432.70833
1628.209	3358.375
1631.212	3371.375
1634.213	3335.70833
1637.212	3314.375
1640.209	3256.04167
1643.203	3160.70833
1646.196	3085.04167
1649.186	2944.04167
1652.174	2886.375
1655.16	2795.70833
1658.144	2732.04167
1661.125	2605.70833
1664.105	2500.375
1667.082	2398.70833
1670.057	2262.04167
1673.03	2111.04167
1676.001	1980.70833
1678.97	1826.375
1681.937	1723.04167
1684.901	1628.04167
1687.863	1572.04167
1690.824	1511.04167
1693.782	1472.04167
1696.738	1413.70833
1699.692	1401.70833
1702.643	1354.375
1705.593	1339.04167
1708.54	1317.04167
1711.486	1320.70833
1714.429	1290.04167
1717.37	1274.375
1720.309	1258.04167
1723.246	1265.375
1726.181	1225.70833
1729.113	1237.04167
1732.044	1215.375
1734.972	1195.70833
1737.899	1194.70833
1740.823	1186.04167
1743.745	1192.375
1746.665	1146.04167
1749.583	1136.375
1752.499	1095.04167
1755.413	1095.04167
1758.325	1071.04167
1761.235	1076.70833
1764.142	1047.375
1767.048	1033.70833
1769.951	1035.70833
1772.852	1027.70833
1775.752	1018.375
1778.649	1016.04167
1781.544	1016.70833
1784.437	990.70833
1787.328	999.04167
1790.217	992.04167
1793.104	967.375
1795.989	971.70833
1798.872	959.04167
1801.753	975.375
1804.631	980.375
1807.508	992.375
1810.383	959.04167
1813.255	965.375
1816.126	961.375
1818.994	947.375
1821.861	939.375
1824.725	954.70833
1827.587	940.04167
1830.448	934.04167
1833.306	920.375
1836.162	926.70833
1839.017	903.04167
1841.869	907.375
1844.719	903.70833
1847.567	899.70833
1850.414	900.04167
1853.258	907.375
1856.1	909.04167
1858.94	914.70833
1861.778	902.375
1864.614	882.375
1867.448	905.04167
1870.28	885.375
1873.111	895.375
1875.939	900.04167
1878.765	910.04167
1881.589	882.04167
1884.411	891.70833
1887.231	885.70833
1890.049	874.04167
1892.865	880.70833
1895.68	870.04167
1898.492	877.70833
1901.302	873.04167
1904.11	860.70833
1906.916	854.04167
1909.721	852.70833
1912.523	875.04167
1915.323	838.04167
1918.122	851.70833
1920.918	846.04167
1923.712	849.70833
1926.505	852.70833
1929.295	820.375
1932.084	845.70833
1934.87	836.04167
1937.655	839.04167
1940.438	834.375
1943.218	833.375
1945.997	853.375
1948.774	846.375
1951.549	839.70833
1954.322	827.04167
1957.093	824.04167
1959.862	833.04167
1962.629	827.375
1965.394	812.70833
1968.157	806.70833
1970.918	815.04167
1973.678	816.70833
1976.435	820.70833
1979.19	796.70833
1981.944	799.04167
1984.696	790.375
1987.445	778.04167
1990.193	787.04167
1992.939	812.375
1995.683	805.70833
1998.425	779.70833
2001.165	813.04167
2003.903	787.375
2006.639	783.70833
2009.374	793.04167
2012.106	790.70833
2014.837	768.70833
2017.566	788.04167
2020.292	784.375
2023.017	783.375
2025.74	783.70833
2028.461	780.375
2031.18	775.04167
2033.898	762.375
2036.613	778.70833
2039.327	769.375
2042.038	757.375
2044.748	774.375
2047.456	765.70833
2050.162	749.04167
2052.866	747.70833
2055.568	757.04167
2058.268	748.70833
2060.967	762.04167
2063.663	743.375
2066.358	761.04167
2069.051	743.375
2071.742	749.375
2074.431	748.70833
2077.118	759.70833
2079.804	729.70833
2082.487	763.04167
2085.169	767.375
2087.849	768.04167
2090.527	756.70833
2093.203	764.04167
2095.877	783.375
2098.55	766.70833
2101.22	780.04167
2103.889	789.70833
2106.556	790.04167
2109.221	820.375
2111.884	843.375
2114.546	906.70833
2117.205	968.375
2119.863	1060.04167
2122.519	1126.04167
2125.173	1200.04167
2127.825	1291.70833
2130.475	1293.70833
2133.124	1270.375
2135.771	1207.375
2138.416	1151.04167
2141.059	1064.70833
2143.7	1034.04167
2146.339	953.04167
2148.977	915.04167
2151.613	884.04167
2154.247	855.70833
2156.879	828.375
2159.51	817.70833
2162.138	798.70833
2164.765	809.375
2167.39	778.375
2170.013	794.04167
2172.634	791.70833
2175.254	765.04167
2177.872	794.04167
2180.488	757.375
2183.102	752.375
2185.714	744.70833
2188.325	720.70833
2190.934	724.04167
2193.541	733.70833
2196.146	713.70833
2198.75	707.04167
2201.351	708.04167
2203.951	681.375
2206.549	700.04167
2209.146	685.70833
2211.74	690.375
2214.333	699.375
2216.924	661.04167
2219.514	675.70833
2222.101	671.70833
2224.687	686.70833
2227.271	668.70833
2229.853	662.70833
2232.433	651.375
2235.012	677.375
2237.589	672.375
2240.164	671.375
2242.738	653.04167
2245.309	636.70833
2247.879	657.70833
2250.448	653.04167
2253.014	632.375
2255.579	623.375
2258.142	628.375
2260.703	622.04167
2263.262	630.04167
2265.82	620.375
2268.376	616.04167
2270.93	607.04167
2273.483	606.375
2276.033	612.70833
2278.583	605.70833
2281.13	597.04167
2283.675	591.375
2286.219	606.04167
2288.761	600.04167
2291.302	608.375
2293.841	607.375
2296.377	584.70833
2298.913	598.04167
2301.446	610.70833
2303.978	595.04167
2306.508	593.04167
2309.037	585.04167
2311.563	588.375
2314.088	602.70833
2316.612	575.375
2319.133	592.375
2321.653	582.04167
2324.171	572.04167
2326.688	590.70833
2329.202	578.70833
2331.715	582.04167
2334.227	569.375
2336.736	569.375
2339.244	566.04167
2341.751	557.375
2344.255	573.375
2346.758	556.70833
2349.259	557.375
2351.759	562.375
2354.257	553.70833
2356.753	557.70833
2359.247	560.04167
2361.74	570.70833
2364.231	564.70833
2366.721	569.70833
2369.209	562.04167
2371.695	555.04167
2374.179	546.70833
2376.662	553.375
2379.143	570.70833
2381.622	545.70833
2384.1	558.375
2386.576	546.04167
2389.051	570.70833
2391.524	569.375
2393.995	563.04167
2396.464	551.70833
2398.932	548.70833
2401.398	548.04167
2403.863	544.04167
2406.325	540.70833
2408.787	550.375
2411.246	546.375
2413.704	546.375
2416.16	541.70833
2418.615	551.70833
2421.068	551.375
2423.519	541.04167
2425.969	531.70833
2428.417	546.70833
2430.863	570.70833
2433.308	560.375
2435.751	553.04167
2438.193	551.04167
2440.633	550.375
2443.071	546.375
2445.508	534.04167
2447.943	529.70833
2450.376	536.375
2452.808	543.70833
2455.238	529.70833
2457.667	554.375
2460.093	545.04167
2462.519	523.375
2464.942	532.70833
2467.365	532.04167
2469.785	542.70833
2472.204	536.04167
2474.621	515.04167
2477.037	544.70833
2479.451	527.04167
2481.863	520.04167
2484.274	522.375
2486.683	530.70833
2489.091	525.04167
2491.497	530.04167
2493.901	521.375
2496.304	526.70833
2498.705	538.70833
2501.105	528.375
2503.503	543.70833
2505.899	518.375
2508.294	553.04167
2510.687	520.70833
2513.079	521.375
2515.469	517.04167
2517.858	521.375
2520.245	535.375
2522.63	528.70833
2525.014	520.70833
2527.396	525.375
2529.776	513.375
2532.156	527.375
2534.533	509.70833
2536.909	510.70833
2539.283	519.70833
2541.656	518.04167
2544.027	547.375
2546.397	529.375
2548.765	523.04167
2551.131	523.04167
2553.496	527.04167
2555.86	526.70833
2558.221	516.375
2560.582	517.70833
2562.94	503.70833
2565.298	512.375
2567.653	537.04167
2570.007	511.70833
2572.36	523.70833
2574.711	521.04167
2577.06	529.375
2579.408	527.375
2581.754	527.04167
2584.099	521.04167
2586.442	521.70833
2588.784	529.375
2591.124	516.70833
2593.463	517.375
2595.8	514.70833
2598.135	510.04167
2600.469	518.04167
2602.802	531.70833
2605.133	538.04167
2607.462	513.70833
2609.79	513.70833
2612.116	521.70833
2614.441	513.70833
2616.764	526.375
2619.086	530.04167
2621.406	519.04167
2623.725	530.04167
2626.042	523.375
2628.358	513.375
2630.672	522.70833
2632.985	539.375
2635.296	537.70833
2637.606	534.70833
2639.914	524.04167
2642.22	532.70833
2644.525	536.375
2646.829	538.375
2649.131	557.04167
2651.432	547.70833
2653.731	541.04167
2656.028	551.70833
2658.324	546.375
2660.619	539.375
2662.912	559.70833
2665.204	536.375
2667.494	559.70833
2669.782	541.70833
2672.07	561.375
2674.355	560.04167
2676.639	549.375
2678.922	546.70833
2681.203	562.04167
2683.483	537.70833
2685.761	543.04167
2688.038	564.04167
2690.313	564.04167
2692.587	564.375
2694.859	557.375
2697.13	565.04167
2699.399	567.04167
2701.667	576.375
2703.933	578.70833
2706.198	576.70833
2708.461	584.04167
2710.723	597.375
2712.984	581.375
2715.243	588.375
2717.5	586.375
2719.757	602.70833
2722.011	595.70833
2724.264	607.375
2726.516	619.04167
2728.766	604.04167
2731.015	618.70833
2733.262	610.04167
2735.508	603.70833
2737.753	596.70833
2739.996	590.375
2742.237	590.70833
2744.477	607.04167
2746.716	611.375
2748.953	592.375
2751.189	599.04167
2753.423	582.375
2755.656	587.04167
2757.887	588.04167
2760.117	583.375
2762.346	572.70833
2764.573	583.375
2766.798	574.375
2769.022	582.70833
2771.245	594.375
2773.467	595.70833
2775.686	588.70833
2777.905	596.04167
2780.122	604.375
2782.337	608.04167
2784.552	602.04167
2786.764	616.375
2788.976	599.375
2791.186	613.04167
2793.394	636.70833
2795.601	636.04167
2797.807	644.70833
2800.011	648.70833
2802.214	661.04167
2804.415	664.04167
2806.615	674.375
2808.814	680.70833
2811.011	687.70833
2813.206	681.375
2815.401	694.70833
2817.594	728.04167
2819.785	732.375
2821.975	713.04167
2824.164	727.375
2826.351	745.04167
2828.537	761.375
2830.722	782.70833
2832.905	771.04167
2835.086	796.70833
2837.267	852.04167
2839.445	880.375
2841.623	879.04167
2843.799	921.70833
2845.974	960.70833
2848.147	994.04167
2850.319	1010.70833
2852.489	1051.70833
2854.659	1059.375
2856.826	1083.70833
2858.993	1098.375
2861.158	1097.04167
2863.321	1094.04167
2865.483	1108.04167
2867.644	1117.04167
2869.804	1106.04167
2871.962	1109.04167
2874.118	1113.70833
2876.274	1086.375
2878.428	1105.375
2880.58	1086.04167
2882.731	1073.04167
2884.881	1092.375
2887.03	1102.04167
2889.177	1087.375
2891.322	1111.04167
2893.467	1095.375
2895.61	1099.70833
2897.751	1121.04167
2899.892	1105.375
2902.03	1116.375
2904.168	1142.375
2906.304	1134.04167
2908.439	1169.70833
2910.572	1148.04167
2912.704	1158.375
2914.835	1147.04167
2916.965	1148.70833
2919.093	1161.04167
2921.219	1135.70833
2923.345	1147.04167
2925.469	1126.70833
2927.591	1117.04167
2929.712	1077.04167
2931.832	1082.04167
2933.951	1056.04167
2936.068	1027.375
2938.184	1013.375
2940.299	981.375
2942.412	957.375
2944.524	932.70833
2946.634	914.04167
2948.744	855.70833
2950.851	890.375
2952.958	842.375
2955.063	820.70833
2957.167	816.70833
2959.269	788.04167
2961.371	800.04167
2963.471	762.375
2965.569	775.375
2967.666	750.375
2969.762	738.04167
2971.857	708.04167
2973.95	697.70833
2976.042	686.70833
2978.133	671.70833
2980.222	662.375
2982.31	646.70833
2984.396	622.375
2986.482	621.375
2988.566	625.70833
2990.648	608.70833
2992.73	601.70833
2994.81	588.70833
2996.889	596.70833
2998.966	586.04167
3001.042	590.04167
3003.117	586.04167
3005.191	585.375
3007.263	575.04167
3009.334	575.04167
3011.403	570.04167
3013.472	542.04167
3015.539	556.04167
3017.604	563.70833
3019.669	531.04167
3021.732	539.70833
3023.794	526.375
3025.854	517.04167
3027.914	515.375
3029.971	531.04167
3032.028	515.375
3034.083	521.04167
3036.137	514.04167
3038.19	496.70833
3040.242	483.70833
3042.292	470.04167
3044.341	465.04167
3046.388	480.04167
3048.435	450.375
3050.48	476.04167
3052.524	461.375
3054.566	432.70833
3056.607	454.70833
3058.647	437.70833
3060.686	415.375
3062.723	419.04167
3064.759	400.04167
3066.794	0.70833
3068.828	0.375
3070.86	-2.29167
