-0.839	463.79167
3.438	492.45833
7.711	140.125
11.981	54.79167
16.247	46.79167
20.509	45.79167
24.768	46.45833
29.024	44.45833
33.276	42.125
37.524	48.45833
41.769	40.45833
46.01	37.79167
50.247	50.45833
54.481	63.45833
58.712	65.45833
62.939	50.125
67.162	60.125
71.382	54.79167
75.599	44.125
79.812	62.79167
84.021	80.45833
88.227	57.45833
92.429	64.125
96.628	46.45833
100.823	67.125
105.015	75.79167
109.204	76.125
113.388	78.125
117.57	76.45833
121.748	87.79167
125.922	80.79167
130.093	96.45833
134.261	106.45833
138.425	100.79167
142.585	137.45833
146.742	135.125
150.896	167.125
155.046	206.79167
159.193	325.125
163.336	553.125
167.476	1030.125
171.613	1886.125
175.746	3174.125
179.875	4722.79167
184.002	6135.79167
188.124	7143.79167
192.244	7415.125
196.36	7309.125
200.472	7045.79167
204.581	6804.125
208.687	6580.45833
212.79	6447.125
216.889	6406.125
220.984	6433.125
225.077	6415.79167
229.165	6472.45833
233.251	6449.45833
237.333	6442.45833
241.412	6362.79167
245.487	6353.45833
249.559	6241.79167
253.628	6169.79167
257.694	6135.79167
261.756	6101.125
265.814	5995.125
269.87	5835.79167
273.922	5684.45833
277.97	5646.79167
282.016	5578.45833
286.058	5569.45833
290.097	5671.45833
294.132	5725.79167
298.164	5706.45833
302.193	5418.45833
306.219	5016.79167
310.241	4556.79167
314.26	4160.45833
318.276	3789.125
322.288	3538.79167
326.297	3339.125
330.303	3203.125
334.305	3089.45833
338.305	3009.125
342.301	2972.45833
346.294	2929.45833
350.283	2901.45833
354.269	2881.45833
358.252	2840.79167
362.232	2835.45833
366.209	2815.79167
370.182	2771.125
374.152	2759.79167
378.119	2761.79167
382.083	2746.45833
386.043	2766.79167
390	2724.79167
393.954	2703.79167
397.905	2693.45833
401.852	2677.125
405.797	2640.45833
409.738	2621.125
413.676	2620.45833
417.61	2590.79167
421.542	2581.45833
425.47	2528.79167
429.396	2520.79167
433.318	2490.79167
437.236	2481.45833
441.152	2498.125
445.065	2463.79167
448.974	2442.125
452.88	2406.45833
456.783	2396.125
460.683	2372.79167
464.58	2388.45833
468.473	2397.45833
472.364	2384.125
476.251	2400.125
480.135	2399.45833
484.016	2457.79167
487.894	2449.125
491.769	2466.45833
495.641	2485.79167
499.509	2451.125
503.375	2480.45833
507.237	2473.45833
511.096	2473.125
514.952	2528.125
518.805	2572.79167
522.655	2630.79167
526.502	2500.125
530.346	2434.79167
534.187	2431.45833
538.024	2446.125
541.859	2457.79167
545.69	2463.45833
549.519	2443.45833
553.344	2407.125
557.166	2388.79167
560.985	2362.125
564.802	2353.45833
568.615	2305.125
572.425	2281.79167
576.232	2240.125
580.036	2264.45833
583.836	2253.45833
587.634	2249.79167
591.429	2259.45833
595.221	2314.125
599.01	2333.45833
602.796	2367.125
606.578	2371.125
610.358	2367.79167
614.135	2358.45833
617.909	2365.45833
621.679	2354.79167
625.447	2320.79167
629.212	2325.45833
632.973	2326.125
636.732	2334.45833
640.488	2314.79167
644.241	2288.125
647.991	2302.125
651.737	2327.45833
655.481	2289.45833
659.222	2301.45833
662.96	2273.45833
666.695	2315.125
670.427	2342.45833
674.156	2340.79167
677.882	2343.125
681.605	2336.45833
685.325	2291.79167
689.043	2300.45833
692.757	2268.125
696.468	2297.125
700.177	2288.79167
703.882	2286.125
707.585	2272.79167
711.284	2273.79167
714.981	2290.79167
718.675	2317.45833
722.366	2308.79167
726.054	2272.45833
729.739	2273.79167
733.421	2303.79167
737.1	2297.125
740.777	2322.45833
744.45	2342.45833
748.121	2351.45833
751.789	2382.45833
755.453	2377.79167
759.115	2367.45833
762.774	2400.125
766.431	2437.45833
770.084	2464.45833
773.734	2487.125
777.382	2521.79167
781.027	2521.45833
784.669	2562.45833
788.308	2565.45833
791.944	2583.125
795.577	2606.125
799.208	2658.125
802.835	2652.79167
806.46	2655.79167
810.082	2679.45833
813.701	2691.45833
817.317	2714.45833
820.931	2729.125
824.542	2728.125
828.149	2682.125
831.754	2666.125
835.357	2661.79167
838.956	2638.125
842.553	2638.45833
846.146	2618.45833
849.737	2603.125
853.326	2623.125
856.911	2621.45833
860.493	2665.79167
864.073	2675.79167
867.65	2695.125
871.225	2748.79167
874.796	2754.125
878.365	2782.79167
881.931	2800.45833
885.494	2807.125
889.054	2806.79167
892.612	2816.125
896.166	2810.125
899.719	2780.125
903.268	2748.45833
906.814	2709.125
910.358	2699.125
913.899	2689.79167
917.438	2696.45833
920.973	2663.79167
924.506	2727.79167
928.036	2749.79167
931.564	2775.125
935.088	2782.125
938.61	2791.45833
942.129	2842.125
945.646	2931.125
949.16	2995.125
952.671	3035.125
956.179	3052.79167
959.685	3057.125
963.188	3013.79167
966.688	2985.79167
970.185	2922.125
973.68	2849.125
977.173	2834.45833
980.662	2816.79167
984.149	2824.125
987.633	2817.79167
991.114	2857.45833
994.593	2933.79167
998.069	3057.125
1001.542	3131.79167
1005.013	3061.79167
1008.481	2881.79167
1011.947	2811.45833
1015.409	2805.45833
1018.869	2816.125
1022.327	2802.45833
1025.782	2802.79167
1029.234	2815.45833
1032.683	2759.45833
1036.13	2668.45833
1039.574	2571.45833
1043.016	2502.79167
1046.455	2453.125
1049.891	2428.125
1053.325	2436.125
1056.756	2431.79167
1060.184	2459.45833
1063.61	2480.45833
1067.033	2485.79167
1070.454	2443.125
1073.872	2505.79167
1077.287	2502.79167
1080.7	2520.45833
1084.11	2520.125
1087.517	2513.45833
1090.922	2465.125
1094.325	2455.79167
1097.724	2425.125
1101.122	2410.125
1104.516	2407.79167
1107.908	2421.45833
1111.298	2447.125
1114.684	2485.79167
1118.069	2503.79167
1121.45	2521.125
1124.83	2525.45833
1128.206	2544.125
1131.58	2603.45833
1134.951	2666.45833
1138.32	2741.79167
1141.687	2838.45833
1145.05	2918.45833
1148.412	2954.125
1151.77	2932.79167
1155.126	2944.79167
1158.48	2929.45833
1161.831	2939.79167
1165.18	2958.45833
1168.525	2988.79167
1171.869	3036.45833
1175.21	3039.79167
1178.548	3094.45833
1181.884	3126.79167
1185.217	3183.79167
1188.548	3206.125
1191.877	3262.125
1195.202	3341.45833
1198.526	3377.45833
1201.846	3394.125
1205.165	3403.79167
1208.48	3389.125
1211.794	3377.79167
1215.104	3421.45833
1218.413	3399.125
1221.719	3379.45833
1225.022	3346.45833
1228.323	3314.45833
1231.621	3298.45833
1234.917	3276.125
1238.21	3292.79167
1241.501	3292.79167
1244.79	3301.79167
1248.076	3324.45833
1251.359	3316.79167
1254.64	3391.125
1257.919	3394.79167
1261.195	3444.125
1264.468	3520.45833
1267.74	3570.79167
1271.008	3597.45833
1274.275	3575.79167
1277.538	3516.79167
1280.8	3513.79167
1284.059	3557.125
1287.315	3588.79167
1290.569	3598.125
1293.821	3605.45833
1297.07	3636.125
1300.317	3620.125
1303.562	3626.79167
1306.803	3593.45833
1310.043	3564.125
1313.28	3510.79167
1316.515	3491.125
1319.747	3439.125
1322.977	3432.125
1326.204	3373.45833
1329.429	3348.79167
1332.652	3347.79167
1335.872	3315.45833
1339.09	3281.79167
1342.306	3292.125
1345.519	3251.45833
1348.729	3220.125
1351.938	3197.45833
1355.144	3140.125
1358.347	3103.79167
1361.548	3128.45833
1364.747	3159.79167
1367.944	3082.79167
1371.138	3119.45833
1374.329	3155.79167
1377.518	3192.79167
1380.705	3226.125
1383.89	3183.79167
1387.072	3117.45833
1390.252	2973.125
1393.429	2880.79167
1396.605	2806.45833
1399.777	2702.45833
1402.948	2710.79167
1406.116	2675.79167
1409.282	2679.45833
1412.445	2669.45833
1415.606	2720.79167
1418.765	2757.125
1421.921	2806.45833
1425.075	2864.45833
1428.227	2980.45833
1431.376	3097.45833
1434.524	3222.45833
1437.668	3305.125
1440.811	3333.45833
1443.951	3333.79167
1447.089	3368.79167
1450.224	3359.125
1453.357	3310.45833
1456.488	3325.79167
1459.617	3245.45833
1462.743	3202.45833
1465.867	3119.45833
1468.989	3095.125
1472.108	3038.125
1475.225	2959.125
1478.34	2959.125
1481.453	2958.45833
1484.563	2939.125
1487.671	3011.45833
1490.776	3025.79167
1493.88	3097.45833
1496.981	3166.79167
1500.08	3228.79167
1503.176	3252.125
1506.271	3308.125
1509.363	3348.79167
1512.452	3400.125
1515.54	3462.79167
1518.625	3485.79167
1521.708	3636.79167
1524.789	3786.79167
1527.867	3950.79167
1530.944	4178.125
1534.018	4384.79167
1537.089	4546.125
1540.159	4588.45833
1543.226	4534.45833
1546.291	4421.45833
1549.354	4312.45833
1552.415	4166.79167
1555.473	4058.79167
1558.529	3989.79167
1561.583	3930.45833
1564.634	3855.45833
1567.684	3860.45833
1570.731	3862.125
1573.776	3892.45833
1576.819	3909.79167
1579.859	3952.45833
1582.898	4011.45833
1585.934	4025.125
1588.968	4022.45833
1591.999	4020.79167
1595.029	4010.125
1598.056	4042.45833
1601.081	4087.45833
1604.104	4054.79167
1607.125	4008.45833
1610.144	3908.125
1613.16	3828.45833
1616.174	3742.45833
1619.186	3671.45833
1622.196	3555.45833
1625.203	3485.125
1628.209	3408.79167
1631.212	3419.79167
1634.213	3406.79167
1637.212	3372.125
1640.209	3317.45833
1643.203	3262.125
1646.196	3144.45833
1649.186	3034.45833
1652.174	2936.79167
1655.16	2862.125
1658.144	2812.79167
1661.125	2665.45833
1664.105	2541.125
1667.082	2431.125
1670.057	2323.79167
1673.03	2153.45833
1676.001	2021.79167
1678.97	1878.79167
1681.937	1771.125
1684.901	1675.45833
1687.863	1603.45833
1690.824	1532.79167
1693.782	1514.125
1696.738	1461.125
1699.692	1431.125
1702.643	1396.79167
1705.593	1367.125
1708.54	1355.125
1711.486	1340.45833
1714.429	1317.125
1717.37	1305.45833
1720.309	1292.45833
1723.246	1301.125
1726.181	1261.45833
1729.113	1278.125
1732.044	1245.79167
1734.972	1246.125
1737.899	1255.45833
1740.823	1229.125
1743.745	1236.45833
1746.665	1182.125
1749.583	1167.45833
1752.499	1143.125
1755.413	1143.125
1758.325	1110.125
1761.235	1116.125
1764.142	1092.45833
1767.048	1079.79167
1769.951	1086.45833
1772.852	1047.79167
1775.752	1053.45833
1778.649	1053.125
1781.544	1054.79167
1784.437	1037.125
1787.328	1046.45833
1790.217	1048.125
1793.104	1014.125
1795.989	1012.125
1798.872	993.79167
1801.753	1013.125
1804.631	1014.125
1807.508	1014.125
1810.383	1010.125
1813.255	995.79167
1816.126	985.79167
1818.994	993.125
1821.861	985.79167
1824.725	988.79167
1827.587	974.45833
1830.448	972.45833
1833.306	946.79167
1836.162	964.79167
1839.017	952.45833
1841.869	953.125
1844.719	944.45833
1847.567	927.125
1850.414	930.79167
1853.258	931.125
1856.1	949.79167
1858.94	950.125
1861.778	939.45833
1864.614	916.79167
1867.448	931.45833
1870.28	923.45833
1873.111	935.79167
1875.939	922.125
1878.765	944.45833
1881.589	924.125
1884.411	930.45833
1887.231	930.79167
1890.049	916.125
1892.865	917.125
1895.68	892.45833
1898.492	908.45833
1901.302	892.125
1904.11	896.79167
1906.916	892.125
1909.721	885.79167
1912.523	886.125
1915.323	855.79167
1918.122	865.79167
1920.918	893.125
1923.712	861.45833
1926.505	864.45833
1929.295	864.45833
1932.084	880.125
1934.87	872.45833
1937.655	858.79167
1940.438	852.79167
1943.218	878.79167
1945.997	864.125
1948.774	878.79167
1951.549	876.79167
1954.322	851.79167
1957.093	859.45833
1959.862	855.79167
1962.629	846.45833
1965.394	852.125
1968.157	830.79167
1970.918	844.125
1973.678	839.79167
1976.435	837.125
1979.19	838.125
1981.944	825.125
1984.696	833.79167
1987.445	810.45833
1990.193	817.45833
1992.939	843.79167
1995.683	820.79167
1998.425	802.79167
2001.165	844.45833
2003.903	812.79167
2006.639	811.79167
2009.374	817.79167
2012.106	819.79167
2014.837	790.125
2017.566	810.79167
2020.292	810.45833
2023.017	819.125
2025.74	810.45833
2028.461	802.79167
2031.18	804.45833
2033.898	791.45833
2036.613	814.45833
2039.327	798.45833
2042.038	774.125
2044.748	791.45833
2047.456	798.125
2050.162	771.45833
2052.866	789.79167
2055.568	794.45833
2058.268	775.79167
2060.967	787.45833
2063.663	764.45833
2066.358	786.45833
2069.051	755.79167
2071.742	783.79167
2074.431	780.125
2077.118	766.79167
2079.804	771.125
2082.487	781.79167
2085.169	786.125
2087.849	788.45833
2090.527	777.45833
2093.203	788.125
2095.877	780.79167
2098.55	801.125
2101.22	811.45833
2103.889	810.45833
2106.556	820.45833
2109.221	836.45833
2111.884	871.79167
2114.546	921.45833
2117.205	972.79167
2119.863	1079.125
2122.519	1145.125
2125.173	1235.125
2127.825	1308.79167
2130.475	1325.125
2133.124	1292.45833
2135.771	1239.125
2138.416	1182.45833
2141.059	1102.45833
2143.7	1057.79167
2146.339	969.79167
2148.977	920.79167
2151.613	921.79167
2154.247	884.125
2156.879	856.45833
2159.51	848.79167
2162.138	832.45833
2164.765	807.45833
2167.39	799.125
2170.013	812.45833
2172.634	802.45833
2175.254	793.125
2177.872	803.125
2180.488	772.125
2183.102	780.79167
2185.714	753.45833
2188.325	745.45833
2190.934	745.125
2193.541	744.125
2196.146	740.79167
2198.75	712.45833
2201.351	722.45833
2203.951	709.79167
2206.549	725.45833
2209.146	707.79167
2211.74	708.125
2214.333	705.45833
2216.924	684.45833
2219.514	703.125
2222.101	686.45833
2224.687	709.125
2227.271	691.45833
2229.853	676.79167
2232.433	665.125
2235.012	691.45833
2237.589	689.125
2240.164	689.45833
2242.738	677.79167
2245.309	673.125
2247.879	672.79167
2250.448	670.79167
2253.014	646.125
2255.579	643.45833
2258.142	638.45833
2260.703	649.45833
2263.262	639.79167
2265.82	632.125
2268.376	642.45833
2270.93	623.125
2273.483	624.125
2276.033	627.45833
2278.583	618.79167
2281.13	628.45833
2283.675	607.45833
2286.219	618.79167
2288.761	613.125
2291.302	623.79167
2293.841	618.79167
2296.377	588.79167
2298.913	607.125
2301.446	618.45833
2303.978	611.125
2306.508	602.125
2309.037	601.45833
2311.563	601.45833
2314.088	620.79167
2316.612	586.45833
2319.133	596.125
2321.653	599.79167
2324.171	586.45833
2326.688	596.45833
2329.202	593.45833
2331.715	596.79167
2334.227	590.45833
2336.736	594.125
2339.244	583.125
2341.751	576.45833
2344.255	590.125
2346.758	580.45833
2349.259	569.125
2351.759	571.125
2354.257	575.79167
2356.753	557.45833
2359.247	570.125
2361.74	577.125
2364.231	563.79167
2366.721	582.45833
2369.209	568.45833
2371.695	556.79167
2374.179	560.125
2376.662	564.125
2379.143	586.79167
2381.622	563.125
2384.1	569.125
2386.576	565.125
2389.051	583.79167
2391.524	583.125
2393.995	581.125
2396.464	565.45833
2398.932	574.125
2401.398	561.45833
2403.863	555.125
2406.325	558.79167
2408.787	554.79167
2411.246	570.45833
2413.704	561.45833
2416.16	556.45833
2418.615	552.45833
2421.068	570.125
2423.519	559.45833
2425.969	545.125
2428.417	562.79167
2430.863	578.125
2433.308	564.45833
2435.751	564.125
2438.193	554.45833
2440.633	557.125
2443.071	555.79167
2445.508	551.45833
2447.943	545.79167
2450.376	543.79167
2452.808	545.79167
2455.238	541.79167
2457.667	578.45833
2460.093	544.45833
2462.519	537.125
2464.942	546.125
2467.365	559.45833
2469.785	542.125
2472.204	545.45833
2474.621	541.45833
2477.037	569.125
2479.451	520.125
2481.863	538.125
2484.274	534.79167
2486.683	541.45833
2489.091	543.125
2491.497	543.125
2493.901	549.45833
2496.304	539.125
2498.705	546.125
2501.105	540.125
2503.503	566.45833
2505.899	532.79167
2508.294	561.125
2510.687	528.79167
2513.079	537.45833
2515.469	525.79167
2517.858	535.125
2520.245	554.45833
2522.63	537.79167
2525.014	514.79167
2527.396	530.125
2529.776	520.125
2532.156	542.79167
2534.533	529.45833
2536.909	522.79167
2539.283	517.125
2541.656	530.45833
2544.027	541.79167
2546.397	545.79167
2548.765	533.45833
2551.131	542.79167
2553.496	529.125
2555.86	541.79167
2558.221	533.125
2560.582	530.79167
2562.94	519.79167
2565.298	525.79167
2567.653	548.79167
2570.007	521.45833
2572.36	530.125
2574.711	524.79167
2577.06	549.45833
2579.408	535.45833
2581.754	526.45833
2584.099	531.79167
2586.442	518.125
2588.784	533.45833
2591.124	532.125
2593.463	537.125
2595.8	537.125
2598.135	521.125
2600.469	528.79167
2602.802	553.45833
2605.133	539.79167
2607.462	530.79167
2609.79	527.45833
2612.116	535.79167
2614.441	529.125
2616.764	535.45833
2619.086	538.125
2621.406	524.79167
2623.725	542.79167
2626.042	539.125
2628.358	532.79167
2630.672	530.125
2632.985	549.125
2635.296	543.45833
2637.606	551.45833
2639.914	528.125
2642.22	540.125
2644.525	532.45833
2646.829	550.79167
2649.131	561.45833
2651.432	550.79167
2653.731	547.125
2656.028	562.125
2658.324	555.125
2660.619	538.125
2662.912	560.125
2665.204	551.79167
2667.494	566.45833
2669.782	550.79167
2672.07	564.45833
2674.355	575.125
2676.639	550.45833
2678.922	552.125
2681.203	566.45833
2683.483	554.125
2685.761	549.45833
2688.038	565.125
2690.313	565.45833
2692.587	573.45833
2694.859	554.125
2697.13	568.45833
2699.399	570.125
2701.667	581.79167
2703.933	593.45833
2706.198	590.45833
2708.461	588.125
2710.723	592.125
2712.984	590.125
2715.243	617.45833
2717.5	594.45833
2719.757	611.45833
2722.011	597.79167
2724.264	610.79167
2726.516	633.45833
2728.766	614.45833
2731.015	609.45833
2733.262	608.125
2735.508	609.125
2737.753	612.45833
2739.996	585.45833
2742.237	600.79167
2744.477	599.45833
2746.716	609.45833
2748.953	598.45833
2751.189	613.125
2753.423	581.45833
2755.656	579.45833
2757.887	590.45833
2760.117	600.79167
2762.346	576.125
2764.573	571.45833
2766.798	593.125
2769.022	590.125
2771.245	590.79167
2773.467	599.79167
2775.686	593.125
2777.905	595.125
2780.122	605.45833
2782.337	611.79167
2784.552	617.79167
2786.764	615.125
2788.976	621.45833
2791.186	622.45833
2793.394	616.125
2795.601	652.125
2797.807	642.79167
2800.011	664.45833
2802.214	666.79167
2804.415	675.79167
2806.615	664.125
2808.814	675.79167
2811.011	678.45833
2813.206	683.79167
2815.401	709.45833
2817.594	719.125
2819.785	728.79167
2821.975	717.125
2824.164	731.79167
2826.351	748.79167
2828.537	760.79167
2830.722	778.45833
2832.905	784.79167
2835.086	820.125
2837.267	851.125
2839.445	879.125
2841.623	889.45833
2843.799	931.45833
2845.974	971.125
2848.147	993.45833
2850.319	1034.79167
2852.489	1051.45833
2854.659	1057.45833
2856.826	1082.79167
2858.993	1110.125
2861.158	1089.45833
2863.321	1101.79167
2865.483	1113.79167
2867.644	1113.45833
2869.804	1106.45833
2871.962	1098.79167
2874.118	1106.125
2876.274	1094.45833
2878.428	1106.125
2880.58	1089.45833
2882.731	1085.79167
2884.881	1095.125
2887.03	1097.125
2889.177	1099.125
2891.322	1112.79167
2893.467	1096.79167
2895.61	1104.45833
2897.751	1132.45833
2899.892	1125.45833
2902.03	1130.79167
2904.168	1138.125
2906.304	1142.79167
2908.439	1170.125
2910.572	1129.125
2912.704	1170.45833
2914.835	1156.45833
2916.965	1170.125
2919.093	1162.125
2921.219	1129.79167
2923.345	1166.79167
2925.469	1115.79167
2927.591	1119.125
2929.712	1074.79167
2931.832	1086.79167
2933.951	1055.45833
2936.068	1035.45833
2938.184	1012.79167
2940.299	990.79167
2942.412	970.45833
2944.524	920.125
2946.634	914.125
2948.744	861.125
2950.851	888.45833
2952.958	841.45833
2955.063	827.79167
2957.167	829.45833
2959.269	792.79167
2961.371	806.125
2963.471	777.125
2965.569	786.79167
2967.666	740.45833
2969.762	730.45833
2971.857	717.125
2973.95	703.125
2976.042	697.79167
2978.133	673.45833
2980.222	669.79167
2982.31	648.45833
2984.396	616.45833
2986.482	624.79167
2988.566	624.79167
2990.648	607.79167
2992.73	616.45833
2994.81	591.79167
2996.889	592.79167
2998.966	598.45833
3001.042	594.79167
3003.117	591.79167
3005.191	580.79167
3007.263	577.45833
3009.334	574.125
3011.403	582.79167
3013.472	552.45833
3015.539	555.125
3017.604	560.125
3019.669	525.125
3021.732	520.79167
3023.794	530.79167
3025.854	518.45833
3027.914	512.45833
3029.971	525.79167
3032.028	521.79167
3034.083	524.125
3036.137	514.125
3038.19	492.45833
3040.242	479.79167
3042.292	471.79167
3044.341	470.45833
3046.388	476.125
3048.435	458.45833
3050.48	472.45833
3052.524	471.125
3054.566	448.125
3056.607	458.45833
3058.647	455.45833
3060.686	426.45833
3062.723	416.125
3064.759	394.125
3066.794	-0.875
3068.828	-0.875
3070.86	-2.875
