-0.839	448.83333
3.438	484.16667
7.711	135.16667
11.981	56.5
16.247	46.83333
20.509	44.83333
24.768	42.5
29.024	43.5
33.276	43.83333
37.524	51.16667
41.769	40.16667
46.01	36.83333
50.247	52.16667
54.481	63.5
58.712	69.5
62.939	48.16667
67.162	60.83333
71.382	60.16667
75.599	46.83333
79.812	66.16667
84.021	79.83333
88.227	57.83333
92.429	64.5
96.628	46.5
100.823	66.5
105.015	78.16667
109.204	73.16667
113.388	80.16667
117.57	71.83333
121.748	85.16667
125.922	76.83333
130.093	97.16667
134.261	104.83333
138.425	99.83333
142.585	144.16667
146.742	140.16667
150.896	171.5
155.046	201.16667
159.193	323.5
163.336	553.83333
167.476	1021.16667
171.613	1879.83333
175.746	3155.16667
179.875	4699.83333
184.002	6120.5
188.124	7071.83333
192.244	7397.5
196.36	7236.16667
200.472	6992.5
204.581	6785.83333
208.687	6546.83333
212.79	6435.83333
216.889	6437.83333
220.984	6444.83333
225.077	6432.5
229.165	6496.5
233.251	6476.83333
237.333	6480.83333
241.412	6399.5
245.487	6316.5
249.559	6329.83333
253.628	6252.83333
257.694	6176.5
261.756	6172.5
265.814	6065.16667
269.87	5935.5
273.922	5843.83333
277.97	5808.83333
282.016	5843.16667
286.058	5905.16667
290.097	6051.5
294.132	6123.5
298.164	6098.83333
302.193	5820.16667
306.219	5414.16667
310.241	4932.5
314.26	4427.16667
318.276	4064.16667
322.288	3754.83333
326.297	3523.5
330.303	3366.83333
334.305	3221.5
338.305	3143.83333
342.301	3079.83333
346.294	3048.83333
350.283	3012.5
354.269	2963.16667
358.252	2929.5
362.232	2898.83333
366.209	2910.16667
370.182	2856.5
374.152	2844.16667
378.119	2855.16667
382.083	2833.16667
386.043	2838.83333
390	2799.5
393.954	2776.5
397.905	2776.16667
401.852	2763.83333
405.797	2698.5
409.738	2708.83333
413.676	2678.83333
417.61	2641.5
421.542	2629.5
425.47	2607.5
429.396	2588.83333
433.318	2589.5
437.236	2577.16667
441.152	2570.16667
445.065	2528.83333
448.974	2504.16667
452.88	2474.16667
456.783	2477.16667
460.683	2457.83333
464.58	2470.83333
468.473	2446.5
472.364	2473.83333
476.251	2464.5
480.135	2502.5
484.016	2505.16667
487.894	2534.16667
491.769	2530.16667
495.641	2552.16667
499.509	2545.16667
503.375	2562.16667
507.237	2559.83333
511.096	2554.83333
514.952	2642.16667
518.805	2753.16667
522.655	2811.83333
526.502	2638.83333
530.346	2530.83333
534.187	2546.5
538.024	2537.16667
541.859	2528.83333
545.69	2559.5
549.519	2523.83333
553.344	2524.5
557.166	2473.83333
560.985	2463.83333
564.802	2422.16667
568.615	2399.5
572.425	2348.16667
576.232	2338.5
580.036	2337.5
583.836	2330.16667
587.634	2340.83333
591.429	2339.5
595.221	2392.83333
599.01	2408.16667
602.796	2439.16667
606.578	2456.5
610.358	2469.5
614.135	2452.16667
617.909	2452.16667
621.679	2422.83333
625.447	2428.83333
629.212	2430.5
632.973	2433.16667
636.732	2410.5
640.488	2414.83333
644.241	2397.5
647.991	2371.16667
651.737	2390.83333
655.481	2366.5
659.222	2362.5
662.96	2350.5
666.695	2379.16667
670.427	2411.83333
674.156	2411.5
677.882	2412.83333
681.605	2415.16667
685.325	2384.83333
689.043	2415.16667
692.757	2378.16667
696.468	2392.5
700.177	2398.16667
703.882	2369.16667
707.585	2380.16667
711.284	2397.5
714.981	2397.5
718.675	2386.5
722.366	2425.83333
726.054	2404.16667
729.739	2393.16667
733.421	2399.5
737.1	2417.5
740.777	2431.83333
744.45	2444.16667
748.121	2452.83333
751.789	2507.5
755.453	2494.16667
759.115	2515.5
762.774	2546.5
766.431	2544.5
770.084	2573.16667
773.734	2608.83333
777.382	2670.5
781.027	2689.16667
784.669	2708.83333
788.308	2711.83333
791.944	2737.83333
795.577	2775.16667
799.208	2790.5
802.835	2794.83333
806.46	2812.5
810.082	2831.83333
813.701	2833.5
817.317	2866.83333
820.931	2849.5
824.542	2843.83333
828.149	2828.5
831.754	2807.5
835.357	2827.16667
838.956	2813.5
842.553	2805.16667
846.146	2804.5
849.737	2778.16667
853.326	2799.5
856.911	2785.5
860.493	2842.5
864.073	2864.5
867.65	2909.5
871.225	2953.16667
874.796	2946.16667
878.365	2968.16667
881.931	2989.5
885.494	3022.16667
889.054	3023.83333
892.612	3010.5
896.166	3017.16667
899.719	2973.5
903.268	2939.83333
906.814	2911.16667
910.358	2894.83333
913.899	2858.83333
917.438	2893.5
920.973	2873.16667
924.506	2906.83333
928.036	2928.16667
931.564	2970.5
935.088	2976.5
938.61	3008.16667
942.129	3046.16667
945.646	3133.83333
949.16	3180.5
952.671	3240.5
956.179	3235.16667
959.685	3195.5
963.188	3173.16667
966.688	3101.16667
970.185	3023.83333
973.68	2993.16667
977.173	2945.83333
980.662	2932.5
984.149	2951.83333
987.633	2952.5
991.114	3001.5
994.593	3068.5
998.069	3191.5
1001.542	3285.5
1005.013	3211.83333
1008.481	3026.5
1011.947	2996.16667
1015.409	2977.5
1018.869	3001.5
1022.327	2981.16667
1025.782	2955.83333
1029.234	2973.5
1032.683	2937.5
1036.13	2843.83333
1039.574	2747.16667
1043.016	2678.16667
1046.455	2622.5
1049.891	2603.83333
1053.325	2630.83333
1056.756	2615.5
1060.184	2644.5
1063.61	2670.16667
1067.033	2663.83333
1070.454	2673.83333
1073.872	2708.5
1077.287	2699.5
1080.7	2689.83333
1084.11	2728.5
1087.517	2710.83333
1090.922	2684.83333
1094.325	2628.16667
1097.724	2611.5
1101.122	2611.83333
1104.516	2612.5
1107.908	2614.5
1111.298	2663.5
1114.684	2693.16667
1118.069	2725.5
1121.45	2760.83333
1124.83	2746.5
1128.206	2784.5
1131.58	2816.5
1134.951	2907.83333
1138.32	2980.83333
1141.687	3102.16667
1145.05	3154.83333
1148.412	3171.83333
1151.77	3178.83333
1155.126	3172.16667
1158.48	3151.5
1161.831	3180.83333
1165.18	3219.5
1168.525	3254.5
1171.869	3312.83333
1175.21	3308.5
1178.548	3342.5
1181.884	3376.16667
1185.217	3394.16667
1188.548	3457.5
1191.877	3505.5
1195.202	3570.16667
1198.526	3662.16667
1201.846	3666.5
1205.165	3675.5
1208.48	3667.83333
1211.794	3648.83333
1215.104	3677.16667
1218.413	3688.16667
1221.719	3661.83333
1225.022	3600.5
1228.323	3601.16667
1231.621	3581.16667
1234.917	3581.5
1238.21	3608.16667
1241.501	3583.83333
1244.79	3622.83333
1248.076	3620.16667
1251.359	3651.83333
1254.64	3722.83333
1257.919	3707.83333
1261.195	3758.16667
1264.468	3843.83333
1267.74	3893.5
1271.008	3897.5
1274.275	3868.83333
1277.538	3862.83333
1280.8	3851.16667
1284.059	3839.5
1287.315	3902.83333
1290.569	3916.16667
1293.821	3916.16667
1297.07	3951.16667
1300.317	3931.16667
1303.562	3955.83333
1306.803	3918.83333
1310.043	3847.16667
1313.28	3790.16667
1316.515	3762.16667
1319.747	3742.5
1322.977	3686.16667
1326.204	3640.5
1329.429	3583.5
1332.652	3570.5
1335.872	3548.16667
1339.09	3508.83333
1342.306	3534.83333
1345.519	3483.83333
1348.729	3447.5
1351.938	3422.83333
1355.144	3407.5
1358.347	3356.5
1361.548	3358.83333
1364.747	3371.83333
1367.944	3364.83333
1371.138	3391.83333
1374.329	3429.83333
1377.518	3466.5
1380.705	3510.83333
1383.89	3474.5
1387.072	3408.83333
1390.252	3248.16667
1393.429	3156.5
1396.605	3076.16667
1399.777	2999.83333
1402.948	2985.83333
1406.116	2977.83333
1409.282	2992.16667
1412.445	2959.83333
1415.606	3011.16667
1418.765	3071.5
1421.921	3109.16667
1425.075	3202.5
1428.227	3274.16667
1431.376	3408.5
1434.524	3517.5
1437.668	3608.5
1440.811	3643.16667
1443.951	3655.16667
1447.089	3644.16667
1450.224	3659.5
1453.357	3628.5
1456.488	3593.16667
1459.617	3550.83333
1462.743	3499.16667
1465.867	3407.16667
1468.989	3355.16667
1472.108	3296.5
1475.225	3231.16667
1478.34	3201.16667
1481.453	3219.5
1484.563	3209.5
1487.671	3257.83333
1490.776	3315.16667
1493.88	3371.5
1496.981	3441.83333
1500.08	3499.5
1503.176	3535.5
1506.271	3597.83333
1509.363	3674.16667
1512.452	3709.16667
1515.54	3779.16667
1518.625	3872.5
1521.708	3999.16667
1524.789	4135.5
1527.867	4360.83333
1530.944	4609.16667
1534.018	4866.5
1537.089	5053.5
1540.159	5062.16667
1543.226	5016.16667
1546.291	4830.5
1549.354	4747.83333
1552.415	4597.5
1555.473	4424.16667
1558.529	4360.5
1561.583	4327.83333
1564.634	4242.16667
1567.684	4246.5
1570.731	4231.16667
1573.776	4251.83333
1576.819	4254.16667
1579.859	4289.83333
1582.898	4338.16667
1585.934	4347.16667
1588.968	4373.83333
1591.999	4358.5
1595.029	4366.5
1598.056	4387.83333
1601.081	4399.83333
1604.104	4384.83333
1607.125	4341.16667
1610.144	4251.5
1613.16	4161.5
1616.174	4057.83333
1619.186	3944.5
1622.196	3840.5
1625.203	3735.5
1628.209	3677.5
1631.212	3601.83333
1634.213	3560.83333
1637.212	3511.5
1640.209	3444.5
1643.203	3389.5
1646.196	3277.5
1649.186	3186.83333
1652.174	3102.83333
1655.16	2995.5
1658.144	2906.5
1661.125	2783.16667
1664.105	2655.5
1667.082	2553.83333
1670.057	2430.5
1673.03	2298.16667
1676.001	2146.83333
1678.97	2021.16667
1681.937	1895.83333
1684.901	1812.5
1687.863	1750.83333
1690.824	1693.16667
1693.782	1659.83333
1696.738	1591.5
1699.692	1551.5
1702.643	1525.83333
1705.593	1505.16667
1708.54	1491.16667
1711.486	1482.16667
1714.429	1457.16667
1717.37	1449.5
1720.309	1417.83333
1723.246	1410.83333
1726.181	1379.83333
1729.113	1384.5
1732.044	1358.5
1734.972	1369.5
1737.899	1362.83333
1740.823	1347.16667
1743.745	1325.16667
1746.665	1293.83333
1749.583	1278.83333
1752.499	1263.83333
1755.413	1239.5
1758.325	1194.16667
1761.235	1206.83333
1764.142	1190.16667
1767.048	1188.16667
1769.951	1174.16667
1772.852	1162.5
1775.752	1152.5
1778.649	1149.16667
1781.544	1151.16667
1784.437	1119.83333
1787.328	1131.16667
1790.217	1126.16667
1793.104	1091.83333
1795.989	1094.16667
1798.872	1085.83333
1801.753	1110.5
1804.631	1095.16667
1807.508	1099.16667
1810.383	1097.83333
1813.255	1081.83333
1816.126	1076.16667
1818.994	1089.16667
1821.861	1068.5
1824.725	1066.16667
1827.587	1068.5
1830.448	1060.16667
1833.306	1035.83333
1836.162	1062.83333
1839.017	1041.83333
1841.869	1040.5
1844.719	1029.83333
1847.567	1019.5
1850.414	1008.16667
1853.258	1018.16667
1856.1	1041.16667
1858.94	1039.5
1861.778	1021.5
1864.614	1009.16667
1867.448	1019.16667
1870.28	1008.83333
1873.111	1037.16667
1875.939	1023.16667
1878.765	1035.16667
1881.589	1019.83333
1884.411	1020.83333
1887.231	1020.5
1890.049	990.16667
1892.865	1011.83333
1895.68	990.16667
1898.492	991.16667
1901.302	982.16667
1904.11	994.16667
1906.916	961.83333
1909.721	972.83333
1912.523	987.5
1915.323	947.83333
1918.122	956.16667
1920.918	971.5
1923.712	969.5
1926.505	972.83333
1929.295	960.16667
1932.084	973.5
1934.87	963.16667
1937.655	958.16667
1940.438	963.5
1943.218	961.16667
1945.997	962.5
1948.774	972.16667
1951.549	967.5
1954.322	944.5
1957.093	957.5
1959.862	936.16667
1962.629	944.5
1965.394	928.83333
1968.157	925.5
1970.918	939.83333
1973.678	925.83333
1976.435	934.5
1979.19	916.16667
1981.944	914.5
1984.696	910.83333
1987.445	901.16667
1990.193	906.83333
1992.939	924.83333
1995.683	928.5
1998.425	896.83333
2001.165	933.83333
2003.903	903.5
2006.639	900.16667
2009.374	897.83333
2012.106	903.83333
2014.837	886.16667
2017.566	909.16667
2020.292	898.16667
2023.017	904.83333
2025.74	881.83333
2028.461	889.83333
2031.18	893.83333
2033.898	879.5
2036.613	879.83333
2039.327	895.16667
2042.038	876.83333
2044.748	874.5
2047.456	872.16667
2050.162	868.83333
2052.866	880.83333
2055.568	882.83333
2058.268	867.83333
2060.967	864.5
2063.663	858.16667
2066.358	859.83333
2069.051	854.5
2071.742	864.83333
2074.431	882.16667
2077.118	865.16667
2079.804	859.83333
2082.487	855.83333
2085.169	885.5
2087.849	888.83333
2090.527	882.16667
2093.203	874.5
2095.877	900.83333
2098.55	898.16667
2101.22	908.5
2103.889	920.16667
2106.556	925.5
2109.221	965.16667
2111.884	1002.83333
2114.546	1096.16667
2117.205	1178.5
2119.863	1282.5
2122.519	1364.5
2125.173	1456.83333
2127.825	1536.5
2130.475	1522.5
2133.124	1483.83333
2135.771	1402.83333
2138.416	1338.83333
2141.059	1245.5
2143.7	1213.16667
2146.339	1127.5
2148.977	1055.5
2151.613	1046.16667
2154.247	1004.5
2156.879	973.16667
2159.51	936.16667
2162.138	919.16667
2164.765	906.5
2167.39	894.16667
2170.013	905.5
2172.634	890.16667
2175.254	869.83333
2177.872	898.5
2180.488	852.83333
2183.102	857.83333
2185.714	846.83333
2188.325	829.16667
2190.934	845.16667
2193.541	833.5
2196.146	822.83333
2198.75	809.83333
2201.351	820.16667
2203.951	799.16667
2206.549	823.5
2209.146	796.5
2211.74	786.83333
2214.333	798.16667
2216.924	776.16667
2219.514	785.83333
2222.101	767.5
2224.687	788.16667
2227.271	765.83333
2229.853	769.83333
2232.433	747.5
2235.012	769.5
2237.589	761.83333
2240.164	772.16667
2242.738	766.83333
2245.309	750.83333
2247.879	752.83333
2250.448	767.5
2253.014	741.16667
2255.579	722.5
2258.142	732.16667
2260.703	721.83333
2263.262	713.5
2265.82	721.83333
2268.376	718.83333
2270.93	711.16667
2273.483	708.83333
2276.033	706.83333
2278.583	700.16667
2281.13	694.83333
2283.675	694.16667
2286.219	690.83333
2288.761	701.5
2291.302	699.83333
2293.841	698.16667
2296.377	680.5
2298.913	677.16667
2301.446	694.16667
2303.978	687.5
2306.508	681.5
2309.037	684.5
2311.563	689.5
2314.088	694.83333
2316.612	658.16667
2319.133	679.16667
2321.653	676.5
2324.171	666.5
2326.688	678.83333
2329.202	666.5
2331.715	665.16667
2334.227	667.5
2336.736	654.16667
2339.244	665.16667
2341.751	643.5
2344.255	652.83333
2346.758	661.16667
2349.259	645.5
2351.759	655.5
2354.257	646.5
2356.753	641.16667
2359.247	644.16667
2361.74	655.5
2364.231	645.83333
2366.721	657.83333
2369.209	641.5
2371.695	646.5
2374.179	639.5
2376.662	642.16667
2379.143	649.5
2381.622	638.83333
2384.1	643.16667
2386.576	638.5
2389.051	654.83333
2391.524	655.5
2393.995	656.5
2396.464	631.5
2398.932	631.5
2401.398	627.16667
2403.863	625.83333
2406.325	634.5
2408.787	639.83333
2411.246	637.5
2413.704	621.83333
2416.16	622.16667
2418.615	631.5
2421.068	645.5
2423.519	633.5
2425.969	620.16667
2428.417	643.16667
2430.863	655.5
2433.308	645.83333
2435.751	637.16667
2438.193	631.16667
2440.633	644.5
2443.071	620.83333
2445.508	612.16667
2447.943	622.83333
2450.376	617.5
2452.808	625.5
2455.238	623.83333
2457.667	638.83333
2460.093	626.83333
2462.519	604.83333
2464.942	617.83333
2467.365	629.16667
2469.785	620.83333
2472.204	614.16667
2474.621	601.16667
2477.037	634.16667
2479.451	609.5
2481.863	599.16667
2484.274	608.16667
2486.683	613.83333
2489.091	619.5
2491.497	619.16667
2493.901	617.16667
2496.304	609.16667
2498.705	617.5
2501.105	608.5
2503.503	630.16667
2505.899	595.5
2508.294	619.16667
2510.687	593.16667
2513.079	595.5
2515.469	603.16667
2517.858	605.83333
2520.245	626.5
2522.63	612.83333
2525.014	602.5
2527.396	597.5
2529.776	602.16667
2532.156	614.16667
2534.533	589.5
2536.909	596.83333
2539.283	587.16667
2541.656	601.16667
2544.027	620.83333
2546.397	606.83333
2548.765	607.5
2551.131	596.16667
2553.496	599.5
2555.86	606.16667
2558.221	599.5
2560.582	594.83333
2562.94	578.5
2565.298	590.5
2567.653	628.16667
2570.007	588.5
2572.36	608.83333
2574.711	593.5
2577.06	612.83333
2579.408	593.83333
2581.754	601.83333
2584.099	602.5
2586.442	597.16667
2588.784	606.16667
2591.124	604.16667
2593.463	600.83333
2595.8	599.5
2598.135	590.5
2600.469	590.83333
2602.802	613.5
2605.133	607.16667
2607.462	604.16667
2609.79	592.83333
2612.116	603.83333
2614.441	596.16667
2616.764	608.16667
2619.086	611.16667
2621.406	593.16667
2623.725	610.16667
2626.042	612.83333
2628.358	611.5
2630.672	604.83333
2632.985	622.5
2635.296	609.5
2637.606	622.83333
2639.914	604.83333
2642.22	598.5
2644.525	613.83333
2646.829	611.83333
2649.131	621.5
2651.432	632.5
2653.731	630.83333
2656.028	629.5
2658.324	625.5
2660.619	621.83333
2662.912	644.16667
2665.204	617.16667
2667.494	642.5
2669.782	624.83333
2672.07	642.83333
2674.355	650.5
2676.639	635.16667
2678.922	627.16667
2681.203	638.83333
2683.483	632.5
2685.761	618.5
2688.038	644.16667
2690.313	658.16667
2692.587	651.16667
2694.859	634.5
2697.13	646.83333
2699.399	649.83333
2701.667	670.5
2703.933	665.83333
2706.198	658.83333
2708.461	675.83333
2710.723	671.5
2712.984	673.16667
2715.243	690.16667
2717.5	676.16667
2719.757	691.5
2722.011	687.5
2724.264	692.83333
2726.516	709.16667
2728.766	695.5
2731.015	688.83333
2733.262	691.83333
2735.508	695.16667
2737.753	694.83333
2739.996	670.16667
2742.237	680.16667
2744.477	693.5
2746.716	693.16667
2748.953	679.16667
2751.189	680.5
2753.423	676.5
2755.656	671.5
2757.887	667.5
2760.117	668.83333
2762.346	659.5
2764.573	664.16667
2766.798	669.16667
2769.022	673.83333
2771.245	686.16667
2773.467	673.16667
2775.686	679.5
2777.905	697.16667
2780.122	687.5
2782.337	698.16667
2784.552	709.16667
2786.764	712.83333
2788.976	723.5
2791.186	729.16667
2793.394	731.83333
2795.601	751.83333
2797.807	749.83333
2800.011	753.83333
2802.214	774.83333
2804.415	772.5
2806.615	785.83333
2808.814	810.83333
2811.011	807.83333
2813.206	809.83333
2815.401	828.16667
2817.594	845.83333
2819.785	852.83333
2821.975	828.5
2824.164	849.16667
2826.351	878.83333
2828.537	904.83333
2830.722	923.16667
2832.905	914.83333
2835.086	956.16667
2837.267	986.16667
2839.445	1025.16667
2841.623	1038.5
2843.799	1077.5
2845.974	1105.83333
2848.147	1154.83333
2850.319	1184.16667
2852.489	1205.83333
2854.659	1214.5
2856.826	1247.5
2858.993	1272.16667
2861.158	1250.16667
2863.321	1252.16667
2865.483	1274.83333
2867.644	1276.83333
2869.804	1255.83333
2871.962	1246.16667
2874.118	1258.5
2876.274	1261.83333
2878.428	1231.83333
2880.58	1229.16667
2882.731	1216.5
2884.881	1205.16667
2887.03	1226.16667
2889.177	1236.5
2891.322	1237.5
2893.467	1229.5
2895.61	1235.5
2897.751	1247.16667
2899.892	1257.83333
2902.03	1260.16667
2904.168	1277.5
2906.304	1270.5
2908.439	1287.83333
2910.572	1263.16667
2912.704	1292.5
2914.835	1272.16667
2916.965	1287.16667
2919.093	1279.16667
2921.219	1253.16667
2923.345	1269.83333
2925.469	1241.5
2927.591	1222.5
2929.712	1187.5
2931.832	1186.16667
2933.951	1154.83333
2936.068	1125.83333
2938.184	1110.83333
2940.299	1066.16667
2942.412	1050.5
2944.524	1017.83333
2946.634	1004.83333
2948.744	940.83333
2950.851	974.16667
2952.958	916.83333
2955.063	906.16667
2957.167	875.83333
2959.269	856.5
2961.371	888.16667
2963.471	831.5
2965.569	839.5
2967.666	796.5
2969.762	789.83333
2971.857	777.83333
2973.95	749.83333
2976.042	749.16667
2978.133	734.83333
2980.222	716.5
2982.31	693.5
2984.396	681.16667
2986.482	674.5
2988.566	664.5
2990.648	660.83333
2992.73	656.83333
2994.81	646.5
2996.889	657.16667
2998.966	635.5
3001.042	640.5
3003.117	633.83333
3005.191	631.16667
3007.263	628.16667
3009.334	623.83333
3011.403	614.5
3013.472	593.5
3015.539	596.16667
3017.604	600.5
3019.669	553.5
3021.732	566.83333
3023.794	572.5
3025.854	559.5
3027.914	550.83333
3029.971	562.16667
3032.028	555.5
3034.083	548.5
3036.137	543.5
3038.19	522.83333
3040.242	517.83333
3042.292	499.16667
3044.341	487.83333
3046.388	509.83333
3048.435	471.83333
3050.48	509.83333
3052.524	493.83333
3054.566	475.5
3056.607	486.16667
3058.647	463.5
3060.686	453.5
3062.723	436.16667
3064.759	423.5
3066.794	-1.5
3068.828	-2.5
3070.86	-1.16667
