-0.839	478.20833
3.438	519.875
7.711	144.875
11.981	59.54167
16.247	46.20833
20.509	43.54167
24.768	45.875
29.024	45.54167
33.276	44.54167
37.524	48.875
41.769	38.54167
46.01	40.54167
50.247	52.54167
54.481	64.20833
58.712	70.54167
62.939	47.875
67.162	66.875
71.382	58.20833
75.599	45.875
79.812	62.875
84.021	82.20833
88.227	61.875
92.429	65.20833
96.628	49.20833
100.823	64.875
105.015	79.54167
109.204	72.875
113.388	77.875
117.57	69.875
121.748	88.20833
125.922	82.54167
130.093	96.20833
134.261	107.54167
138.425	99.20833
142.585	138.54167
146.742	137.875
150.896	163.54167
155.046	200.20833
159.193	306.20833
163.336	539.875
167.476	997.20833
171.613	1812.20833
175.746	3024.54167
179.875	4567.875
184.002	5895.54167
188.124	6839.20833
192.244	7131.20833
196.36	7049.875
200.472	6780.20833
204.581	6592.875
208.687	6366.20833
212.79	6274.54167
216.889	6228.20833
220.984	6276.875
225.077	6273.20833
229.165	6312.20833
233.251	6317.54167
237.333	6289.875
241.412	6243.20833
245.487	6217.20833
249.559	6151.20833
253.628	6103.54167
257.694	6054.875
261.756	6033.20833
265.814	5919.20833
269.87	5784.54167
273.922	5666.875
277.97	5693.20833
282.016	5691.875
286.058	5771.20833
290.097	5908.54167
294.132	5968.54167
298.164	5952.875
302.193	5692.20833
306.219	5271.54167
310.241	4807.54167
314.26	4344.20833
318.276	3959.875
322.288	3680.875
326.297	3442.54167
330.303	3270.54167
334.305	3142.54167
338.305	3073.20833
342.301	3032.20833
346.294	2963.54167
350.283	2912.54167
354.269	2903.54167
358.252	2869.20833
362.232	2848.20833
366.209	2814.54167
370.182	2796.875
374.152	2777.875
378.119	2767.20833
382.083	2744.54167
386.043	2790.54167
390	2723.875
393.954	2719.875
397.905	2688.20833
401.852	2669.54167
405.797	2646.54167
409.738	2626.54167
413.676	2608.875
417.61	2598.20833
421.542	2567.20833
425.47	2555.54167
429.396	2509.875
433.318	2498.54167
437.236	2480.875
441.152	2504.20833
445.065	2445.20833
448.974	2460.875
452.88	2406.20833
456.783	2410.20833
460.683	2385.875
464.58	2383.20833
468.473	2403.875
472.364	2410.54167
476.251	2404.875
480.135	2418.54167
484.016	2442.54167
487.894	2462.54167
491.769	2461.875
495.641	2466.20833
499.509	2477.875
503.375	2475.20833
507.237	2501.54167
511.096	2500.54167
514.952	2589.54167
518.805	2719.875
522.655	2748.20833
526.502	2588.20833
530.346	2477.20833
534.187	2464.54167
538.024	2447.54167
541.859	2454.54167
545.69	2460.20833
549.519	2474.20833
553.344	2450.875
557.166	2432.875
560.985	2376.875
564.802	2364.875
568.615	2331.20833
572.425	2299.54167
576.232	2267.20833
580.036	2265.875
583.836	2276.20833
587.634	2275.54167
591.429	2275.20833
595.221	2314.54167
599.01	2352.875
602.796	2386.875
606.578	2375.20833
610.358	2403.54167
614.135	2369.875
617.909	2381.20833
621.679	2357.875
625.447	2340.20833
629.212	2361.54167
632.973	2371.20833
636.732	2362.875
640.488	2345.875
644.241	2328.875
647.991	2303.875
651.737	2332.54167
655.481	2293.875
659.222	2299.54167
662.96	2290.54167
666.695	2318.54167
670.427	2339.54167
674.156	2345.20833
677.882	2341.20833
681.605	2345.875
685.325	2322.875
689.043	2321.54167
692.757	2322.20833
696.468	2342.54167
700.177	2338.875
703.882	2336.875
707.585	2333.20833
711.284	2321.54167
714.981	2314.875
718.675	2307.54167
722.366	2361.875
726.054	2338.54167
729.739	2345.54167
733.421	2353.20833
737.1	2342.54167
740.777	2360.875
744.45	2377.20833
748.121	2392.54167
751.789	2445.875
755.453	2441.20833
759.115	2457.875
762.774	2472.20833
766.431	2494.54167
770.084	2517.875
773.734	2533.54167
777.382	2596.875
781.027	2618.875
784.669	2632.875
788.308	2635.20833
791.944	2670.875
795.577	2677.54167
799.208	2695.20833
802.835	2721.875
806.46	2757.875
810.082	2762.875
813.701	2750.54167
817.317	2788.875
820.931	2782.20833
824.542	2762.54167
828.149	2765.875
831.754	2751.54167
835.357	2725.54167
838.956	2747.875
842.553	2731.20833
846.146	2732.20833
849.737	2733.20833
853.326	2727.875
856.911	2735.54167
860.493	2801.20833
864.073	2791.54167
867.65	2839.54167
871.225	2893.54167
874.796	2891.54167
878.365	2911.875
881.931	2925.54167
885.494	2940.54167
889.054	2952.54167
892.612	2944.54167
896.166	2981.54167
899.719	2904.54167
903.268	2890.54167
906.814	2844.875
910.358	2820.875
913.899	2816.54167
917.438	2820.20833
920.973	2792.54167
924.506	2840.20833
928.036	2878.54167
931.564	2885.54167
935.088	2930.875
938.61	2929.20833
942.129	2967.20833
945.646	3012.875
949.16	3087.875
952.671	3164.54167
956.179	3181.54167
959.685	3109.54167
963.188	3077.875
966.688	3025.20833
970.185	2941.54167
973.68	2875.875
977.173	2896.875
980.662	2861.20833
984.149	2889.875
987.633	2881.54167
991.114	2916.54167
994.593	3005.20833
998.069	3114.54167
1001.542	3177.54167
1005.013	3154.20833
1008.481	2982.875
1011.947	2916.875
1015.409	2901.875
1018.869	2928.54167
1022.327	2889.875
1025.782	2890.20833
1029.234	2904.20833
1032.683	2861.875
1036.13	2783.875
1039.574	2662.20833
1043.016	2601.875
1046.455	2582.875
1049.891	2535.54167
1053.325	2552.875
1056.756	2563.20833
1060.184	2585.20833
1063.61	2584.20833
1067.033	2613.54167
1070.454	2611.875
1073.872	2630.54167
1077.287	2624.54167
1080.7	2613.20833
1084.11	2649.54167
1087.517	2611.20833
1090.922	2595.875
1094.325	2590.20833
1097.724	2559.20833
1101.122	2554.54167
1104.516	2524.54167
1107.908	2527.54167
1111.298	2583.54167
1114.684	2623.54167
1118.069	2661.20833
1121.45	2677.54167
1124.83	2684.20833
1128.206	2728.20833
1131.58	2756.875
1134.951	2835.20833
1138.32	2932.875
1141.687	3026.20833
1145.05	3081.54167
1148.412	3122.54167
1151.77	3103.54167
1155.126	3104.54167
1158.48	3087.875
1161.831	3129.54167
1165.18	3140.54167
1168.525	3174.20833
1171.869	3217.20833
1175.21	3229.20833
1178.548	3266.20833
1181.884	3293.875
1185.217	3302.20833
1188.548	3357.875
1191.877	3435.20833
1195.202	3502.20833
1198.526	3557.20833
1201.846	3576.875
1205.165	3606.20833
1208.48	3569.20833
1211.794	3542.875
1215.104	3562.875
1218.413	3578.54167
1221.719	3571.20833
1225.022	3531.20833
1228.323	3499.875
1231.621	3521.54167
1234.917	3481.54167
1238.21	3550.875
1241.501	3528.54167
1244.79	3511.875
1248.076	3546.54167
1251.359	3559.20833
1254.64	3613.875
1257.919	3614.875
1261.195	3689.875
1264.468	3774.20833
1267.74	3816.875
1271.008	3816.875
1274.275	3797.20833
1277.538	3754.875
1280.8	3764.875
1284.059	3746.54167
1287.315	3800.54167
1290.569	3814.875
1293.821	3837.54167
1297.07	3842.54167
1300.317	3841.54167
1303.562	3857.20833
1306.803	3800.875
1310.043	3768.54167
1313.28	3717.875
1316.515	3666.875
1319.747	3639.20833
1322.977	3586.20833
1326.204	3528.54167
1329.429	3486.20833
1332.652	3479.54167
1335.872	3484.54167
1339.09	3452.54167
1342.306	3435.20833
1345.519	3412.54167
1348.729	3374.875
1351.938	3326.20833
1355.144	3299.20833
1358.347	3284.20833
1361.548	3267.875
1364.747	3286.875
1367.944	3274.20833
1371.138	3306.875
1374.329	3338.875
1377.518	3392.875
1380.705	3428.875
1383.89	3387.54167
1387.072	3299.54167
1390.252	3178.875
1393.429	3092.875
1396.605	2987.54167
1399.777	2904.20833
1402.948	2914.875
1406.116	2884.54167
1409.282	2906.875
1412.445	2898.54167
1415.606	2959.20833
1418.765	2984.20833
1421.921	3046.20833
1425.075	3123.20833
1428.227	3207.20833
1431.376	3317.875
1434.524	3451.54167
1437.668	3524.54167
1440.811	3544.20833
1443.951	3577.20833
1447.089	3571.875
1450.224	3556.20833
1453.357	3527.875
1456.488	3500.875
1459.617	3439.875
1462.743	3403.54167
1465.867	3341.875
1468.989	3305.54167
1472.108	3225.875
1475.225	3174.20833
1478.34	3131.54167
1481.453	3125.875
1484.563	3132.54167
1487.671	3175.875
1490.776	3237.54167
1493.88	3305.20833
1496.981	3373.54167
1500.08	3435.20833
1503.176	3446.875
1506.271	3518.20833
1509.363	3587.875
1512.452	3614.20833
1515.54	3704.54167
1518.625	3788.875
1521.708	3929.875
1524.789	4068.20833
1527.867	4259.54167
1530.944	4523.875
1534.018	4765.54167
1537.089	4942.54167
1540.159	4967.20833
1543.226	4899.54167
1546.291	4750.875
1549.354	4628.54167
1552.415	4467.875
1555.473	4372.875
1558.529	4253.54167
1561.583	4206.54167
1564.634	4131.20833
1567.684	4154.54167
1570.731	4154.54167
1573.776	4157.875
1576.819	4187.20833
1579.859	4215.54167
1582.898	4226.54167
1585.934	4252.54167
1588.968	4288.875
1591.999	4271.54167
1595.029	4275.54167
1598.056	4297.20833
1601.081	4317.875
1604.104	4274.20833
1607.125	4263.54167
1610.144	4149.20833
1613.16	4060.875
1616.174	3967.20833
1619.186	3831.875
1622.196	3754.20833
1625.203	3649.20833
1628.209	3549.875
1631.212	3545.54167
1634.213	3456.875
1637.212	3448.875
1640.209	3352.20833
1643.203	3251.875
1646.196	3174.54167
1649.186	3080.20833
1652.174	2999.54167
1655.16	2911.54167
1658.144	2838.54167
1661.125	2701.54167
1664.105	2578.875
1667.082	2501.54167
1670.057	2364.20833
1673.03	2223.54167
1676.001	2093.54167
1678.97	1967.54167
1681.937	1840.54167
1684.901	1768.20833
1687.863	1715.54167
1690.824	1637.54167
1693.782	1613.54167
1696.738	1548.54167
1699.692	1518.54167
1702.643	1500.54167
1705.593	1458.20833
1708.54	1453.54167
1711.486	1462.875
1714.429	1414.875
1717.37	1401.20833
1720.309	1373.54167
1723.246	1380.875
1726.181	1338.875
1729.113	1371.875
1732.044	1340.875
1734.972	1308.20833
1737.899	1311.875
1740.823	1310.54167
1743.745	1297.875
1746.665	1259.875
1749.583	1236.20833
1752.499	1210.54167
1755.413	1210.54167
1758.325	1189.875
1761.235	1185.20833
1764.142	1161.875
1767.048	1165.54167
1769.951	1153.875
1772.852	1122.54167
1775.752	1133.54167
1778.649	1120.54167
1781.544	1118.54167
1784.437	1084.54167
1787.328	1095.20833
1790.217	1101.875
1793.104	1069.54167
1795.989	1069.54167
1798.872	1065.54167
1801.753	1088.875
1804.631	1080.20833
1807.508	1075.875
1810.383	1057.875
1813.255	1063.20833
1816.126	1056.20833
1818.994	1051.20833
1821.861	1039.54167
1824.725	1045.875
1827.587	1044.20833
1830.448	1038.54167
1833.306	1010.20833
1836.162	1025.20833
1839.017	1014.875
1841.869	1013.54167
1844.719	1016.54167
1847.567	1000.54167
1850.414	984.20833
1853.258	996.875
1856.1	1003.875
1858.94	1013.20833
1861.778	1006.20833
1864.614	977.54167
1867.448	1005.875
1870.28	987.875
1873.111	1007.54167
1875.939	981.20833
1878.765	1009.20833
1881.589	998.54167
1884.411	988.875
1887.231	993.20833
1890.049	968.54167
1892.865	975.54167
1895.68	964.875
1898.492	959.54167
1901.302	963.875
1904.11	968.54167
1906.916	964.20833
1909.721	953.875
1912.523	965.20833
1915.323	920.20833
1918.122	940.54167
1920.918	942.20833
1923.712	935.54167
1926.505	940.875
1929.295	921.875
1932.084	940.54167
1934.87	946.875
1937.655	930.20833
1940.438	922.875
1943.218	935.54167
1945.997	932.20833
1948.774	947.20833
1951.549	944.875
1954.322	926.20833
1957.093	937.54167
1959.862	908.875
1962.629	921.20833
1965.394	903.875
1968.157	918.20833
1970.918	920.54167
1973.678	904.20833
1976.435	905.54167
1979.19	907.20833
1981.944	903.20833
1984.696	893.875
1987.445	895.20833
1990.193	885.20833
1992.939	903.875
1995.683	901.54167
1998.425	871.875
2001.165	908.20833
2003.903	889.54167
2006.639	866.20833
2009.374	892.20833
2012.106	893.20833
2014.837	871.54167
2017.566	881.20833
2020.292	883.20833
2023.017	873.20833
2025.74	879.20833
2028.461	856.54167
2031.18	877.54167
2033.898	864.875
2036.613	877.875
2039.327	878.875
2042.038	837.20833
2044.748	856.20833
2047.456	857.20833
2050.162	853.20833
2052.866	857.54167
2055.568	857.875
2058.268	852.875
2060.967	856.20833
2063.663	838.875
2066.358	854.875
2069.051	840.54167
2071.742	858.875
2074.431	850.54167
2077.118	862.875
2079.804	833.875
2082.487	853.875
2085.169	862.54167
2087.849	869.875
2090.527	867.20833
2093.203	872.54167
2095.877	879.54167
2098.55	883.875
2101.22	893.20833
2103.889	906.20833
2106.556	913.875
2109.221	947.20833
2111.884	1000.20833
2114.546	1067.20833
2117.205	1157.54167
2119.863	1247.54167
2122.519	1348.54167
2125.173	1425.54167
2127.825	1516.54167
2130.475	1495.20833
2133.124	1451.875
2135.771	1384.54167
2138.416	1308.875
2141.059	1223.875
2143.7	1182.875
2146.339	1083.54167
2148.977	1033.54167
2151.613	1014.20833
2154.247	973.54167
2156.879	960.20833
2159.51	924.20833
2162.138	902.20833
2164.765	902.20833
2167.39	873.875
2170.013	889.20833
2172.634	871.54167
2175.254	854.20833
2177.872	891.875
2180.488	846.54167
2183.102	848.875
2185.714	838.875
2188.325	815.875
2190.934	828.20833
2193.541	817.20833
2196.146	800.54167
2198.75	800.54167
2201.351	795.875
2203.951	793.875
2206.549	798.54167
2209.146	789.20833
2211.74	778.54167
2214.333	786.875
2216.924	756.875
2219.514	781.54167
2222.101	762.875
2224.687	769.875
2227.271	757.54167
2229.853	753.54167
2232.433	751.20833
2235.012	765.54167
2237.589	761.54167
2240.164	772.54167
2242.738	753.54167
2245.309	736.54167
2247.879	745.54167
2250.448	744.875
2253.014	724.20833
2255.579	730.20833
2258.142	723.20833
2260.703	706.54167
2263.262	704.20833
2265.82	718.875
2268.376	706.54167
2270.93	704.54167
2273.483	688.20833
2276.033	697.54167
2278.583	692.54167
2281.13	687.20833
2283.675	682.20833
2286.219	702.54167
2288.761	673.875
2291.302	707.54167
2293.841	699.54167
2296.377	674.875
2298.913	675.20833
2301.446	688.875
2303.978	690.54167
2306.508	672.875
2309.037	677.875
2311.563	676.20833
2314.088	686.875
2316.612	658.875
2319.133	682.54167
2321.653	669.875
2324.171	657.54167
2326.688	681.54167
2329.202	654.54167
2331.715	666.54167
2334.227	666.20833
2336.736	656.875
2339.244	653.54167
2341.751	641.20833
2344.255	658.875
2346.758	642.20833
2349.259	642.875
2351.759	648.54167
2354.257	644.54167
2356.753	639.20833
2359.247	647.875
2361.74	650.875
2364.231	641.54167
2366.721	660.875
2369.209	644.54167
2371.695	645.54167
2374.179	639.54167
2376.662	634.20833
2379.143	655.20833
2381.622	639.54167
2384.1	647.20833
2386.576	632.20833
2389.051	652.54167
2391.524	650.54167
2393.995	653.54167
2396.464	634.875
2398.932	629.20833
2401.398	640.20833
2403.863	637.875
2406.325	643.875
2408.787	627.54167
2411.246	634.875
2413.704	624.54167
2416.16	628.54167
2418.615	639.20833
2421.068	645.875
2423.519	633.875
2425.969	629.875
2428.417	641.875
2430.863	653.20833
2433.308	642.20833
2435.751	632.54167
2438.193	633.54167
2440.633	638.54167
2443.071	635.20833
2445.508	616.20833
2447.943	619.54167
2450.376	618.875
2452.808	632.875
2455.238	619.20833
2457.667	648.20833
2460.093	625.54167
2462.519	607.875
2464.942	618.54167
2467.365	624.54167
2469.785	631.20833
2472.204	624.54167
2474.621	604.54167
2477.037	633.54167
2479.451	605.20833
2481.863	610.20833
2484.274	603.20833
2486.683	613.54167
2489.091	627.20833
2491.497	624.875
2493.901	613.54167
2496.304	611.875
2498.705	627.20833
2501.105	615.875
2503.503	635.54167
2505.899	617.875
2508.294	617.20833
2510.687	614.875
2513.079	613.875
2515.469	606.54167
2517.858	596.875
2520.245	636.54167
2522.63	603.20833
2525.014	606.54167
2527.396	603.875
2529.776	610.54167
2532.156	614.875
2534.533	593.54167
2536.909	612.875
2539.283	591.54167
2541.656	605.875
2544.027	634.54167
2546.397	613.875
2548.765	603.875
2551.131	606.20833
2553.496	618.875
2555.86	611.20833
2558.221	611.875
2560.582	599.875
2562.94	599.54167
2565.298	606.54167
2567.653	616.20833
2570.007	600.20833
2572.36	613.54167
2574.711	614.875
2577.06	622.54167
2579.408	621.875
2581.754	618.875
2584.099	603.20833
2586.442	610.20833
2588.784	624.875
2591.124	616.54167
2593.463	610.20833
2595.8	610.875
2598.135	594.20833
2600.469	611.875
2602.802	624.875
2605.133	624.20833
2607.462	604.54167
2609.79	609.875
2612.116	627.20833
2614.441	612.20833
2616.764	609.20833
2619.086	617.54167
2621.406	614.54167
2623.725	622.54167
2626.042	625.54167
2628.358	620.20833
2630.672	616.875
2632.985	630.54167
2635.296	619.54167
2637.606	633.875
2639.914	620.875
2642.22	620.54167
2644.525	623.20833
2646.829	629.20833
2649.131	646.20833
2651.432	651.20833
2653.731	630.54167
2656.028	647.875
2658.324	646.54167
2660.619	638.54167
2662.912	660.54167
2665.204	632.875
2667.494	653.875
2669.782	638.20833
2672.07	649.875
2674.355	660.875
2676.639	655.20833
2678.922	630.54167
2681.203	652.20833
2683.483	645.54167
2685.761	635.875
2688.038	659.54167
2690.313	672.54167
2692.587	651.20833
2694.859	657.54167
2697.13	665.20833
2699.399	666.875
2701.667	679.54167
2703.933	672.54167
2706.198	684.20833
2708.461	676.20833
2710.723	693.54167
2712.984	695.54167
2715.243	700.54167
2717.5	690.54167
2719.757	715.54167
2722.011	712.875
2724.264	717.875
2726.516	724.54167
2728.766	703.875
2731.015	713.20833
2733.262	719.20833
2735.508	705.20833
2737.753	709.54167
2739.996	688.20833
2742.237	699.54167
2744.477	717.20833
2746.716	714.20833
2748.953	695.54167
2751.189	698.54167
2753.423	679.54167
2755.656	689.20833
2757.887	674.875
2760.117	692.20833
2762.346	682.20833
2764.573	685.54167
2766.798	684.875
2769.022	699.875
2771.245	697.875
2773.467	694.54167
2775.686	703.875
2777.905	714.54167
2780.122	723.54167
2782.337	715.20833
2784.552	718.54167
2786.764	729.875
2788.976	739.54167
2791.186	746.875
2793.394	752.875
2795.601	761.20833
2797.807	777.54167
2800.011	782.20833
2802.214	796.875
2804.415	790.875
2806.615	795.20833
2808.814	809.875
2811.011	837.875
2813.206	825.875
2815.401	829.54167
2817.594	850.875
2819.785	860.875
2821.975	864.54167
2824.164	860.20833
2826.351	888.875
2828.537	915.875
2830.722	925.54167
2832.905	922.875
2835.086	976.20833
2837.267	1006.20833
2839.445	1033.54167
2841.623	1028.875
2843.799	1081.875
2845.974	1131.20833
2848.147	1156.54167
2850.319	1176.20833
2852.489	1229.54167
2854.659	1209.875
2856.826	1251.20833
2858.993	1272.54167
2861.158	1250.54167
2863.321	1239.875
2865.483	1286.54167
2867.644	1272.20833
2869.804	1265.54167
2871.962	1258.54167
2874.118	1261.875
2876.274	1236.20833
2878.428	1240.54167
2880.58	1232.875
2882.731	1225.54167
2884.881	1227.875
2887.03	1232.54167
2889.177	1221.875
2891.322	1249.20833
2893.467	1238.54167
2895.61	1236.54167
2897.751	1270.54167
2899.892	1236.20833
2902.03	1275.20833
2904.168	1273.54167
2906.304	1268.20833
2908.439	1306.20833
2910.572	1282.20833
2912.704	1285.54167
2914.835	1293.20833
2916.965	1288.54167
2919.093	1303.875
2921.219	1250.54167
2923.345	1278.54167
2925.469	1241.875
2927.591	1246.20833
2929.712	1202.875
2931.832	1187.875
2933.951	1169.20833
2936.068	1152.20833
2938.184	1120.54167
2940.299	1093.875
2942.412	1065.54167
2944.524	1015.20833
2946.634	1012.54167
2948.744	953.20833
2950.851	990.20833
2952.958	929.875
2955.063	926.54167
2957.167	893.54167
2959.269	883.54167
2961.371	898.54167
2963.471	849.875
2965.569	859.54167
2967.666	831.875
2969.762	821.20833
2971.857	791.875
2973.95	779.875
2976.042	773.54167
2978.133	741.54167
2980.222	729.54167
2982.31	706.54167
2984.396	689.20833
2986.482	701.20833
2988.566	704.54167
2990.648	685.875
2992.73	671.875
2994.81	671.54167
2996.889	677.54167
2998.966	658.875
3001.042	668.54167
3003.117	660.875
3005.191	654.20833
3007.263	647.875
3009.334	636.875
3011.403	637.20833
3013.472	622.875
3015.539	615.54167
3017.604	632.20833
3019.669	585.20833
3021.732	589.875
3023.794	596.20833
3025.854	579.54167
3027.914	581.20833
3029.971	590.20833
3032.028	569.54167
3034.083	584.54167
3036.137	574.20833
3038.19	553.54167
3040.242	538.54167
3042.292	521.54167
3044.341	526.20833
3046.388	544.875
3048.435	503.54167
3050.48	532.54167
3052.524	518.875
3054.566	497.54167
3056.607	505.875
3058.647	493.20833
3060.686	467.20833
3062.723	459.54167
3064.759	445.54167
3066.794	1.54167
3068.828	-0.125
3070.86	-2.45833
