-0.839	458.625
3.438	512.95833
7.711	136.95833
11.981	53.625
16.247	43.625
20.509	43.95833
24.768	42.625
29.024	46.625
33.276	43.95833
37.524	48.625
41.769	38.625
46.01	33.625
50.247	51.29167
54.481	58.95833
58.712	63.95833
62.939	48.95833
67.162	57.29167
71.382	52.625
75.599	44.29167
79.812	60.625
84.021	80.29167
88.227	55.95833
92.429	61.625
96.628	44.95833
100.823	67.29167
105.015	73.95833
109.204	75.29167
113.388	76.625
117.57	67.625
121.748	85.95833
125.922	78.29167
130.093	94.95833
134.261	99.625
138.425	95.625
142.585	135.95833
146.742	135.95833
150.896	163.29167
155.046	200.625
159.193	314.95833
163.336	546.29167
167.476	1006.95833
171.613	1848.95833
175.746	3147.625
179.875	4617.29167
184.002	6045.625
188.124	7007.625
192.244	7284.95833
196.36	7136.625
200.472	6928.29167
204.581	6692.95833
208.687	6459.625
212.79	6306.95833
216.889	6261.95833
220.984	6246.625
225.077	6304.625
229.165	6301.29167
233.251	6287.29167
237.333	6278.625
241.412	6232.95833
245.487	6133.95833
249.559	6073.95833
253.628	6002.95833
257.694	5958.95833
261.756	5928.95833
265.814	5803.625
269.87	5664.29167
273.922	5483.95833
277.97	5457.95833
282.016	5419.95833
286.058	5420.625
290.097	5548.95833
294.132	5606.625
298.164	5523.29167
302.193	5231.29167
306.219	4860.29167
310.241	4441.95833
314.26	4006.625
318.276	3658.625
322.288	3410.95833
326.297	3206.29167
330.303	3073.29167
334.305	2962.625
338.305	2883.95833
342.301	2832.29167
346.294	2790.95833
350.283	2759.29167
354.269	2732.29167
358.252	2704.29167
362.232	2679.625
366.209	2641.29167
370.182	2621.29167
374.152	2617.625
378.119	2616.625
382.083	2590.95833
386.043	2610.625
390	2553.95833
393.954	2547.29167
397.905	2530.95833
401.852	2516.625
405.797	2498.95833
409.738	2463.29167
413.676	2453.29167
417.61	2416.95833
421.542	2408.29167
425.47	2397.95833
429.396	2362.625
433.318	2362.625
437.236	2348.29167
441.152	2351.95833
445.065	2281.29167
448.974	2307.625
452.88	2244.95833
456.783	2251.95833
460.683	2227.95833
464.58	2244.29167
468.473	2264.625
472.364	2231.625
476.251	2254.29167
480.135	2262.625
484.016	2276.29167
487.894	2303.625
491.769	2306.95833
495.641	2308.625
499.509	2320.625
503.375	2319.625
507.237	2313.625
511.096	2331.625
514.952	2388.29167
518.805	2454.625
522.655	2461.29167
526.502	2353.95833
530.346	2301.95833
534.187	2319.95833
538.024	2318.95833
541.859	2287.625
545.69	2339.625
549.519	2306.95833
553.344	2281.95833
557.166	2263.625
560.985	2229.625
564.802	2196.29167
568.615	2146.95833
572.425	2141.625
576.232	2136.29167
580.036	2108.625
583.836	2127.625
587.634	2121.29167
591.429	2110.95833
595.221	2164.95833
599.01	2200.95833
602.796	2226.95833
606.578	2233.95833
610.358	2247.625
614.135	2225.95833
617.909	2234.625
621.679	2209.625
625.447	2196.625
629.212	2209.95833
632.973	2206.95833
636.732	2176.95833
640.488	2192.95833
644.241	2167.625
647.991	2167.625
651.737	2173.29167
655.481	2156.625
659.222	2166.29167
662.96	2136.625
666.695	2167.29167
670.427	2175.625
674.156	2188.625
677.882	2191.95833
681.605	2183.95833
685.325	2173.95833
689.043	2173.29167
692.757	2139.29167
696.468	2165.625
700.177	2148.625
703.882	2131.625
707.585	2141.29167
711.284	2142.29167
714.981	2161.29167
718.675	2149.625
722.366	2191.29167
726.054	2156.29167
729.739	2153.95833
733.421	2141.95833
737.1	2162.29167
740.777	2179.29167
744.45	2196.29167
748.121	2209.625
751.789	2252.625
755.453	2247.625
759.115	2267.625
762.774	2292.625
766.431	2302.95833
770.084	2344.29167
773.734	2348.29167
777.382	2409.29167
781.027	2419.29167
784.669	2435.625
788.308	2443.95833
791.944	2458.95833
795.577	2484.625
799.208	2496.625
802.835	2521.625
806.46	2533.95833
810.082	2553.29167
813.701	2565.625
817.317	2601.29167
820.931	2573.29167
824.542	2582.29167
828.149	2566.95833
831.754	2523.95833
835.357	2538.95833
838.956	2540.95833
842.553	2533.29167
846.146	2508.625
849.737	2499.625
853.326	2502.95833
856.911	2534.625
860.493	2556.625
864.073	2570.29167
867.65	2619.625
871.225	2629.95833
874.796	2636.95833
878.365	2644.625
881.931	2687.29167
885.494	2702.95833
889.054	2692.625
892.612	2723.29167
896.166	2707.29167
899.719	2681.95833
903.268	2656.29167
906.814	2642.625
910.358	2588.625
913.899	2566.95833
917.438	2567.95833
920.973	2577.95833
924.506	2617.95833
928.036	2649.29167
931.564	2670.29167
935.088	2700.625
938.61	2686.29167
942.129	2745.29167
945.646	2826.29167
949.16	2892.95833
952.671	2953.95833
956.179	2943.95833
959.685	2907.95833
963.188	2902.29167
966.688	2851.29167
970.185	2800.95833
973.68	2749.95833
977.173	2728.29167
980.662	2713.95833
984.149	2732.29167
987.633	2744.95833
991.114	2747.29167
994.593	2836.29167
998.069	2936.29167
1001.542	3000.95833
1005.013	2955.29167
1008.481	2763.625
1011.947	2704.29167
1015.409	2690.625
1018.869	2699.95833
1022.327	2699.95833
1025.782	2693.95833
1029.234	2681.29167
1032.683	2671.29167
1036.13	2562.625
1039.574	2464.625
1043.016	2398.95833
1046.455	2356.625
1049.891	2293.625
1053.325	2358.29167
1056.756	2330.625
1060.184	2358.625
1063.61	2350.29167
1067.033	2376.625
1070.454	2353.29167
1073.872	2422.95833
1077.287	2379.625
1080.7	2398.625
1084.11	2418.95833
1087.517	2392.625
1090.922	2335.29167
1094.325	2353.95833
1097.724	2318.625
1101.122	2326.95833
1104.516	2310.95833
1107.908	2317.625
1111.298	2371.29167
1114.684	2377.625
1118.069	2415.29167
1121.45	2434.29167
1124.83	2447.95833
1128.206	2451.95833
1131.58	2502.95833
1134.951	2574.625
1138.32	2662.625
1141.687	2765.625
1145.05	2864.625
1148.412	2867.29167
1151.77	2857.95833
1155.126	2846.625
1158.48	2878.95833
1161.831	2868.625
1165.18	2888.29167
1168.525	2937.625
1171.869	2983.95833
1175.21	2990.95833
1178.548	3015.625
1181.884	3062.625
1185.217	3059.29167
1188.548	3141.625
1191.877	3185.29167
1195.202	3278.29167
1198.526	3324.29167
1201.846	3336.95833
1205.165	3297.29167
1208.48	3318.625
1211.794	3290.95833
1215.104	3307.95833
1218.413	3312.29167
1221.719	3281.625
1225.022	3269.95833
1228.323	3207.625
1231.621	3225.95833
1234.917	3202.29167
1238.21	3227.625
1241.501	3203.625
1244.79	3197.95833
1248.076	3183.29167
1251.359	3250.29167
1254.64	3305.29167
1257.919	3318.95833
1261.195	3389.95833
1264.468	3444.95833
1267.74	3489.29167
1271.008	3539.95833
1274.275	3474.95833
1277.538	3454.95833
1280.8	3435.29167
1284.059	3460.29167
1287.315	3495.95833
1290.569	3488.95833
1293.821	3529.95833
1297.07	3527.95833
1300.317	3543.29167
1303.562	3525.95833
1306.803	3521.625
1310.043	3476.95833
1313.28	3426.29167
1316.515	3402.29167
1319.747	3356.95833
1322.977	3323.29167
1326.204	3295.625
1329.429	3254.29167
1332.652	3190.625
1335.872	3213.95833
1339.09	3193.95833
1342.306	3159.29167
1345.519	3113.29167
1348.729	3111.29167
1351.938	3070.95833
1355.144	3040.625
1358.347	3006.95833
1361.548	3018.625
1364.747	3015.625
1367.944	2988.29167
1371.138	3005.29167
1374.329	3048.95833
1377.518	3089.29167
1380.705	3099.95833
1383.89	3095.625
1387.072	3006.625
1390.252	2878.95833
1393.429	2789.95833
1396.605	2694.625
1399.777	2618.625
1402.948	2601.95833
1406.116	2581.29167
1409.282	2611.29167
1412.445	2594.625
1415.606	2637.625
1418.765	2665.29167
1421.921	2732.625
1425.075	2806.625
1428.227	2883.95833
1431.376	2993.29167
1434.524	3122.95833
1437.668	3204.95833
1440.811	3246.95833
1443.951	3272.95833
1447.089	3273.95833
1450.224	3259.625
1453.357	3219.29167
1456.488	3201.29167
1459.617	3166.29167
1462.743	3107.95833
1465.867	3055.29167
1468.989	3028.625
1472.108	2957.29167
1475.225	2904.95833
1478.34	2892.95833
1481.453	2869.95833
1484.563	2886.625
1487.671	2937.95833
1490.776	2982.625
1493.88	3028.29167
1496.981	3139.95833
1500.08	3178.29167
1503.176	3196.29167
1506.271	3231.95833
1509.363	3299.95833
1512.452	3337.625
1515.54	3414.95833
1518.625	3458.29167
1521.708	3554.625
1524.789	3710.29167
1527.867	3895.625
1530.944	4108.625
1534.018	4341.95833
1537.089	4491.95833
1540.159	4541.625
1543.226	4471.29167
1546.291	4370.29167
1549.354	4259.29167
1552.415	4156.95833
1555.473	4017.625
1558.529	3964.95833
1561.583	3869.625
1564.634	3836.625
1567.684	3829.625
1570.731	3810.29167
1573.776	3857.625
1576.819	3855.95833
1579.859	3920.625
1582.898	3940.29167
1585.934	3988.625
1588.968	4009.95833
1591.999	3970.29167
1595.029	4000.29167
1598.056	4002.29167
1601.081	4021.95833
1604.104	4013.95833
1607.125	3984.95833
1610.144	3872.29167
1613.16	3764.29167
1616.174	3700.29167
1619.186	3580.625
1622.196	3520.29167
1625.203	3401.625
1628.209	3353.95833
1631.212	3317.625
1634.213	3269.625
1637.212	3280.95833
1640.209	3221.95833
1643.203	3118.625
1646.196	3016.625
1649.186	2921.625
1652.174	2836.95833
1655.16	2749.29167
1658.144	2694.95833
1661.125	2569.29167
1664.105	2461.95833
1667.082	2362.29167
1670.057	2216.95833
1673.03	2087.29167
1676.001	1940.29167
1678.97	1803.625
1681.937	1698.29167
1684.901	1591.95833
1687.863	1553.625
1690.824	1485.625
1693.782	1453.95833
1696.738	1389.29167
1699.692	1358.29167
1702.643	1336.95833
1705.593	1317.95833
1708.54	1294.625
1711.486	1301.625
1714.429	1264.95833
1717.37	1241.625
1720.309	1228.95833
1723.246	1240.29167
1726.181	1201.625
1729.113	1215.29167
1732.044	1181.29167
1734.972	1169.625
1737.899	1179.625
1740.823	1159.29167
1743.745	1179.95833
1746.665	1113.29167
1749.583	1091.29167
1752.499	1093.625
1755.413	1062.95833
1758.325	1044.95833
1761.235	1058.29167
1764.142	1030.95833
1767.048	1022.29167
1769.951	1007.29167
1772.852	1006.29167
1775.752	997.95833
1778.649	1003.95833
1781.544	989.29167
1784.437	961.29167
1787.328	977.29167
1790.217	972.95833
1793.104	945.29167
1795.989	951.95833
1798.872	936.625
1801.753	958.625
1804.631	955.95833
1807.508	947.29167
1810.383	946.625
1813.255	931.95833
1816.126	950.625
1818.994	918.625
1821.861	929.95833
1824.725	931.29167
1827.587	919.625
1830.448	918.95833
1833.306	893.95833
1836.162	910.95833
1839.017	894.29167
1841.869	890.625
1844.719	892.95833
1847.567	881.95833
1850.414	861.625
1853.258	878.29167
1856.1	888.625
1858.94	887.625
1861.778	892.95833
1864.614	863.29167
1867.448	886.29167
1870.28	853.95833
1873.111	878.625
1875.939	871.95833
1878.765	878.29167
1881.589	866.29167
1884.411	880.29167
1887.231	871.29167
1890.049	876.625
1892.865	868.625
1895.68	852.625
1898.492	851.29167
1901.302	838.29167
1904.11	845.29167
1906.916	840.29167
1909.721	835.625
1912.523	839.29167
1915.323	820.625
1918.122	830.625
1920.918	836.625
1923.712	819.29167
1926.505	834.95833
1929.295	810.29167
1932.084	828.625
1934.87	834.29167
1937.655	816.29167
1940.438	814.625
1943.218	808.29167
1945.997	820.625
1948.774	818.29167
1951.549	817.29167
1954.322	803.625
1957.093	815.625
1959.862	793.625
1962.629	805.95833
1965.394	796.29167
1968.157	784.625
1970.918	791.625
1973.678	796.95833
1976.435	797.29167
1979.19	784.625
1981.944	785.29167
1984.696	779.625
1987.445	776.625
1990.193	774.29167
1992.939	791.95833
1995.683	777.29167
1998.425	755.29167
2001.165	797.625
2003.903	777.29167
2006.639	771.95833
2009.374	772.95833
2012.106	776.29167
2014.837	746.29167
2017.566	768.29167
2020.292	765.95833
2023.017	767.625
2025.74	754.29167
2028.461	741.625
2031.18	760.29167
2033.898	753.95833
2036.613	751.625
2039.327	770.95833
2042.038	744.625
2044.748	744.95833
2047.456	742.95833
2050.162	727.95833
2052.866	735.29167
2055.568	746.29167
2058.268	745.625
2060.967	749.95833
2063.663	728.625
2066.358	735.29167
2069.051	721.29167
2071.742	740.95833
2074.431	733.29167
2077.118	734.29167
2079.804	720.29167
2082.487	730.29167
2085.169	741.625
2087.849	753.625
2090.527	739.625
2093.203	750.95833
2095.877	763.29167
2098.55	755.95833
2101.22	770.29167
2103.889	786.95833
2106.556	783.29167
2109.221	808.95833
2111.884	838.625
2114.546	896.95833
2117.205	951.95833
2119.863	1041.625
2122.519	1117.95833
2125.173	1188.625
2127.825	1270.29167
2130.475	1292.95833
2133.124	1242.29167
2135.771	1186.95833
2138.416	1152.95833
2141.059	1060.625
2143.7	1005.95833
2146.339	958.625
2148.977	890.625
2151.613	875.29167
2154.247	834.625
2156.879	828.95833
2159.51	810.29167
2162.138	780.625
2164.765	782.29167
2167.39	761.95833
2170.013	783.29167
2172.634	774.29167
2175.254	752.29167
2177.872	790.95833
2180.488	733.625
2183.102	749.95833
2185.714	735.29167
2188.325	715.95833
2190.934	720.29167
2193.541	730.95833
2196.146	715.625
2198.75	692.29167
2201.351	697.95833
2203.951	678.95833
2206.549	705.625
2209.146	678.95833
2211.74	680.95833
2214.333	689.95833
2216.924	654.625
2219.514	678.29167
2222.101	664.625
2224.687	679.95833
2227.271	658.95833
2229.853	658.29167
2232.433	635.29167
2235.012	655.95833
2237.589	655.29167
2240.164	661.95833
2242.738	664.29167
2245.309	642.625
2247.879	638.29167
2250.448	639.625
2253.014	628.95833
2255.579	614.29167
2258.142	612.95833
2260.703	607.29167
2263.262	614.625
2265.82	607.29167
2268.376	612.625
2270.93	611.95833
2273.483	593.95833
2276.033	608.95833
2278.583	598.95833
2281.13	586.95833
2283.675	585.625
2286.219	591.625
2288.761	596.95833
2291.302	586.625
2293.841	587.95833
2296.377	572.29167
2298.913	581.95833
2301.446	596.625
2303.978	587.29167
2306.508	576.29167
2309.037	584.29167
2311.563	587.95833
2314.088	584.625
2316.612	564.95833
2319.133	582.625
2321.653	568.95833
2324.171	561.95833
2326.688	580.625
2329.202	566.29167
2331.715	575.625
2334.227	567.95833
2336.736	573.29167
2339.244	558.625
2341.751	551.625
2344.255	579.95833
2346.758	560.95833
2349.259	545.29167
2351.759	558.95833
2354.257	552.29167
2356.753	550.29167
2359.247	554.29167
2361.74	557.29167
2364.231	551.95833
2366.721	566.625
2369.209	547.625
2371.695	546.95833
2374.179	540.625
2376.662	539.29167
2379.143	560.95833
2381.622	549.95833
2384.1	551.95833
2386.576	537.29167
2389.051	557.625
2391.524	580.625
2393.995	556.625
2396.464	543.625
2398.932	537.95833
2401.398	546.625
2403.863	530.29167
2406.325	527.625
2408.787	545.29167
2411.246	536.95833
2413.704	529.29167
2416.16	541.625
2418.615	533.95833
2421.068	552.95833
2423.519	545.95833
2425.969	532.29167
2428.417	541.29167
2430.863	556.29167
2433.308	546.95833
2435.751	543.29167
2438.193	543.95833
2440.633	544.29167
2443.071	547.95833
2445.508	526.625
2447.943	528.625
2450.376	530.625
2452.808	543.29167
2455.238	529.29167
2457.667	565.625
2460.093	530.95833
2462.519	515.625
2464.942	524.95833
2467.365	530.625
2469.785	541.29167
2472.204	530.29167
2474.621	528.95833
2477.037	543.29167
2479.451	509.95833
2481.863	529.95833
2484.274	524.625
2486.683	530.29167
2489.091	532.95833
2491.497	527.95833
2493.901	527.625
2496.304	519.95833
2498.705	534.625
2501.105	522.29167
2503.503	548.29167
2505.899	513.95833
2508.294	538.625
2510.687	517.95833
2513.079	517.29167
2515.469	500.95833
2517.858	521.29167
2520.245	531.625
2522.63	519.29167
2525.014	518.95833
2527.396	502.625
2529.776	513.29167
2532.156	522.625
2534.533	496.95833
2536.909	511.625
2539.283	496.95833
2541.656	516.625
2544.027	531.625
2546.397	524.95833
2548.765	514.29167
2551.131	514.625
2553.496	521.95833
2555.86	527.29167
2558.221	515.95833
2560.582	512.95833
2562.94	506.95833
2565.298	511.95833
2567.653	535.29167
2570.007	509.29167
2572.36	519.95833
2574.711	516.95833
2577.06	533.625
2579.408	523.29167
2581.754	519.625
2584.099	523.29167
2586.442	512.29167
2588.784	522.95833
2591.124	520.625
2593.463	517.95833
2595.8	515.29167
2598.135	516.625
2600.469	516.625
2602.802	533.29167
2605.133	536.95833
2607.462	512.625
2609.79	516.29167
2612.116	531.95833
2614.441	521.625
2616.764	525.29167
2619.086	522.95833
2621.406	516.625
2623.725	532.625
2626.042	526.29167
2628.358	521.625
2630.672	522.95833
2632.985	535.95833
2635.296	523.625
2637.606	527.29167
2639.914	526.625
2642.22	531.95833
2644.525	525.625
2646.829	536.95833
2649.131	548.625
2651.432	548.29167
2653.731	534.29167
2656.028	546.625
2658.324	549.95833
2660.619	534.29167
2662.912	550.95833
2665.204	535.625
2667.494	553.29167
2669.782	527.625
2672.07	542.95833
2674.355	557.95833
2676.639	543.95833
2678.922	541.625
2681.203	549.95833
2683.483	543.95833
2685.761	540.95833
2688.038	562.625
2690.313	572.625
2692.587	549.29167
2694.859	549.95833
2697.13	561.95833
2699.399	551.625
2701.667	570.95833
2703.933	567.625
2706.198	572.625
2708.461	576.95833
2710.723	584.625
2712.984	576.625
2715.243	589.625
2717.5	580.29167
2719.757	601.29167
2722.011	599.29167
2724.264	605.625
2726.516	625.95833
2728.766	606.625
2731.015	611.29167
2733.262	614.625
2735.508	599.29167
2737.753	601.625
2739.996	580.625
2742.237	593.29167
2744.477	600.625
2746.716	590.29167
2748.953	585.29167
2751.189	600.95833
2753.423	583.625
2755.656	580.95833
2757.887	566.625
2760.117	579.625
2762.346	575.95833
2764.573	571.625
2766.798	576.95833
2769.022	587.29167
2771.245	575.95833
2773.467	585.625
2775.686	583.95833
2777.905	597.29167
2780.122	596.625
2782.337	596.625
2784.552	601.625
2786.764	612.625
2788.976	615.625
2791.186	625.625
2793.394	624.95833
2795.601	639.29167
2797.807	654.29167
2800.011	655.29167
2802.214	661.29167
2804.415	665.625
2806.615	672.95833
2808.814	673.95833
2811.011	681.95833
2813.206	694.95833
2815.401	706.29167
2817.594	712.625
2819.785	718.29167
2821.975	722.95833
2824.164	717.95833
2826.351	732.29167
2828.537	762.95833
2830.722	784.95833
2832.905	788.95833
2835.086	813.95833
2837.267	839.625
2839.445	875.95833
2841.623	885.29167
2843.799	909.29167
2845.974	964.95833
2848.147	995.625
2850.319	1009.625
2852.489	1048.95833
2854.659	1046.625
2856.826	1074.29167
2858.993	1080.625
2861.158	1080.29167
2863.321	1092.29167
2865.483	1117.95833
2867.644	1110.95833
2869.804	1103.95833
2871.962	1081.29167
2874.118	1115.95833
2876.274	1094.625
2878.428	1085.625
2880.58	1088.29167
2882.731	1079.625
2884.881	1072.625
2887.03	1095.95833
2889.177	1077.95833
2891.322	1113.95833
2893.467	1095.625
2895.61	1109.625
2897.751	1126.625
2899.892	1113.29167
2902.03	1124.625
2904.168	1137.95833
2906.304	1132.29167
2908.439	1161.625
2910.572	1132.95833
2912.704	1152.95833
2914.835	1154.29167
2916.965	1149.95833
2919.093	1161.625
2921.219	1119.625
2923.345	1142.625
2925.469	1128.29167
2927.591	1124.625
2929.712	1069.95833
2931.832	1074.29167
2933.951	1040.95833
2936.068	1018.29167
2938.184	992.95833
2940.299	971.95833
2942.412	950.95833
2944.524	922.29167
2946.634	905.95833
2948.744	858.95833
2950.851	881.625
2952.958	835.625
2955.063	830.29167
2957.167	811.625
2959.269	772.95833
2961.371	803.95833
2963.471	769.29167
2965.569	768.29167
2967.666	729.95833
2969.762	732.625
2971.857	707.95833
2973.95	691.29167
2976.042	697.95833
2978.133	671.29167
2980.222	659.625
2982.31	640.29167
2984.396	625.29167
2986.482	624.625
2988.566	611.625
2990.648	609.95833
2992.73	605.625
2994.81	590.625
2996.889	596.29167
2998.966	594.29167
3001.042	599.29167
3003.117	582.29167
3005.191	583.95833
3007.263	592.29167
3009.334	571.95833
3011.403	561.95833
3013.472	543.625
3015.539	554.29167
3017.604	559.95833
3019.669	525.29167
3021.732	524.625
3023.794	524.95833
3025.854	514.625
3027.914	518.95833
3029.971	515.95833
3032.028	515.625
3034.083	511.95833
3036.137	516.95833
3038.19	490.625
3040.242	478.625
3042.292	466.29167
3044.341	467.95833
3046.388	476.29167
3048.435	467.95833
3050.48	470.625
3052.524	465.95833
3054.566	440.625
3056.607	464.95833
3058.647	451.95833
3060.686	424.29167
3062.723	410.29167
3064.759	404.29167
3066.794	-0.375
3068.828	-0.04167
3070.86	-4.04167
