-0.839	414.45833
3.438	454.45833
7.711	129.125
11.981	51.79167
16.247	42.125
20.509	41.125
24.768	46.45833
29.024	44.79167
33.276	41.79167
37.524	47.79167
41.769	40.125
46.01	33.125
50.247	48.79167
54.481	60.125
58.712	63.45833
62.939	44.79167
67.162	57.79167
71.382	51.79167
75.599	43.45833
79.812	59.79167
84.021	75.79167
88.227	54.125
92.429	55.125
96.628	46.125
100.823	63.125
105.015	69.79167
109.204	69.45833
113.388	71.79167
117.57	64.45833
121.748	78.79167
125.922	66.125
130.093	85.79167
134.261	92.45833
138.425	81.125
142.585	122.79167
146.742	118.45833
150.896	139.79167
155.046	158.45833
159.193	248.125
163.336	433.125
167.476	772.79167
171.613	1410.125
175.746	2396.45833
179.875	3580.45833
184.002	4699.45833
188.124	5449.125
192.244	5686.125
196.36	5615.45833
200.472	5428.125
204.581	5230.45833
208.687	5047.125
212.79	4973.79167
216.889	4944.45833
220.984	4965.125
225.077	4930.125
229.165	4952.45833
233.251	4937.45833
237.333	4910.79167
241.412	4865.79167
245.487	4809.45833
249.559	4786.125
253.628	4744.79167
257.694	4711.45833
261.756	4713.45833
265.814	4623.79167
269.87	4556.125
273.922	4471.45833
277.97	4476.125
282.016	4501.45833
286.058	4484.45833
290.097	4636.79167
294.132	4694.45833
298.164	4648.79167
302.193	4451.125
306.219	4175.79167
310.241	3827.79167
314.26	3489.45833
318.276	3214.125
322.288	3027.45833
326.297	2852.79167
330.303	2729.45833
334.305	2627.45833
338.305	2581.45833
342.301	2536.125
346.294	2503.79167
350.283	2478.79167
354.269	2435.79167
358.252	2441.45833
362.232	2413.79167
366.209	2392.79167
370.182	2370.125
374.152	2344.125
378.119	2360.45833
382.083	2325.45833
386.043	2336.45833
390	2305.79167
393.954	2294.79167
397.905	2293.45833
401.852	2267.45833
405.797	2267.45833
409.738	2238.45833
413.676	2244.125
417.61	2240.79167
421.542	2225.45833
425.47	2205.45833
429.396	2190.125
433.318	2170.79167
437.236	2153.79167
441.152	2174.125
445.065	2136.45833
448.974	2119.125
452.88	2104.45833
456.783	2074.125
460.683	2076.45833
464.58	2097.45833
468.473	2090.125
472.364	2110.125
476.251	2108.45833
480.135	2119.79167
484.016	2161.45833
487.894	2147.79167
491.769	2162.125
495.641	2174.79167
499.509	2175.45833
503.375	2168.79167
507.237	2189.79167
511.096	2229.45833
514.952	2379.79167
518.805	2585.125
522.655	2653.45833
526.502	2351.125
530.346	2194.79167
534.187	2165.79167
538.024	2151.79167
541.859	2128.125
545.69	2167.79167
549.519	2157.79167
553.344	2126.79167
557.166	2076.125
560.985	2063.79167
564.802	2054.45833
568.615	2037.125
572.425	2011.125
576.232	1995.79167
580.036	1988.125
583.836	2011.45833
587.634	1999.125
591.429	1995.125
595.221	2020.125
599.01	2045.45833
602.796	2069.45833
606.578	2097.125
610.358	2088.125
614.135	2064.125
617.909	2050.45833
621.679	2060.79167
625.447	2055.45833
629.212	2040.45833
632.973	2060.125
636.732	2025.45833
640.488	2036.125
644.241	2012.125
647.991	2008.45833
651.737	2014.45833
655.481	1985.45833
659.222	1992.125
662.96	2001.79167
666.695	2010.79167
670.427	2026.45833
674.156	2031.45833
677.882	2027.45833
681.605	2042.79167
685.325	2016.45833
689.043	2026.45833
692.757	1998.79167
696.468	2010.79167
700.177	2002.125
703.882	2003.125
707.585	1997.79167
711.284	1999.45833
714.981	1999.79167
718.675	2017.79167
722.366	2024.45833
726.054	2001.125
729.739	2000.79167
733.421	2006.125
737.1	1996.79167
740.777	2013.79167
744.45	2024.79167
748.121	2038.79167
751.789	2090.45833
755.453	2074.45833
759.115	2087.45833
762.774	2099.125
766.431	2099.45833
770.084	2118.45833
773.734	2125.79167
777.382	2170.125
781.027	2163.45833
784.669	2198.45833
788.308	2206.45833
791.944	2207.45833
795.577	2259.45833
799.208	2246.79167
802.835	2268.125
806.46	2268.45833
810.082	2285.125
813.701	2280.45833
817.317	2308.125
820.931	2273.79167
824.542	2300.125
828.149	2263.45833
831.754	2255.79167
835.357	2253.79167
838.956	2254.45833
842.553	2259.125
846.146	2248.125
849.737	2246.79167
853.326	2231.45833
856.911	2233.45833
860.493	2282.45833
864.073	2290.45833
867.65	2325.125
871.225	2353.79167
874.796	2350.79167
878.365	2349.45833
881.931	2379.45833
885.494	2395.45833
889.054	2384.45833
892.612	2395.45833
896.166	2381.79167
899.719	2358.125
903.268	2344.79167
906.814	2299.79167
910.358	2284.79167
913.899	2265.125
917.438	2274.45833
920.973	2249.45833
924.506	2290.79167
928.036	2319.79167
931.564	2332.45833
935.088	2374.125
938.61	2369.125
942.129	2394.125
945.646	2456.45833
949.16	2511.125
952.671	2544.79167
956.179	2554.79167
959.685	2487.79167
963.188	2487.79167
966.688	2451.79167
970.185	2371.79167
973.68	2371.45833
977.173	2333.79167
980.662	2321.79167
984.149	2349.125
987.633	2313.45833
991.114	2354.45833
994.593	2425.79167
998.069	2489.45833
1001.542	2571.45833
1005.013	2508.125
1008.481	2376.125
1011.947	2321.45833
1015.409	2311.45833
1018.869	2312.79167
1022.327	2309.45833
1025.782	2294.79167
1029.234	2306.79167
1032.683	2269.45833
1036.13	2191.125
1039.574	2120.79167
1043.016	2065.79167
1046.455	2061.45833
1049.891	2013.79167
1053.325	2016.45833
1056.756	2024.45833
1060.184	2059.125
1063.61	2053.79167
1067.033	2061.79167
1070.454	2045.79167
1073.872	2090.45833
1077.287	2082.79167
1080.7	2102.45833
1084.11	2087.125
1087.517	2081.79167
1090.922	2056.125
1094.325	2025.125
1097.724	2013.125
1101.122	2002.79167
1104.516	2033.79167
1107.908	2037.125
1111.298	2050.125
1114.684	2066.45833
1118.069	2092.125
1121.45	2100.79167
1124.83	2095.125
1128.206	2125.45833
1131.58	2170.79167
1134.951	2220.45833
1138.32	2289.125
1141.687	2360.125
1145.05	2415.79167
1148.412	2432.125
1151.77	2418.79167
1155.126	2406.79167
1158.48	2391.79167
1161.831	2420.125
1165.18	2446.125
1168.525	2448.45833
1171.869	2488.125
1175.21	2501.125
1178.548	2523.125
1181.884	2553.45833
1185.217	2584.79167
1188.548	2638.125
1191.877	2644.45833
1195.202	2712.79167
1198.526	2761.125
1201.846	2781.125
1205.165	2767.79167
1208.48	2780.125
1211.794	2761.125
1215.104	2767.125
1218.413	2762.45833
1221.719	2765.45833
1225.022	2753.45833
1228.323	2735.45833
1231.621	2702.45833
1234.917	2688.125
1238.21	2729.45833
1241.501	2696.45833
1244.79	2694.45833
1248.076	2706.79167
1251.359	2706.125
1254.64	2817.45833
1257.919	2791.79167
1261.195	2850.45833
1264.468	2891.45833
1267.74	2948.79167
1271.008	2946.125
1274.275	2936.125
1277.538	2892.125
1280.8	2899.45833
1284.059	2894.45833
1287.315	2927.125
1290.569	2922.79167
1293.821	2929.79167
1297.07	2950.125
1300.317	2956.45833
1303.562	2929.45833
1306.803	2892.79167
1310.043	2900.125
1313.28	2869.125
1316.515	2810.125
1319.747	2780.79167
1322.977	2762.45833
1326.204	2737.79167
1329.429	2694.125
1332.652	2667.45833
1335.872	2701.45833
1339.09	2662.79167
1342.306	2666.79167
1345.519	2623.125
1348.729	2598.125
1351.938	2589.45833
1355.144	2526.45833
1358.347	2518.45833
1361.548	2541.125
1364.747	2516.45833
1367.944	2493.45833
1371.138	2534.45833
1374.329	2552.125
1377.518	2590.125
1380.705	2567.45833
1383.89	2583.125
1387.072	2496.79167
1390.252	2455.79167
1393.429	2371.125
1396.605	2309.45833
1399.777	2232.45833
1402.948	2214.45833
1406.116	2229.125
1409.282	2228.45833
1412.445	2230.79167
1415.606	2269.45833
1418.765	2326.79167
1421.921	2350.125
1425.075	2492.125
1428.227	2518.125
1431.376	2558.79167
1434.524	2637.125
1437.668	2690.125
1440.811	2691.45833
1443.951	2725.125
1447.089	2713.79167
1450.224	2713.125
1453.357	2678.79167
1456.488	2667.79167
1459.617	2632.79167
1462.743	2612.125
1465.867	2528.45833
1468.989	2505.125
1472.108	2461.79167
1475.225	2415.45833
1478.34	2390.125
1481.453	2382.79167
1484.563	2381.125
1487.671	2434.45833
1490.776	2485.45833
1493.88	2518.125
1496.981	2559.125
1500.08	2588.79167
1503.176	2616.45833
1506.271	2644.125
1509.363	2699.125
1512.452	2709.125
1515.54	2761.45833
1518.625	2792.79167
1521.708	2885.79167
1524.789	2992.45833
1527.867	3127.125
1530.944	3306.45833
1534.018	3466.45833
1537.089	3624.125
1540.159	3653.45833
1543.226	3625.125
1546.291	3510.79167
1549.354	3449.45833
1552.415	3329.125
1555.473	3248.45833
1558.529	3147.45833
1561.583	3091.125
1564.634	3074.45833
1567.684	3063.125
1570.731	3044.125
1573.776	3072.125
1576.819	3084.125
1579.859	3086.79167
1582.898	3104.45833
1585.934	3124.125
1588.968	3135.45833
1591.999	3133.125
1595.029	3120.45833
1598.056	3143.45833
1601.081	3171.125
1604.104	3164.45833
1607.125	3123.79167
1610.144	3063.125
1613.16	2997.79167
1616.174	2926.125
1619.186	2848.79167
1622.196	2795.45833
1625.203	2709.79167
1628.209	2678.45833
1631.212	2630.45833
1634.213	2610.45833
1637.212	2549.125
1640.209	2530.125
1643.203	2455.125
1646.196	2426.79167
1649.186	2337.79167
1652.174	2294.79167
1655.16	2243.79167
1658.144	2204.45833
1661.125	2104.45833
1664.105	2029.45833
1667.082	1948.79167
1670.057	1864.79167
1673.03	1740.125
1676.001	1655.79167
1678.97	1540.79167
1681.937	1460.45833
1684.901	1372.125
1687.863	1345.45833
1690.824	1283.125
1693.782	1266.79167
1696.738	1221.125
1699.692	1209.45833
1702.643	1187.45833
1705.593	1163.45833
1708.54	1144.45833
1711.486	1147.79167
1714.429	1112.45833
1717.37	1135.125
1720.309	1097.125
1723.246	1106.45833
1726.181	1067.45833
1729.113	1077.125
1732.044	1069.79167
1734.972	1057.45833
1737.899	1053.79167
1740.823	1054.45833
1743.745	1056.125
1746.665	1018.79167
1749.583	1001.79167
1752.499	993.125
1755.413	983.45833
1758.325	946.45833
1761.235	967.125
1764.142	948.79167
1767.048	943.45833
1769.951	927.45833
1772.852	928.125
1775.752	922.45833
1778.649	934.125
1781.544	925.125
1784.437	902.125
1787.328	910.125
1790.217	914.79167
1793.104	874.79167
1795.989	875.125
1798.872	874.79167
1801.753	892.79167
1804.631	887.45833
1807.508	886.79167
1810.383	877.79167
1813.255	882.125
1816.126	879.125
1818.994	874.79167
1821.861	863.125
1824.725	863.125
1827.587	855.79167
1830.448	861.125
1833.306	817.79167
1836.162	851.79167
1839.017	837.125
1841.869	837.45833
1844.719	835.125
1847.567	822.125
1850.414	824.125
1853.258	815.125
1856.1	845.45833
1858.94	846.45833
1861.778	831.125
1864.614	826.79167
1867.448	822.45833
1870.28	810.79167
1873.111	847.125
1875.939	837.79167
1878.765	845.125
1881.589	809.45833
1884.411	820.125
1887.231	839.79167
1890.049	816.79167
1892.865	819.79167
1895.68	800.79167
1898.492	822.45833
1901.302	793.79167
1904.11	812.125
1906.916	798.79167
1909.721	795.79167
1912.523	806.45833
1915.323	785.79167
1918.122	792.45833
1920.918	792.79167
1923.712	788.79167
1926.505	804.45833
1929.295	775.45833
1932.084	789.79167
1934.87	783.79167
1937.655	768.79167
1940.438	778.79167
1943.218	780.79167
1945.997	801.79167
1948.774	795.79167
1951.549	793.79167
1954.322	782.45833
1957.093	785.45833
1959.862	777.125
1962.629	782.45833
1965.394	774.79167
1968.157	755.125
1970.918	774.125
1973.678	763.79167
1976.435	771.125
1979.19	760.79167
1981.944	750.125
1984.696	755.45833
1987.445	762.79167
1990.193	754.79167
1992.939	779.45833
1995.683	763.79167
1998.425	737.45833
2001.165	767.45833
2003.903	749.79167
2006.639	758.45833
2009.374	756.125
2012.106	756.45833
2014.837	736.125
2017.566	762.45833
2020.292	755.125
2023.017	748.79167
2025.74	742.79167
2028.461	753.125
2031.18	750.79167
2033.898	742.125
2036.613	736.125
2039.327	756.45833
2042.038	728.79167
2044.748	727.45833
2047.456	739.45833
2050.162	725.45833
2052.866	736.125
2055.568	742.45833
2058.268	738.79167
2060.967	744.125
2063.663	726.125
2066.358	737.125
2069.051	730.45833
2071.742	739.45833
2074.431	742.125
2077.118	735.79167
2079.804	723.125
2082.487	731.125
2085.169	738.45833
2087.849	758.45833
2090.527	743.79167
2093.203	738.45833
2095.877	750.79167
2098.55	759.79167
2101.22	775.45833
2103.889	779.125
2106.556	795.125
2109.221	805.79167
2111.884	834.45833
2114.546	897.125
2117.205	937.45833
2119.863	1010.45833
2122.519	1061.79167
2125.173	1106.79167
2127.825	1176.79167
2130.475	1170.45833
2133.124	1120.45833
2135.771	1074.45833
2138.416	1045.45833
2141.059	980.79167
2143.7	959.45833
2146.339	884.79167
2148.977	865.79167
2151.613	840.45833
2154.247	816.45833
2156.879	811.125
2159.51	799.125
2162.138	777.79167
2164.765	768.45833
2167.39	752.125
2170.013	782.125
2172.634	773.79167
2175.254	753.79167
2177.872	778.79167
2180.488	722.79167
2183.102	739.45833
2185.714	728.79167
2188.325	719.45833
2190.934	742.125
2193.541	738.79167
2196.146	728.125
2198.75	711.45833
2201.351	714.125
2203.951	702.45833
2206.549	722.79167
2209.146	702.125
2211.74	712.79167
2214.333	713.45833
2216.924	696.125
2219.514	705.79167
2222.101	688.45833
2224.687	728.125
2227.271	699.79167
2229.853	701.45833
2232.433	678.125
2235.012	696.79167
2237.589	696.45833
2240.164	709.125
2242.738	701.79167
2245.309	688.45833
2247.879	706.45833
2250.448	703.79167
2253.014	674.45833
2255.579	671.79167
2258.142	689.79167
2260.703	665.45833
2263.262	673.79167
2265.82	669.79167
2268.376	669.79167
2270.93	673.79167
2273.483	669.45833
2276.033	665.79167
2278.583	660.45833
2281.13	667.125
2283.675	658.125
2286.219	662.125
2288.761	664.45833
2291.302	678.45833
2293.841	668.45833
2296.377	665.79167
2298.913	659.125
2301.446	687.79167
2303.978	670.79167
2306.508	667.45833
2309.037	666.125
2311.563	668.125
2314.088	667.45833
2316.612	659.45833
2319.133	675.79167
2321.653	669.79167
2324.171	655.45833
2326.688	672.79167
2329.202	661.125
2331.715	656.125
2334.227	666.79167
2336.736	663.79167
2339.244	655.79167
2341.751	652.125
2344.255	670.79167
2346.758	668.125
2349.259	658.125
2351.759	656.45833
2354.257	652.125
2356.753	656.125
2359.247	666.79167
2361.74	671.125
2364.231	654.45833
2366.721	659.45833
2369.209	663.79167
2371.695	664.45833
2374.179	657.125
2376.662	673.125
2379.143	686.125
2381.622	670.125
2384.1	672.125
2386.576	667.125
2389.051	687.125
2391.524	685.79167
2393.995	670.125
2396.464	674.45833
2398.932	662.79167
2401.398	664.79167
2403.863	670.45833
2406.325	669.79167
2408.787	681.125
2411.246	676.45833
2413.704	680.45833
2416.16	679.125
2418.615	683.45833
2421.068	684.79167
2423.519	687.79167
2425.969	667.125
2428.417	692.79167
2430.863	694.79167
2433.308	705.125
2435.751	685.79167
2438.193	684.45833
2440.633	695.79167
2443.071	697.45833
2445.508	682.79167
2447.943	695.125
2450.376	687.79167
2452.808	694.125
2455.238	692.45833
2457.667	716.79167
2460.093	690.45833
2462.519	687.125
2464.942	699.125
2467.365	700.79167
2469.785	705.79167
2472.204	701.45833
2474.621	696.125
2477.037	719.79167
2479.451	690.79167
2481.863	702.45833
2484.274	692.45833
2486.683	705.45833
2489.091	713.79167
2491.497	714.125
2493.901	705.125
2496.304	711.45833
2498.705	724.125
2501.105	713.79167
2503.503	736.45833
2505.899	714.125
2508.294	730.125
2510.687	712.45833
2513.079	711.79167
2515.469	713.79167
2517.858	713.125
2520.245	734.45833
2522.63	711.45833
2525.014	726.45833
2527.396	714.125
2529.776	730.45833
2532.156	732.45833
2534.533	723.45833
2536.909	731.125
2539.283	703.45833
2541.656	721.125
2544.027	757.45833
2546.397	736.125
2548.765	746.125
2551.131	738.45833
2553.496	743.45833
2555.86	751.79167
2558.221	742.79167
2560.582	737.79167
2562.94	736.79167
2565.298	744.79167
2567.653	773.45833
2570.007	740.79167
2572.36	759.79167
2574.711	748.45833
2577.06	773.79167
2579.408	759.125
2581.754	765.79167
2584.099	759.45833
2586.442	768.125
2588.784	776.79167
2591.124	770.45833
2593.463	766.79167
2595.8	761.125
2598.135	769.45833
2600.469	777.125
2602.802	770.125
2605.133	788.79167
2607.462	765.45833
2609.79	770.125
2612.116	796.125
2614.441	792.79167
2616.764	786.45833
2619.086	785.125
2621.406	783.79167
2623.725	792.45833
2626.042	799.45833
2628.358	795.79167
2630.672	795.45833
2632.985	814.45833
2635.296	813.79167
2637.606	816.45833
2639.914	814.45833
2642.22	820.79167
2644.525	817.79167
2646.829	824.125
2649.131	836.45833
2651.432	834.79167
2653.731	832.125
2656.028	852.45833
2658.324	841.45833
2660.619	841.125
2662.912	853.79167
2665.204	845.125
2667.494	868.79167
2669.782	847.45833
2672.07	862.79167
2674.355	864.125
2676.639	854.79167
2678.922	858.79167
2681.203	883.79167
2683.483	850.45833
2685.761	854.79167
2688.038	863.79167
2690.313	884.45833
2692.587	875.125
2694.859	874.45833
2697.13	883.45833
2699.399	885.45833
2701.667	887.45833
2703.933	895.125
2706.198	901.79167
2708.461	912.79167
2710.723	920.79167
2712.984	914.45833
2715.243	924.45833
2717.5	921.79167
2719.757	941.79167
2722.011	928.45833
2724.264	937.79167
2726.516	960.125
2728.766	934.45833
2731.015	957.45833
2733.262	945.45833
2735.508	948.125
2737.753	958.45833
2739.996	951.45833
2742.237	924.45833
2744.477	943.125
2746.716	953.45833
2748.953	936.79167
2751.189	944.45833
2753.423	941.125
2755.656	929.125
2757.887	939.125
2760.117	944.125
2762.346	937.45833
2764.573	948.125
2766.798	935.45833
2769.022	944.45833
2771.245	959.125
2773.467	948.79167
2775.686	960.125
2777.905	973.45833
2780.122	982.125
2782.337	982.125
2784.552	979.125
2786.764	989.125
2788.976	994.125
2791.186	1000.45833
2793.394	1011.79167
2795.601	1026.79167
2797.807	1022.45833
2800.011	1048.125
2802.214	1053.45833
2804.415	1056.125
2806.615	1054.79167
2808.814	1060.125
2811.011	1066.45833
2813.206	1068.45833
2815.401	1071.45833
2817.594	1077.45833
2819.785	1094.79167
2821.975	1087.125
2824.164	1101.79167
2826.351	1128.45833
2828.537	1115.45833
2830.722	1144.125
2832.905	1141.125
2835.086	1160.45833
2837.267	1190.125
2839.445	1228.79167
2841.623	1228.79167
2843.799	1231.79167
2845.974	1272.79167
2848.147	1305.45833
2850.319	1314.45833
2852.489	1337.125
2854.659	1337.45833
2856.826	1370.45833
2858.993	1386.125
2861.158	1385.79167
2863.321	1390.79167
2865.483	1393.79167
2867.644	1392.125
2869.804	1390.125
2871.962	1372.125
2874.118	1376.125
2876.274	1374.79167
2878.428	1363.79167
2880.58	1371.125
2882.731	1358.79167
2884.881	1373.125
2887.03	1355.79167
2889.177	1361.45833
2891.322	1372.125
2893.467	1345.45833
2895.61	1379.79167
2897.751	1411.45833
2899.892	1372.125
2902.03	1386.79167
2904.168	1421.79167
2906.304	1394.79167
2908.439	1425.125
2910.572	1408.125
2912.704	1438.79167
2914.835	1431.125
2916.965	1429.45833
2919.093	1443.79167
2921.219	1412.45833
2923.345	1421.125
2925.469	1401.79167
2927.591	1398.45833
2929.712	1358.45833
2931.832	1351.45833
2933.951	1346.79167
2936.068	1325.45833
2938.184	1315.45833
2940.299	1295.125
2942.412	1276.125
2944.524	1238.45833
2946.634	1254.125
2948.744	1204.79167
2950.851	1234.45833
2952.958	1195.79167
2955.063	1195.45833
2957.167	1193.125
2959.269	1176.79167
2961.371	1195.79167
2963.471	1166.45833
2965.569	1176.79167
2967.666	1132.45833
2969.762	1145.79167
2971.857	1124.125
2973.95	1108.45833
2976.042	1109.125
2978.133	1097.45833
2980.222	1076.45833
2982.31	1063.125
2984.396	1052.79167
2986.482	1038.79167
2988.566	1051.79167
2990.648	1043.125
2992.73	1043.45833
2994.81	1038.79167
2996.889	1032.79167
2998.966	1044.79167
3001.042	1049.125
3003.117	1040.79167
3005.191	1037.45833
3007.263	1034.45833
3009.334	1014.79167
3011.403	1009.125
3013.472	974.125
3015.539	988.45833
3017.604	994.125
3019.669	967.45833
3021.732	964.45833
3023.794	974.45833
3025.854	949.125
3027.914	953.125
3029.971	970.79167
3032.028	959.125
3034.083	962.125
3036.137	944.45833
3038.19	907.79167
3040.242	897.79167
3042.292	877.125
3044.341	875.45833
3046.388	883.45833
3048.435	846.79167
3050.48	867.45833
3052.524	864.125
3054.566	843.125
3056.607	850.45833
3058.647	831.125
3060.686	806.125
3062.723	771.79167
3064.759	759.125
3066.794	1.45833
3068.828	-1.20833
3070.86	-2.20833
