-0.839	407.70833
3.438	444.70833
7.711	126.04167
11.981	48.04167
16.247	43.70833
20.509	44.375
24.768	42.375
29.024	44.375
33.276	39.70833
37.524	46.375
41.769	37.04167
46.01	33.70833
50.247	47.04167
54.481	57.70833
58.712	64.04167
62.939	42.70833
67.162	59.375
71.382	53.375
75.599	44.375
79.812	61.04167
84.021	78.04167
88.227	54.375
92.429	56.70833
96.628	45.04167
100.823	61.04167
105.015	69.04167
109.204	69.70833
113.388	67.70833
117.57	66.04167
121.748	79.375
125.922	66.375
130.093	88.04167
134.261	94.375
138.425	82.375
142.585	121.375
146.742	114.04167
150.896	137.70833
155.046	153.04167
159.193	253.375
163.336	421.04167
167.476	774.70833
171.613	1395.70833
175.746	2367.70833
179.875	3530.375
184.002	4605.70833
188.124	5370.04167
192.244	5556.70833
196.36	5505.70833
200.472	5288.70833
204.581	5087.375
208.687	4914.04167
212.79	4848.04167
216.889	4842.04167
220.984	4844.70833
225.077	4827.375
229.165	4802.04167
233.251	4804.70833
237.333	4778.70833
241.412	4738.70833
245.487	4677.375
249.559	4646.04167
253.628	4589.70833
257.694	4562.70833
261.756	4549.375
265.814	4487.70833
269.87	4351.375
273.922	4301.375
277.97	4317.70833
282.016	4364.04167
286.058	4380.04167
290.097	4518.375
294.132	4579.04167
298.164	4518.04167
302.193	4338.70833
306.219	4032.375
310.241	3687.70833
314.26	3368.375
318.276	3104.70833
322.288	2875.375
326.297	2692.04167
330.303	2599.04167
334.305	2496.70833
338.305	2406.04167
342.301	2385.375
346.294	2370.70833
350.283	2342.04167
354.269	2304.70833
358.252	2273.70833
362.232	2278.375
366.209	2243.70833
370.182	2222.04167
374.152	2203.375
378.119	2217.04167
382.083	2183.70833
386.043	2193.04167
390	2175.04167
393.954	2154.375
397.905	2153.04167
401.852	2146.04167
405.797	2107.70833
409.738	2102.375
413.676	2102.70833
417.61	2092.375
421.542	2074.375
425.47	2048.375
429.396	2044.70833
433.318	2030.70833
437.236	2013.375
441.152	2017.04167
445.065	1981.375
448.974	1979.375
452.88	1968.04167
456.783	1945.70833
460.683	1944.375
464.58	1940.375
468.473	1949.04167
472.364	1942.70833
476.251	1958.04167
480.135	1982.375
484.016	1999.70833
487.894	2015.375
491.769	2027.70833
495.641	2035.375
499.509	2026.70833
503.375	2026.04167
507.237	2039.70833
511.096	2064.70833
514.952	2248.04167
518.805	2465.70833
522.655	2536.04167
526.502	2236.70833
530.346	2066.70833
534.187	2033.375
538.024	2008.70833
541.859	2013.70833
545.69	1999.375
549.519	2014.70833
553.344	1972.375
557.166	1954.70833
560.985	1940.04167
564.802	1907.70833
568.615	1882.70833
572.425	1849.70833
576.232	1864.375
580.036	1858.70833
583.836	1856.04167
587.634	1864.04167
591.429	1857.375
595.221	1881.70833
599.01	1902.375
602.796	1920.375
606.578	1929.375
610.358	1956.04167
614.135	1924.70833
617.909	1921.04167
621.679	1910.04167
625.447	1906.70833
629.212	1906.04167
632.973	1924.70833
636.732	1891.70833
640.488	1907.375
644.241	1868.375
647.991	1868.04167
651.737	1877.70833
655.481	1837.70833
659.222	1856.375
662.96	1857.04167
666.695	1859.70833
670.427	1885.70833
674.156	1891.70833
677.882	1894.375
681.605	1888.04167
685.325	1890.04167
689.043	1886.70833
692.757	1867.04167
696.468	1863.04167
700.177	1887.70833
703.882	1871.04167
707.585	1852.375
711.284	1866.375
714.981	1860.70833
718.675	1878.70833
722.366	1879.375
726.054	1871.04167
729.739	1874.04167
733.421	1874.04167
737.1	1878.375
740.777	1887.04167
744.45	1892.375
748.121	1898.375
751.789	1971.375
755.453	1956.375
759.115	1953.04167
762.774	1963.04167
766.431	1982.375
770.084	1993.375
773.734	2017.375
777.382	2046.375
781.027	2061.70833
784.669	2069.04167
788.308	2093.375
791.944	2084.70833
795.577	2124.70833
799.208	2140.375
802.835	2127.70833
806.46	2146.70833
810.082	2150.375
813.701	2119.70833
817.317	2176.70833
820.931	2167.70833
824.542	2153.04167
828.149	2139.375
831.754	2149.04167
835.357	2135.375
838.956	2159.70833
842.553	2131.70833
846.146	2132.04167
849.737	2128.375
853.326	2147.375
856.911	2138.70833
860.493	2178.70833
864.073	2179.375
867.65	2198.375
871.225	2224.375
874.796	2239.375
878.365	2237.70833
881.931	2261.70833
885.494	2290.375
889.054	2285.375
892.612	2321.70833
896.166	2271.04167
899.719	2257.04167
903.268	2231.70833
906.814	2206.375
910.358	2193.70833
913.899	2170.70833
917.438	2179.04167
920.973	2151.04167
924.506	2190.04167
928.036	2217.04167
931.564	2246.375
935.088	2259.04167
938.61	2288.375
942.129	2297.04167
945.646	2337.70833
949.16	2403.04167
952.671	2441.04167
956.179	2452.70833
959.685	2414.04167
963.188	2374.04167
966.688	2345.375
970.185	2292.04167
973.68	2247.70833
977.173	2253.375
980.662	2217.375
984.149	2236.70833
987.633	2211.04167
991.114	2246.375
994.593	2331.70833
998.069	2369.04167
1001.542	2462.04167
1005.013	2382.70833
1008.481	2267.04167
1011.947	2221.375
1015.409	2204.375
1018.869	2211.375
1022.327	2207.375
1025.782	2200.375
1029.234	2200.70833
1032.683	2172.375
1036.13	2118.375
1039.574	2020.70833
1043.016	1978.04167
1046.455	1941.04167
1049.891	1924.70833
1053.325	1947.70833
1056.756	1936.375
1060.184	1953.04167
1063.61	1952.70833
1067.033	1971.70833
1070.454	1961.375
1073.872	1996.04167
1077.287	1997.04167
1080.7	1991.04167
1084.11	1992.70833
1087.517	1983.70833
1090.922	1960.70833
1094.325	1935.70833
1097.724	1916.04167
1101.122	1931.70833
1104.516	1920.70833
1107.908	1917.375
1111.298	1964.04167
1114.684	1973.375
1118.069	1999.04167
1121.45	2013.375
1124.83	2039.70833
1128.206	2024.04167
1131.58	2081.70833
1134.951	2146.04167
1138.32	2212.70833
1141.687	2298.04167
1145.05	2335.375
1148.412	2353.375
1151.77	2335.375
1155.126	2327.04167
1158.48	2332.70833
1161.831	2360.70833
1165.18	2356.375
1168.525	2391.04167
1171.869	2408.04167
1175.21	2434.04167
1178.548	2464.04167
1181.884	2483.375
1185.217	2512.04167
1188.548	2540.70833
1191.877	2577.375
1195.202	2649.375
1198.526	2676.375
1201.846	2683.04167
1205.165	2690.70833
1208.48	2684.375
1211.794	2671.375
1215.104	2692.70833
1218.413	2685.375
1221.719	2686.04167
1225.022	2665.70833
1228.323	2631.04167
1231.621	2632.04167
1234.917	2604.375
1238.21	2644.375
1241.501	2600.04167
1244.79	2600.375
1248.076	2633.375
1251.359	2638.70833
1254.64	2707.375
1257.919	2724.70833
1261.195	2762.70833
1264.468	2803.70833
1267.74	2862.70833
1271.008	2858.70833
1274.275	2850.375
1277.538	2820.70833
1280.8	2839.375
1284.059	2817.70833
1287.315	2852.04167
1290.569	2850.04167
1293.821	2855.70833
1297.07	2873.375
1300.317	2884.375
1303.562	2892.70833
1306.803	2853.70833
1310.043	2819.04167
1313.28	2768.375
1316.515	2738.375
1319.747	2742.70833
1322.977	2710.70833
1326.204	2638.375
1329.429	2617.04167
1332.652	2636.375
1335.872	2609.70833
1339.09	2587.375
1342.306	2584.375
1345.519	2558.375
1348.729	2522.70833
1351.938	2508.70833
1355.144	2458.375
1358.347	2432.375
1361.548	2465.04167
1364.747	2451.70833
1367.944	2436.04167
1371.138	2471.04167
1374.329	2475.70833
1377.518	2506.375
1380.705	2514.70833
1383.89	2519.04167
1387.072	2432.70833
1390.252	2350.04167
1393.429	2288.04167
1396.605	2246.375
1399.777	2158.04167
1402.948	2151.70833
1406.116	2149.04167
1409.282	2152.04167
1412.445	2167.375
1415.606	2208.70833
1418.765	2258.70833
1421.921	2288.04167
1425.075	2338.04167
1428.227	2380.70833
1431.376	2464.04167
1434.524	2563.04167
1437.668	2605.70833
1440.811	2618.70833
1443.951	2650.375
1447.089	2663.04167
1450.224	2645.375
1453.357	2613.375
1456.488	2597.70833
1459.617	2561.70833
1462.743	2530.70833
1465.867	2479.375
1468.989	2443.04167
1472.108	2396.70833
1475.225	2363.04167
1478.34	2331.375
1481.453	2337.70833
1484.563	2339.70833
1487.671	2384.04167
1490.776	2449.04167
1493.88	2476.70833
1496.981	2508.04167
1500.08	2567.70833
1503.176	2589.70833
1506.271	2612.70833
1509.363	2640.375
1512.452	2670.04167
1515.54	2718.375
1518.625	2751.375
1521.708	2827.375
1524.789	2948.375
1527.867	3082.04167
1530.944	3262.70833
1534.018	3419.04167
1537.089	3557.375
1540.159	3618.375
1543.226	3583.70833
1546.291	3470.375
1549.354	3411.04167
1552.415	3306.70833
1555.473	3212.70833
1558.529	3147.70833
1561.583	3087.70833
1564.634	3053.375
1567.684	3012.375
1570.731	3017.04167
1573.776	3024.70833
1576.819	3046.375
1579.859	3032.04167
1582.898	3070.70833
1585.934	3079.375
1588.968	3103.375
1591.999	3088.375
1595.029	3097.04167
1598.056	3111.04167
1601.081	3129.04167
1604.104	3117.04167
1607.125	3095.04167
1610.144	3018.04167
1613.16	2938.04167
1616.174	2882.04167
1619.186	2805.375
1622.196	2725.70833
1625.203	2645.70833
1628.209	2611.70833
1631.212	2572.70833
1634.213	2537.375
1637.212	2532.04167
1640.209	2483.375
1643.203	2399.04167
1646.196	2349.70833
1649.186	2266.375
1652.174	2242.375
1655.16	2163.70833
1658.144	2111.70833
1661.125	2027.375
1664.105	1952.04167
1667.082	1879.70833
1670.057	1782.04167
1673.03	1672.375
1676.001	1587.375
1678.97	1471.04167
1681.937	1397.04167
1684.901	1330.375
1687.863	1292.375
1690.824	1245.70833
1693.782	1212.70833
1696.738	1179.70833
1699.692	1151.375
1702.643	1120.375
1705.593	1111.70833
1708.54	1106.04167
1711.486	1102.04167
1714.429	1069.70833
1717.37	1069.04167
1720.309	1045.375
1723.246	1057.375
1726.181	1025.04167
1729.113	1024.375
1732.044	1018.04167
1734.972	1003.70833
1737.899	1013.375
1740.823	996.70833
1743.745	1013.375
1746.665	976.04167
1749.583	947.04167
1752.499	947.70833
1755.413	928.04167
1758.325	911.375
1761.235	922.70833
1764.142	891.70833
1767.048	888.04167
1769.951	872.70833
1772.852	873.375
1775.752	875.375
1778.649	874.70833
1781.544	877.04167
1784.437	852.70833
1787.328	866.375
1790.217	855.70833
1793.104	828.375
1795.989	829.375
1798.872	824.375
1801.753	849.375
1804.631	838.04167
1807.508	846.04167
1810.383	843.04167
1813.255	833.04167
1816.126	831.375
1818.994	826.375
1821.861	829.375
1824.725	814.375
1827.587	818.04167
1830.448	814.70833
1833.306	787.04167
1836.162	809.375
1839.017	794.04167
1841.869	799.04167
1844.719	801.70833
1847.567	790.375
1850.414	783.70833
1853.258	777.70833
1856.1	791.04167
1858.94	800.04167
1861.778	795.375
1864.614	782.375
1867.448	792.04167
1870.28	787.04167
1873.111	812.04167
1875.939	792.04167
1878.765	800.375
1881.589	787.04167
1884.411	799.375
1887.231	790.70833
1890.049	794.04167
1892.865	783.70833
1895.68	778.04167
1898.492	784.375
1901.302	765.70833
1904.11	765.70833
1906.916	764.70833
1909.721	748.04167
1912.523	765.375
1915.323	754.70833
1918.122	746.70833
1920.918	760.04167
1923.712	746.375
1926.505	753.70833
1929.295	744.04167
1932.084	758.375
1934.87	751.04167
1937.655	743.04167
1940.438	744.375
1943.218	749.375
1945.997	748.04167
1948.774	756.04167
1951.549	761.70833
1954.322	746.70833
1957.093	752.70833
1959.862	743.375
1962.629	739.04167
1965.394	731.70833
1968.157	720.375
1970.918	738.04167
1973.678	722.375
1976.435	743.70833
1979.19	731.70833
1981.944	731.375
1984.696	722.04167
1987.445	732.04167
1990.193	739.375
1992.939	741.04167
1995.683	728.70833
1998.425	714.04167
2001.165	738.70833
2003.903	715.70833
2006.639	720.04167
2009.374	721.70833
2012.106	732.375
2014.837	703.375
2017.566	726.04167
2020.292	727.04167
2023.017	722.375
2025.74	722.375
2028.461	705.70833
2031.18	711.375
2033.898	717.375
2036.613	718.375
2039.327	728.70833
2042.038	706.04167
2044.748	708.70833
2047.456	722.70833
2050.162	697.04167
2052.866	710.70833
2055.568	722.375
2058.268	706.04167
2060.967	716.375
2063.663	687.04167
2066.358	714.375
2069.051	693.04167
2071.742	711.04167
2074.431	705.04167
2077.118	709.04167
2079.804	705.04167
2082.487	703.70833
2085.169	725.04167
2087.849	736.70833
2090.527	711.375
2093.203	729.70833
2095.877	730.375
2098.55	734.04167
2101.22	740.04167
2103.889	763.70833
2106.556	756.70833
2109.221	794.70833
2111.884	821.04167
2114.546	875.375
2117.205	931.04167
2119.863	992.375
2122.519	1043.04167
2125.173	1102.04167
2127.825	1164.70833
2130.475	1142.70833
2133.124	1105.04167
2135.771	1057.04167
2138.416	1019.375
2141.059	947.70833
2143.7	916.04167
2146.339	871.70833
2148.977	834.70833
2151.613	836.70833
2154.247	798.04167
2156.879	793.70833
2159.51	773.375
2162.138	751.04167
2164.765	746.70833
2167.39	728.04167
2170.013	756.04167
2172.634	754.04167
2175.254	741.375
2177.872	760.04167
2180.488	715.70833
2183.102	741.375
2185.714	714.375
2188.325	700.04167
2190.934	713.04167
2193.541	710.04167
2196.146	701.375
2198.75	697.375
2201.351	700.04167
2203.951	683.04167
2206.549	703.04167
2209.146	693.70833
2211.74	693.04167
2214.333	698.375
2216.924	672.375
2219.514	688.04167
2222.101	682.04167
2224.687	707.04167
2227.271	689.375
2229.853	677.70833
2232.433	675.04167
2235.012	684.70833
2237.589	674.375
2240.164	700.375
2242.738	688.70833
2245.309	677.04167
2247.879	687.375
2250.448	686.70833
2253.014	674.375
2255.579	663.04167
2258.142	675.70833
2260.703	655.04167
2263.262	652.70833
2265.82	662.04167
2268.376	663.04167
2270.93	654.70833
2273.483	646.70833
2276.033	662.375
2278.583	653.04167
2281.13	648.70833
2283.675	647.375
2286.219	648.04167
2288.761	668.375
2291.302	653.04167
2293.841	670.70833
2296.377	646.375
2298.913	649.375
2301.446	662.375
2303.978	652.04167
2306.508	652.375
2309.037	658.04167
2311.563	662.70833
2314.088	659.04167
2316.612	650.04167
2319.133	656.375
2321.653	658.70833
2324.171	642.70833
2326.688	662.70833
2329.202	648.375
2331.715	647.375
2334.227	653.375
2336.736	654.70833
2339.244	649.70833
2341.751	645.04167
2344.255	653.70833
2346.758	656.04167
2349.259	656.375
2351.759	657.375
2354.257	650.70833
2356.753	651.04167
2359.247	656.375
2361.74	670.04167
2364.231	659.04167
2366.721	662.375
2369.209	653.70833
2371.695	647.04167
2374.179	652.04167
2376.662	655.04167
2379.143	671.04167
2381.622	673.04167
2384.1	668.70833
2386.576	663.70833
2389.051	678.04167
2391.524	685.04167
2393.995	680.04167
2396.464	671.04167
2398.932	663.70833
2401.398	668.04167
2403.863	666.70833
2406.325	661.375
2408.787	676.70833
2411.246	667.04167
2413.704	667.70833
2416.16	674.375
2418.615	679.70833
2421.068	689.70833
2423.519	688.04167
2425.969	673.70833
2428.417	697.70833
2430.863	691.04167
2433.308	699.375
2435.751	691.70833
2438.193	686.70833
2440.633	701.70833
2443.071	698.70833
2445.508	673.70833
2447.943	694.04167
2450.376	688.04167
2452.808	692.04167
2455.238	683.04167
2457.667	710.375
2460.093	697.70833
2462.519	686.70833
2464.942	684.375
2467.365	715.04167
2469.785	699.70833
2472.204	693.70833
2474.621	688.70833
2477.037	723.04167
2479.451	693.04167
2481.863	694.375
2484.274	696.70833
2486.683	706.70833
2489.091	736.04167
2491.497	710.04167
2493.901	711.04167
2496.304	715.70833
2498.705	718.70833
2501.105	721.04167
2503.503	747.70833
2505.899	701.375
2508.294	743.375
2510.687	716.04167
2513.079	719.375
2515.469	717.70833
2517.858	715.70833
2520.245	740.375
2522.63	716.375
2525.014	723.375
2527.396	721.04167
2529.776	724.04167
2532.156	739.70833
2534.533	728.04167
2536.909	728.70833
2539.283	713.375
2541.656	724.375
2544.027	750.375
2546.397	744.375
2548.765	741.70833
2551.131	745.70833
2553.496	747.70833
2555.86	755.04167
2558.221	750.04167
2560.582	752.70833
2562.94	739.70833
2565.298	739.375
2567.653	769.375
2570.007	746.04167
2572.36	772.04167
2574.711	751.375
2577.06	768.04167
2579.408	770.70833
2581.754	764.70833
2584.099	775.375
2586.442	770.70833
2588.784	778.375
2591.124	780.04167
2593.463	777.04167
2595.8	780.375
2598.135	769.375
2600.469	778.70833
2602.802	789.375
2605.133	802.375
2607.462	777.70833
2609.79	784.70833
2612.116	788.04167
2614.441	804.70833
2616.764	796.375
2619.086	808.375
2621.406	789.375
2623.725	818.04167
2626.042	812.375
2628.358	803.70833
2630.672	798.04167
2632.985	818.04167
2635.296	824.70833
2637.606	822.375
2639.914	816.04167
2642.22	824.04167
2644.525	824.04167
2646.829	834.04167
2649.131	852.70833
2651.432	849.70833
2653.731	849.70833
2656.028	852.04167
2658.324	856.04167
2660.619	859.04167
2662.912	868.375
2665.204	841.375
2667.494	869.375
2669.782	868.04167
2672.07	874.375
2674.355	876.70833
2676.639	864.375
2678.922	851.375
2681.203	885.375
2683.483	866.375
2685.761	861.04167
2688.038	899.375
2690.313	904.04167
2692.587	876.70833
2694.859	874.375
2697.13	895.70833
2699.399	895.375
2701.667	914.70833
2703.933	910.70833
2706.198	905.70833
2708.461	902.375
2710.723	922.04167
2712.984	930.04167
2715.243	947.70833
2717.5	920.70833
2719.757	955.04167
2722.011	943.375
2724.264	951.375
2726.516	966.70833
2728.766	960.04167
2731.015	982.04167
2733.262	977.04167
2735.508	948.04167
2737.753	953.375
2739.996	959.375
2742.237	950.04167
2744.477	978.70833
2746.716	969.375
2748.953	965.04167
2751.189	970.375
2753.423	955.70833
2755.656	953.04167
2757.887	949.375
2760.117	962.70833
2762.346	949.04167
2764.573	960.70833
2766.798	961.70833
2769.022	968.70833
2771.245	956.375
2773.467	970.04167
2775.686	974.375
2777.905	997.70833
2780.122	995.375
2782.337	995.70833
2784.552	987.04167
2786.764	1015.04167
2788.976	1007.04167
2791.186	1010.04167
2793.394	1014.375
2795.601	1050.04167
2797.807	1046.70833
2800.011	1052.375
2802.214	1059.04167
2804.415	1054.70833
2806.615	1078.375
2808.814	1090.70833
2811.011	1086.70833
2813.206	1085.04167
2815.401	1107.04167
2817.594	1116.04167
2819.785	1119.375
2821.975	1110.04167
2824.164	1111.375
2826.351	1139.04167
2828.537	1144.70833
2830.722	1169.04167
2832.905	1161.375
2835.086	1189.04167
2837.267	1236.04167
2839.445	1236.375
2841.623	1245.70833
2843.799	1246.04167
2845.974	1279.04167
2848.147	1313.04167
2850.319	1334.70833
2852.489	1348.70833
2854.659	1364.04167
2856.826	1387.375
2858.993	1415.375
2861.158	1387.70833
2863.321	1388.375
2865.483	1413.04167
2867.644	1419.375
2869.804	1413.375
2871.962	1404.70833
2874.118	1402.70833
2876.274	1394.04167
2878.428	1391.375
2880.58	1381.04167
2882.731	1378.375
2884.881	1387.04167
2887.03	1382.04167
2889.177	1386.04167
2891.322	1400.375
2893.467	1407.04167
2895.61	1401.70833
2897.751	1407.04167
2899.892	1407.375
2902.03	1416.04167
2904.168	1429.375
2906.304	1422.04167
2908.439	1446.375
2910.572	1433.04167
2912.704	1443.70833
2914.835	1439.70833
2916.965	1436.70833
2919.093	1469.70833
2921.219	1421.375
2923.345	1453.04167
2925.469	1415.04167
2927.591	1409.70833
2929.712	1392.70833
2931.832	1392.375
2933.951	1368.04167
2936.068	1342.70833
2938.184	1323.04167
2940.299	1309.04167
2942.412	1279.375
2944.524	1256.70833
2946.634	1274.375
2948.744	1224.70833
2950.851	1258.70833
2952.958	1226.375
2955.063	1218.375
2957.167	1216.04167
2959.269	1198.70833
2961.371	1224.70833
2963.471	1190.04167
2965.569	1211.04167
2967.666	1162.375
2969.762	1172.70833
2971.857	1145.04167
2973.95	1130.70833
2976.042	1130.70833
2978.133	1124.04167
2980.222	1111.04167
2982.31	1074.04167
2984.396	1057.375
2986.482	1070.375
2988.566	1073.04167
2990.648	1061.70833
2992.73	1059.375
2994.81	1047.70833
2996.889	1060.375
2998.966	1041.70833
3001.042	1057.375
3003.117	1066.70833
3005.191	1055.70833
3007.263	1053.375
3009.334	1049.375
3011.403	1033.04167
3013.472	1018.70833
3015.539	1023.70833
3017.604	1020.04167
3019.669	984.04167
3021.732	993.04167
3023.794	993.70833
3025.854	988.04167
3027.914	974.70833
3029.971	991.375
3032.028	989.375
3034.083	992.375
3036.137	963.04167
3038.19	949.70833
3040.242	920.70833
3042.292	903.04167
3044.341	898.04167
3046.388	905.04167
3048.435	878.04167
3050.48	891.04167
3052.524	886.70833
3054.566	858.375
3056.607	880.70833
3058.647	849.70833
3060.686	813.04167
3062.723	798.70833
3064.759	777.70833
3066.794	-0.625
3068.828	0.375
3070.86	-4.625
