-0.839	445.95833
3.438	492.29167
7.711	138.29167
11.981	57.29167
16.247	45.29167
20.509	45.29167
24.768	45.95833
29.024	49.625
33.276	44.29167
37.524	51.95833
41.769	41.29167
46.01	37.625
50.247	54.625
54.481	59.625
58.712	67.625
62.939	47.29167
67.162	62.625
71.382	57.95833
75.599	45.95833
79.812	65.29167
84.021	87.29167
88.227	62.29167
92.429	63.625
96.628	51.625
100.823	68.95833
105.015	75.29167
109.204	76.95833
113.388	80.625
117.57	76.29167
121.748	91.625
125.922	81.625
130.093	100.95833
134.261	107.29167
138.425	104.29167
142.585	149.29167
146.742	143.29167
150.896	168.625
155.046	211.95833
159.193	334.95833
163.336	577.29167
167.476	1031.625
171.613	1934.95833
175.746	3246.29167
179.875	4811.29167
184.002	6259.625
188.124	7242.29167
192.244	7546.625
196.36	7395.29167
200.472	7199.29167
204.581	6935.29167
208.687	6692.29167
212.79	6595.95833
216.889	6560.95833
220.984	6547.95833
225.077	6611.95833
229.165	6609.625
233.251	6616.625
237.333	6590.625
241.412	6508.95833
245.487	6507.29167
249.559	6422.95833
253.628	6362.625
257.694	6330.95833
261.756	6268.625
265.814	6180.625
269.87	6026.29167
273.922	5934.95833
277.97	5919.95833
282.016	5924.29167
286.058	6027.29167
290.097	6149.29167
294.132	6242.29167
298.164	6199.95833
302.193	5936.95833
306.219	5446.29167
310.241	4985.95833
314.26	4506.95833
318.276	4100.625
322.288	3845.29167
326.297	3574.95833
330.303	3400.29167
334.305	3304.95833
338.305	3188.95833
342.301	3143.625
346.294	3109.95833
350.283	3086.625
354.269	3033.95833
358.252	3020.625
362.232	2973.625
366.209	2961.29167
370.182	2928.95833
374.152	2920.95833
378.119	2909.625
382.083	2869.95833
386.043	2917.625
390	2863.625
393.954	2830.95833
397.905	2805.625
401.852	2799.625
405.797	2752.29167
409.738	2720.95833
413.676	2730.95833
417.61	2712.625
421.542	2698.625
425.47	2676.625
429.396	2647.29167
433.318	2613.95833
437.236	2597.625
441.152	2626.95833
445.065	2571.29167
448.974	2567.95833
452.88	2539.29167
456.783	2518.95833
460.683	2502.625
464.58	2512.625
468.473	2500.29167
472.364	2506.29167
476.251	2532.625
480.135	2532.29167
484.016	2574.29167
487.894	2580.29167
491.769	2588.29167
495.641	2597.625
499.509	2591.29167
503.375	2617.95833
507.237	2615.95833
511.096	2610.95833
514.952	2683.95833
518.805	2810.625
522.655	2813.625
526.502	2665.625
530.346	2590.625
534.187	2569.29167
538.024	2585.95833
541.859	2558.29167
545.69	2607.625
549.519	2579.625
553.344	2549.625
557.166	2538.625
560.985	2505.95833
564.802	2477.29167
568.615	2429.29167
572.425	2397.95833
576.232	2391.29167
580.036	2384.29167
583.836	2390.95833
587.634	2401.625
591.429	2386.625
595.221	2427.29167
599.01	2457.29167
602.796	2490.625
606.578	2487.29167
610.358	2495.625
614.135	2486.95833
617.909	2482.95833
621.679	2483.625
625.447	2443.95833
629.212	2481.29167
632.973	2469.625
636.732	2489.625
640.488	2479.95833
644.241	2434.29167
647.991	2433.95833
651.737	2457.29167
655.481	2406.95833
659.222	2394.95833
662.96	2403.29167
666.695	2422.29167
670.427	2452.29167
674.156	2437.29167
677.882	2472.625
681.605	2451.625
685.325	2427.29167
689.043	2453.29167
692.757	2441.625
696.468	2426.95833
700.177	2437.95833
703.882	2442.95833
707.585	2439.29167
711.284	2434.625
714.981	2438.95833
718.675	2466.29167
722.366	2454.95833
726.054	2437.95833
729.739	2446.95833
733.421	2464.95833
737.1	2443.625
740.777	2493.29167
744.45	2501.625
748.121	2513.625
751.789	2565.625
755.453	2570.29167
759.115	2568.625
762.774	2556.95833
766.431	2599.29167
770.084	2625.95833
773.734	2663.29167
777.382	2705.95833
781.027	2743.625
784.669	2750.95833
788.308	2769.625
791.944	2799.625
795.577	2799.625
799.208	2831.625
802.835	2845.625
806.46	2856.625
810.082	2903.29167
813.701	2887.29167
817.317	2900.29167
820.931	2899.29167
824.542	2900.625
828.149	2891.29167
831.754	2890.625
835.357	2854.29167
838.956	2852.625
842.553	2858.625
846.146	2815.625
849.737	2840.625
853.326	2838.95833
856.911	2886.625
860.493	2920.29167
864.073	2909.625
867.65	2972.95833
871.225	2993.29167
874.796	2998.95833
878.365	3031.29167
881.931	3051.95833
885.494	3085.29167
889.054	3063.95833
892.612	3091.29167
896.166	3074.625
899.719	3039.95833
903.268	3012.95833
906.814	2954.29167
910.358	2945.95833
913.899	2916.625
917.438	2918.29167
920.973	2909.95833
924.506	2968.29167
928.036	2969.95833
931.564	3021.95833
935.088	3036.625
938.61	3057.625
942.129	3097.625
945.646	3170.29167
949.16	3244.95833
952.671	3317.625
956.179	3314.95833
959.685	3241.29167
963.188	3224.29167
966.688	3151.29167
970.185	3086.95833
973.68	3056.625
977.173	3024.29167
980.662	2984.95833
984.149	3009.29167
987.633	3010.625
991.114	3047.625
994.593	3153.625
998.069	3240.625
1001.542	3355.29167
1005.013	3263.95833
1008.481	3108.95833
1011.947	3033.95833
1015.409	3028.625
1018.869	3055.95833
1022.327	3045.95833
1025.782	3017.29167
1029.234	3018.95833
1032.683	2981.625
1036.13	2891.29167
1039.574	2795.625
1043.016	2734.29167
1046.455	2690.95833
1049.891	2659.29167
1053.325	2672.625
1056.756	2685.29167
1060.184	2692.29167
1063.61	2683.29167
1067.033	2704.625
1070.454	2746.625
1073.872	2781.625
1077.287	2732.95833
1080.7	2765.29167
1084.11	2761.29167
1087.517	2749.29167
1090.922	2707.95833
1094.325	2687.625
1097.724	2653.95833
1101.122	2674.625
1104.516	2679.29167
1107.908	2654.95833
1111.298	2686.625
1114.684	2738.29167
1118.069	2785.95833
1121.45	2807.625
1124.83	2811.95833
1128.206	2825.95833
1131.58	2886.29167
1134.951	2950.29167
1138.32	3042.29167
1141.687	3147.29167
1145.05	3190.95833
1148.412	3245.95833
1151.77	3241.625
1155.126	3245.95833
1158.48	3230.95833
1161.831	3261.29167
1165.18	3282.625
1168.525	3318.29167
1171.869	3343.95833
1175.21	3368.625
1178.548	3392.625
1181.884	3445.29167
1185.217	3465.625
1188.548	3539.625
1191.877	3578.625
1195.202	3661.95833
1198.526	3717.95833
1201.846	3698.95833
1205.165	3718.95833
1208.48	3712.29167
1211.794	3713.625
1215.104	3723.95833
1218.413	3735.625
1221.719	3723.625
1225.022	3681.625
1228.323	3662.625
1231.621	3678.625
1234.917	3637.29167
1238.21	3679.95833
1241.501	3662.29167
1244.79	3676.625
1248.076	3678.95833
1251.359	3717.29167
1254.64	3791.95833
1257.919	3794.29167
1261.195	3845.95833
1264.468	3905.29167
1267.74	3953.625
1271.008	3992.95833
1274.275	3948.95833
1277.538	3932.95833
1280.8	3934.625
1284.059	3924.625
1287.315	3954.625
1290.569	3977.625
1293.821	4028.95833
1297.07	4030.29167
1300.317	4006.625
1303.562	4022.95833
1306.803	3978.95833
1310.043	3940.29167
1313.28	3881.95833
1316.515	3836.95833
1319.747	3790.625
1322.977	3742.95833
1326.204	3698.625
1329.429	3664.625
1332.652	3647.95833
1335.872	3620.95833
1339.09	3590.625
1342.306	3561.95833
1345.519	3578.95833
1348.729	3537.625
1351.938	3502.95833
1355.144	3452.625
1358.347	3408.625
1361.548	3453.29167
1364.747	3458.29167
1367.944	3417.625
1371.138	3464.29167
1374.329	3493.95833
1377.518	3548.95833
1380.705	3571.95833
1383.89	3560.625
1387.072	3459.29167
1390.252	3315.29167
1393.429	3224.95833
1396.605	3151.625
1399.777	3045.625
1402.948	3035.95833
1406.116	3018.95833
1409.282	3016.95833
1412.445	3055.625
1415.606	3070.29167
1418.765	3095.625
1421.921	3187.625
1425.075	3269.29167
1428.227	3349.625
1431.376	3490.29167
1434.524	3611.95833
1437.668	3664.95833
1440.811	3717.29167
1443.951	3718.95833
1447.089	3736.29167
1450.224	3704.29167
1453.357	3694.625
1456.488	3654.625
1459.617	3593.625
1462.743	3556.625
1465.867	3488.625
1468.989	3434.29167
1472.108	3362.95833
1475.225	3286.95833
1478.34	3258.95833
1481.453	3263.29167
1484.563	3273.29167
1487.671	3309.625
1490.776	3365.29167
1493.88	3439.625
1496.981	3503.95833
1500.08	3556.625
1503.176	3618.95833
1506.271	3668.625
1509.363	3722.29167
1512.452	3775.29167
1515.54	3821.95833
1518.625	3920.29167
1521.708	4051.95833
1524.789	4213.625
1527.867	4456.95833
1530.944	4702.625
1534.018	4963.29167
1537.089	5152.29167
1540.159	5153.625
1543.226	5100.95833
1546.291	4930.29167
1549.354	4809.625
1552.415	4663.625
1555.473	4522.625
1558.529	4437.625
1561.583	4375.625
1564.634	4343.95833
1567.684	4294.625
1570.731	4324.625
1573.776	4322.95833
1576.819	4347.29167
1579.859	4363.625
1582.898	4421.95833
1585.934	4424.29167
1588.968	4438.29167
1591.999	4416.625
1595.029	4445.625
1598.056	4465.95833
1601.081	4488.95833
1604.104	4451.95833
1607.125	4437.625
1610.144	4328.625
1613.16	4229.95833
1616.174	4125.625
1619.186	4018.29167
1622.196	3904.29167
1625.203	3813.95833
1628.209	3734.95833
1631.212	3705.625
1634.213	3614.29167
1637.212	3589.625
1640.209	3512.625
1643.203	3415.95833
1646.196	3322.625
1649.186	3234.625
1652.174	3145.95833
1655.16	3029.29167
1658.144	2954.625
1661.125	2848.29167
1664.105	2717.95833
1667.082	2620.95833
1670.057	2474.625
1673.03	2299.625
1676.001	2188.95833
1678.97	2058.95833
1681.937	1949.625
1684.901	1840.625
1687.863	1797.95833
1690.824	1701.625
1693.782	1691.29167
1696.738	1621.95833
1699.692	1596.95833
1702.643	1558.625
1705.593	1537.95833
1708.54	1532.29167
1711.486	1518.29167
1714.429	1481.95833
1717.37	1456.29167
1720.309	1437.625
1723.246	1432.95833
1726.181	1410.625
1729.113	1415.29167
1732.044	1393.29167
1734.972	1390.95833
1737.899	1375.29167
1740.823	1364.95833
1743.745	1380.95833
1746.665	1327.95833
1749.583	1291.625
1752.499	1279.29167
1755.413	1260.95833
1758.325	1248.625
1761.235	1241.625
1764.142	1205.95833
1767.048	1201.625
1769.951	1196.625
1772.852	1182.29167
1775.752	1185.29167
1778.649	1174.95833
1781.544	1174.625
1784.437	1146.625
1787.328	1150.95833
1790.217	1134.29167
1793.104	1111.625
1795.989	1116.95833
1798.872	1115.29167
1801.753	1129.95833
1804.631	1132.29167
1807.508	1129.625
1810.383	1133.625
1813.255	1109.95833
1816.126	1110.625
1818.994	1096.29167
1821.861	1098.29167
1824.725	1098.95833
1827.587	1101.95833
1830.448	1078.625
1833.306	1066.625
1836.162	1079.95833
1839.017	1049.95833
1841.869	1070.95833
1844.719	1067.95833
1847.567	1057.29167
1850.414	1045.95833
1853.258	1035.625
1856.1	1051.29167
1858.94	1055.625
1861.778	1051.29167
1864.614	1036.29167
1867.448	1039.95833
1870.28	1025.95833
1873.111	1046.95833
1875.939	1026.29167
1878.765	1046.29167
1881.589	1028.625
1884.411	1021.29167
1887.231	1041.29167
1890.049	1034.29167
1892.865	1019.625
1895.68	1021.95833
1898.492	1011.95833
1901.302	1013.95833
1904.11	1017.95833
1906.916	996.625
1909.721	1001.29167
1912.523	999.625
1915.323	979.29167
1918.122	975.29167
1920.918	989.29167
1923.712	973.29167
1926.505	979.95833
1929.295	963.95833
1932.084	979.29167
1934.87	976.95833
1937.655	970.29167
1940.438	964.95833
1943.218	965.625
1945.997	980.95833
1948.774	987.29167
1951.549	973.95833
1954.322	963.29167
1957.093	967.95833
1959.862	953.95833
1962.629	956.625
1965.394	946.625
1968.157	940.95833
1970.918	954.95833
1973.678	941.95833
1976.435	950.29167
1979.19	945.29167
1981.944	932.29167
1984.696	941.29167
1987.445	924.29167
1990.193	935.29167
1992.939	942.29167
1995.683	927.625
1998.425	904.625
2001.165	935.625
2003.903	919.29167
2006.639	912.29167
2009.374	922.625
2012.106	933.29167
2014.837	899.29167
2017.566	926.625
2020.292	927.95833
2023.017	914.625
2025.74	913.625
2028.461	903.625
2031.18	911.29167
2033.898	905.29167
2036.613	901.95833
2039.327	906.95833
2042.038	888.625
2044.748	894.29167
2047.456	894.95833
2050.162	892.95833
2052.866	878.95833
2055.568	893.95833
2058.268	887.29167
2060.967	887.29167
2063.663	868.95833
2066.358	883.95833
2069.051	880.95833
2071.742	878.95833
2074.431	889.625
2077.118	877.625
2079.804	867.95833
2082.487	885.29167
2085.169	902.95833
2087.849	904.29167
2090.527	881.625
2093.203	904.625
2095.877	910.29167
2098.55	897.625
2101.22	921.625
2103.889	941.625
2106.556	941.29167
2109.221	987.95833
2111.884	1023.95833
2114.546	1117.95833
2117.205	1196.29167
2119.863	1275.625
2122.519	1393.29167
2125.173	1478.29167
2127.825	1564.29167
2130.475	1550.29167
2133.124	1492.29167
2135.771	1437.29167
2138.416	1367.625
2141.059	1282.29167
2143.7	1212.95833
2146.339	1127.29167
2148.977	1066.29167
2151.613	1043.95833
2154.247	1019.625
2156.879	974.29167
2159.51	963.95833
2162.138	932.625
2164.765	934.29167
2167.39	904.95833
2170.013	924.625
2172.634	907.29167
2175.254	887.625
2177.872	905.95833
2180.488	857.29167
2183.102	869.95833
2185.714	861.95833
2188.325	842.95833
2190.934	849.625
2193.541	838.95833
2196.146	826.29167
2198.75	827.625
2201.351	820.29167
2203.951	798.625
2206.549	820.625
2209.146	821.625
2211.74	797.95833
2214.333	801.29167
2216.924	788.29167
2219.514	793.29167
2222.101	780.95833
2224.687	792.29167
2227.271	786.625
2229.853	781.625
2232.433	758.625
2235.012	781.95833
2237.589	778.625
2240.164	786.625
2242.738	778.29167
2245.309	764.95833
2247.879	761.625
2250.448	763.29167
2253.014	740.95833
2255.579	727.95833
2258.142	749.625
2260.703	729.29167
2263.262	725.95833
2265.82	720.95833
2268.376	723.29167
2270.93	708.95833
2273.483	701.29167
2276.033	717.95833
2278.583	702.29167
2281.13	702.625
2283.675	688.95833
2286.219	709.29167
2288.761	703.95833
2291.302	709.95833
2293.841	713.95833
2296.377	686.95833
2298.913	696.625
2301.446	704.625
2303.978	686.625
2306.508	678.29167
2309.037	701.29167
2311.563	693.625
2314.088	683.95833
2316.612	668.95833
2319.133	672.95833
2321.653	670.29167
2324.171	681.29167
2326.688	686.625
2329.202	676.625
2331.715	666.95833
2334.227	675.625
2336.736	664.95833
2339.244	662.29167
2341.751	658.95833
2344.255	661.625
2346.758	662.95833
2349.259	645.29167
2351.759	647.95833
2354.257	646.29167
2356.753	646.29167
2359.247	657.95833
2361.74	662.29167
2364.231	646.29167
2366.721	665.29167
2369.209	630.29167
2371.695	638.95833
2374.179	644.29167
2376.662	627.625
2379.143	667.29167
2381.622	640.95833
2384.1	645.29167
2386.576	639.29167
2389.051	652.625
2391.524	665.29167
2393.995	650.29167
2396.464	643.95833
2398.932	647.29167
2401.398	641.95833
2403.863	632.95833
2406.325	631.29167
2408.787	630.625
2411.246	636.625
2413.704	639.625
2416.16	625.625
2418.615	622.625
2421.068	644.95833
2423.519	629.95833
2425.969	627.95833
2428.417	628.625
2430.863	641.625
2433.308	633.625
2435.751	634.625
2438.193	628.95833
2440.633	629.95833
2443.071	626.625
2445.508	616.95833
2447.943	608.625
2450.376	615.95833
2452.808	614.95833
2455.238	616.625
2457.667	654.95833
2460.093	606.95833
2462.519	605.95833
2464.942	605.625
2467.365	626.29167
2469.785	620.95833
2472.204	609.95833
2474.621	603.29167
2477.037	629.29167
2479.451	600.625
2481.863	603.29167
2484.274	607.95833
2486.683	611.95833
2489.091	608.95833
2491.497	614.625
2493.901	621.625
2496.304	605.625
2498.705	611.95833
2501.105	609.625
2503.503	634.625
2505.899	596.95833
2508.294	628.29167
2510.687	602.625
2513.079	605.29167
2515.469	598.625
2517.858	603.95833
2520.245	619.95833
2522.63	603.95833
2525.014	597.625
2527.396	596.95833
2529.776	596.29167
2532.156	596.625
2534.533	596.95833
2536.909	601.625
2539.283	586.95833
2541.656	597.95833
2544.027	614.625
2546.397	596.95833
2548.765	592.95833
2551.131	603.95833
2553.496	592.625
2555.86	605.29167
2558.221	601.625
2560.582	596.95833
2562.94	576.95833
2565.298	589.625
2567.653	611.625
2570.007	589.625
2572.36	594.95833
2574.711	590.95833
2577.06	615.625
2579.408	594.29167
2581.754	590.95833
2584.099	608.29167
2586.442	586.29167
2588.784	592.95833
2591.124	596.95833
2593.463	598.95833
2595.8	599.95833
2598.135	583.625
2600.469	597.29167
2602.802	605.95833
2605.133	596.29167
2607.462	587.625
2609.79	593.625
2612.116	593.95833
2614.441	597.625
2616.764	597.29167
2619.086	594.625
2621.406	594.95833
2623.725	597.95833
2626.042	601.29167
2628.358	598.625
2630.672	596.95833
2632.985	608.625
2635.296	594.625
2637.606	601.625
2639.914	602.95833
2642.22	606.625
2644.525	606.95833
2646.829	608.625
2649.131	618.29167
2651.432	621.29167
2653.731	612.95833
2656.028	624.29167
2658.324	621.95833
2660.619	607.95833
2662.912	638.625
2665.204	605.29167
2667.494	630.29167
2669.782	613.29167
2672.07	624.29167
2674.355	632.625
2676.639	629.95833
2678.922	613.95833
2681.203	627.29167
2683.483	611.29167
2685.761	619.95833
2688.038	634.95833
2690.313	641.95833
2692.587	635.625
2694.859	620.625
2697.13	632.625
2699.399	642.95833
2701.667	650.29167
2703.933	651.95833
2706.198	651.625
2708.461	667.95833
2710.723	663.625
2712.984	664.95833
2715.243	682.29167
2717.5	665.95833
2719.757	683.625
2722.011	680.625
2724.264	686.625
2726.516	681.95833
2728.766	679.95833
2731.015	690.29167
2733.262	678.95833
2735.508	681.95833
2737.753	685.29167
2739.996	664.95833
2742.237	664.625
2744.477	672.95833
2746.716	677.29167
2748.953	673.625
2751.189	671.29167
2753.423	666.95833
2755.656	651.29167
2757.887	652.95833
2760.117	657.95833
2762.346	646.29167
2764.573	639.95833
2766.798	652.95833
2769.022	667.29167
2771.245	665.29167
2773.467	661.95833
2775.686	671.29167
2777.905	681.625
2780.122	686.625
2782.337	686.95833
2784.552	689.625
2786.764	698.95833
2788.976	703.29167
2791.186	725.625
2793.394	728.625
2795.601	728.95833
2797.807	745.625
2800.011	752.95833
2802.214	762.625
2804.415	764.95833
2806.615	777.95833
2808.814	790.95833
2811.011	789.29167
2813.206	788.29167
2815.401	812.625
2817.594	825.29167
2819.785	842.625
2821.975	832.95833
2824.164	837.29167
2826.351	867.625
2828.537	884.29167
2830.722	899.625
2832.905	915.625
2835.086	934.625
2837.267	971.95833
2839.445	1005.95833
2841.623	1020.29167
2843.799	1057.95833
2845.974	1116.625
2848.147	1151.29167
2850.319	1170.625
2852.489	1216.625
2854.659	1217.29167
2856.826	1241.95833
2858.993	1261.29167
2861.158	1229.625
2863.321	1222.29167
2865.483	1251.95833
2867.644	1257.625
2869.804	1267.29167
2871.962	1243.95833
2874.118	1246.95833
2876.274	1248.625
2878.428	1251.29167
2880.58	1212.625
2882.731	1218.625
2884.881	1221.29167
2887.03	1220.29167
2889.177	1208.625
2891.322	1228.29167
2893.467	1220.625
2895.61	1238.95833
2897.751	1269.95833
2899.892	1227.625
2902.03	1241.29167
2904.168	1250.29167
2906.304	1260.29167
2908.439	1280.625
2910.572	1263.29167
2912.704	1284.95833
2914.835	1274.95833
2916.965	1266.625
2919.093	1301.95833
2921.219	1243.625
2923.345	1254.95833
2925.469	1229.95833
2927.591	1222.95833
2929.712	1180.95833
2931.832	1169.95833
2933.951	1150.29167
2936.068	1123.625
2938.184	1094.625
2940.299	1059.29167
2942.412	1026.95833
2944.524	1002.29167
2946.634	984.95833
2948.744	929.95833
2950.851	945.95833
2952.958	896.29167
2955.063	885.29167
2957.167	885.95833
2959.269	842.625
2961.371	853.95833
2963.471	829.625
2965.569	817.95833
2967.666	778.95833
2969.762	775.29167
2971.857	753.29167
2973.95	736.625
2976.042	733.625
2978.133	713.29167
2980.222	704.625
2982.31	676.625
2984.396	656.95833
2986.482	662.29167
2988.566	661.95833
2990.648	642.95833
2992.73	637.29167
2994.81	628.625
2996.889	634.29167
2998.966	614.29167
3001.042	631.29167
3003.117	610.625
3005.191	611.95833
3007.263	597.625
3009.334	595.625
3011.403	592.95833
3013.472	569.95833
3015.539	572.95833
3017.604	587.625
3019.669	545.29167
3021.732	540.95833
3023.794	548.95833
3025.854	531.29167
3027.914	536.625
3029.971	539.95833
3032.028	530.625
3034.083	530.29167
3036.137	526.29167
3038.19	515.29167
3040.242	494.95833
3042.292	497.95833
3044.341	478.625
3046.388	489.95833
3048.435	455.29167
3050.48	484.29167
3052.524	475.29167
3054.566	443.29167
3056.607	469.29167
3058.647	461.625
3060.686	426.625
3062.723	424.29167
3064.759	415.29167
3066.794	-0.04167
3068.828	-1.375
3070.86	-1.70833
