-0.839	441.625
3.438	486.625
7.711	133.625
11.981	51.95833
16.247	47.95833
20.509	41.95833
24.768	44.95833
29.024	43.95833
33.276	43.29167
37.524	48.625
41.769	37.95833
46.01	35.95833
50.247	49.29167
54.481	59.625
58.712	63.95833
62.939	46.625
67.162	62.95833
71.382	52.95833
75.599	49.625
79.812	60.95833
84.021	79.95833
88.227	59.29167
92.429	61.625
96.628	51.625
100.823	64.95833
105.015	70.95833
109.204	75.95833
113.388	72.95833
117.57	66.625
121.748	85.625
125.922	73.625
130.093	96.29167
134.261	101.29167
138.425	92.95833
142.585	129.95833
146.742	132.625
150.896	154.95833
155.046	191.625
159.193	293.625
163.336	521.95833
167.476	948.29167
171.613	1739.625
175.746	2928.95833
179.875	4349.29167
184.002	5686.29167
188.124	6590.625
192.244	6871.29167
196.36	6789.95833
200.472	6554.625
204.581	6333.95833
208.687	6104.625
212.79	6059.95833
216.889	6042.625
220.984	6064.29167
225.077	6076.95833
229.165	6114.29167
233.251	6095.95833
237.333	6107.95833
241.412	6065.95833
245.487	6036.625
249.559	5924.625
253.628	5897.29167
257.694	5894.625
261.756	5830.95833
265.814	5745.625
269.87	5617.625
273.922	5502.95833
277.97	5506.95833
282.016	5549.29167
286.058	5627.95833
290.097	5734.625
294.132	5834.29167
298.164	5771.95833
302.193	5503.625
306.219	5135.95833
310.241	4641.95833
314.26	4240.95833
318.276	3848.29167
322.288	3552.625
326.297	3321.29167
330.303	3150.29167
334.305	3056.29167
338.305	2956.95833
342.301	2919.625
346.294	2849.29167
350.283	2835.29167
354.269	2799.625
358.252	2786.625
362.232	2776.625
366.209	2718.625
370.182	2688.95833
374.152	2680.95833
378.119	2693.625
382.083	2670.95833
386.043	2678.29167
390	2652.29167
393.954	2632.625
397.905	2590.95833
401.852	2586.625
405.797	2546.625
409.738	2534.29167
413.676	2522.29167
417.61	2519.625
421.542	2458.625
425.47	2446.625
429.396	2457.625
433.318	2406.625
437.236	2422.29167
441.152	2416.29167
445.065	2365.95833
448.974	2363.95833
452.88	2341.625
456.783	2337.625
460.683	2313.29167
464.58	2308.625
468.473	2305.95833
472.364	2324.29167
476.251	2328.625
480.135	2340.29167
484.016	2363.625
487.894	2384.95833
491.769	2402.625
495.641	2388.95833
499.509	2407.95833
503.375	2396.29167
507.237	2403.625
511.096	2420.29167
514.952	2506.625
518.805	2668.625
522.655	2673.625
526.502	2510.95833
530.346	2403.625
534.187	2380.625
538.024	2385.95833
541.859	2385.95833
545.69	2392.625
549.519	2364.95833
553.344	2366.625
557.166	2323.29167
560.985	2296.625
564.802	2290.625
568.615	2234.29167
572.425	2208.95833
576.232	2203.29167
580.036	2202.29167
583.836	2213.95833
587.634	2217.29167
591.429	2191.29167
595.221	2237.625
599.01	2258.625
602.796	2291.95833
606.578	2293.29167
610.358	2299.95833
614.135	2281.95833
617.909	2283.625
621.679	2292.625
625.447	2258.625
629.212	2273.95833
632.973	2297.95833
636.732	2260.95833
640.488	2262.95833
644.241	2238.625
647.991	2239.29167
651.737	2258.625
655.481	2222.29167
659.222	2212.29167
662.96	2204.95833
666.695	2221.95833
670.427	2254.95833
674.156	2243.95833
677.882	2261.29167
681.605	2254.29167
685.325	2222.29167
689.043	2240.625
692.757	2240.625
696.468	2261.95833
700.177	2252.625
703.882	2239.29167
707.585	2247.29167
711.284	2243.29167
714.981	2237.95833
718.675	2252.29167
722.366	2261.29167
726.054	2253.29167
729.739	2248.29167
733.421	2249.95833
737.1	2248.625
740.777	2270.95833
744.45	2289.625
748.121	2317.625
751.789	2363.95833
755.453	2366.95833
759.115	2355.95833
762.774	2399.95833
766.431	2421.625
770.084	2448.625
773.734	2444.29167
777.382	2496.625
781.027	2531.29167
784.669	2521.29167
788.308	2553.625
791.944	2567.95833
795.577	2609.95833
799.208	2620.95833
802.835	2623.625
806.46	2647.625
810.082	2683.29167
813.701	2660.95833
817.317	2678.625
820.931	2679.95833
824.542	2693.29167
828.149	2684.95833
831.754	2659.625
835.357	2633.29167
838.956	2643.95833
842.553	2652.625
846.146	2608.29167
849.737	2649.29167
853.326	2641.29167
856.911	2643.625
860.493	2682.95833
864.073	2720.95833
867.65	2757.95833
871.225	2803.95833
874.796	2782.95833
878.365	2814.29167
881.931	2812.29167
885.494	2826.29167
889.054	2846.625
892.612	2866.29167
896.166	2829.95833
899.719	2814.625
903.268	2791.95833
906.814	2777.625
910.358	2749.625
913.899	2691.625
917.438	2727.29167
920.973	2722.625
924.506	2724.95833
928.036	2762.625
931.564	2803.625
935.088	2823.95833
938.61	2831.625
942.129	2879.625
945.646	2943.625
949.16	3003.625
952.671	3038.95833
956.179	3065.625
959.685	3007.29167
963.188	2987.29167
966.688	2924.625
970.185	2855.95833
973.68	2804.29167
977.173	2812.625
980.662	2769.95833
984.149	2777.625
987.633	2783.95833
991.114	2832.29167
994.593	2915.625
998.069	2986.29167
1001.542	3075.95833
1005.013	3004.95833
1008.481	2847.29167
1011.947	2809.625
1015.409	2800.625
1018.869	2792.29167
1022.327	2808.95833
1025.782	2781.625
1029.234	2786.625
1032.683	2748.95833
1036.13	2669.95833
1039.574	2579.29167
1043.016	2516.95833
1046.455	2493.625
1049.891	2436.625
1053.325	2463.95833
1056.756	2473.29167
1060.184	2494.29167
1063.61	2493.625
1067.033	2503.29167
1070.454	2519.625
1073.872	2556.29167
1077.287	2548.29167
1080.7	2542.29167
1084.11	2549.95833
1087.517	2523.29167
1090.922	2500.29167
1094.325	2461.625
1097.724	2474.625
1101.122	2444.29167
1104.516	2455.29167
1107.908	2444.29167
1111.298	2495.95833
1114.684	2527.29167
1118.069	2572.625
1121.45	2596.29167
1124.83	2612.625
1128.206	2627.625
1131.58	2660.625
1134.951	2741.625
1138.32	2818.625
1141.687	2932.29167
1145.05	2993.95833
1148.412	3010.95833
1151.77	2997.95833
1155.126	3009.95833
1158.48	3006.95833
1161.831	3025.625
1165.18	3044.95833
1168.525	3084.29167
1171.869	3107.95833
1175.21	3143.29167
1178.548	3161.95833
1181.884	3199.625
1185.217	3226.29167
1188.548	3273.625
1191.877	3329.95833
1195.202	3391.29167
1198.526	3440.95833
1201.846	3436.29167
1205.165	3463.29167
1208.48	3439.625
1211.794	3451.95833
1215.104	3455.95833
1218.413	3459.29167
1221.719	3442.95833
1225.022	3440.625
1228.323	3393.95833
1231.621	3397.95833
1234.917	3393.95833
1238.21	3411.29167
1241.501	3373.29167
1244.79	3396.95833
1248.076	3396.625
1251.359	3426.625
1254.64	3506.625
1257.919	3497.625
1261.195	3570.29167
1264.468	3648.625
1267.74	3698.29167
1271.008	3687.625
1274.275	3656.625
1277.538	3631.29167
1280.8	3638.95833
1284.059	3644.95833
1287.315	3667.95833
1290.569	3688.29167
1293.821	3698.95833
1297.07	3730.625
1300.317	3711.95833
1303.562	3708.95833
1306.803	3698.29167
1310.043	3649.95833
1313.28	3556.95833
1316.515	3537.625
1319.747	3511.625
1322.977	3448.625
1326.204	3438.29167
1329.429	3382.95833
1332.652	3356.625
1335.872	3362.625
1339.09	3307.95833
1342.306	3336.95833
1345.519	3291.625
1348.729	3260.29167
1351.938	3243.29167
1355.144	3168.95833
1358.347	3160.29167
1361.548	3177.625
1364.747	3181.29167
1367.944	3141.625
1371.138	3194.29167
1374.329	3232.625
1377.518	3260.29167
1380.705	3285.95833
1383.89	3265.95833
1387.072	3170.95833
1390.252	3069.29167
1393.429	2948.95833
1396.605	2893.625
1399.777	2816.95833
1402.948	2805.29167
1406.116	2770.625
1409.282	2798.625
1412.445	2778.95833
1415.606	2825.95833
1418.765	2869.95833
1421.921	2928.29167
1425.075	3015.95833
1428.227	3074.95833
1431.376	3217.29167
1434.524	3307.29167
1437.668	3418.95833
1440.811	3393.29167
1443.951	3417.29167
1447.089	3452.625
1450.224	3420.29167
1453.357	3407.95833
1456.488	3366.95833
1459.617	3332.95833
1462.743	3280.29167
1465.867	3189.625
1468.989	3178.29167
1472.108	3111.95833
1475.225	3058.625
1478.34	3036.95833
1481.453	3033.29167
1484.563	3046.625
1487.671	3077.29167
1490.776	3126.95833
1493.88	3206.95833
1496.981	3239.29167
1500.08	3343.29167
1503.176	3370.29167
1506.271	3431.95833
1509.363	3445.625
1512.452	3483.29167
1515.54	3537.625
1518.625	3654.625
1521.708	3751.625
1524.789	3941.625
1527.867	4135.29167
1530.944	4384.625
1534.018	4584.625
1537.089	4775.625
1540.159	4806.29167
1543.226	4724.625
1546.291	4594.29167
1549.354	4476.625
1552.415	4350.29167
1555.473	4233.625
1558.529	4154.625
1561.583	4053.29167
1564.634	4024.29167
1567.684	4042.95833
1570.731	4013.29167
1573.776	4030.95833
1576.819	4049.625
1579.859	4072.95833
1582.898	4082.95833
1585.934	4115.625
1588.968	4148.625
1591.999	4137.625
1595.029	4132.95833
1598.056	4179.95833
1601.081	4214.29167
1604.104	4158.95833
1607.125	4112.29167
1610.144	4006.95833
1613.16	3933.95833
1616.174	3810.625
1619.186	3707.29167
1622.196	3609.29167
1625.203	3499.625
1628.209	3451.95833
1631.212	3366.29167
1634.213	3323.625
1637.212	3290.625
1640.209	3244.625
1643.203	3130.29167
1646.196	3021.625
1649.186	2965.29167
1652.174	2880.95833
1655.16	2779.625
1658.144	2700.625
1661.125	2617.95833
1664.105	2497.29167
1667.082	2394.29167
1670.057	2270.95833
1673.03	2141.95833
1676.001	1999.29167
1678.97	1896.29167
1681.937	1777.29167
1684.901	1706.625
1687.863	1641.625
1690.824	1582.625
1693.782	1551.625
1696.738	1478.29167
1699.692	1471.95833
1702.643	1431.625
1705.593	1408.29167
1708.54	1401.29167
1711.486	1387.625
1714.429	1354.29167
1717.37	1346.29167
1720.309	1337.29167
1723.246	1319.95833
1726.181	1287.29167
1729.113	1307.95833
1732.044	1277.29167
1734.972	1271.95833
1737.899	1263.29167
1740.823	1242.625
1743.745	1258.625
1746.665	1208.29167
1749.583	1195.625
1752.499	1183.625
1755.413	1169.29167
1758.325	1138.625
1761.235	1139.29167
1764.142	1103.625
1767.048	1106.29167
1769.951	1104.95833
1772.852	1097.29167
1775.752	1083.625
1778.649	1079.95833
1781.544	1088.29167
1784.437	1061.29167
1787.328	1076.95833
1790.217	1056.95833
1793.104	1022.95833
1795.989	1024.625
1798.872	1011.95833
1801.753	1032.29167
1804.631	1039.95833
1807.508	1045.29167
1810.383	1022.625
1813.255	1020.29167
1816.126	1020.625
1818.994	1012.625
1821.861	998.95833
1824.725	1013.625
1827.587	994.29167
1830.448	1001.95833
1833.306	964.95833
1836.162	986.625
1839.017	984.625
1841.869	972.29167
1844.719	977.95833
1847.567	953.95833
1850.414	950.95833
1853.258	946.625
1856.1	962.29167
1858.94	982.29167
1861.778	958.95833
1864.614	949.95833
1867.448	968.625
1870.28	945.625
1873.111	973.625
1875.939	948.625
1878.765	970.29167
1881.589	950.29167
1884.411	949.29167
1887.231	953.95833
1890.049	947.29167
1892.865	943.625
1895.68	926.29167
1898.492	928.29167
1901.302	918.625
1904.11	925.95833
1906.916	915.29167
1909.721	911.95833
1912.523	924.95833
1915.323	910.95833
1918.122	910.625
1920.918	911.625
1923.712	898.625
1926.505	891.95833
1929.295	896.29167
1932.084	908.625
1934.87	907.29167
1937.655	890.95833
1940.438	895.29167
1943.218	900.625
1945.997	896.625
1948.774	906.29167
1951.549	902.29167
1954.322	899.95833
1957.093	894.95833
1959.862	890.625
1962.629	891.95833
1965.394	868.29167
1968.157	860.95833
1970.918	888.29167
1973.678	871.29167
1976.435	888.95833
1979.19	863.95833
1981.944	868.95833
1984.696	867.29167
1987.445	859.95833
1990.193	863.625
1992.939	880.29167
1995.683	861.625
1998.425	839.625
2001.165	863.95833
2003.903	843.29167
2006.639	841.625
2009.374	851.95833
2012.106	861.29167
2014.837	824.625
2017.566	848.29167
2020.292	839.29167
2023.017	856.29167
2025.74	831.625
2028.461	853.95833
2031.18	841.625
2033.898	821.29167
2036.613	845.29167
2039.327	841.95833
2042.038	804.95833
2044.748	840.29167
2047.456	833.625
2050.162	803.29167
2052.866	822.625
2055.568	826.625
2058.268	840.625
2060.967	842.625
2063.663	817.29167
2066.358	815.625
2069.051	809.625
2071.742	818.95833
2074.431	829.29167
2077.118	817.29167
2079.804	804.29167
2082.487	814.625
2085.169	831.625
2087.849	837.29167
2090.527	818.95833
2093.203	845.29167
2095.877	842.625
2098.55	837.625
2101.22	864.95833
2103.889	865.625
2106.556	869.95833
2109.221	930.95833
2111.884	946.625
2114.546	1029.29167
2117.205	1116.625
2119.863	1215.95833
2122.519	1295.29167
2125.173	1377.29167
2127.825	1457.95833
2130.475	1435.625
2133.124	1398.29167
2135.771	1327.95833
2138.416	1273.29167
2141.059	1176.29167
2143.7	1142.95833
2146.339	1052.29167
2148.977	992.625
2151.613	976.95833
2154.247	952.95833
2156.879	922.95833
2159.51	896.625
2162.138	875.95833
2164.765	870.95833
2167.39	847.625
2170.013	862.625
2172.634	850.95833
2175.254	833.95833
2177.872	857.95833
2180.488	798.29167
2183.102	815.625
2185.714	804.29167
2188.325	786.625
2190.934	793.95833
2193.541	792.95833
2196.146	778.29167
2198.75	767.29167
2201.351	784.625
2203.951	755.625
2206.549	769.95833
2209.146	762.29167
2211.74	764.625
2214.333	760.625
2216.924	727.625
2219.514	746.29167
2222.101	743.29167
2224.687	754.625
2227.271	733.29167
2229.853	724.625
2232.433	720.95833
2235.012	731.95833
2237.589	740.625
2240.164	747.625
2242.738	735.95833
2245.309	718.29167
2247.879	723.95833
2250.448	737.95833
2253.014	716.625
2255.579	695.625
2258.142	703.29167
2260.703	671.625
2263.262	681.95833
2265.82	682.95833
2268.376	688.95833
2270.93	676.95833
2273.483	667.29167
2276.033	686.29167
2278.583	672.625
2281.13	666.29167
2283.675	666.29167
2286.219	676.625
2288.761	672.29167
2291.302	679.29167
2293.841	678.29167
2296.377	645.29167
2298.913	658.29167
2301.446	665.29167
2303.978	663.95833
2306.508	645.95833
2309.037	653.95833
2311.563	659.95833
2314.088	660.95833
2316.612	642.29167
2319.133	658.29167
2321.653	654.29167
2324.171	637.625
2326.688	661.29167
2329.202	641.625
2331.715	650.29167
2334.227	643.29167
2336.736	636.29167
2339.244	633.29167
2341.751	616.625
2344.255	646.625
2346.758	635.95833
2349.259	626.29167
2351.759	643.625
2354.257	623.29167
2356.753	620.29167
2359.247	632.29167
2361.74	643.29167
2364.231	621.29167
2366.721	636.29167
2369.209	626.29167
2371.695	616.95833
2374.179	614.29167
2376.662	621.29167
2379.143	644.625
2381.622	621.29167
2384.1	626.625
2386.576	623.625
2389.051	634.625
2391.524	638.29167
2393.995	635.29167
2396.464	622.29167
2398.932	620.29167
2401.398	633.29167
2403.863	614.625
2406.325	607.95833
2408.787	617.95833
2411.246	619.29167
2413.704	615.625
2416.16	615.625
2418.615	611.95833
2421.068	625.625
2423.519	626.625
2425.969	608.625
2428.417	615.95833
2430.863	643.95833
2433.308	620.625
2435.751	619.95833
2438.193	601.29167
2440.633	616.95833
2443.071	619.625
2445.508	605.29167
2447.943	610.625
2450.376	603.29167
2452.808	616.95833
2455.238	601.625
2457.667	620.95833
2460.093	604.95833
2462.519	595.29167
2464.942	602.625
2467.365	613.625
2469.785	614.625
2472.204	605.29167
2474.621	599.625
2477.037	628.95833
2479.451	589.95833
2481.863	602.95833
2484.274	593.95833
2486.683	600.625
2489.091	608.95833
2491.497	595.625
2493.901	598.95833
2496.304	607.95833
2498.705	611.95833
2501.105	603.95833
2503.503	631.29167
2505.899	598.29167
2508.294	606.95833
2510.687	593.29167
2513.079	602.95833
2515.469	602.625
2517.858	603.625
2520.245	609.95833
2522.63	587.29167
2525.014	592.29167
2527.396	595.95833
2529.776	595.625
2532.156	601.29167
2534.533	586.95833
2536.909	595.625
2539.283	584.625
2541.656	597.29167
2544.027	611.29167
2546.397	612.95833
2548.765	607.95833
2551.131	601.95833
2553.496	604.95833
2555.86	608.625
2558.221	617.625
2560.582	598.625
2562.94	594.95833
2565.298	599.29167
2567.653	618.29167
2570.007	584.95833
2572.36	596.95833
2574.711	593.29167
2577.06	618.625
2579.408	603.29167
2581.754	607.625
2584.099	608.29167
2586.442	605.625
2588.784	601.625
2591.124	605.625
2593.463	603.29167
2595.8	609.625
2598.135	592.29167
2600.469	604.29167
2602.802	613.95833
2605.133	623.95833
2607.462	595.29167
2609.79	593.95833
2612.116	613.625
2614.441	611.95833
2616.764	618.95833
2619.086	611.625
2621.406	612.95833
2623.725	627.625
2626.042	618.95833
2628.358	609.95833
2630.672	612.625
2632.985	617.29167
2635.296	627.625
2637.606	624.95833
2639.914	610.625
2642.22	619.95833
2644.525	620.625
2646.829	624.95833
2649.131	637.625
2651.432	639.625
2653.731	634.29167
2656.028	643.95833
2658.324	626.29167
2660.619	618.29167
2662.912	642.95833
2665.204	633.29167
2667.494	655.29167
2669.782	629.95833
2672.07	642.29167
2674.355	649.95833
2676.639	644.95833
2678.922	645.29167
2681.203	654.625
2683.483	634.625
2685.761	627.625
2688.038	649.625
2690.313	657.625
2692.587	640.625
2694.859	650.95833
2697.13	651.95833
2699.399	659.625
2701.667	673.625
2703.933	675.625
2706.198	678.625
2708.461	672.95833
2710.723	683.625
2712.984	684.29167
2715.243	704.95833
2717.5	683.95833
2719.757	702.625
2722.011	690.625
2724.264	694.625
2726.516	719.625
2728.766	706.29167
2731.015	717.29167
2733.262	692.625
2735.508	692.625
2737.753	704.95833
2739.996	688.29167
2742.237	691.95833
2744.477	697.95833
2746.716	705.95833
2748.953	687.95833
2751.189	701.625
2753.423	679.29167
2755.656	685.95833
2757.887	680.29167
2760.117	690.95833
2762.346	676.625
2764.573	669.625
2766.798	687.95833
2769.022	686.625
2771.245	688.95833
2773.467	696.95833
2775.686	708.95833
2777.905	707.29167
2780.122	717.29167
2782.337	716.95833
2784.552	721.625
2786.764	720.29167
2788.976	732.95833
2791.186	744.95833
2793.394	749.29167
2795.601	764.29167
2797.807	752.95833
2800.011	778.625
2802.214	801.625
2804.415	785.29167
2806.615	797.29167
2808.814	813.95833
2811.011	818.625
2813.206	818.95833
2815.401	837.625
2817.594	858.29167
2819.785	858.625
2821.975	840.625
2824.164	869.95833
2826.351	887.95833
2828.537	914.29167
2830.722	915.29167
2832.905	922.625
2835.086	959.625
2837.267	996.625
2839.445	1019.29167
2841.623	1015.95833
2843.799	1070.29167
2845.974	1101.625
2848.147	1147.625
2850.319	1160.95833
2852.489	1194.625
2854.659	1204.29167
2856.826	1219.29167
2858.993	1238.29167
2861.158	1228.625
2863.321	1227.625
2865.483	1244.29167
2867.644	1239.29167
2869.804	1229.95833
2871.962	1222.29167
2874.118	1215.29167
2876.274	1218.625
2878.428	1223.29167
2880.58	1205.29167
2882.731	1196.29167
2884.881	1208.625
2887.03	1218.625
2889.177	1200.95833
2891.322	1227.625
2893.467	1209.625
2895.61	1221.625
2897.751	1228.95833
2899.892	1229.29167
2902.03	1241.29167
2904.168	1252.95833
2906.304	1246.95833
2908.439	1279.29167
2910.572	1241.29167
2912.704	1268.29167
2914.835	1264.625
2916.965	1257.625
2919.093	1246.95833
2921.219	1224.625
2923.345	1233.625
2925.469	1232.29167
2927.591	1217.625
2929.712	1172.625
2931.832	1179.29167
2933.951	1129.95833
2936.068	1126.625
2938.184	1095.95833
2940.299	1058.95833
2942.412	1040.29167
2944.524	995.625
2946.634	992.625
2948.744	940.625
2950.851	970.29167
2952.958	911.95833
2955.063	913.29167
2957.167	905.95833
2959.269	874.29167
2961.371	892.625
2963.471	847.625
2965.569	852.625
2967.666	814.29167
2969.762	810.95833
2971.857	788.95833
2973.95	766.29167
2976.042	773.625
2978.133	739.29167
2980.222	743.29167
2982.31	707.625
2984.396	703.95833
2986.482	692.625
2988.566	696.29167
2990.648	678.95833
2992.73	694.625
2994.81	663.29167
2996.889	668.29167
2998.966	658.29167
3001.042	668.29167
3003.117	662.625
3005.191	658.625
3007.263	654.95833
3009.334	652.625
3011.403	641.29167
3013.472	621.95833
3015.539	621.29167
3017.604	635.95833
3019.669	601.625
3021.732	593.29167
3023.794	594.95833
3025.854	592.625
3027.914	591.29167
3029.971	597.95833
3032.028	587.625
3034.083	593.29167
3036.137	580.625
3038.19	558.625
3040.242	547.29167
3042.292	536.95833
3044.341	525.29167
3046.388	539.625
3048.435	516.625
3050.48	523.29167
3052.524	513.29167
3054.566	499.625
3056.607	519.95833
3058.647	500.95833
3060.686	487.625
3062.723	460.95833
3064.759	455.29167
3066.794	0.29167
3068.828	-1.04167
3070.86	-3.70833
