-0.839	414.70833
3.438	454.70833
7.711	122.70833
11.981	53.70833
16.247	43.375
20.509	41.375
24.768	39.04167
29.024	40.375
33.276	40.70833
37.524	46.375
41.769	37.70833
46.01	31.04167
50.247	48.375
54.481	60.375
58.712	62.70833
62.939	46.70833
67.162	56.04167
71.382	53.375
75.599	43.375
79.812	57.375
84.021	75.375
88.227	53.04167
92.429	59.70833
96.628	44.375
100.823	59.70833
105.015	67.70833
109.204	66.375
113.388	68.70833
117.57	63.375
121.748	80.375
125.922	70.375
130.093	87.70833
134.261	95.04167
138.425	81.04167
142.585	121.70833
146.742	114.375
150.896	131.375
155.046	157.04167
159.193	244.70833
163.336	424.70833
167.476	773.04167
171.613	1421.375
175.746	2372.375
179.875	3556.04167
184.002	4636.04167
188.124	5424.375
192.244	5627.375
196.36	5586.04167
200.472	5365.375
204.581	5195.04167
208.687	5010.375
212.79	4923.04167
216.889	4895.70833
220.984	4873.70833
225.077	4870.375
229.165	4862.375
233.251	4849.04167
237.333	4837.04167
241.412	4798.70833
245.487	4753.375
249.559	4704.70833
253.628	4684.70833
257.694	4645.70833
261.756	4597.375
265.814	4549.375
269.87	4456.04167
273.922	4387.375
277.97	4400.04167
282.016	4410.70833
286.058	4430.375
290.097	4528.70833
294.132	4615.04167
298.164	4596.70833
302.193	4390.04167
306.219	4070.70833
310.241	3744.04167
314.26	3432.70833
318.276	3158.70833
322.288	2957.04167
326.297	2784.375
330.303	2656.375
334.305	2573.375
338.305	2487.375
342.301	2451.04167
346.294	2439.375
350.283	2392.04167
354.269	2384.375
358.252	2375.375
362.232	2333.70833
366.209	2298.70833
370.182	2283.70833
374.152	2270.04167
378.119	2263.70833
382.083	2259.375
386.043	2278.70833
390	2240.70833
393.954	2233.375
397.905	2217.70833
401.852	2200.70833
405.797	2180.04167
409.738	2137.04167
413.676	2169.375
417.61	2151.70833
421.542	2131.70833
425.47	2126.70833
429.396	2101.04167
433.318	2084.70833
437.236	2081.70833
441.152	2095.04167
445.065	2047.375
448.974	2032.375
452.88	2030.70833
456.783	2022.70833
460.683	2010.04167
464.58	2040.70833
468.473	2016.70833
472.364	2034.04167
476.251	2058.70833
480.135	2030.04167
484.016	2076.375
487.894	2069.04167
491.769	2090.375
495.641	2081.70833
499.509	2081.04167
503.375	2083.70833
507.237	2089.375
511.096	2132.04167
514.952	2302.04167
518.805	2494.04167
522.655	2585.70833
526.502	2287.375
530.346	2120.375
534.187	2092.70833
538.024	2079.375
541.859	2059.70833
545.69	2080.375
549.519	2069.375
553.344	2058.04167
557.166	2021.375
560.985	1993.70833
564.802	1968.04167
568.615	1943.04167
572.425	1919.70833
576.232	1924.04167
580.036	1928.04167
583.836	1913.70833
587.634	1936.375
591.429	1917.375
595.221	1962.375
599.01	1968.70833
602.796	1990.04167
606.578	2010.375
610.358	1997.375
614.135	1981.375
617.909	1980.04167
621.679	2000.70833
625.447	1955.70833
629.212	1969.70833
632.973	1965.375
636.732	1972.375
640.488	1959.04167
644.241	1931.04167
647.991	1933.375
651.737	1939.375
655.481	1914.375
659.222	1920.375
662.96	1905.70833
666.695	1925.70833
670.427	1943.70833
674.156	1949.70833
677.882	1957.70833
681.605	1955.375
685.325	1911.375
689.043	1931.375
692.757	1932.375
696.468	1939.04167
700.177	1943.375
703.882	1926.04167
707.585	1922.70833
711.284	1905.70833
714.981	1926.70833
718.675	1928.70833
722.366	1948.70833
726.054	1931.04167
729.739	1926.70833
733.421	1927.70833
737.1	1923.70833
740.777	1948.70833
744.45	1953.04167
748.121	1971.375
751.789	2007.70833
755.453	2008.375
759.115	2001.375
762.774	2034.04167
766.431	2041.70833
770.084	2053.375
773.734	2067.375
777.382	2105.375
781.027	2104.375
784.669	2128.04167
788.308	2132.70833
791.944	2155.70833
795.577	2172.70833
799.208	2172.04167
802.835	2196.375
806.46	2203.70833
810.082	2198.04167
813.701	2213.375
817.317	2209.375
820.931	2211.04167
824.542	2222.70833
828.149	2203.70833
831.754	2191.70833
835.357	2186.70833
838.956	2211.04167
842.553	2195.375
846.146	2189.375
849.737	2176.375
853.326	2185.70833
856.911	2185.375
860.493	2209.70833
864.073	2223.04167
867.65	2250.70833
871.225	2277.375
874.796	2285.375
878.365	2297.04167
881.931	2315.70833
885.494	2333.375
889.054	2344.70833
892.612	2357.375
896.166	2323.70833
899.719	2318.04167
903.268	2272.375
906.814	2253.375
910.358	2225.04167
913.899	2213.70833
917.438	2215.70833
920.973	2199.375
924.506	2208.375
928.036	2267.04167
931.564	2281.04167
935.088	2312.04167
938.61	2321.70833
942.129	2339.375
945.646	2402.04167
949.16	2449.375
952.671	2498.04167
956.179	2496.70833
959.685	2455.70833
963.188	2436.375
966.688	2367.375
970.185	2340.04167
973.68	2300.04167
977.173	2303.04167
980.662	2259.04167
984.149	2278.375
987.633	2288.70833
991.114	2310.70833
994.593	2356.375
998.069	2442.04167
1001.542	2503.04167
1005.013	2439.04167
1008.481	2310.70833
1011.947	2287.04167
1015.409	2246.70833
1018.869	2259.70833
1022.327	2278.70833
1025.782	2241.04167
1029.234	2252.04167
1032.683	2222.375
1036.13	2161.70833
1039.574	2073.70833
1043.016	2052.70833
1046.455	1990.04167
1049.891	1970.04167
1053.325	1992.375
1056.756	1987.375
1060.184	1997.04167
1063.61	1996.70833
1067.033	2007.375
1070.454	2010.04167
1073.872	2055.375
1077.287	2050.375
1080.7	2029.375
1084.11	2051.70833
1087.517	2036.70833
1090.922	1999.375
1094.325	2005.70833
1097.724	1973.375
1101.122	1989.70833
1104.516	1954.04167
1107.908	1970.375
1111.298	1997.375
1114.684	2015.70833
1118.069	2040.375
1121.45	2047.04167
1124.83	2067.70833
1128.206	2089.70833
1131.58	2117.375
1134.951	2199.70833
1138.32	2252.375
1141.687	2319.70833
1145.05	2382.375
1148.412	2366.375
1151.77	2387.04167
1155.126	2344.04167
1158.48	2363.70833
1161.831	2377.375
1165.18	2387.70833
1168.525	2413.04167
1171.869	2457.70833
1175.21	2474.04167
1178.548	2495.375
1181.884	2527.375
1185.217	2518.04167
1188.548	2586.70833
1191.877	2619.70833
1195.202	2672.375
1198.526	2708.70833
1201.846	2717.70833
1205.165	2722.70833
1208.48	2718.70833
1211.794	2718.70833
1215.104	2729.04167
1218.413	2739.70833
1221.719	2729.375
1225.022	2714.375
1228.323	2663.375
1231.621	2660.04167
1234.917	2636.375
1238.21	2676.04167
1241.501	2646.04167
1244.79	2660.375
1248.076	2665.04167
1251.359	2697.70833
1254.64	2754.04167
1257.919	2760.375
1261.195	2815.70833
1264.468	2849.04167
1267.74	2895.70833
1271.008	2890.70833
1274.275	2880.70833
1277.538	2876.04167
1280.8	2864.70833
1284.059	2847.04167
1287.315	2894.375
1290.569	2878.375
1293.821	2904.375
1297.07	2910.04167
1300.317	2935.04167
1303.562	2912.375
1306.803	2858.375
1310.043	2871.375
1313.28	2817.70833
1316.515	2787.04167
1319.747	2775.375
1322.977	2721.375
1326.204	2700.70833
1329.429	2663.04167
1332.652	2666.04167
1335.872	2658.70833
1339.09	2620.70833
1342.306	2617.375
1345.519	2613.04167
1348.729	2554.70833
1351.938	2541.375
1355.144	2495.04167
1358.347	2487.375
1361.548	2503.04167
1364.747	2493.70833
1367.944	2488.70833
1371.138	2505.04167
1374.329	2531.70833
1377.518	2529.70833
1380.705	2559.375
1383.89	2526.375
1387.072	2481.375
1390.252	2373.375
1393.429	2317.04167
1396.605	2267.375
1399.777	2228.04167
1402.948	2179.375
1406.116	2181.70833
1409.282	2182.04167
1412.445	2203.375
1415.606	2239.04167
1418.765	2258.375
1421.921	2323.04167
1425.075	2362.375
1428.227	2421.70833
1431.376	2531.375
1434.524	2579.70833
1437.668	2626.70833
1440.811	2651.70833
1443.951	2698.04167
1447.089	2699.04167
1450.224	2676.375
1453.357	2650.375
1456.488	2640.04167
1459.617	2603.70833
1462.743	2579.04167
1465.867	2517.04167
1468.989	2472.04167
1472.108	2447.04167
1475.225	2375.70833
1478.34	2360.375
1481.453	2363.04167
1484.563	2358.375
1487.671	2396.70833
1490.776	2455.375
1493.88	2487.04167
1496.981	2535.04167
1500.08	2579.375
1503.176	2583.375
1506.271	2637.375
1509.363	2681.70833
1512.452	2701.04167
1515.54	2725.375
1518.625	2778.375
1521.708	2862.70833
1524.789	2973.70833
1527.867	3091.375
1530.944	3281.04167
1534.018	3421.70833
1537.089	3600.04167
1540.159	3622.04167
1543.226	3615.375
1546.291	3481.375
1549.354	3395.375
1552.415	3319.04167
1555.473	3227.04167
1558.529	3124.70833
1561.583	3098.375
1564.634	3062.70833
1567.684	3022.375
1570.731	3047.04167
1573.776	3040.375
1576.819	3025.70833
1579.859	3053.375
1582.898	3081.70833
1585.934	3114.70833
1588.968	3144.375
1591.999	3112.70833
1595.029	3124.04167
1598.056	3157.375
1601.081	3154.04167
1604.104	3123.375
1607.125	3101.70833
1610.144	3045.375
1613.16	2951.04167
1616.174	2910.70833
1619.186	2828.70833
1622.196	2742.375
1625.203	2666.375
1628.209	2653.04167
1631.212	2624.375
1634.213	2587.04167
1637.212	2532.375
1640.209	2505.70833
1643.203	2418.70833
1646.196	2364.375
1649.186	2313.04167
1652.174	2264.375
1655.16	2213.70833
1658.144	2163.375
1661.125	2070.70833
1664.105	2008.70833
1667.082	1927.375
1670.057	1836.375
1673.03	1708.04167
1676.001	1617.70833
1678.97	1519.70833
1681.937	1433.375
1684.901	1349.70833
1687.863	1317.04167
1690.824	1253.70833
1693.782	1262.375
1696.738	1194.70833
1699.692	1179.375
1702.643	1151.04167
1705.593	1143.375
1708.54	1134.04167
1711.486	1128.04167
1714.429	1092.70833
1717.37	1105.70833
1720.309	1069.04167
1723.246	1085.70833
1726.181	1045.375
1729.113	1057.04167
1732.044	1047.04167
1734.972	1030.375
1737.899	1038.375
1740.823	1042.04167
1743.745	1050.375
1746.665	996.375
1749.583	981.70833
1752.499	970.375
1755.413	953.70833
1758.325	938.375
1761.235	937.70833
1764.142	916.70833
1767.048	904.04167
1769.951	908.04167
1772.852	911.375
1775.752	900.70833
1778.649	894.70833
1781.544	903.70833
1784.437	865.70833
1787.328	894.70833
1790.217	873.04167
1793.104	856.375
1795.989	848.375
1798.872	851.04167
1801.753	876.70833
1804.631	872.375
1807.508	870.70833
1810.383	852.70833
1813.255	875.04167
1816.126	854.04167
1818.994	858.04167
1821.861	841.70833
1824.725	840.04167
1827.587	846.70833
1830.448	834.70833
1833.306	814.375
1836.162	825.70833
1839.017	822.70833
1841.869	825.375
1844.719	821.375
1847.567	793.70833
1850.414	806.04167
1853.258	800.375
1856.1	825.04167
1858.94	827.375
1861.778	796.70833
1864.614	811.04167
1867.448	806.70833
1870.28	795.375
1873.111	809.375
1875.939	808.04167
1878.765	827.70833
1881.589	805.04167
1884.411	799.04167
1887.231	800.375
1890.049	800.04167
1892.865	807.04167
1895.68	785.375
1898.492	787.70833
1901.302	774.375
1904.11	779.70833
1906.916	779.04167
1909.721	782.04167
1912.523	779.04167
1915.323	770.04167
1918.122	771.04167
1920.918	780.70833
1923.712	766.70833
1926.505	770.04167
1929.295	761.375
1932.084	784.04167
1934.87	778.04167
1937.655	760.04167
1940.438	744.04167
1943.218	771.70833
1945.997	773.04167
1948.774	783.70833
1951.549	767.04167
1954.322	769.70833
1957.093	774.375
1959.862	764.375
1962.629	755.375
1965.394	759.04167
1968.157	747.375
1970.918	755.70833
1973.678	752.04167
1976.435	752.70833
1979.19	743.375
1981.944	745.375
1984.696	730.70833
1987.445	739.375
1990.193	739.04167
1992.939	752.70833
1995.683	742.04167
1998.425	721.375
2001.165	754.375
2003.903	738.70833
2006.639	733.04167
2009.374	736.70833
2012.106	748.375
2014.837	714.04167
2017.566	747.375
2020.292	739.04167
2023.017	735.375
2025.74	723.70833
2028.461	727.375
2031.18	733.70833
2033.898	724.70833
2036.613	731.70833
2039.327	748.70833
2042.038	718.70833
2044.748	717.70833
2047.456	717.375
2050.162	710.70833
2052.866	719.04167
2055.568	729.70833
2058.268	709.375
2060.967	724.70833
2063.663	715.70833
2066.358	717.375
2069.051	705.70833
2071.742	728.375
2074.431	722.04167
2077.118	726.375
2079.804	706.04167
2082.487	717.70833
2085.169	739.375
2087.849	743.70833
2090.527	718.70833
2093.203	729.375
2095.877	742.04167
2098.55	736.375
2101.22	749.70833
2103.889	776.375
2106.556	769.04167
2109.221	800.04167
2111.884	833.04167
2114.546	893.375
2117.205	929.70833
2119.863	1011.70833
2122.519	1061.04167
2125.173	1109.70833
2127.825	1171.04167
2130.475	1154.70833
2133.124	1115.375
2135.771	1066.375
2138.416	1031.375
2141.059	965.70833
2143.7	936.375
2146.339	886.04167
2148.977	842.375
2151.613	840.375
2154.247	807.04167
2156.879	792.04167
2159.51	779.04167
2162.138	762.375
2164.765	764.375
2167.39	752.375
2170.013	764.375
2172.634	749.375
2175.254	749.04167
2177.872	771.375
2180.488	730.70833
2183.102	733.375
2185.714	728.70833
2188.325	702.70833
2190.934	726.04167
2193.541	715.375
2196.146	710.375
2198.75	705.375
2201.351	708.375
2203.951	688.375
2206.549	705.70833
2209.146	686.04167
2211.74	693.70833
2214.333	709.04167
2216.924	691.70833
2219.514	692.04167
2222.101	678.70833
2224.687	701.70833
2227.271	687.70833
2229.853	682.70833
2232.433	667.70833
2235.012	691.04167
2237.589	692.04167
2240.164	702.70833
2242.738	688.375
2245.309	677.04167
2247.879	687.70833
2250.448	696.375
2253.014	669.70833
2255.579	664.375
2258.142	667.04167
2260.703	660.04167
2263.262	663.375
2265.82	659.04167
2268.376	669.04167
2270.93	656.70833
2273.483	651.04167
2276.033	672.70833
2278.583	661.04167
2281.13	652.375
2283.675	649.70833
2286.219	653.04167
2288.761	653.04167
2291.302	663.70833
2293.841	670.04167
2296.377	652.70833
2298.913	653.70833
2301.446	671.70833
2303.978	655.04167
2306.508	650.375
2309.037	660.375
2311.563	659.04167
2314.088	667.375
2316.612	659.375
2319.133	659.375
2321.653	659.375
2324.171	650.70833
2326.688	661.70833
2329.202	638.375
2331.715	664.04167
2334.227	650.70833
2336.736	642.70833
2339.244	652.375
2341.751	640.375
2344.255	661.70833
2346.758	658.04167
2349.259	647.375
2351.759	650.70833
2354.257	653.04167
2356.753	660.375
2359.247	655.375
2361.74	666.70833
2364.231	666.04167
2366.721	670.04167
2369.209	653.375
2371.695	654.70833
2374.179	648.375
2376.662	654.70833
2379.143	674.375
2381.622	662.375
2384.1	677.70833
2386.576	657.375
2389.051	687.70833
2391.524	685.04167
2393.995	671.70833
2396.464	670.375
2398.932	664.70833
2401.398	663.70833
2403.863	676.70833
2406.325	667.70833
2408.787	676.04167
2411.246	675.70833
2413.704	664.375
2416.16	666.70833
2418.615	678.70833
2421.068	675.375
2423.519	673.375
2425.969	676.70833
2428.417	692.375
2430.863	709.04167
2433.308	694.04167
2435.751	696.04167
2438.193	686.375
2440.633	688.375
2443.071	694.375
2445.508	680.375
2447.943	695.375
2450.376	688.04167
2452.808	692.04167
2455.238	679.375
2457.667	726.70833
2460.093	695.70833
2462.519	689.04167
2464.942	693.70833
2467.365	703.375
2469.785	712.04167
2472.204	701.04167
2474.621	699.375
2477.037	727.04167
2479.451	701.375
2481.863	697.04167
2484.274	709.70833
2486.683	704.375
2489.091	722.04167
2491.497	706.375
2493.901	719.375
2496.304	717.70833
2498.705	723.04167
2501.105	710.04167
2503.503	747.375
2505.899	704.70833
2508.294	728.375
2510.687	715.70833
2513.079	710.70833
2515.469	723.04167
2517.858	710.04167
2520.245	736.70833
2522.63	723.375
2525.014	729.04167
2527.396	710.70833
2529.776	723.70833
2532.156	739.04167
2534.533	717.04167
2536.909	728.04167
2539.283	713.04167
2541.656	725.375
2544.027	756.04167
2546.397	745.70833
2548.765	740.375
2551.131	741.70833
2553.496	733.375
2555.86	756.375
2558.221	734.70833
2560.582	744.375
2562.94	731.375
2565.298	749.70833
2567.653	769.375
2570.007	737.04167
2572.36	760.04167
2574.711	757.04167
2577.06	769.375
2579.408	758.04167
2581.754	755.70833
2584.099	758.04167
2586.442	759.375
2588.784	773.04167
2591.124	769.375
2593.463	773.04167
2595.8	771.70833
2598.135	762.04167
2600.469	763.70833
2602.802	788.70833
2605.133	784.70833
2607.462	766.04167
2609.79	793.04167
2612.116	793.70833
2614.441	789.70833
2616.764	786.70833
2619.086	789.70833
2621.406	795.375
2623.725	807.375
2626.042	806.70833
2628.358	803.70833
2630.672	808.04167
2632.985	827.70833
2635.296	811.04167
2637.606	829.70833
2639.914	803.04167
2642.22	817.04167
2644.525	817.70833
2646.829	832.70833
2649.131	841.04167
2651.432	843.70833
2653.731	840.70833
2656.028	850.70833
2658.324	848.375
2660.619	847.70833
2662.912	851.04167
2665.204	841.375
2667.494	863.04167
2669.782	841.70833
2672.07	854.375
2674.355	866.375
2676.639	848.375
2678.922	860.04167
2681.203	880.375
2683.483	851.04167
2685.761	849.375
2688.038	880.70833
2690.313	892.04167
2692.587	874.04167
2694.859	878.70833
2697.13	883.04167
2699.399	893.04167
2701.667	903.375
2703.933	902.375
2706.198	893.04167
2708.461	923.375
2710.723	915.70833
2712.984	922.375
2715.243	930.70833
2717.5	926.04167
2719.757	944.70833
2722.011	947.04167
2724.264	949.04167
2726.516	970.70833
2728.766	952.375
2731.015	948.70833
2733.262	946.375
2735.508	965.375
2737.753	958.375
2739.996	947.375
2742.237	949.375
2744.477	956.375
2746.716	952.375
2748.953	951.375
2751.189	962.04167
2753.423	952.04167
2755.656	951.04167
2757.887	938.04167
2760.117	948.70833
2762.346	955.70833
2764.573	940.375
2766.798	946.04167
2769.022	958.375
2771.245	963.375
2773.467	961.04167
2775.686	958.70833
2777.905	980.375
2780.122	984.70833
2782.337	981.70833
2784.552	976.375
2786.764	996.70833
2788.976	995.70833
2791.186	1014.70833
2793.394	1022.375
2795.601	1028.04167
2797.807	1035.04167
2800.011	1054.70833
2802.214	1062.70833
2804.415	1062.04167
2806.615	1058.04167
2808.814	1067.375
2811.011	1079.04167
2813.206	1069.70833
2815.401	1088.375
2817.594	1088.375
2819.785	1108.04167
2821.975	1097.70833
2824.164	1091.04167
2826.351	1123.70833
2828.537	1144.04167
2830.722	1149.04167
2832.905	1150.375
2835.086	1181.04167
2837.267	1197.375
2839.445	1226.375
2841.623	1223.375
2843.799	1270.375
2845.974	1283.375
2848.147	1303.04167
2850.319	1310.04167
2852.489	1359.375
2854.659	1362.375
2856.826	1374.70833
2858.993	1393.70833
2861.158	1376.70833
2863.321	1372.375
2865.483	1422.375
2867.644	1403.70833
2869.804	1394.70833
2871.962	1378.70833
2874.118	1383.70833
2876.274	1380.375
2878.428	1368.04167
2880.58	1368.70833
2882.731	1352.70833
2884.881	1378.70833
2887.03	1358.375
2889.177	1365.375
2891.322	1382.375
2893.467	1366.04167
2895.61	1380.375
2897.751	1404.375
2899.892	1394.04167
2902.03	1407.04167
2904.168	1419.70833
2906.304	1417.375
2908.439	1435.70833
2910.572	1425.70833
2912.704	1447.04167
2914.835	1446.375
2916.965	1436.70833
2919.093	1462.70833
2921.219	1405.375
2923.345	1438.04167
2925.469	1396.04167
2927.591	1397.04167
2929.712	1379.04167
2931.832	1368.04167
2933.951	1364.70833
2936.068	1326.04167
2938.184	1322.04167
2940.299	1303.70833
2942.412	1308.04167
2944.524	1257.70833
2946.634	1254.70833
2948.744	1222.04167
2950.851	1257.375
2952.958	1205.375
2955.063	1206.375
2957.167	1205.70833
2959.269	1194.70833
2961.371	1215.04167
2963.471	1189.70833
2965.569	1182.04167
2967.666	1156.70833
2969.762	1147.70833
2971.857	1137.375
2973.95	1129.375
2976.042	1116.375
2978.133	1099.04167
2980.222	1078.375
2982.31	1073.70833
2984.396	1049.375
2986.482	1051.375
2988.566	1059.375
2990.648	1044.375
2992.73	1049.375
2994.81	1046.375
2996.889	1056.70833
2998.966	1034.375
3001.042	1048.70833
3003.117	1044.375
3005.191	1064.375
3007.263	1040.375
3009.334	1027.375
3011.403	1021.04167
3013.472	1005.70833
3015.539	1011.04167
3017.604	1007.04167
3019.669	964.375
3021.732	969.375
3023.794	974.70833
3025.854	967.70833
3027.914	964.70833
3029.971	981.04167
3032.028	980.04167
3034.083	979.375
3036.137	955.70833
3038.19	932.375
3040.242	905.04167
3042.292	884.375
3044.341	876.04167
3046.388	891.375
3048.435	872.70833
3050.48	874.04167
3052.524	867.70833
3054.566	852.375
3056.607	856.375
3058.647	831.375
3060.686	798.04167
3062.723	779.04167
3064.759	766.375
3066.794	0.04167
3068.828	-0.95833
3070.86	-2.625
