-0.839	413.70833
3.438	463.70833
7.711	126.375
11.981	53.04167
16.247	41.04167
20.509	43.04167
24.768	44.70833
29.024	47.375
33.276	42.375
37.524	49.70833
41.769	41.04167
46.01	36.70833
50.247	50.375
54.481	59.375
58.712	65.04167
62.939	47.04167
67.162	58.70833
71.382	56.04167
75.599	43.04167
79.812	63.04167
84.021	74.375
88.227	55.70833
92.429	59.04167
96.628	48.70833
100.823	67.04167
105.015	70.375
109.204	75.04167
113.388	74.70833
117.57	68.70833
121.748	83.70833
125.922	75.70833
130.093	95.04167
134.261	100.375
138.425	86.70833
142.585	131.70833
146.742	128.375
150.896	154.375
155.046	187.04167
159.193	286.70833
163.336	491.70833
167.476	885.04167
171.613	1622.04167
175.746	2764.04167
179.875	4114.04167
184.002	5347.04167
188.124	6182.04167
192.244	6443.04167
196.36	6322.375
200.472	6157.375
204.581	5920.375
208.687	5715.04167
212.79	5685.70833
216.889	5633.70833
220.984	5681.04167
225.077	5695.375
229.165	5726.04167
233.251	5698.375
237.333	5664.375
241.412	5649.70833
245.487	5584.70833
249.559	5493.70833
253.628	5418.70833
257.694	5360.70833
261.756	5304.375
265.814	5172.70833
269.87	5054.04167
273.922	4932.04167
277.97	4881.70833
282.016	4845.04167
286.058	4888.04167
290.097	4985.04167
294.132	5012.04167
298.164	4925.70833
302.193	4684.375
306.219	4361.04167
310.241	3983.70833
314.26	3617.70833
318.276	3344.70833
322.288	3128.70833
326.297	2940.70833
330.303	2804.70833
334.305	2716.375
338.305	2671.70833
342.301	2626.70833
346.294	2587.70833
350.283	2560.04167
354.269	2526.70833
358.252	2515.375
362.232	2484.70833
366.209	2472.04167
370.182	2448.375
374.152	2446.70833
378.119	2447.04167
382.083	2434.04167
386.043	2457.375
390	2401.04167
393.954	2388.375
397.905	2351.04167
401.852	2347.04167
405.797	2304.04167
409.738	2297.04167
413.676	2280.70833
417.61	2273.70833
421.542	2242.70833
425.47	2212.70833
429.396	2180.375
433.318	2177.04167
437.236	2161.04167
441.152	2186.375
445.065	2124.70833
448.974	2118.375
452.88	2090.70833
456.783	2097.375
460.683	2087.04167
464.58	2096.70833
468.473	2091.375
472.364	2076.04167
476.251	2077.375
480.135	2103.375
484.016	2149.375
487.894	2143.70833
491.769	2143.375
495.641	2173.04167
499.509	2177.04167
503.375	2185.375
507.237	2175.70833
511.096	2288.70833
514.952	2614.70833
518.805	3002.04167
522.655	3147.70833
526.502	2582.375
530.346	2230.70833
534.187	2165.70833
538.024	2121.04167
541.859	2118.70833
545.69	2143.70833
549.519	2117.375
553.344	2090.70833
557.166	2071.375
560.985	2055.04167
564.802	2013.04167
568.615	1953.70833
572.425	1944.375
576.232	1955.04167
580.036	1943.04167
583.836	1935.04167
587.634	1943.04167
591.429	1957.375
595.221	1998.375
599.01	1997.04167
602.796	2030.375
606.578	2057.375
610.358	2032.70833
614.135	2042.04167
617.909	2045.04167
621.679	2010.375
625.447	2013.70833
629.212	2029.04167
632.973	2008.70833
636.732	2004.70833
640.488	1997.70833
644.241	1967.04167
647.991	1988.375
651.737	1980.70833
655.481	1953.70833
659.222	1968.375
662.96	1948.375
666.695	1974.70833
670.427	1990.70833
674.156	1994.70833
677.882	1990.04167
681.605	2003.04167
685.325	1973.70833
689.043	1970.375
692.757	1978.04167
696.468	2004.04167
700.177	1984.70833
703.882	1984.375
707.585	1971.375
711.284	1979.70833
714.981	1983.70833
718.675	1989.04167
722.366	1999.70833
726.054	1985.04167
729.739	1971.70833
733.421	1977.04167
737.1	2001.70833
740.777	2024.04167
744.45	2015.04167
748.121	2042.70833
751.789	2080.375
755.453	2080.70833
759.115	2073.375
762.774	2092.375
766.431	2119.70833
770.084	2147.70833
773.734	2162.70833
777.382	2215.375
781.027	2221.70833
784.669	2243.04167
788.308	2254.375
791.944	2284.04167
795.577	2306.375
799.208	2309.04167
802.835	2309.04167
806.46	2332.70833
810.082	2333.70833
813.701	2326.375
817.317	2346.70833
820.931	2376.375
824.542	2376.375
828.149	2355.04167
831.754	2326.375
835.357	2334.70833
838.956	2325.70833
842.553	2320.04167
846.146	2331.04167
849.737	2291.375
853.326	2314.70833
856.911	2326.70833
860.493	2363.375
864.073	2377.04167
867.65	2423.375
871.225	2456.70833
874.796	2431.04167
878.365	2471.04167
881.931	2478.375
885.494	2521.375
889.054	2501.375
892.612	2526.375
896.166	2491.70833
899.719	2488.375
903.268	2451.70833
906.814	2439.375
910.358	2411.375
913.899	2384.375
917.438	2386.375
920.973	2368.70833
924.506	2400.04167
928.036	2435.70833
931.564	2471.04167
935.088	2508.04167
938.61	2527.70833
942.129	2560.70833
945.646	2614.04167
949.16	2683.70833
952.671	2728.04167
956.179	2747.375
959.685	2675.04167
963.188	2677.70833
966.688	2592.70833
970.185	2569.04167
973.68	2521.375
977.173	2510.375
980.662	2500.04167
984.149	2490.375
987.633	2514.375
991.114	2529.04167
994.593	2606.70833
998.069	2685.375
1001.542	2755.70833
1005.013	2690.04167
1008.481	2539.70833
1011.947	2480.70833
1015.409	2471.375
1018.869	2488.70833
1022.327	2496.375
1025.782	2458.70833
1029.234	2478.375
1032.683	2441.70833
1036.13	2357.04167
1039.574	2267.375
1043.016	2202.04167
1046.455	2173.70833
1049.891	2144.375
1053.325	2169.70833
1056.756	2150.04167
1060.184	2173.04167
1063.61	2186.04167
1067.033	2184.04167
1070.454	2191.70833
1073.872	2217.04167
1077.287	2211.375
1080.7	2220.70833
1084.11	2235.70833
1087.517	2202.70833
1090.922	2164.04167
1094.325	2159.04167
1097.724	2146.375
1101.122	2154.375
1104.516	2132.375
1107.908	2147.375
1111.298	2169.375
1114.684	2200.375
1118.069	2215.70833
1121.45	2237.70833
1124.83	2243.04167
1128.206	2262.70833
1131.58	2303.04167
1134.951	2377.70833
1138.32	2433.04167
1141.687	2521.70833
1145.05	2579.04167
1148.412	2604.04167
1151.77	2587.375
1155.126	2567.375
1158.48	2602.70833
1161.831	2615.70833
1165.18	2609.04167
1168.525	2673.04167
1171.869	2706.70833
1175.21	2709.375
1178.548	2755.375
1181.884	2777.375
1185.217	2783.04167
1188.548	2838.70833
1191.877	2872.375
1195.202	2940.375
1198.526	3002.70833
1201.846	2990.375
1205.165	3000.70833
1208.48	2969.70833
1211.794	2988.04167
1215.104	3004.04167
1218.413	2963.375
1221.719	2960.70833
1225.022	2942.70833
1228.323	2916.70833
1231.621	2936.375
1234.917	2925.04167
1238.21	2943.70833
1241.501	2908.375
1244.79	2930.04167
1248.076	2948.04167
1251.359	2967.04167
1254.64	3036.375
1257.919	3016.70833
1261.195	3096.70833
1264.468	3145.04167
1267.74	3194.70833
1271.008	3198.04167
1274.275	3176.375
1277.538	3142.04167
1280.8	3132.04167
1284.059	3123.375
1287.315	3193.04167
1290.569	3182.70833
1293.821	3183.70833
1297.07	3211.375
1300.317	3243.04167
1303.562	3233.04167
1306.803	3179.375
1310.043	3157.04167
1313.28	3129.375
1316.515	3074.04167
1319.747	3037.375
1322.977	3000.375
1326.204	2970.375
1329.429	2926.375
1332.652	2926.375
1335.872	2897.70833
1339.09	2907.70833
1342.306	2904.375
1345.519	2858.375
1348.729	2845.375
1351.938	2826.375
1355.144	2793.70833
1358.347	2769.04167
1361.548	2748.375
1364.747	2770.04167
1367.944	2757.375
1371.138	2778.375
1374.329	2828.04167
1377.518	2847.375
1380.705	2881.375
1383.89	2847.70833
1387.072	2780.70833
1390.252	2684.70833
1393.429	2584.04167
1396.605	2535.70833
1399.777	2461.70833
1402.948	2444.70833
1406.116	2408.375
1409.282	2439.04167
1412.445	2445.04167
1415.606	2461.70833
1418.765	2487.04167
1421.921	2557.70833
1425.075	2587.04167
1428.227	2692.70833
1431.376	2782.70833
1434.524	2867.04167
1437.668	2925.375
1440.811	2931.375
1443.951	2977.04167
1447.089	2975.70833
1450.224	2976.70833
1453.357	2959.04167
1456.488	2961.04167
1459.617	2883.375
1462.743	2880.04167
1465.867	2811.04167
1468.989	2761.04167
1472.108	2717.70833
1475.225	2665.04167
1478.34	2643.04167
1481.453	2633.04167
1484.563	2642.375
1487.671	2674.04167
1490.776	2724.375
1493.88	2793.70833
1496.981	2830.04167
1500.08	2900.04167
1503.176	2922.04167
1506.271	2983.04167
1509.363	3029.04167
1512.452	3058.04167
1515.54	3114.04167
1518.625	3154.04167
1521.708	3285.375
1524.789	3450.04167
1527.867	3618.375
1530.944	3830.70833
1534.018	4036.70833
1537.089	4176.70833
1540.159	4193.04167
1543.226	4153.70833
1546.291	4002.70833
1549.354	3912.70833
1552.415	3798.04167
1555.473	3690.375
1558.529	3608.375
1561.583	3575.70833
1564.634	3510.04167
1567.684	3532.375
1570.731	3507.70833
1573.776	3519.04167
1576.819	3521.04167
1579.859	3538.70833
1582.898	3572.70833
1585.934	3594.70833
1588.968	3604.04167
1591.999	3589.04167
1595.029	3564.375
1598.056	3600.375
1601.081	3630.04167
1604.104	3599.375
1607.125	3574.04167
1610.144	3483.375
1613.16	3418.70833
1616.174	3329.04167
1619.186	3261.04167
1622.196	3174.70833
1625.203	3106.70833
1628.209	3008.375
1631.212	3000.375
1634.213	2965.04167
1637.212	2933.375
1640.209	2881.70833
1643.203	2802.04167
1646.196	2732.375
1649.186	2636.70833
1652.174	2580.04167
1655.16	2520.70833
1658.144	2447.70833
1661.125	2325.375
1664.105	2250.375
1667.082	2148.375
1670.057	2045.04167
1673.03	1914.375
1676.001	1806.375
1678.97	1697.375
1681.937	1625.70833
1684.901	1545.375
1687.863	1500.375
1690.824	1441.375
1693.782	1428.375
1696.738	1364.70833
1699.692	1336.375
1702.643	1316.375
1705.593	1312.04167
1708.54	1291.04167
1711.486	1288.04167
1714.429	1253.375
1717.37	1256.375
1720.309	1216.375
1723.246	1244.04167
1726.181	1194.04167
1729.113	1204.375
1732.044	1206.70833
1734.972	1182.04167
1737.899	1187.04167
1740.823	1188.375
1743.745	1193.375
1746.665	1140.375
1749.583	1131.70833
1752.499	1111.04167
1755.413	1106.04167
1758.325	1071.375
1761.235	1078.70833
1764.142	1063.70833
1767.048	1060.04167
1769.951	1050.04167
1772.852	1043.04167
1775.752	1038.70833
1778.649	1038.375
1781.544	1046.70833
1784.437	1022.375
1787.328	1034.70833
1790.217	1026.04167
1793.104	997.70833
1795.989	999.04167
1798.872	982.70833
1801.753	1020.375
1804.631	1018.04167
1807.508	1026.375
1810.383	1003.375
1813.255	1013.70833
1816.126	1004.70833
1818.994	1005.375
1821.861	996.375
1824.725	1005.04167
1827.587	992.04167
1830.448	1007.375
1833.306	965.375
1836.162	996.04167
1839.017	969.375
1841.869	979.375
1844.719	969.04167
1847.567	973.375
1850.414	950.70833
1853.258	971.375
1856.1	975.70833
1858.94	995.04167
1861.778	975.70833
1864.614	975.375
1867.448	984.375
1870.28	980.04167
1873.111	995.04167
1875.939	968.70833
1878.765	996.70833
1881.589	980.70833
1884.411	976.04167
1887.231	985.70833
1890.049	976.70833
1892.865	975.70833
1895.68	975.375
1898.492	973.70833
1901.302	966.375
1904.11	959.375
1906.916	972.375
1909.721	965.04167
1912.523	971.375
1915.323	952.04167
1918.122	948.375
1920.918	966.375
1923.712	959.375
1926.505	971.70833
1929.295	940.70833
1932.084	966.375
1934.87	953.04167
1937.655	954.04167
1940.438	967.375
1943.218	966.375
1945.997	968.70833
1948.774	980.375
1951.549	991.70833
1954.322	963.70833
1957.093	979.04167
1959.862	963.04167
1962.629	974.04167
1965.394	955.375
1968.157	948.70833
1970.918	964.375
1973.678	955.375
1976.435	963.375
1979.19	966.70833
1981.944	953.375
1984.696	974.70833
1987.445	955.70833
1990.193	963.375
1992.939	981.04167
1995.683	973.04167
1998.425	944.70833
2001.165	978.70833
2003.903	957.375
2006.639	965.70833
2009.374	971.04167
2012.106	972.04167
2014.837	950.375
2017.566	981.04167
2020.292	984.375
2023.017	975.04167
2025.74	978.375
2028.461	963.04167
2031.18	971.04167
2033.898	969.375
2036.613	977.70833
2039.327	982.375
2042.038	971.375
2044.748	976.375
2047.456	970.04167
2050.162	961.70833
2052.866	972.04167
2055.568	983.70833
2058.268	977.70833
2060.967	981.70833
2063.663	977.04167
2066.358	983.375
2069.051	979.70833
2071.742	994.375
2074.431	998.04167
2077.118	989.375
2079.804	979.70833
2082.487	1011.375
2085.169	1013.375
2087.849	1027.375
2090.527	1010.04167
2093.203	1030.04167
2095.877	1044.375
2098.55	1040.70833
2101.22	1073.70833
2103.889	1085.04167
2106.556	1093.375
2109.221	1142.375
2111.884	1169.375
2114.546	1247.70833
2117.205	1352.04167
2119.863	1438.04167
2122.519	1524.70833
2125.173	1617.375
2127.825	1710.70833
2130.475	1711.375
2133.124	1671.375
2135.771	1593.04167
2138.416	1547.04167
2141.059	1456.70833
2143.7	1398.70833
2146.339	1320.04167
2148.977	1269.70833
2151.613	1256.04167
2154.247	1235.04167
2156.879	1204.04167
2159.51	1184.375
2162.138	1159.375
2164.765	1160.04167
2167.39	1144.70833
2170.013	1153.04167
2172.634	1158.70833
2175.254	1140.70833
2177.872	1163.70833
2180.488	1117.375
2183.102	1118.04167
2185.714	1124.375
2188.325	1092.375
2190.934	1102.04167
2193.541	1097.04167
2196.146	1079.70833
2198.75	1079.375
2201.351	1088.70833
2203.951	1052.04167
2206.549	1082.04167
2209.146	1064.375
2211.74	1081.70833
2214.333	1084.70833
2216.924	1060.70833
2219.514	1057.70833
2222.101	1057.70833
2224.687	1088.70833
2227.271	1065.04167
2229.853	1071.04167
2232.433	1064.375
2235.012	1075.70833
2237.589	1078.04167
2240.164	1079.375
2242.738	1083.70833
2245.309	1077.04167
2247.879	1070.375
2250.448	1092.375
2253.014	1053.70833
2255.579	1062.375
2258.142	1069.375
2260.703	1043.70833
2263.262	1054.04167
2265.82	1051.70833
2268.376	1085.70833
2270.93	1060.04167
2273.483	1055.375
2276.033	1060.375
2278.583	1049.70833
2281.13	1072.04167
2283.675	1058.04167
2286.219	1067.04167
2288.761	1067.375
2291.302	1066.04167
2293.841	1078.70833
2296.377	1063.04167
2298.913	1076.04167
2301.446	1094.04167
2303.978	1081.04167
2306.508	1082.70833
2309.037	1088.375
2311.563	1104.70833
2314.088	1098.70833
2316.612	1087.375
2319.133	1094.70833
2321.653	1092.70833
2324.171	1101.70833
2326.688	1110.70833
2329.202	1087.375
2331.715	1109.375
2334.227	1106.70833
2336.736	1102.04167
2339.244	1088.70833
2341.751	1099.04167
2344.255	1116.70833
2346.758	1116.70833
2349.259	1116.04167
2351.759	1132.375
2354.257	1117.70833
2356.753	1140.04167
2359.247	1141.04167
2361.74	1134.375
2364.231	1132.375
2366.721	1140.04167
2369.209	1147.375
2371.695	1141.70833
2374.179	1156.70833
2376.662	1148.70833
2379.143	1169.70833
2381.622	1162.375
2384.1	1178.70833
2386.576	1150.70833
2389.051	1177.375
2391.524	1189.375
2393.995	1198.375
2396.464	1181.70833
2398.932	1170.70833
2401.398	1197.04167
2403.863	1185.04167
2406.325	1183.04167
2408.787	1200.04167
2411.246	1204.375
2413.704	1198.375
2416.16	1199.04167
2418.615	1201.04167
2421.068	1228.04167
2423.519	1226.70833
2425.969	1227.70833
2428.417	1249.70833
2430.863	1248.70833
2433.308	1246.375
2435.751	1243.04167
2438.193	1243.70833
2440.633	1257.70833
2443.071	1246.70833
2445.508	1239.375
2447.943	1242.375
2450.376	1237.375
2452.808	1270.70833
2455.238	1272.04167
2457.667	1289.70833
2460.093	1267.70833
2462.519	1259.04167
2464.942	1272.04167
2467.365	1310.375
2469.785	1302.04167
2472.204	1302.375
2474.621	1285.04167
2477.037	1323.375
2479.451	1280.04167
2481.863	1294.70833
2484.274	1296.375
2486.683	1318.04167
2489.091	1317.375
2491.497	1324.70833
2493.901	1315.70833
2496.304	1341.375
2498.705	1343.70833
2501.105	1324.375
2503.503	1356.70833
2505.899	1336.375
2508.294	1355.375
2510.687	1350.375
2513.079	1345.375
2515.469	1364.70833
2517.858	1363.375
2520.245	1383.70833
2522.63	1368.375
2525.014	1373.04167
2527.396	1376.04167
2529.776	1372.04167
2532.156	1381.70833
2534.533	1376.375
2536.909	1403.70833
2539.283	1379.375
2541.656	1402.375
2544.027	1413.70833
2546.397	1414.375
2548.765	1418.70833
2551.131	1427.70833
2553.496	1433.70833
2555.86	1427.04167
2558.221	1442.70833
2560.582	1434.70833
2562.94	1436.375
2565.298	1445.375
2567.653	1461.375
2570.007	1432.70833
2572.36	1482.70833
2574.711	1464.04167
2577.06	1498.04167
2579.408	1498.375
2581.754	1491.375
2584.099	1504.375
2586.442	1486.04167
2588.784	1511.375
2591.124	1508.375
2593.463	1517.70833
2595.8	1507.04167
2598.135	1515.04167
2600.469	1524.70833
2602.802	1517.70833
2605.133	1535.70833
2607.462	1520.04167
2609.79	1519.70833
2612.116	1538.375
2614.441	1540.04167
2616.764	1560.70833
2619.086	1571.70833
2621.406	1556.04167
2623.725	1598.375
2626.042	1596.04167
2628.358	1581.04167
2630.672	1583.70833
2632.985	1613.04167
2635.296	1604.70833
2637.606	1618.04167
2639.914	1597.375
2642.22	1636.04167
2644.525	1642.375
2646.829	1634.04167
2649.131	1658.375
2651.432	1680.375
2653.731	1691.375
2656.028	1700.04167
2658.324	1677.375
2660.619	1695.04167
2662.912	1701.70833
2665.204	1691.375
2667.494	1690.04167
2669.782	1694.04167
2672.07	1717.375
2674.355	1728.375
2676.639	1714.375
2678.922	1721.70833
2681.203	1743.70833
2683.483	1733.375
2685.761	1736.04167
2688.038	1740.70833
2690.313	1740.04167
2692.587	1746.70833
2694.859	1755.04167
2697.13	1762.04167
2699.399	1779.375
2701.667	1793.70833
2703.933	1793.375
2706.198	1810.04167
2708.461	1820.375
2710.723	1816.04167
2712.984	1812.375
2715.243	1835.375
2717.5	1832.04167
2719.757	1865.375
2722.011	1869.375
2724.264	1874.04167
2726.516	1898.375
2728.766	1888.04167
2731.015	1913.70833
2733.262	1902.04167
2735.508	1900.70833
2737.753	1927.70833
2739.996	1892.375
2742.237	1893.04167
2744.477	1915.70833
2746.716	1896.375
2748.953	1898.375
2751.189	1911.04167
2753.423	1896.04167
2755.656	1892.375
2757.887	1878.375
2760.117	1901.04167
2762.346	1884.70833
2764.573	1879.375
2766.798	1899.04167
2769.022	1917.70833
2771.245	1922.375
2773.467	1904.70833
2775.686	1942.70833
2777.905	1967.04167
2780.122	1970.04167
2782.337	1979.375
2784.552	1961.04167
2786.764	1989.04167
2788.976	2001.70833
2791.186	2010.04167
2793.394	2012.04167
2795.601	2031.04167
2797.807	2047.70833
2800.011	2065.70833
2802.214	2084.04167
2804.415	2092.70833
2806.615	2091.04167
2808.814	2099.04167
2811.011	2111.375
2813.206	2106.04167
2815.401	2114.375
2817.594	2144.375
2819.785	2138.375
2821.975	2139.70833
2824.164	2144.04167
2826.351	2170.04167
2828.537	2196.70833
2830.722	2190.70833
2832.905	2209.375
2835.086	2238.375
2837.267	2274.375
2839.445	2299.375
2841.623	2309.04167
2843.799	2335.70833
2845.974	2365.70833
2848.147	2396.04167
2850.319	2432.375
2852.489	2472.04167
2854.659	2455.04167
2856.826	2502.375
2858.993	2530.375
2861.158	2507.375
2863.321	2515.04167
2865.483	2544.70833
2867.644	2529.375
2869.804	2545.70833
2871.962	2526.70833
2874.118	2528.375
2876.274	2507.04167
2878.428	2512.375
2880.58	2497.375
2882.731	2490.70833
2884.881	2484.70833
2887.03	2492.04167
2889.177	2500.375
2891.322	2515.04167
2893.467	2515.375
2895.61	2490.04167
2897.751	2538.04167
2899.892	2540.70833
2902.03	2552.04167
2904.168	2563.04167
2906.304	2572.70833
2908.439	2606.04167
2910.572	2564.70833
2912.704	2600.375
2914.835	2601.70833
2916.965	2613.04167
2919.093	2631.70833
2921.219	2569.375
2923.345	2617.04167
2925.469	2571.70833
2927.591	2562.375
2929.712	2526.375
2931.832	2526.04167
2933.951	2494.70833
2936.068	2468.375
2938.184	2464.375
2940.299	2418.04167
2942.412	2408.375
2944.524	2368.04167
2946.634	2369.70833
2948.744	2314.04167
2950.851	2345.375
2952.958	2321.70833
2955.063	2333.04167
2957.167	2327.04167
2959.269	2307.70833
2961.371	2335.04167
2963.471	2299.04167
2965.569	2315.375
2967.666	2279.04167
2969.762	2282.04167
2971.857	2252.70833
2973.95	2213.04167
2976.042	2211.70833
2978.133	2193.04167
2980.222	2159.70833
2982.31	2142.04167
2984.396	2093.70833
2986.482	2111.70833
2988.566	2118.70833
2990.648	2115.70833
2992.73	2086.04167
2994.81	2090.375
2996.889	2116.375
2998.966	2093.70833
3001.042	2120.70833
3003.117	2110.70833
3005.191	2106.70833
3007.263	2111.375
3009.334	2068.04167
3011.403	2062.70833
3013.472	2037.70833
3015.539	2019.04167
3017.604	2018.04167
3019.669	1969.04167
3021.732	1972.70833
3023.794	1982.04167
3025.854	1976.04167
3027.914	1980.04167
3029.971	1981.70833
3032.028	1974.04167
3034.083	1979.375
3036.137	1949.70833
3038.19	1884.04167
3040.242	1846.04167
3042.292	1830.375
3044.341	1804.375
3046.388	1810.375
3048.435	1760.375
3050.48	1789.70833
3052.524	1777.375
3054.566	1758.375
3056.607	1749.375
3058.647	1718.04167
3060.686	1672.375
3062.723	1623.375
3064.759	1565.375
3066.794	0.70833
3068.828	-1.95833
3070.86	-1.625
