-0.839	480.375
3.438	499.70833
7.711	137.375
11.981	52.70833
16.247	45.375
20.509	42.70833
24.768	44.70833
29.024	48.375
33.276	44.375
37.524	47.375
41.769	39.04167
46.01	37.70833
50.247	53.375
54.481	62.375
58.712	67.375
62.939	46.04167
67.162	59.04167
71.382	53.70833
75.599	44.04167
79.812	64.04167
84.021	82.70833
88.227	56.375
92.429	61.70833
96.628	45.375
100.823	67.04167
105.015	78.04167
109.204	74.70833
113.388	75.04167
117.57	74.70833
121.748	88.70833
125.922	75.04167
130.093	93.375
134.261	107.04167
138.425	94.04167
142.585	141.04167
146.742	141.04167
150.896	162.04167
155.046	200.375
159.193	317.70833
163.336	546.04167
167.476	1017.04167
171.613	1874.04167
175.746	3133.70833
179.875	4644.04167
184.002	6070.375
188.124	7014.375
192.244	7315.04167
196.36	7204.375
200.472	6965.70833
204.581	6689.04167
208.687	6457.375
212.79	6306.375
216.889	6295.04167
220.984	6299.375
225.077	6300.70833
229.165	6306.375
233.251	6333.70833
237.333	6305.70833
241.412	6269.04167
245.487	6154.04167
249.559	6105.04167
253.628	6043.04167
257.694	5984.04167
261.756	5942.375
265.814	5809.70833
269.87	5676.70833
273.922	5535.375
277.97	5453.04167
282.016	5459.70833
286.058	5440.70833
290.097	5544.70833
294.132	5603.375
298.164	5509.70833
302.193	5285.70833
306.219	4894.70833
310.241	4420.70833
314.26	4029.04167
318.276	3664.04167
322.288	3446.375
326.297	3231.375
330.303	3068.04167
334.305	2981.375
338.305	2917.04167
342.301	2837.70833
346.294	2817.70833
350.283	2783.04167
354.269	2722.04167
358.252	2723.375
362.232	2676.375
366.209	2672.375
370.182	2634.70833
374.152	2605.375
378.119	2622.70833
382.083	2616.375
386.043	2634.70833
390	2579.70833
393.954	2551.375
397.905	2559.375
401.852	2547.04167
405.797	2481.04167
409.738	2468.70833
413.676	2465.375
417.61	2466.375
421.542	2420.375
425.47	2411.04167
429.396	2371.70833
433.318	2366.04167
437.236	2352.70833
441.152	2350.04167
445.065	2309.04167
448.974	2300.04167
452.88	2275.375
456.783	2256.70833
460.683	2255.375
464.58	2267.70833
468.473	2256.70833
472.364	2248.70833
476.251	2279.375
480.135	2277.375
484.016	2305.70833
487.894	2323.375
491.769	2336.04167
495.641	2330.70833
499.509	2353.70833
503.375	2346.70833
507.237	2347.375
511.096	2337.70833
514.952	2395.375
518.805	2482.375
522.655	2484.04167
526.502	2371.375
530.346	2304.375
534.187	2327.70833
538.024	2325.04167
541.859	2310.375
545.69	2356.375
549.519	2316.04167
553.344	2303.70833
557.166	2258.04167
560.985	2252.04167
564.802	2225.04167
568.615	2186.375
572.425	2157.375
576.232	2127.70833
580.036	2146.70833
583.836	2148.375
587.634	2139.375
591.429	2126.04167
595.221	2192.70833
599.01	2209.04167
602.796	2232.375
606.578	2247.04167
610.358	2244.375
614.135	2229.70833
617.909	2242.375
621.679	2213.375
625.447	2207.375
629.212	2211.70833
632.973	2218.375
636.732	2202.70833
640.488	2210.70833
644.241	2175.375
647.991	2175.04167
651.737	2183.375
655.481	2166.70833
659.222	2181.04167
662.96	2160.04167
666.695	2196.04167
670.427	2218.04167
674.156	2224.04167
677.882	2215.70833
681.605	2205.70833
685.325	2181.04167
689.043	2186.375
692.757	2161.375
696.468	2162.70833
700.177	2172.70833
703.882	2169.04167
707.585	2156.70833
711.284	2146.70833
714.981	2163.375
718.675	2174.375
722.366	2187.375
726.054	2169.70833
729.739	2154.04167
733.421	2185.70833
737.1	2176.70833
740.777	2189.70833
744.45	2212.70833
748.121	2216.375
751.789	2259.04167
755.453	2275.04167
759.115	2291.04167
762.774	2309.70833
766.431	2324.70833
770.084	2328.375
773.734	2371.70833
777.382	2431.70833
781.027	2406.70833
784.669	2444.70833
788.308	2457.375
791.944	2470.375
795.577	2502.70833
799.208	2517.375
802.835	2537.70833
806.46	2546.04167
810.082	2560.375
813.701	2574.375
817.317	2599.375
820.931	2591.04167
824.542	2593.04167
828.149	2601.04167
831.754	2554.70833
835.357	2551.375
838.956	2535.70833
842.553	2527.375
846.146	2539.04167
849.737	2507.375
853.326	2518.375
856.911	2547.04167
860.493	2562.375
864.073	2600.04167
867.65	2624.70833
871.225	2662.04167
874.796	2673.70833
878.365	2654.70833
881.931	2686.04167
885.494	2720.70833
889.054	2732.04167
892.612	2736.70833
896.166	2708.70833
899.719	2692.375
903.268	2652.375
906.814	2642.70833
910.358	2599.375
913.899	2598.04167
917.438	2577.70833
920.973	2570.04167
924.506	2623.375
928.036	2663.375
931.564	2693.375
935.088	2701.70833
938.61	2717.70833
942.129	2763.375
945.646	2813.04167
949.16	2868.375
952.671	2938.70833
956.179	2975.04167
959.685	2926.04167
963.188	2930.375
966.688	2885.70833
970.185	2785.04167
973.68	2771.04167
977.173	2734.70833
980.662	2707.375
984.149	2718.04167
987.633	2723.375
991.114	2754.04167
994.593	2840.04167
998.069	2942.375
1001.542	3000.70833
1005.013	2934.04167
1008.481	2764.04167
1011.947	2734.04167
1015.409	2705.04167
1018.869	2725.04167
1022.327	2719.70833
1025.782	2688.04167
1029.234	2703.04167
1032.683	2654.04167
1036.13	2555.375
1039.574	2474.70833
1043.016	2417.70833
1046.455	2372.375
1049.891	2326.375
1053.325	2339.70833
1056.756	2347.70833
1060.184	2357.70833
1063.61	2386.04167
1067.033	2389.375
1070.454	2373.375
1073.872	2434.70833
1077.287	2422.70833
1080.7	2432.04167
1084.11	2407.04167
1087.517	2401.04167
1090.922	2387.70833
1094.325	2363.04167
1097.724	2338.04167
1101.122	2340.04167
1104.516	2323.375
1107.908	2338.375
1111.298	2380.70833
1114.684	2414.375
1118.069	2428.70833
1121.45	2457.375
1124.83	2430.375
1128.206	2463.375
1131.58	2527.375
1134.951	2605.375
1138.32	2661.04167
1141.687	2774.375
1145.05	2857.70833
1148.412	2877.04167
1151.77	2855.70833
1155.126	2865.04167
1158.48	2848.70833
1161.831	2854.70833
1165.18	2890.04167
1168.525	2928.375
1171.869	2982.04167
1175.21	2993.70833
1178.548	3036.04167
1181.884	3050.04167
1185.217	3060.375
1188.548	3160.375
1191.877	3213.375
1195.202	3283.375
1198.526	3319.70833
1201.846	3312.375
1205.165	3320.04167
1208.48	3308.70833
1211.794	3295.375
1215.104	3307.70833
1218.413	3314.04167
1221.719	3313.375
1225.022	3275.375
1228.323	3239.70833
1231.621	3202.04167
1234.917	3208.375
1238.21	3219.04167
1241.501	3205.375
1244.79	3195.70833
1248.076	3237.70833
1251.359	3235.04167
1254.64	3290.70833
1257.919	3299.375
1261.195	3378.04167
1264.468	3448.04167
1267.74	3498.375
1271.008	3515.04167
1274.275	3527.375
1277.538	3468.375
1280.8	3455.04167
1284.059	3456.04167
1287.315	3502.04167
1290.569	3496.04167
1293.821	3521.70833
1297.07	3555.70833
1300.317	3570.04167
1303.562	3548.70833
1306.803	3510.375
1310.043	3487.70833
1313.28	3430.375
1316.515	3389.04167
1319.747	3377.04167
1322.977	3331.04167
1326.204	3277.375
1329.429	3256.375
1332.652	3243.04167
1335.872	3223.04167
1339.09	3188.70833
1342.306	3163.04167
1345.519	3157.375
1348.729	3130.375
1351.938	3098.375
1355.144	3051.04167
1358.347	3035.04167
1361.548	3021.70833
1364.747	3037.375
1367.944	3031.70833
1371.138	3029.70833
1374.329	3052.375
1377.518	3104.04167
1380.705	3140.70833
1383.89	3111.375
1387.072	3008.04167
1390.252	2882.375
1393.429	2794.04167
1396.605	2713.375
1399.777	2628.04167
1402.948	2626.375
1406.116	2596.375
1409.282	2599.04167
1412.445	2596.70833
1415.606	2653.04167
1418.765	2691.70833
1421.921	2733.70833
1425.075	2810.04167
1428.227	2893.04167
1431.376	3009.375
1434.524	3129.70833
1437.668	3203.04167
1440.811	3223.375
1443.951	3281.375
1447.089	3288.04167
1450.224	3286.70833
1453.357	3253.375
1456.488	3201.04167
1459.617	3168.04167
1462.743	3147.04167
1465.867	3048.375
1468.989	3010.04167
1472.108	2964.375
1475.225	2905.375
1478.34	2885.375
1481.453	2888.04167
1484.563	2897.70833
1487.671	2952.70833
1490.776	2993.04167
1493.88	3047.375
1496.981	3128.04167
1500.08	3152.04167
1503.176	3198.04167
1506.271	3259.04167
1509.363	3279.70833
1512.452	3326.70833
1515.54	3387.375
1518.625	3468.70833
1521.708	3572.70833
1524.789	3714.375
1527.867	3895.70833
1530.944	4122.70833
1534.018	4332.70833
1537.089	4493.70833
1540.159	4530.04167
1543.226	4466.04167
1546.291	4366.375
1549.354	4275.70833
1552.415	4145.375
1555.473	4005.70833
1558.529	3954.04167
1561.583	3862.70833
1564.634	3828.04167
1567.684	3839.375
1570.731	3816.375
1573.776	3835.70833
1576.819	3878.375
1579.859	3931.04167
1582.898	3933.375
1585.934	3954.70833
1588.968	4005.70833
1591.999	3986.04167
1595.029	3956.375
1598.056	4001.70833
1601.081	4038.70833
1604.104	3984.70833
1607.125	3963.375
1610.144	3867.04167
1613.16	3777.04167
1616.174	3701.04167
1619.186	3600.375
1622.196	3488.375
1625.203	3391.375
1628.209	3354.70833
1631.212	3318.375
1634.213	3313.04167
1637.212	3287.375
1640.209	3232.375
1643.203	3136.04167
1646.196	3029.375
1649.186	2927.70833
1652.174	2867.04167
1655.16	2797.70833
1658.144	2678.04167
1661.125	2572.04167
1664.105	2451.70833
1667.082	2368.04167
1670.057	2221.375
1673.03	2100.70833
1676.001	1961.375
1678.97	1815.04167
1681.937	1685.04167
1684.901	1616.04167
1687.863	1562.375
1690.824	1494.70833
1693.782	1460.70833
1696.738	1406.375
1699.692	1376.70833
1702.643	1347.04167
1705.593	1330.375
1708.54	1304.04167
1711.486	1306.04167
1714.429	1245.70833
1717.37	1274.04167
1720.309	1249.70833
1723.246	1248.70833
1726.181	1218.375
1729.113	1205.375
1732.044	1185.375
1734.972	1191.70833
1737.899	1179.70833
1740.823	1188.375
1743.745	1172.04167
1746.665	1147.375
1749.583	1108.04167
1752.499	1100.375
1755.413	1085.375
1758.325	1045.04167
1761.235	1053.04167
1764.142	1027.375
1767.048	1040.70833
1769.951	1026.04167
1772.852	1007.375
1775.752	1004.04167
1778.649	1003.04167
1781.544	1004.375
1784.437	987.70833
1787.328	978.375
1790.217	976.04167
1793.104	951.04167
1795.989	951.375
1798.872	942.70833
1801.753	962.70833
1804.631	961.70833
1807.508	974.04167
1810.383	955.375
1813.255	952.70833
1816.126	948.375
1818.994	944.04167
1821.861	933.375
1824.725	921.04167
1827.587	926.375
1830.448	924.70833
1833.306	896.04167
1836.162	899.70833
1839.017	898.70833
1841.869	909.375
1844.719	903.70833
1847.567	874.70833
1850.414	875.70833
1853.258	885.70833
1856.1	898.70833
1858.94	904.375
1861.778	885.70833
1864.614	883.375
1867.448	891.04167
1870.28	874.70833
1873.111	894.375
1875.939	881.70833
1878.765	896.04167
1881.589	871.04167
1884.411	882.04167
1887.231	876.375
1890.049	874.04167
1892.865	877.04167
1895.68	868.375
1898.492	859.04167
1901.302	849.04167
1904.11	854.375
1906.916	845.04167
1909.721	844.375
1912.523	846.70833
1915.323	831.375
1918.122	833.04167
1920.918	852.04167
1923.712	833.375
1926.505	830.375
1929.295	812.70833
1932.084	836.70833
1934.87	834.70833
1937.655	828.70833
1940.438	814.04167
1943.218	827.04167
1945.997	834.04167
1948.774	832.04167
1951.549	839.04167
1954.322	818.375
1957.093	818.375
1959.862	802.70833
1962.629	818.04167
1965.394	805.375
1968.157	796.375
1970.918	802.04167
1973.678	795.375
1976.435	794.375
1979.19	782.375
1981.944	791.70833
1984.696	783.375
1987.445	780.04167
1990.193	783.70833
1992.939	797.375
1995.683	781.70833
1998.425	772.375
2001.165	800.375
2003.903	781.375
2006.639	768.70833
2009.374	774.375
2012.106	780.375
2014.837	769.04167
2017.566	775.375
2020.292	785.375
2023.017	776.04167
2025.74	768.375
2028.461	762.375
2031.18	782.04167
2033.898	746.70833
2036.613	765.375
2039.327	759.70833
2042.038	753.04167
2044.748	746.375
2047.456	749.70833
2050.162	745.04167
2052.866	750.375
2055.568	751.70833
2058.268	749.04167
2060.967	752.04167
2063.663	739.375
2066.358	754.04167
2069.051	731.70833
2071.742	746.04167
2074.431	753.04167
2077.118	738.375
2079.804	739.70833
2082.487	753.375
2085.169	746.375
2087.849	771.04167
2090.527	740.04167
2093.203	754.04167
2095.877	762.04167
2098.55	761.70833
2101.22	779.375
2103.889	784.70833
2106.556	783.375
2109.221	814.375
2111.884	849.70833
2114.546	909.375
2117.205	962.375
2119.863	1051.375
2122.519	1124.04167
2125.173	1210.04167
2127.825	1286.375
2130.475	1296.70833
2133.124	1258.04167
2135.771	1205.70833
2138.416	1148.04167
2141.059	1066.375
2143.7	1019.70833
2146.339	963.375
2148.977	911.70833
2151.613	875.375
2154.247	852.375
2156.879	822.70833
2159.51	814.375
2162.138	788.375
2164.765	790.70833
2167.39	765.375
2170.013	780.70833
2172.634	781.04167
2175.254	768.375
2177.872	790.70833
2180.488	736.70833
2183.102	763.70833
2185.714	725.04167
2188.325	716.04167
2190.934	729.70833
2193.541	724.04167
2196.146	712.04167
2198.75	692.375
2201.351	708.04167
2203.951	684.04167
2206.549	697.375
2209.146	680.375
2211.74	684.04167
2214.333	685.70833
2216.924	666.04167
2219.514	677.04167
2222.101	650.04167
2224.687	679.70833
2227.271	658.04167
2229.853	654.375
2232.433	651.375
2235.012	677.70833
2237.589	660.04167
2240.164	680.375
2242.738	651.70833
2245.309	641.70833
2247.879	653.70833
2250.448	659.375
2253.014	627.375
2255.579	627.70833
2258.142	619.04167
2260.703	610.375
2263.262	611.04167
2265.82	607.04167
2268.376	616.375
2270.93	611.375
2273.483	599.04167
2276.033	598.70833
2278.583	598.375
2281.13	595.375
2283.675	591.70833
2286.219	595.70833
2288.761	597.70833
2291.302	598.04167
2293.841	605.70833
2296.377	577.375
2298.913	589.70833
2301.446	590.375
2303.978	585.375
2306.508	573.70833
2309.037	582.04167
2311.563	585.70833
2314.088	590.70833
2316.612	574.375
2319.133	576.375
2321.653	582.375
2324.171	568.375
2326.688	581.70833
2329.202	568.70833
2331.715	589.375
2334.227	567.04167
2336.736	560.04167
2339.244	560.04167
2341.751	552.375
2344.255	579.375
2346.758	557.70833
2349.259	554.375
2351.759	551.04167
2354.257	553.375
2356.753	546.375
2359.247	547.70833
2361.74	553.04167
2364.231	554.70833
2366.721	566.04167
2369.209	546.70833
2371.695	557.70833
2374.179	546.04167
2376.662	543.70833
2379.143	557.70833
2381.622	556.375
2384.1	545.70833
2386.576	541.375
2389.051	561.375
2391.524	559.70833
2393.995	555.70833
2396.464	540.04167
2398.932	538.70833
2401.398	548.04167
2403.863	537.04167
2406.325	530.04167
2408.787	530.375
2411.246	544.375
2413.704	534.375
2416.16	537.70833
2418.615	546.375
2421.068	548.04167
2423.519	545.375
2425.969	536.375
2428.417	545.70833
2430.863	561.375
2433.308	549.375
2435.751	537.04167
2438.193	538.04167
2440.633	544.04167
2443.071	544.04167
2445.508	523.04167
2447.943	531.04167
2450.376	524.375
2452.808	534.70833
2455.238	528.70833
2457.667	555.70833
2460.093	532.70833
2462.519	513.04167
2464.942	531.04167
2467.365	541.375
2469.785	540.375
2472.204	525.375
2474.621	513.70833
2477.037	550.04167
2479.451	526.375
2481.863	518.70833
2484.274	515.375
2486.683	533.70833
2489.091	533.70833
2491.497	535.70833
2493.901	517.04167
2496.304	528.375
2498.705	536.04167
2501.105	518.70833
2503.503	549.375
2505.899	516.375
2508.294	536.375
2510.687	526.375
2513.079	512.04167
2515.469	522.375
2517.858	520.375
2520.245	537.70833
2522.63	510.375
2525.014	517.04167
2527.396	511.04167
2529.776	518.70833
2532.156	524.04167
2534.533	508.70833
2536.909	527.375
2539.283	505.04167
2541.656	520.375
2544.027	540.375
2546.397	518.04167
2548.765	510.70833
2551.131	520.04167
2553.496	517.70833
2555.86	522.375
2558.221	529.70833
2560.582	518.375
2562.94	495.375
2565.298	514.04167
2567.653	535.70833
2570.007	513.04167
2572.36	517.04167
2574.711	513.70833
2577.06	536.04167
2579.408	509.70833
2581.754	510.375
2584.099	516.70833
2586.442	513.70833
2588.784	519.04167
2591.124	521.04167
2593.463	509.375
2595.8	520.70833
2598.135	506.04167
2600.469	518.70833
2602.802	534.04167
2605.133	533.375
2607.462	523.375
2609.79	509.70833
2612.116	530.04167
2614.441	518.375
2616.764	531.04167
2619.086	518.375
2621.406	518.04167
2623.725	543.375
2626.042	530.70833
2628.358	527.70833
2630.672	516.04167
2632.985	535.70833
2635.296	534.375
2637.606	534.375
2639.914	522.70833
2642.22	532.04167
2644.525	522.70833
2646.829	533.04167
2649.131	537.375
2651.432	549.70833
2653.731	542.04167
2656.028	559.375
2658.324	538.04167
2660.619	532.04167
2662.912	555.70833
2665.204	538.04167
2667.494	562.04167
2669.782	551.375
2672.07	546.04167
2674.355	551.04167
2676.639	551.375
2678.922	537.375
2681.203	557.375
2683.483	538.04167
2685.761	540.375
2688.038	562.375
2690.313	574.04167
2692.587	566.04167
2694.859	546.70833
2697.13	550.70833
2699.399	567.70833
2701.667	578.04167
2703.933	573.375
2706.198	579.375
2708.461	582.04167
2710.723	580.70833
2712.984	578.375
2715.243	593.04167
2717.5	588.04167
2719.757	609.04167
2722.011	591.375
2724.264	614.70833
2726.516	628.70833
2728.766	607.375
2731.015	602.04167
2733.262	604.70833
2735.508	608.70833
2737.753	601.375
2739.996	584.04167
2742.237	585.04167
2744.477	595.04167
2746.716	600.375
2748.953	596.04167
2751.189	591.04167
2753.423	585.70833
2755.656	578.04167
2757.887	583.04167
2760.117	588.70833
2762.346	574.70833
2764.573	579.04167
2766.798	580.375
2769.022	593.70833
2771.245	585.375
2773.467	582.04167
2775.686	590.04167
2777.905	592.70833
2780.122	604.04167
2782.337	614.04167
2784.552	607.70833
2786.764	610.04167
2788.976	618.04167
2791.186	620.375
2793.394	622.375
2795.601	632.375
2797.807	648.04167
2800.011	655.04167
2802.214	659.04167
2804.415	656.70833
2806.615	661.04167
2808.814	685.04167
2811.011	683.04167
2813.206	681.04167
2815.401	701.04167
2817.594	709.70833
2819.785	718.04167
2821.975	709.04167
2824.164	729.375
2826.351	749.70833
2828.537	764.375
2830.722	767.04167
2832.905	790.70833
2835.086	821.70833
2837.267	844.04167
2839.445	878.70833
2841.623	887.375
2843.799	929.375
2845.974	953.04167
2848.147	983.04167
2850.319	1011.04167
2852.489	1065.375
2854.659	1061.70833
2856.826	1079.04167
2858.993	1098.04167
2861.158	1082.375
2863.321	1076.375
2865.483	1108.04167
2867.644	1101.70833
2869.804	1102.375
2871.962	1096.70833
2874.118	1090.375
2876.274	1090.375
2878.428	1087.04167
2880.58	1092.04167
2882.731	1067.04167
2884.881	1084.04167
2887.03	1096.04167
2889.177	1085.04167
2891.322	1102.04167
2893.467	1084.375
2895.61	1097.04167
2897.751	1139.04167
2899.892	1111.04167
2902.03	1123.70833
2904.168	1130.375
2906.304	1138.70833
2908.439	1171.04167
2910.572	1138.375
2912.704	1161.70833
2914.835	1167.375
2916.965	1136.04167
2919.093	1161.70833
2921.219	1131.04167
2923.345	1146.04167
2925.469	1125.04167
2927.591	1109.04167
2929.712	1088.375
2931.832	1076.70833
2933.951	1051.375
2936.068	1032.70833
2938.184	999.375
2940.299	983.375
2942.412	970.70833
2944.524	926.375
2946.634	909.70833
2948.744	856.70833
2950.851	889.375
2952.958	849.04167
2955.063	834.04167
2957.167	811.70833
2959.269	786.375
2961.371	811.375
2963.471	763.04167
2965.569	781.70833
2967.666	736.04167
2969.762	739.375
2971.857	713.70833
2973.95	692.375
2976.042	698.04167
2978.133	669.04167
2980.222	664.04167
2982.31	631.70833
2984.396	620.375
2986.482	613.375
2988.566	617.04167
2990.648	603.70833
2992.73	604.70833
2994.81	601.375
2996.889	601.375
2998.966	604.70833
3001.042	593.70833
3003.117	600.70833
3005.191	581.375
3007.263	591.04167
3009.334	579.70833
3011.403	572.70833
3013.472	551.375
3015.539	550.375
3017.604	563.70833
3019.669	522.375
3021.732	522.375
3023.794	535.375
3025.854	519.70833
3027.914	518.375
3029.971	525.375
3032.028	510.04167
3034.083	512.04167
3036.137	513.04167
3038.19	497.04167
3040.242	479.04167
3042.292	477.375
3044.341	460.04167
3046.388	478.70833
3048.435	450.04167
3050.48	473.375
3052.524	459.04167
3054.566	443.70833
3056.607	459.04167
3058.647	449.375
3060.686	430.04167
3062.723	413.375
3064.759	393.04167
3066.794	2.375
3068.828	0.70833
3070.86	-2.95833
