-0.839	411.70833
3.438	454.70833
7.711	128.04167
11.981	50.70833
16.247	41.70833
20.509	42.70833
24.768	44.70833
29.024	45.04167
33.276	41.70833
37.524	47.70833
41.769	39.04167
46.01	37.70833
50.247	49.375
54.481	60.375
58.712	65.70833
62.939	44.375
67.162	59.70833
71.382	53.375
75.599	47.375
79.812	59.70833
84.021	81.04167
88.227	53.375
92.429	58.04167
96.628	47.70833
100.823	65.04167
105.015	73.04167
109.204	72.04167
113.388	75.04167
117.57	67.70833
121.748	86.375
125.922	75.04167
130.093	93.04167
134.261	98.375
138.425	94.375
142.585	129.04167
146.742	123.375
150.896	148.375
155.046	179.70833
159.193	293.04167
163.336	489.375
167.476	886.70833
171.613	1651.04167
175.746	2773.70833
179.875	4080.04167
184.002	5342.70833
188.124	6175.04167
192.244	6451.70833
196.36	6350.70833
200.472	6167.375
204.581	5912.375
208.687	5772.04167
212.79	5625.70833
216.889	5605.375
220.984	5699.04167
225.077	5685.375
229.165	5707.70833
233.251	5668.04167
237.333	5707.04167
241.412	5623.70833
245.487	5589.04167
249.559	5471.375
253.628	5405.04167
257.694	5358.04167
261.756	5297.70833
265.814	5179.04167
269.87	5022.04167
273.922	4933.70833
277.97	4864.70833
282.016	4853.70833
286.058	4894.04167
290.097	4965.375
294.132	4994.375
298.164	4914.04167
302.193	4672.04167
306.219	4359.375
310.241	3943.04167
314.26	3619.04167
318.276	3328.70833
322.288	3113.375
326.297	2942.70833
330.303	2827.70833
334.305	2713.70833
338.305	2632.375
342.301	2611.70833
346.294	2576.70833
350.283	2549.04167
354.269	2541.70833
358.252	2527.375
362.232	2508.04167
366.209	2477.375
370.182	2435.70833
374.152	2429.375
378.119	2424.04167
382.083	2428.04167
386.043	2450.70833
390	2380.04167
393.954	2384.04167
397.905	2356.04167
401.852	2354.04167
405.797	2299.375
409.738	2268.04167
413.676	2266.70833
417.61	2235.04167
421.542	2223.375
425.47	2199.375
429.396	2182.04167
433.318	2187.04167
437.236	2175.375
441.152	2173.375
445.065	2095.70833
448.974	2104.375
452.88	2089.375
456.783	2076.70833
460.683	2061.375
464.58	2078.70833
468.473	2094.04167
472.364	2080.375
476.251	2086.70833
480.135	2099.04167
484.016	2137.70833
487.894	2138.375
491.769	2167.04167
495.641	2164.70833
499.509	2160.04167
503.375	2167.70833
507.237	2198.375
511.096	2277.375
514.952	2587.70833
518.805	3017.04167
522.655	3108.375
526.502	2578.04167
530.346	2228.375
534.187	2155.375
538.024	2126.70833
541.859	2093.375
545.69	2128.04167
549.519	2091.375
553.344	2083.375
557.166	2039.04167
560.985	2017.375
564.802	2019.70833
568.615	1977.375
572.425	1947.04167
576.232	1929.375
580.036	1936.04167
583.836	1949.70833
587.634	1939.04167
591.429	1932.375
595.221	1981.70833
599.01	1997.375
602.796	2027.70833
606.578	2046.70833
610.358	2047.70833
614.135	2033.70833
617.909	2015.04167
621.679	2010.70833
625.447	2007.375
629.212	1995.375
632.973	2018.04167
636.732	1996.70833
640.488	2009.375
644.241	1974.375
647.991	1949.70833
651.737	1991.70833
655.481	1939.04167
659.222	1958.04167
662.96	1947.70833
666.695	1976.375
670.427	1985.70833
674.156	1984.04167
677.882	1987.70833
681.605	1982.70833
685.325	1976.375
689.043	1983.04167
692.757	1964.70833
696.468	1956.375
700.177	1997.04167
703.882	1959.70833
707.585	1968.375
711.284	1969.04167
714.981	1983.375
718.675	1987.04167
722.366	1984.70833
726.054	1973.04167
729.739	1981.04167
733.421	1985.375
737.1	1978.04167
740.777	2006.375
744.45	2021.70833
748.121	2008.70833
751.789	2062.375
755.453	2057.375
759.115	2073.70833
762.774	2099.04167
766.431	2126.04167
770.084	2136.375
773.734	2138.375
777.382	2196.04167
781.027	2206.04167
784.669	2245.375
788.308	2262.375
791.944	2259.04167
795.577	2263.375
799.208	2296.70833
802.835	2313.70833
806.46	2312.04167
810.082	2341.04167
813.701	2332.04167
817.317	2351.70833
820.931	2348.70833
824.542	2377.375
828.149	2336.04167
831.754	2306.375
835.357	2324.375
838.956	2318.04167
842.553	2304.70833
846.146	2302.04167
849.737	2302.375
853.326	2323.70833
856.911	2314.04167
860.493	2350.375
864.073	2379.375
867.65	2408.70833
871.225	2465.375
874.796	2431.04167
878.365	2467.375
881.931	2470.04167
885.494	2502.70833
889.054	2504.70833
892.612	2521.04167
896.166	2483.375
899.719	2484.04167
903.268	2449.70833
906.814	2407.04167
910.358	2400.70833
913.899	2377.04167
917.438	2387.70833
920.973	2357.375
924.506	2398.375
928.036	2460.375
931.564	2497.70833
935.088	2512.70833
938.61	2537.375
942.129	2544.04167
945.646	2619.375
949.16	2674.375
952.671	2713.375
956.179	2728.70833
959.685	2701.04167
963.188	2629.04167
966.688	2600.04167
970.185	2521.375
973.68	2508.375
977.173	2501.70833
980.662	2486.70833
984.149	2482.375
987.633	2496.04167
991.114	2531.70833
994.593	2593.70833
998.069	2680.375
1001.542	2753.04167
1005.013	2702.70833
1008.481	2526.70833
1011.947	2499.70833
1015.409	2481.04167
1018.869	2488.04167
1022.327	2476.375
1025.782	2456.375
1029.234	2458.70833
1032.683	2445.70833
1036.13	2337.375
1039.574	2283.04167
1043.016	2201.375
1046.455	2167.04167
1049.891	2147.375
1053.325	2145.375
1056.756	2141.70833
1060.184	2160.70833
1063.61	2158.04167
1067.033	2175.04167
1070.454	2182.70833
1073.872	2227.04167
1077.287	2205.375
1080.7	2205.70833
1084.11	2222.04167
1087.517	2194.375
1090.922	2179.04167
1094.325	2151.375
1097.724	2139.375
1101.122	2133.70833
1104.516	2143.375
1107.908	2108.375
1111.298	2176.70833
1114.684	2193.70833
1118.069	2221.70833
1121.45	2231.04167
1124.83	2240.70833
1128.206	2249.70833
1131.58	2309.04167
1134.951	2364.70833
1138.32	2443.375
1141.687	2526.375
1145.05	2586.375
1148.412	2578.70833
1151.77	2589.70833
1155.126	2585.70833
1158.48	2578.375
1161.831	2599.04167
1165.18	2622.70833
1168.525	2677.04167
1171.869	2704.04167
1175.21	2727.375
1178.548	2752.375
1181.884	2773.04167
1185.217	2797.04167
1188.548	2857.04167
1191.877	2886.375
1195.202	2934.375
1198.526	2984.375
1201.846	2981.375
1205.165	2997.04167
1208.48	2979.70833
1211.794	2954.04167
1215.104	2962.04167
1218.413	2976.70833
1221.719	2989.04167
1225.022	2958.04167
1228.323	2909.04167
1231.621	2922.375
1234.917	2902.70833
1238.21	2937.375
1241.501	2933.04167
1244.79	2924.04167
1248.076	2930.04167
1251.359	2965.375
1254.64	3054.70833
1257.919	3016.04167
1261.195	3084.375
1264.468	3135.375
1267.74	3180.70833
1271.008	3191.375
1274.275	3159.70833
1277.538	3135.04167
1280.8	3132.04167
1284.059	3145.04167
1287.315	3161.04167
1290.569	3160.70833
1293.821	3185.375
1297.07	3184.70833
1300.317	3221.04167
1303.562	3205.04167
1306.803	3171.375
1310.043	3151.70833
1313.28	3118.375
1316.515	3074.375
1319.747	3047.04167
1322.977	2989.375
1326.204	2943.04167
1329.429	2922.375
1332.652	2904.70833
1335.872	2905.04167
1339.09	2849.375
1342.306	2886.04167
1345.519	2841.70833
1348.729	2825.375
1351.938	2820.04167
1355.144	2778.70833
1358.347	2757.04167
1361.548	2764.375
1364.747	2795.70833
1367.944	2755.375
1371.138	2795.70833
1374.329	2808.04167
1377.518	2859.04167
1380.705	2862.375
1383.89	2866.375
1387.072	2786.375
1390.252	2663.04167
1393.429	2600.375
1396.605	2518.375
1399.777	2461.04167
1402.948	2415.70833
1406.116	2430.375
1409.282	2434.375
1412.445	2430.70833
1415.606	2455.375
1418.765	2476.375
1421.921	2550.04167
1425.075	2598.375
1428.227	2666.70833
1431.376	2787.70833
1434.524	2849.70833
1437.668	2930.70833
1440.811	2943.375
1443.951	2965.04167
1447.089	3002.70833
1450.224	2949.04167
1453.357	2927.04167
1456.488	2934.375
1459.617	2901.375
1462.743	2866.04167
1465.867	2773.375
1468.989	2779.375
1472.108	2722.04167
1475.225	2679.04167
1478.34	2622.70833
1481.453	2643.04167
1484.563	2650.375
1487.671	2675.70833
1490.776	2717.70833
1493.88	2809.375
1496.981	2834.04167
1500.08	2894.70833
1503.176	2954.375
1506.271	2968.70833
1509.363	3033.375
1512.452	3044.375
1515.54	3112.70833
1518.625	3165.375
1521.708	3278.04167
1524.789	3430.04167
1527.867	3619.375
1530.944	3816.04167
1534.018	4034.70833
1537.089	4150.04167
1540.159	4187.375
1543.226	4160.04167
1546.291	4004.70833
1549.354	3918.375
1552.415	3789.70833
1555.473	3670.70833
1558.529	3607.70833
1561.583	3562.70833
1564.634	3536.375
1567.684	3509.70833
1570.731	3486.70833
1573.776	3513.375
1576.819	3517.04167
1579.859	3541.70833
1582.898	3583.70833
1585.934	3575.70833
1588.968	3569.375
1591.999	3601.04167
1595.029	3596.04167
1598.056	3601.04167
1601.081	3641.70833
1604.104	3615.04167
1607.125	3588.70833
1610.144	3489.70833
1613.16	3437.70833
1616.174	3337.04167
1619.186	3235.04167
1622.196	3165.04167
1625.203	3109.375
1628.209	3025.70833
1631.212	3009.375
1634.213	2963.375
1637.212	2916.04167
1640.209	2874.04167
1643.203	2804.04167
1646.196	2726.375
1649.186	2640.70833
1652.174	2582.04167
1655.16	2484.375
1658.144	2446.375
1661.125	2333.04167
1664.105	2233.70833
1667.082	2157.04167
1670.057	2047.70833
1673.03	1925.375
1676.001	1826.70833
1678.97	1705.70833
1681.937	1630.375
1684.901	1530.70833
1687.863	1496.70833
1690.824	1434.70833
1693.782	1422.375
1696.738	1363.375
1699.692	1339.375
1702.643	1305.375
1705.593	1303.375
1708.54	1282.70833
1711.486	1287.70833
1714.429	1249.04167
1717.37	1244.04167
1720.309	1239.04167
1723.246	1233.375
1726.181	1192.04167
1729.113	1208.70833
1732.044	1193.375
1734.972	1184.70833
1737.899	1181.04167
1740.823	1179.70833
1743.745	1191.04167
1746.665	1147.04167
1749.583	1110.70833
1752.499	1123.70833
1755.413	1095.04167
1758.325	1077.375
1761.235	1082.70833
1764.142	1041.70833
1767.048	1052.70833
1769.951	1049.70833
1772.852	1036.375
1775.752	1041.70833
1778.649	1038.375
1781.544	1048.04167
1784.437	1008.70833
1787.328	1036.70833
1790.217	1020.04167
1793.104	997.04167
1795.989	1002.375
1798.872	996.70833
1801.753	1022.375
1804.631	1012.04167
1807.508	1014.375
1810.383	1011.04167
1813.255	1008.375
1816.126	1002.375
1818.994	1002.04167
1821.861	981.04167
1824.725	993.375
1827.587	986.70833
1830.448	983.04167
1833.306	961.375
1836.162	984.375
1839.017	973.70833
1841.869	990.70833
1844.719	967.70833
1847.567	956.375
1850.414	959.70833
1853.258	963.70833
1856.1	965.04167
1858.94	981.04167
1861.778	976.04167
1864.614	969.04167
1867.448	972.04167
1870.28	963.70833
1873.111	993.04167
1875.939	962.375
1878.765	993.04167
1881.589	972.375
1884.411	964.375
1887.231	990.375
1890.049	980.04167
1892.865	976.375
1895.68	972.375
1898.492	971.375
1901.302	957.375
1904.11	973.70833
1906.916	950.04167
1909.721	945.70833
1912.523	965.04167
1915.323	949.04167
1918.122	959.375
1920.918	959.04167
1923.712	954.70833
1926.505	951.70833
1929.295	945.04167
1932.084	966.04167
1934.87	962.375
1937.655	944.70833
1940.438	946.04167
1943.218	967.70833
1945.997	961.70833
1948.774	974.04167
1951.549	972.375
1954.322	956.04167
1957.093	972.70833
1959.862	964.375
1962.629	960.375
1965.394	942.375
1968.157	956.70833
1970.918	976.375
1973.678	955.70833
1976.435	965.375
1979.19	966.04167
1981.944	951.04167
1984.696	965.375
1987.445	955.04167
1990.193	953.375
1992.939	975.375
1995.683	965.04167
1998.425	948.04167
2001.165	988.04167
2003.903	962.375
2006.639	962.04167
2009.374	960.04167
2012.106	966.04167
2014.837	943.375
2017.566	972.70833
2020.292	980.70833
2023.017	980.04167
2025.74	971.70833
2028.461	963.70833
2031.18	971.70833
2033.898	969.70833
2036.613	981.70833
2039.327	990.04167
2042.038	961.70833
2044.748	980.375
2047.456	973.04167
2050.162	970.70833
2052.866	966.375
2055.568	987.375
2058.268	978.04167
2060.967	989.04167
2063.663	965.04167
2066.358	981.04167
2069.051	976.04167
2071.742	985.375
2074.431	991.04167
2077.118	992.375
2079.804	992.04167
2082.487	1002.70833
2085.169	1015.375
2087.849	1016.70833
2090.527	1020.04167
2093.203	1047.375
2095.877	1039.375
2098.55	1045.04167
2101.22	1074.375
2103.889	1088.375
2106.556	1093.375
2109.221	1135.70833
2111.884	1175.375
2114.546	1267.375
2117.205	1337.375
2119.863	1450.04167
2122.519	1527.04167
2125.173	1606.04167
2127.825	1710.375
2130.475	1714.04167
2133.124	1659.375
2135.771	1604.70833
2138.416	1532.70833
2141.059	1448.375
2143.7	1412.04167
2146.339	1328.70833
2148.977	1258.04167
2151.613	1261.70833
2154.247	1223.04167
2156.879	1208.04167
2159.51	1182.04167
2162.138	1172.04167
2164.765	1160.04167
2167.39	1148.04167
2170.013	1150.375
2172.634	1147.04167
2175.254	1131.70833
2177.872	1165.04167
2180.488	1132.04167
2183.102	1118.04167
2185.714	1120.04167
2188.325	1093.70833
2190.934	1107.70833
2193.541	1113.70833
2196.146	1096.70833
2198.75	1070.04167
2201.351	1089.70833
2203.951	1060.04167
2206.549	1077.04167
2209.146	1077.04167
2211.74	1071.70833
2214.333	1075.70833
2216.924	1061.04167
2219.514	1074.04167
2222.101	1057.04167
2224.687	1084.70833
2227.271	1063.04167
2229.853	1064.04167
2232.433	1059.04167
2235.012	1094.375
2237.589	1086.375
2240.164	1091.375
2242.738	1078.04167
2245.309	1068.375
2247.879	1094.375
2250.448	1097.375
2253.014	1059.04167
2255.579	1058.375
2258.142	1047.04167
2260.703	1056.04167
2263.262	1056.375
2265.82	1065.04167
2268.376	1068.70833
2270.93	1065.70833
2273.483	1054.375
2276.033	1073.70833
2278.583	1062.70833
2281.13	1058.04167
2283.675	1047.375
2286.219	1070.04167
2288.761	1074.04167
2291.302	1077.04167
2293.841	1083.04167
2296.377	1066.70833
2298.913	1083.04167
2301.446	1098.04167
2303.978	1100.04167
2306.508	1074.04167
2309.037	1102.70833
2311.563	1083.70833
2314.088	1092.70833
2316.612	1095.375
2319.133	1097.04167
2321.653	1094.375
2324.171	1097.375
2326.688	1112.70833
2329.202	1102.375
2331.715	1106.70833
2334.227	1102.04167
2336.736	1114.04167
2339.244	1109.70833
2341.751	1106.70833
2344.255	1129.04167
2346.758	1113.04167
2349.259	1115.04167
2351.759	1117.04167
2354.257	1121.375
2356.753	1124.70833
2359.247	1138.375
2361.74	1145.375
2364.231	1127.04167
2366.721	1147.375
2369.209	1139.04167
2371.695	1144.04167
2374.179	1146.70833
2376.662	1146.375
2379.143	1183.04167
2381.622	1172.04167
2384.1	1172.04167
2386.576	1166.70833
2389.051	1190.70833
2391.524	1194.70833
2393.995	1207.375
2396.464	1178.70833
2398.932	1186.04167
2401.398	1190.04167
2403.863	1181.04167
2406.325	1191.375
2408.787	1204.04167
2411.246	1210.70833
2413.704	1207.04167
2416.16	1199.375
2418.615	1216.04167
2421.068	1214.70833
2423.519	1226.04167
2425.969	1220.04167
2428.417	1239.375
2430.863	1257.70833
2433.308	1252.375
2435.751	1259.04167
2438.193	1237.70833
2440.633	1261.70833
2443.071	1256.375
2445.508	1250.04167
2447.943	1251.375
2450.376	1247.375
2452.808	1269.04167
2455.238	1264.375
2457.667	1293.70833
2460.093	1285.375
2462.519	1282.375
2464.942	1273.70833
2467.365	1296.70833
2469.785	1303.70833
2472.204	1307.04167
2474.621	1307.375
2477.037	1317.375
2479.451	1298.70833
2481.863	1302.70833
2484.274	1301.70833
2486.683	1320.70833
2489.091	1317.375
2491.497	1324.375
2493.901	1334.04167
2496.304	1331.70833
2498.705	1351.70833
2501.105	1338.04167
2503.503	1372.70833
2505.899	1348.375
2508.294	1383.70833
2510.687	1351.04167
2513.079	1362.04167
2515.469	1362.375
2517.858	1373.70833
2520.245	1391.70833
2522.63	1387.375
2525.014	1379.375
2527.396	1388.375
2529.776	1390.70833
2532.156	1391.70833
2534.533	1385.04167
2536.909	1402.04167
2539.283	1401.375
2541.656	1416.04167
2544.027	1428.70833
2546.397	1423.375
2548.765	1427.04167
2551.131	1426.70833
2553.496	1440.375
2555.86	1445.70833
2558.221	1447.04167
2560.582	1451.70833
2562.94	1442.70833
2565.298	1451.375
2567.653	1469.04167
2570.007	1450.70833
2572.36	1462.70833
2574.711	1482.375
2577.06	1504.375
2579.408	1490.04167
2581.754	1496.04167
2584.099	1504.70833
2586.442	1508.04167
2588.784	1534.70833
2591.124	1511.04167
2593.463	1517.375
2595.8	1541.70833
2598.135	1511.70833
2600.469	1519.04167
2602.802	1560.375
2605.133	1554.375
2607.462	1531.04167
2609.79	1555.70833
2612.116	1546.04167
2614.441	1558.70833
2616.764	1575.70833
2619.086	1582.70833
2621.406	1567.375
2623.725	1594.04167
2626.042	1583.375
2628.358	1601.70833
2630.672	1590.70833
2632.985	1624.375
2635.296	1635.04167
2637.606	1625.04167
2639.914	1633.70833
2642.22	1638.70833
2644.525	1624.70833
2646.829	1647.375
2649.131	1651.70833
2651.432	1687.70833
2653.731	1676.375
2656.028	1707.04167
2658.324	1689.04167
2660.619	1710.04167
2662.912	1720.375
2665.204	1710.04167
2667.494	1715.70833
2669.782	1722.70833
2672.07	1736.04167
2674.355	1726.04167
2676.639	1713.04167
2678.922	1725.70833
2681.203	1725.375
2683.483	1726.70833
2685.761	1723.375
2688.038	1748.375
2690.313	1784.70833
2692.587	1768.70833
2694.859	1746.70833
2697.13	1764.70833
2699.399	1780.04167
2701.667	1788.375
2703.933	1795.375
2706.198	1804.375
2708.461	1828.04167
2710.723	1836.375
2712.984	1833.70833
2715.243	1867.04167
2717.5	1847.375
2719.757	1870.70833
2722.011	1869.375
2724.264	1885.375
2726.516	1918.375
2728.766	1889.70833
2731.015	1914.04167
2733.262	1911.70833
2735.508	1927.375
2737.753	1917.04167
2739.996	1920.375
2742.237	1914.375
2744.477	1927.70833
2746.716	1912.375
2748.953	1908.04167
2751.189	1888.04167
2753.423	1900.70833
2755.656	1910.04167
2757.887	1896.04167
2760.117	1902.04167
2762.346	1901.70833
2764.573	1920.375
2766.798	1923.04167
2769.022	1928.04167
2771.245	1929.70833
2773.467	1926.375
2775.686	1964.04167
2777.905	1969.375
2780.122	1971.375
2782.337	1970.04167
2784.552	1978.70833
2786.764	2004.375
2788.976	1996.04167
2791.186	2025.04167
2793.394	2033.375
2795.601	2073.04167
2797.807	2087.04167
2800.011	2072.04167
2802.214	2099.04167
2804.415	2087.70833
2806.615	2096.70833
2808.814	2121.375
2811.011	2141.04167
2813.206	2125.04167
2815.401	2145.04167
2817.594	2134.375
2819.785	2166.04167
2821.975	2149.375
2824.164	2164.375
2826.351	2171.04167
2828.537	2193.375
2830.722	2210.04167
2832.905	2219.375
2835.086	2254.375
2837.267	2281.70833
2839.445	2316.70833
2841.623	2334.375
2843.799	2346.70833
2845.974	2396.04167
2848.147	2429.70833
2850.319	2448.70833
2852.489	2485.04167
2854.659	2505.375
2856.826	2513.375
2858.993	2540.70833
2861.158	2522.375
2863.321	2530.375
2865.483	2558.04167
2867.644	2554.70833
2869.804	2538.04167
2871.962	2543.70833
2874.118	2526.04167
2876.274	2513.375
2878.428	2536.70833
2880.58	2516.70833
2882.731	2498.04167
2884.881	2505.375
2887.03	2504.375
2889.177	2506.375
2891.322	2522.04167
2893.467	2519.70833
2895.61	2541.04167
2897.751	2562.70833
2899.892	2557.375
2902.03	2570.70833
2904.168	2574.375
2906.304	2592.375
2908.439	2625.04167
2910.572	2593.04167
2912.704	2629.04167
2914.835	2636.375
2916.965	2621.04167
2919.093	2636.70833
2921.219	2602.375
2923.345	2629.70833
2925.469	2623.04167
2927.591	2569.70833
2929.712	2536.375
2931.832	2538.70833
2933.951	2518.04167
2936.068	2495.04167
2938.184	2459.375
2940.299	2430.70833
2942.412	2401.375
2944.524	2373.04167
2946.634	2380.375
2948.744	2347.04167
2950.851	2367.375
2952.958	2345.04167
2955.063	2344.04167
2957.167	2339.04167
2959.269	2313.70833
2961.371	2346.375
2963.471	2320.375
2965.569	2327.375
2967.666	2303.70833
2969.762	2271.70833
2971.857	2253.375
2973.95	2248.04167
2976.042	2223.04167
2978.133	2196.04167
2980.222	2174.04167
2982.31	2152.04167
2984.396	2125.70833
2986.482	2122.04167
2988.566	2134.04167
2990.648	2110.70833
2992.73	2125.70833
2994.81	2125.70833
2996.889	2123.375
2998.966	2126.04167
3001.042	2134.375
3003.117	2132.04167
3005.191	2119.70833
3007.263	2128.04167
3009.334	2098.70833
3011.403	2078.70833
3013.472	2050.04167
3015.539	2036.70833
3017.604	2045.70833
3019.669	2002.375
3021.732	1993.04167
3023.794	2000.04167
3025.854	1980.04167
3027.914	1981.70833
3029.971	1999.70833
3032.028	1992.04167
3034.083	1980.70833
3036.137	1949.04167
3038.19	1907.375
3040.242	1873.70833
3042.292	1850.375
3044.341	1820.70833
3046.388	1826.375
3048.435	1783.70833
3050.48	1803.375
3052.524	1785.375
3054.566	1739.04167
3056.607	1760.04167
3058.647	1730.375
3060.686	1680.04167
3062.723	1634.70833
3064.759	1572.70833
3066.794	-0.625
3068.828	-0.29167
3070.86	-1.95833
