-0.839	448.08333
3.438	505.75
7.711	138.41667
11.981	56.75
16.247	46.08333
20.509	43.08333
24.768	42.08333
29.024	44.08333
33.276	46.75
37.524	50.08333
41.769	40.08333
46.01	37.08333
50.247	51.41667
54.481	60.08333
58.712	68.41667
62.939	52.08333
67.162	58.75
71.382	57.75
75.599	48.75
79.812	63.08333
84.021	76.75
88.227	61.08333
92.429	63.75
96.628	48.75
100.823	68.75
105.015	73.75
109.204	73.41667
113.388	74.41667
117.57	76.08333
121.748	89.75
125.922	78.75
130.093	99.75
134.261	105.75
138.425	100.08333
142.585	140.08333
146.742	137.75
150.896	163.41667
155.046	197.41667
159.193	317.75
163.336	541.41667
167.476	990.75
171.613	1832.41667
175.746	3079.41667
179.875	4584.08333
184.002	5979.08333
188.124	6922.75
192.244	7251.41667
196.36	7117.75
200.472	6861.75
204.581	6676.08333
208.687	6426.75
212.79	6339.75
216.889	6344.08333
220.984	6321.75
225.077	6342.75
229.165	6360.75
233.251	6338.75
237.333	6383.75
241.412	6304.75
245.487	6269.08333
249.559	6190.41667
253.628	6143.75
257.694	6133.75
261.756	6070.08333
265.814	5995.08333
269.87	5844.75
273.922	5745.75
277.97	5693.41667
282.016	5730.75
286.058	5844.41667
290.097	5952.08333
294.132	6078.08333
298.164	6045.41667
302.193	5747.41667
306.219	5264.41667
310.241	4841.75
314.26	4381.41667
318.276	4022.41667
322.288	3704.75
326.297	3485.08333
330.303	3283.08333
334.305	3161.41667
338.305	3100.75
342.301	3036.41667
346.294	2990.41667
350.283	2955.41667
354.269	2924.75
358.252	2890.41667
362.232	2879.08333
366.209	2868.41667
370.182	2799.75
374.152	2792.08333
378.119	2813.41667
382.083	2785.75
386.043	2804.08333
390	2765.75
393.954	2745.41667
397.905	2723.08333
401.852	2718.75
405.797	2670.75
409.738	2629.08333
413.676	2637.41667
417.61	2618.41667
421.542	2590.75
425.47	2540.75
429.396	2566.41667
433.318	2518.08333
437.236	2516.75
441.152	2530.08333
445.065	2488.41667
448.974	2447.41667
452.88	2442.41667
456.783	2424.41667
460.683	2430.75
464.58	2415.41667
468.473	2432.41667
472.364	2428.41667
476.251	2441.41667
480.135	2439.08333
484.016	2474.08333
487.894	2472.08333
491.769	2532.08333
495.641	2493.41667
499.509	2495.08333
503.375	2519.08333
507.237	2502.41667
511.096	2513.41667
514.952	2637.41667
518.805	2735.08333
522.655	2782.41667
526.502	2589.41667
530.346	2502.41667
534.187	2499.08333
538.024	2487.75
541.859	2500.41667
545.69	2512.75
549.519	2503.41667
553.344	2473.08333
557.166	2429.08333
560.985	2423.41667
564.802	2383.08333
568.615	2356.41667
572.425	2318.08333
576.232	2315.75
580.036	2281.41667
583.836	2299.75
587.634	2307.75
591.429	2315.08333
595.221	2338.75
599.01	2358.75
602.796	2381.41667
606.578	2402.08333
610.358	2409.75
614.135	2405.08333
617.909	2406.08333
621.679	2391.75
625.447	2373.75
629.212	2382.75
632.973	2376.41667
636.732	2374.41667
640.488	2390.75
644.241	2345.75
647.991	2344.08333
651.737	2376.75
655.481	2319.41667
659.222	2331.75
662.96	2314.08333
666.695	2347.41667
670.427	2357.41667
674.156	2360.41667
677.882	2369.08333
681.605	2369.41667
685.325	2344.75
689.043	2363.41667
692.757	2352.75
696.468	2359.41667
700.177	2359.08333
703.882	2351.75
707.585	2331.08333
711.284	2360.41667
714.981	2359.75
718.675	2356.41667
722.366	2385.41667
726.054	2355.08333
729.739	2356.41667
733.421	2367.08333
737.1	2361.75
740.777	2404.75
744.45	2419.75
748.121	2400.75
751.789	2469.08333
755.453	2456.75
759.115	2457.08333
762.774	2491.75
766.431	2514.08333
770.084	2559.75
773.734	2574.08333
777.382	2624.41667
781.027	2630.08333
784.669	2666.75
788.308	2683.41667
791.944	2717.08333
795.577	2722.41667
799.208	2756.41667
802.835	2768.75
806.46	2764.41667
810.082	2780.41667
813.701	2787.75
817.317	2828.41667
820.931	2802.08333
824.542	2811.41667
828.149	2796.41667
831.754	2768.08333
835.357	2774.75
838.956	2778.08333
842.553	2762.75
846.146	2754.08333
849.737	2744.75
853.326	2753.08333
856.911	2784.75
860.493	2811.75
864.073	2855.75
867.65	2858.75
871.225	2908.41667
874.796	2941.08333
878.365	2900.41667
881.931	2955.41667
885.494	2959.41667
889.054	2951.08333
892.612	2976.41667
896.166	2980.08333
899.719	2917.75
903.268	2914.41667
906.814	2882.08333
910.358	2835.41667
913.899	2835.08333
917.438	2826.41667
920.973	2800.75
924.506	2872.08333
928.036	2878.08333
931.564	2916.08333
935.088	2954.75
938.61	2970.08333
942.129	2982.08333
945.646	3071.08333
949.16	3122.75
952.671	3171.41667
956.179	3193.41667
959.685	3152.41667
963.188	3116.08333
966.688	3046.75
970.185	2956.41667
973.68	2945.41667
977.173	2912.08333
980.662	2890.08333
984.149	2909.08333
987.633	2921.08333
991.114	2940.75
994.593	3051.75
998.069	3145.75
1001.542	3254.08333
1005.013	3149.41667
1008.481	3008.75
1011.947	2951.41667
1015.409	2917.08333
1018.869	2932.08333
1022.327	2936.41667
1025.782	2924.41667
1029.234	2931.41667
1032.683	2903.08333
1036.13	2807.08333
1039.574	2710.08333
1043.016	2652.41667
1046.455	2601.41667
1049.891	2558.41667
1053.325	2583.75
1056.756	2570.41667
1060.184	2627.75
1063.61	2604.08333
1067.033	2634.08333
1070.454	2617.41667
1073.872	2678.08333
1077.287	2661.41667
1080.7	2669.75
1084.11	2662.41667
1087.517	2651.41667
1090.922	2635.41667
1094.325	2590.75
1097.724	2575.41667
1101.122	2563.41667
1104.516	2563.41667
1107.908	2573.75
1111.298	2626.75
1114.684	2659.08333
1118.069	2675.41667
1121.45	2722.08333
1124.83	2719.08333
1128.206	2755.41667
1131.58	2790.75
1134.951	2852.08333
1138.32	2925.08333
1141.687	3046.08333
1145.05	3123.08333
1148.412	3134.75
1151.77	3126.08333
1155.126	3127.08333
1158.48	3111.41667
1161.831	3154.75
1165.18	3182.75
1168.525	3239.41667
1171.869	3258.08333
1175.21	3268.08333
1178.548	3270.08333
1181.884	3338.75
1185.217	3347.08333
1188.548	3392.41667
1191.877	3477.08333
1195.202	3528.75
1198.526	3586.08333
1201.846	3605.41667
1205.165	3600.41667
1208.48	3599.08333
1211.794	3591.08333
1215.104	3605.75
1218.413	3606.08333
1221.719	3592.75
1225.022	3574.41667
1228.323	3534.08333
1231.621	3539.08333
1234.917	3551.41667
1238.21	3555.75
1241.501	3536.75
1244.79	3538.75
1248.076	3580.08333
1251.359	3581.08333
1254.64	3636.08333
1257.919	3687.75
1261.195	3719.08333
1264.468	3792.08333
1267.74	3831.75
1271.008	3834.75
1274.275	3801.75
1277.538	3794.08333
1280.8	3798.75
1284.059	3759.75
1287.315	3827.41667
1290.569	3880.75
1293.821	3865.41667
1297.07	3883.41667
1300.317	3914.75
1303.562	3872.41667
1306.803	3852.75
1310.043	3812.75
1313.28	3764.75
1316.515	3712.75
1319.747	3668.75
1322.977	3620.08333
1326.204	3597.41667
1329.429	3532.75
1332.652	3537.75
1335.872	3502.41667
1339.09	3456.75
1342.306	3480.75
1345.519	3438.41667
1348.729	3403.75
1351.938	3384.41667
1355.144	3342.08333
1358.347	3312.75
1361.548	3345.75
1364.747	3334.41667
1367.944	3323.08333
1371.138	3351.08333
1374.329	3385.75
1377.518	3430.75
1380.705	3450.41667
1383.89	3449.41667
1387.072	3343.08333
1390.252	3216.08333
1393.429	3123.75
1396.605	3013.41667
1399.777	2953.75
1402.948	2911.75
1406.116	2909.41667
1409.282	2908.75
1412.445	2909.08333
1415.606	2968.08333
1418.765	3022.41667
1421.921	3087.41667
1425.075	3144.08333
1428.227	3254.08333
1431.376	3351.41667
1434.524	3477.41667
1437.668	3572.75
1440.811	3564.75
1443.951	3596.75
1447.089	3599.75
1450.224	3592.08333
1453.357	3546.41667
1456.488	3528.08333
1459.617	3484.41667
1462.743	3432.75
1465.867	3357.41667
1468.989	3314.08333
1472.108	3262.08333
1475.225	3217.41667
1478.34	3182.08333
1481.453	3153.41667
1484.563	3160.08333
1487.671	3209.75
1490.776	3267.75
1493.88	3331.08333
1496.981	3391.41667
1500.08	3453.08333
1503.176	3517.75
1506.271	3551.41667
1509.363	3634.41667
1512.452	3663.41667
1515.54	3739.41667
1518.625	3819.75
1521.708	3930.41667
1524.789	4112.75
1527.867	4307.08333
1530.944	4545.75
1534.018	4798.08333
1537.089	4971.41667
1540.159	5022.41667
1543.226	4967.41667
1546.291	4792.41667
1549.354	4619.41667
1552.415	4520.41667
1555.473	4412.41667
1558.529	4302.75
1561.583	4266.41667
1564.634	4191.41667
1567.684	4190.75
1570.731	4174.75
1573.776	4185.75
1576.819	4214.75
1579.859	4249.75
1582.898	4315.41667
1585.934	4272.41667
1588.968	4345.08333
1591.999	4310.75
1595.029	4330.08333
1598.056	4335.08333
1601.081	4359.75
1604.104	4346.08333
1607.125	4281.08333
1610.144	4176.75
1613.16	4089.08333
1616.174	4001.75
1619.186	3897.08333
1622.196	3799.08333
1625.203	3678.75
1628.209	3635.08333
1631.212	3572.41667
1634.213	3527.08333
1637.212	3469.75
1640.209	3413.75
1643.203	3293.75
1646.196	3223.41667
1649.186	3123.41667
1652.174	3044.75
1655.16	2922.75
1658.144	2876.08333
1661.125	2725.75
1664.105	2629.08333
1667.082	2513.08333
1670.057	2389.75
1673.03	2229.75
1676.001	2100.08333
1678.97	1964.08333
1681.937	1860.41667
1684.901	1801.75
1687.863	1731.41667
1690.824	1648.08333
1693.782	1637.75
1696.738	1574.08333
1699.692	1533.41667
1702.643	1506.41667
1705.593	1488.41667
1708.54	1470.41667
1711.486	1465.08333
1714.429	1435.08333
1717.37	1435.75
1720.309	1386.08333
1723.246	1411.75
1726.181	1347.75
1729.113	1368.41667
1732.044	1348.08333
1734.972	1332.75
1737.899	1337.08333
1740.823	1328.08333
1743.745	1325.08333
1746.665	1261.41667
1749.583	1255.41667
1752.499	1247.08333
1755.413	1208.75
1758.325	1193.41667
1761.235	1195.75
1764.142	1170.08333
1767.048	1158.08333
1769.951	1138.41667
1772.852	1132.75
1775.752	1130.41667
1778.649	1142.75
1781.544	1139.08333
1784.437	1113.08333
1787.328	1109.08333
1790.217	1105.08333
1793.104	1095.75
1795.989	1088.75
1798.872	1068.75
1801.753	1108.08333
1804.631	1090.08333
1807.508	1091.75
1810.383	1079.08333
1813.255	1074.41667
1816.126	1069.75
1818.994	1080.75
1821.861	1059.08333
1824.725	1057.08333
1827.587	1042.41667
1830.448	1047.75
1833.306	1021.75
1836.162	1035.41667
1839.017	1022.08333
1841.869	1023.41667
1844.719	1026.75
1847.567	1011.08333
1850.414	1003.75
1853.258	1007.08333
1856.1	1025.41667
1858.94	1037.41667
1861.778	1008.75
1864.614	1002.41667
1867.448	1016.08333
1870.28	995.41667
1873.111	1018.75
1875.939	1004.75
1878.765	1021.08333
1881.589	1004.41667
1884.411	996.75
1887.231	1005.75
1890.049	994.08333
1892.865	986.41667
1895.68	983.08333
1898.492	985.41667
1901.302	972.08333
1904.11	971.41667
1906.916	964.75
1909.721	965.75
1912.523	961.41667
1915.323	950.08333
1918.122	949.41667
1920.918	952.75
1923.712	953.75
1926.505	956.75
1929.295	937.75
1932.084	951.08333
1934.87	951.41667
1937.655	932.75
1940.438	936.08333
1943.218	943.08333
1945.997	955.41667
1948.774	960.75
1951.549	941.41667
1954.322	938.75
1957.093	951.75
1959.862	927.75
1962.629	929.41667
1965.394	930.41667
1968.157	906.75
1970.918	913.08333
1973.678	912.41667
1976.435	928.75
1979.19	915.08333
1981.944	902.75
1984.696	902.08333
1987.445	898.41667
1990.193	903.75
1992.939	919.08333
1995.683	892.41667
1998.425	886.08333
2001.165	913.08333
2003.903	892.75
2006.639	886.08333
2009.374	892.41667
2012.106	904.41667
2014.837	867.41667
2017.566	883.08333
2020.292	900.08333
2023.017	897.75
2025.74	877.75
2028.461	877.75
2031.18	883.41667
2033.898	870.08333
2036.613	892.08333
2039.327	888.08333
2042.038	859.75
2044.748	885.41667
2047.456	878.41667
2050.162	863.41667
2052.866	873.08333
2055.568	870.08333
2058.268	853.75
2060.967	858.08333
2063.663	848.08333
2066.358	857.75
2069.051	854.08333
2071.742	845.41667
2074.431	871.08333
2077.118	863.08333
2079.804	845.41667
2082.487	851.75
2085.169	868.75
2087.849	882.75
2090.527	874.41667
2093.203	875.75
2095.877	886.41667
2098.55	876.75
2101.22	895.08333
2103.889	910.41667
2106.556	924.41667
2109.221	971.75
2111.884	1009.75
2114.546	1075.41667
2117.205	1161.41667
2119.863	1270.08333
2122.519	1347.08333
2125.173	1429.08333
2127.825	1510.41667
2130.475	1521.75
2133.124	1461.41667
2135.771	1390.75
2138.416	1324.08333
2141.059	1237.41667
2143.7	1195.41667
2146.339	1095.75
2148.977	1041.08333
2151.613	1024.41667
2154.247	983.41667
2156.879	955.41667
2159.51	938.08333
2162.138	916.41667
2164.765	905.08333
2167.39	890.08333
2170.013	889.75
2172.634	878.08333
2175.254	867.75
2177.872	890.41667
2180.488	850.75
2183.102	857.75
2185.714	839.75
2188.325	824.41667
2190.934	829.08333
2193.541	837.41667
2196.146	813.08333
2198.75	802.41667
2201.351	801.08333
2203.951	800.08333
2206.549	802.75
2209.146	791.75
2211.74	799.75
2214.333	802.08333
2216.924	784.08333
2219.514	777.75
2222.101	769.75
2224.687	779.75
2227.271	765.75
2229.853	762.75
2232.433	741.75
2235.012	778.08333
2237.589	769.08333
2240.164	768.75
2242.738	756.08333
2245.309	755.41667
2247.879	752.41667
2250.448	760.08333
2253.014	732.08333
2255.579	720.75
2258.142	722.08333
2260.703	714.41667
2263.262	723.08333
2265.82	712.41667
2268.376	716.08333
2270.93	699.08333
2273.483	704.08333
2276.033	700.41667
2278.583	701.75
2281.13	700.41667
2283.675	685.41667
2286.219	701.41667
2288.761	699.41667
2291.302	702.41667
2293.841	696.41667
2296.377	671.75
2298.913	680.08333
2301.446	701.08333
2303.978	677.08333
2306.508	672.41667
2309.037	674.75
2311.563	685.75
2314.088	679.08333
2316.612	658.75
2319.133	680.41667
2321.653	667.41667
2324.171	664.75
2326.688	678.41667
2329.202	663.75
2331.715	667.75
2334.227	672.08333
2336.736	653.08333
2339.244	650.41667
2341.751	631.75
2344.255	658.41667
2346.758	653.08333
2349.259	645.41667
2351.759	655.75
2354.257	643.41667
2356.753	647.41667
2359.247	653.41667
2361.74	656.41667
2364.231	649.08333
2366.721	703.75
2369.209	642.75
2371.695	647.75
2374.179	643.75
2376.662	635.08333
2379.143	658.41667
2381.622	638.75
2384.1	648.75
2386.576	649.41667
2389.051	645.75
2391.524	655.75
2393.995	652.08333
2396.464	630.08333
2398.932	634.08333
2401.398	636.08333
2403.863	642.41667
2406.325	638.41667
2408.787	633.41667
2411.246	641.41667
2413.704	628.75
2416.16	625.41667
2418.615	639.75
2421.068	631.41667
2423.519	633.41667
2425.969	630.41667
2428.417	637.41667
2430.863	656.41667
2433.308	636.75
2435.751	632.41667
2438.193	635.75
2440.633	617.75
2443.071	630.75
2445.508	614.41667
2447.943	615.08333
2450.376	612.75
2452.808	634.41667
2455.238	614.08333
2457.667	655.08333
2460.093	622.75
2462.519	610.08333
2464.942	609.75
2467.365	630.08333
2469.785	621.75
2472.204	619.41667
2474.621	609.41667
2477.037	635.08333
2479.451	601.75
2481.863	612.08333
2484.274	597.08333
2486.683	624.75
2489.091	624.75
2491.497	622.41667
2493.901	612.75
2496.304	608.41667
2498.705	623.41667
2501.105	616.08333
2503.503	636.41667
2505.899	600.75
2508.294	630.41667
2510.687	601.75
2513.079	608.75
2515.469	604.08333
2517.858	605.41667
2520.245	622.75
2522.63	609.75
2525.014	599.41667
2527.396	609.75
2529.776	600.08333
2532.156	615.75
2534.533	603.75
2536.909	599.75
2539.283	596.75
2541.656	587.08333
2544.027	625.08333
2546.397	607.08333
2548.765	602.08333
2551.131	604.41667
2553.496	614.75
2555.86	608.75
2558.221	604.41667
2560.582	599.41667
2562.94	589.41667
2565.298	606.41667
2567.653	619.41667
2570.007	594.08333
2572.36	602.41667
2574.711	604.41667
2577.06	616.41667
2579.408	605.41667
2581.754	603.08333
2584.099	609.75
2586.442	600.08333
2588.784	606.75
2591.124	619.41667
2593.463	611.41667
2595.8	603.08333
2598.135	600.75
2600.469	604.41667
2602.802	625.75
2605.133	617.41667
2607.462	598.75
2609.79	605.41667
2612.116	604.08333
2614.441	607.75
2616.764	608.08333
2619.086	615.08333
2621.406	609.41667
2623.725	622.75
2626.042	611.41667
2628.358	609.75
2630.672	615.75
2632.985	634.08333
2635.296	622.75
2637.606	627.41667
2639.914	614.75
2642.22	620.08333
2644.525	620.08333
2646.829	629.41667
2649.131	638.75
2651.432	638.41667
2653.731	627.75
2656.028	643.75
2658.324	633.75
2660.619	632.75
2662.912	641.41667
2665.204	626.75
2667.494	644.08333
2669.782	638.41667
2672.07	638.75
2674.355	652.08333
2676.639	643.08333
2678.922	640.08333
2681.203	649.08333
2683.483	636.08333
2685.761	640.41667
2688.038	656.41667
2690.313	668.75
2692.587	655.08333
2694.859	648.75
2697.13	650.75
2699.399	660.08333
2701.667	669.75
2703.933	685.41667
2706.198	667.08333
2708.461	685.75
2710.723	689.41667
2712.984	683.41667
2715.243	693.08333
2717.5	690.41667
2719.757	696.75
2722.011	691.41667
2724.264	714.41667
2726.516	718.41667
2728.766	712.41667
2731.015	706.41667
2733.262	701.75
2735.508	699.08333
2737.753	707.08333
2739.996	687.08333
2742.237	691.41667
2744.477	695.75
2746.716	701.75
2748.953	689.08333
2751.189	699.08333
2753.423	679.08333
2755.656	675.41667
2757.887	673.41667
2760.117	678.75
2762.346	665.08333
2764.573	661.41667
2766.798	669.41667
2769.022	684.75
2771.245	684.08333
2773.467	686.75
2775.686	694.41667
2777.905	705.41667
2780.122	706.41667
2782.337	709.08333
2784.552	704.08333
2786.764	718.75
2788.976	725.08333
2791.186	739.08333
2793.394	746.08333
2795.601	758.75
2797.807	770.08333
2800.011	770.41667
2802.214	781.08333
2804.415	785.41667
2806.615	795.75
2808.814	823.08333
2811.011	814.08333
2813.206	818.08333
2815.401	839.75
2817.594	844.75
2819.785	865.41667
2821.975	858.41667
2824.164	883.08333
2826.351	876.41667
2828.537	906.75
2830.722	921.75
2832.905	925.41667
2835.086	951.08333
2837.267	989.75
2839.445	1020.08333
2841.623	1040.08333
2843.799	1078.08333
2845.974	1131.41667
2848.147	1160.75
2850.319	1176.75
2852.489	1223.41667
2854.659	1227.41667
2856.826	1239.41667
2858.993	1263.75
2861.158	1250.75
2863.321	1250.41667
2865.483	1289.41667
2867.644	1268.08333
2869.804	1274.75
2871.962	1261.08333
2874.118	1245.41667
2876.274	1258.41667
2878.428	1253.41667
2880.58	1222.41667
2882.731	1223.08333
2884.881	1217.41667
2887.03	1239.75
2889.177	1228.75
2891.322	1249.08333
2893.467	1236.75
2895.61	1241.41667
2897.751	1273.75
2899.892	1261.41667
2902.03	1268.41667
2904.168	1264.41667
2906.304	1264.08333
2908.439	1299.08333
2910.572	1270.08333
2912.704	1287.41667
2914.835	1288.75
2916.965	1271.41667
2919.093	1297.08333
2921.219	1254.75
2923.345	1277.08333
2925.469	1241.75
2927.591	1239.08333
2929.712	1192.41667
2931.832	1191.41667
2933.951	1156.08333
2936.068	1143.08333
2938.184	1096.75
2940.299	1077.75
2942.412	1057.75
2944.524	1022.75
2946.634	1007.75
2948.744	954.08333
2950.851	979.41667
2952.958	931.08333
2955.063	931.41667
2957.167	898.08333
2959.269	874.41667
2961.371	883.41667
2963.471	845.41667
2965.569	853.08333
2967.666	817.08333
2969.762	803.08333
2971.857	788.41667
2973.95	776.08333
2976.042	761.41667
2978.133	745.08333
2980.222	725.41667
2982.31	705.75
2984.396	686.41667
2986.482	687.08333
2988.566	689.08333
2990.648	675.41667
2992.73	666.08333
2994.81	651.08333
2996.889	666.41667
2998.966	648.41667
3001.042	652.41667
3003.117	652.41667
3005.191	650.41667
3007.263	634.41667
3009.334	635.41667
3011.403	618.75
3013.472	604.75
3015.539	606.41667
3017.604	618.08333
3019.669	580.08333
3021.732	576.41667
3023.794	587.75
3025.854	576.41667
3027.914	559.75
3029.971	582.75
3032.028	574.41667
3034.083	575.08333
3036.137	553.41667
3038.19	545.75
3040.242	530.08333
3042.292	520.75
3044.341	514.08333
3046.388	522.75
3048.435	497.75
3050.48	511.41667
3052.524	506.75
3054.566	492.75
3056.607	503.75
3058.647	476.41667
3060.686	464.41667
3062.723	451.08333
3064.759	441.75
3066.794	-0.58333
3068.828	-1.91667
3070.86	-1.91667
