-0.839	427
3.438	460.66667
7.711	130.33333
11.981	51.66667
16.247	43.33333
20.509	46.66667
24.768	43.33333
29.024	45.66667
33.276	40.66667
37.524	47.66667
41.769	39
46.01	32.33333
50.247	47
54.481	57.66667
58.712	62.66667
62.939	43
67.162	58.33333
71.382	53
75.599	43.33333
79.812	59.66667
84.021	76
88.227	55.66667
92.429	62.66667
96.628	47.66667
100.823	64
105.015	66.33333
109.204	71.33333
113.388	74
117.57	65.66667
121.748	80.66667
125.922	72.66667
130.093	92.33333
134.261	90.66667
138.425	90.66667
142.585	128.66667
146.742	128.33333
150.896	143.33333
155.046	175.66667
159.193	289.33333
163.336	488.33333
167.476	878.33333
171.613	1612
175.746	2732
179.875	4049.33333
184.002	5305.33333
188.124	6108.33333
192.244	6367.33333
196.36	6306.33333
200.472	6084
204.581	5887
208.687	5688.66667
212.79	5583.66667
216.889	5558
220.984	5594.66667
225.077	5592.66667
229.165	5621.33333
233.251	5606
237.333	5599.66667
241.412	5554.33333
245.487	5479.33333
249.559	5415
253.628	5348.33333
257.694	5270.66667
261.756	5197.33333
265.814	5114
269.87	4959
273.922	4859.33333
277.97	4793.66667
282.016	4789.66667
286.058	4824
290.097	4928.66667
294.132	4937.33333
298.164	4860.33333
302.193	4609.33333
306.219	4286.66667
310.241	3923
314.26	3591.66667
318.276	3282
322.288	3081.66667
326.297	2898.33333
330.303	2786.33333
334.305	2673.33333
338.305	2605.66667
342.301	2568.33333
346.294	2545.66667
350.283	2507.66667
354.269	2474
358.252	2494.33333
362.232	2448.33333
366.209	2428.66667
370.182	2411.66667
374.152	2381.33333
378.119	2410
382.083	2368
386.043	2393.33333
390	2340
393.954	2331
397.905	2307.33333
401.852	2293
405.797	2259.33333
409.738	2235.33333
413.676	2222.66667
417.61	2186
421.542	2185.66667
425.47	2162.33333
429.396	2143.66667
433.318	2122.66667
437.236	2115
441.152	2134.66667
445.065	2071
448.974	2085.66667
452.88	2046.33333
456.783	2028
460.683	2037.33333
464.58	2042.33333
468.473	2034.33333
472.364	2040.66667
476.251	2044
480.135	2055.33333
484.016	2068.66667
487.894	2105
491.769	2116.66667
495.641	2111
499.509	2119
503.375	2123.33333
507.237	2151
511.096	2250
514.952	2557
518.805	2962.66667
522.655	3095.33333
526.502	2554.66667
530.346	2192.66667
534.187	2125.66667
538.024	2091.33333
541.859	2064.33333
545.69	2088
549.519	2079.66667
553.344	2047
557.166	2028.33333
560.985	1989
564.802	1952
568.615	1956
572.425	1906
576.232	1883.66667
580.036	1897.66667
583.836	1893.33333
587.634	1918.33333
591.429	1901.66667
595.221	1951
599.01	1960
602.796	1974.66667
606.578	1983.66667
610.358	2013
614.135	1990.66667
617.909	1987
621.679	1971
625.447	1960
629.212	1971
632.973	1982.33333
636.732	1963
640.488	1966.33333
644.241	1939.66667
647.991	1909.33333
651.737	1947.66667
655.481	1900.33333
659.222	1913
662.96	1916.66667
666.695	1928.33333
670.427	1954
674.156	1956
677.882	1936
681.605	1946
685.325	1938.33333
689.043	1947.33333
692.757	1930.66667
696.468	1935.66667
700.177	1921
703.882	1930.66667
707.585	1924
711.284	1930
714.981	1934.33333
718.675	1943.66667
722.366	1959
726.054	1930.66667
729.739	1935.66667
733.421	1943
737.1	1952.66667
740.777	1947
744.45	1976.33333
748.121	1991.33333
751.789	2026
755.453	2037.33333
759.115	2020
762.774	2048.66667
766.431	2072.33333
770.084	2084.33333
773.734	2125.66667
777.382	2159
781.027	2174
784.669	2188.33333
788.308	2208
791.944	2218
795.577	2221
799.208	2263.66667
802.835	2280.66667
806.46	2271.66667
810.082	2289.66667
813.701	2317
817.317	2315.66667
820.931	2310
824.542	2325
828.149	2300
831.754	2296.66667
835.357	2282
838.956	2281
842.553	2285.33333
846.146	2289.66667
849.737	2260.66667
853.326	2275
856.911	2292.33333
860.493	2328.33333
864.073	2334.33333
867.65	2395.33333
871.225	2435
874.796	2399
878.365	2423.33333
881.931	2424.66667
885.494	2464
889.054	2465.66667
892.612	2483.66667
896.166	2469
899.719	2433.33333
903.268	2396.66667
906.814	2389.66667
910.358	2362.33333
913.899	2327.66667
917.438	2361.33333
920.973	2322
924.506	2349.66667
928.036	2400
931.564	2439.66667
935.088	2458.66667
938.61	2473.33333
942.129	2499.33333
945.646	2573.66667
949.16	2650.66667
952.671	2665.66667
956.179	2682.33333
959.685	2628
963.188	2611.66667
966.688	2543.33333
970.185	2478
973.68	2470
977.173	2454
980.662	2438
984.149	2455
987.633	2443
991.114	2492.66667
994.593	2558.66667
998.069	2635.33333
1001.542	2683
1005.013	2624.66667
1008.481	2477.66667
1011.947	2454
1015.409	2434.33333
1018.869	2433.66667
1022.327	2440
1025.782	2411.66667
1029.234	2422.66667
1032.683	2392.33333
1036.13	2316.33333
1039.574	2210.33333
1043.016	2164.33333
1046.455	2117
1049.891	2100.33333
1053.325	2105
1056.756	2098.33333
1060.184	2122.33333
1063.61	2120
1067.033	2139
1070.454	2134
1073.872	2170
1077.287	2150.66667
1080.7	2166.66667
1084.11	2191.33333
1087.517	2164.33333
1090.922	2150
1094.325	2115.66667
1097.724	2098
1101.122	2105
1104.516	2087
1107.908	2083.66667
1111.298	2142.66667
1114.684	2176.33333
1118.069	2185.66667
1121.45	2203.33333
1124.83	2199
1128.206	2236.66667
1131.58	2264.33333
1134.951	2330.66667
1138.32	2395.33333
1141.687	2479.66667
1145.05	2532
1148.412	2562.66667
1151.77	2551.33333
1155.126	2554.33333
1158.48	2543.66667
1161.831	2573
1165.18	2574
1168.525	2634.33333
1171.869	2679
1175.21	2667.33333
1178.548	2711
1181.884	2731.66667
1185.217	2733.33333
1188.548	2808
1191.877	2838.66667
1195.202	2922
1198.526	2939
1201.846	2960
1205.165	2941
1208.48	2935
1211.794	2932.66667
1215.104	2910.33333
1218.413	2938
1221.719	2922
1225.022	2925.66667
1228.323	2881.33333
1231.621	2886.33333
1234.917	2867
1238.21	2909
1241.501	2893.33333
1244.79	2887.33333
1248.076	2908.66667
1251.359	2918
1254.64	2999
1257.919	2978.66667
1261.195	3037.66667
1264.468	3091
1267.74	3113.33333
1271.008	3153
1274.275	3132
1277.538	3105.66667
1280.8	3094
1284.059	3091
1287.315	3101.66667
1290.569	3139.66667
1293.821	3144
1297.07	3160.66667
1300.317	3166
1303.562	3159.33333
1306.803	3128.33333
1310.043	3105
1313.28	3075.33333
1316.515	3027
1319.747	2996.33333
1322.977	2935.33333
1326.204	2920
1329.429	2898.66667
1332.652	2874.66667
1335.872	2874
1339.09	2820
1342.306	2850.33333
1345.519	2819.33333
1348.729	2792.66667
1351.938	2772.66667
1355.144	2754.33333
1358.347	2710.66667
1361.548	2734
1364.747	2727.66667
1367.944	2707.66667
1371.138	2736
1374.329	2756
1377.518	2811.33333
1380.705	2806.33333
1383.89	2803.66667
1387.072	2732.33333
1390.252	2641.33333
1393.429	2543
1396.605	2492.66667
1399.777	2403.33333
1402.948	2390.33333
1406.116	2365.66667
1409.282	2380.33333
1412.445	2421.66667
1415.606	2419.66667
1418.765	2468.33333
1421.921	2492
1425.075	2569
1428.227	2641.66667
1431.376	2739.66667
1434.524	2834.33333
1437.668	2879.66667
1440.811	2883.66667
1443.951	2942
1447.089	2928.66667
1450.224	2940.33333
1453.357	2921.33333
1456.488	2900.66667
1459.617	2837.33333
1462.743	2802
1465.867	2770
1468.989	2739.33333
1472.108	2687.66667
1475.225	2619.66667
1478.34	2607.66667
1481.453	2603
1484.563	2590.66667
1487.671	2644.33333
1490.776	2700.66667
1493.88	2768.66667
1496.981	2833.33333
1500.08	2859.66667
1503.176	2901
1506.271	2927.66667
1509.363	2981.66667
1512.452	3035
1515.54	3097.66667
1518.625	3158
1521.708	3256.66667
1524.789	3374
1527.867	3573.66667
1530.944	3799.33333
1534.018	3988.66667
1537.089	4131.33333
1540.159	4146.66667
1543.226	4095
1546.291	3980.33333
1549.354	3878.33333
1552.415	3746
1555.473	3634.33333
1558.529	3558.33333
1561.583	3532.66667
1564.634	3493.33333
1567.684	3465
1570.731	3449
1573.776	3473.66667
1576.819	3505.66667
1579.859	3504.33333
1582.898	3541.33333
1585.934	3561.33333
1588.968	3569.66667
1591.999	3534.33333
1595.029	3571
1598.056	3590.33333
1601.081	3577.66667
1604.104	3573.33333
1607.125	3512.66667
1610.144	3453.66667
1613.16	3374.33333
1616.174	3296.66667
1619.186	3209.66667
1622.196	3117
1625.203	3024.33333
1628.209	3003.33333
1631.212	2931.66667
1634.213	2891.66667
1637.212	2874.66667
1640.209	2834.33333
1643.203	2767.66667
1646.196	2675.66667
1649.186	2605.66667
1652.174	2517.66667
1655.16	2469.33333
1658.144	2389.66667
1661.125	2321.66667
1664.105	2205.33333
1667.082	2129
1670.057	2011.66667
1673.03	1899.66667
1676.001	1787.66667
1678.97	1684.33333
1681.937	1600.66667
1684.901	1505
1687.863	1476.33333
1690.824	1408
1693.782	1399
1696.738	1358
1699.692	1327.66667
1702.643	1288.66667
1705.593	1268
1708.54	1271.66667
1711.486	1263
1714.429	1226
1717.37	1228.33333
1720.309	1210
1723.246	1223.66667
1726.181	1184.33333
1729.113	1202
1732.044	1175
1734.972	1158.33333
1737.899	1165
1740.823	1154.66667
1743.745	1171.66667
1746.665	1132
1749.583	1114.66667
1752.499	1088
1755.413	1089.66667
1758.325	1059
1761.235	1052.33333
1764.142	1038
1767.048	1041.33333
1769.951	1030
1772.852	1019
1775.752	1018.33333
1778.649	1024.33333
1781.544	1023.33333
1784.437	1005.66667
1787.328	1017
1790.217	1009.33333
1793.104	993.33333
1795.989	981.66667
1798.872	975
1801.753	1010.33333
1804.631	998
1807.508	1004
1810.383	1004.66667
1813.255	986.33333
1816.126	999.66667
1818.994	990.33333
1821.861	979.66667
1824.725	975
1827.587	967.66667
1830.448	974.66667
1833.306	951.33333
1836.162	964
1839.017	952.33333
1841.869	955.66667
1844.719	954.66667
1847.567	928.66667
1850.414	950
1853.258	957.33333
1856.1	949
1858.94	961
1861.778	960
1864.614	948.66667
1867.448	966.33333
1870.28	958.66667
1873.111	991
1875.939	960.33333
1878.765	983
1881.589	963
1884.411	973.66667
1887.231	978
1890.049	949.33333
1892.865	974
1895.68	953
1898.492	968
1901.302	952.66667
1904.11	949.33333
1906.916	938.66667
1909.721	945
1912.523	962.66667
1915.323	935
1918.122	939.33333
1920.918	943
1923.712	938
1926.505	945.33333
1929.295	936
1932.084	953.66667
1934.87	962
1937.655	954
1940.438	933
1943.218	959.33333
1945.997	955.66667
1948.774	969.33333
1951.549	966.66667
1954.322	965.33333
1957.093	953.33333
1959.862	954
1962.629	949.66667
1965.394	951.66667
1968.157	937.33333
1970.918	957
1973.678	937.33333
1976.435	952
1979.19	935.33333
1981.944	937
1984.696	945
1987.445	939
1990.193	942.66667
1992.939	952.66667
1995.683	945.33333
1998.425	930.66667
2001.165	961.33333
2003.903	930
2006.639	950.66667
2009.374	972
2012.106	956
2014.837	939
2017.566	966.33333
2020.292	956
2023.017	961
2025.74	955.33333
2028.461	959
2031.18	969.66667
2033.898	951.33333
2036.613	969.66667
2039.327	971
2042.038	966.33333
2044.748	954.66667
2047.456	970.66667
2050.162	949.66667
2052.866	965
2055.568	975
2058.268	961.66667
2060.967	971
2063.663	954.66667
2066.358	983.66667
2069.051	968.33333
2071.742	978
2074.431	997
2077.118	983.66667
2079.804	973
2082.487	994.33333
2085.169	995
2087.849	1021
2090.527	1009.66667
2093.203	1020
2095.877	1032.33333
2098.55	1040
2101.22	1071.33333
2103.889	1072.66667
2106.556	1078.33333
2109.221	1121.33333
2111.884	1170
2114.546	1243
2117.205	1333
2119.863	1440.33333
2122.519	1525
2125.173	1595.66667
2127.825	1688.66667
2130.475	1690.66667
2133.124	1651.33333
2135.771	1588.33333
2138.416	1510
2141.059	1436.33333
2143.7	1393.66667
2146.339	1323.66667
2148.977	1263.66667
2151.613	1235.33333
2154.247	1209
2156.879	1190.66667
2159.51	1180.66667
2162.138	1158
2164.765	1152.33333
2167.39	1132
2170.013	1149.33333
2172.634	1152.33333
2175.254	1129.33333
2177.872	1159.33333
2180.488	1103.33333
2183.102	1104
2185.714	1099.66667
2188.325	1091.33333
2190.934	1106
2193.541	1086.66667
2196.146	1080.33333
2198.75	1078.66667
2201.351	1066.33333
2203.951	1051.33333
2206.549	1079
2209.146	1078
2211.74	1061.33333
2214.333	1074.33333
2216.924	1040.33333
2219.514	1064.66667
2222.101	1061.33333
2224.687	1074.33333
2227.271	1069.66667
2229.853	1053
2232.433	1052
2235.012	1080
2237.589	1089.33333
2240.164	1081.66667
2242.738	1082.66667
2245.309	1074.33333
2247.879	1077.33333
2250.448	1080.66667
2253.014	1058.66667
2255.579	1047.66667
2258.142	1050.66667
2260.703	1046.33333
2263.262	1050.66667
2265.82	1058.33333
2268.376	1072.33333
2270.93	1056
2273.483	1046.66667
2276.033	1078.33333
2278.583	1076
2281.13	1065.33333
2283.675	1067.33333
2286.219	1068.66667
2288.761	1059
2291.302	1082
2293.841	1084
2296.377	1049
2298.913	1080.66667
2301.446	1076.66667
2303.978	1086.66667
2306.508	1090.33333
2309.037	1087.33333
2311.563	1093
2314.088	1089.66667
2316.612	1073.33333
2319.133	1104.33333
2321.653	1096.33333
2324.171	1081.66667
2326.688	1104
2329.202	1100
2331.715	1099.33333
2334.227	1095.66667
2336.736	1097
2339.244	1111.66667
2341.751	1098.66667
2344.255	1118
2346.758	1122.66667
2349.259	1118.66667
2351.759	1117.33333
2354.257	1116.33333
2356.753	1118.33333
2359.247	1129.33333
2361.74	1141
2364.231	1134.66667
2366.721	1145
2369.209	1132.33333
2371.695	1146
2374.179	1132.33333
2376.662	1139.33333
2379.143	1174
2381.622	1170.66667
2384.1	1183.33333
2386.576	1161.66667
2389.051	1186.66667
2391.524	1200.33333
2393.995	1187.33333
2396.464	1184
2398.932	1172.33333
2401.398	1200.33333
2403.863	1187.66667
2406.325	1184.33333
2408.787	1207.66667
2411.246	1203
2413.704	1220.33333
2416.16	1196.66667
2418.615	1214.33333
2421.068	1242
2423.519	1229.66667
2425.969	1209.33333
2428.417	1231
2430.863	1238.33333
2433.308	1244.66667
2435.751	1244.33333
2438.193	1243.33333
2440.633	1267
2443.071	1268
2445.508	1237.33333
2447.943	1251.66667
2450.376	1253.66667
2452.808	1268
2455.238	1275
2457.667	1292
2460.093	1284
2462.519	1268.33333
2464.942	1278.33333
2467.365	1305.66667
2469.785	1289.66667
2472.204	1296.33333
2474.621	1306
2477.037	1325.33333
2479.451	1306.66667
2481.863	1312.66667
2484.274	1304
2486.683	1316
2489.091	1326.66667
2491.497	1342.66667
2493.901	1342.33333
2496.304	1328
2498.705	1340.33333
2501.105	1332
2503.503	1369
2505.899	1356
2508.294	1377
2510.687	1353
2513.079	1353
2515.469	1370.66667
2517.858	1374
2520.245	1384.66667
2522.63	1375.33333
2525.014	1379.33333
2527.396	1376
2529.776	1379.33333
2532.156	1397
2534.533	1383.33333
2536.909	1403.33333
2539.283	1389.66667
2541.656	1400.66667
2544.027	1428
2546.397	1418
2548.765	1419.33333
2551.131	1423
2553.496	1445.33333
2555.86	1454
2558.221	1451.33333
2560.582	1440.33333
2562.94	1443.33333
2565.298	1450
2567.653	1468
2570.007	1446.66667
2572.36	1480
2574.711	1475
2577.06	1500.33333
2579.408	1480.33333
2581.754	1501.66667
2584.099	1508.66667
2586.442	1508.66667
2588.784	1515.33333
2591.124	1525.33333
2593.463	1519.66667
2595.8	1534
2598.135	1515.66667
2600.469	1541.33333
2602.802	1534
2605.133	1554.33333
2607.462	1538.33333
2609.79	1541.33333
2612.116	1568.33333
2614.441	1558.33333
2616.764	1574.33333
2619.086	1556
2621.406	1575.33333
2623.725	1604.66667
2626.042	1602.33333
2628.358	1588.66667
2630.672	1605
2632.985	1630.66667
2635.296	1628
2637.606	1631.66667
2639.914	1606.66667
2642.22	1654.66667
2644.525	1629.33333
2646.829	1643.66667
2649.131	1677.66667
2651.432	1686.33333
2653.731	1668.33333
2656.028	1699.33333
2658.324	1701.33333
2660.619	1679.66667
2662.912	1727
2665.204	1694.33333
2667.494	1721.66667
2669.782	1719
2672.07	1742
2674.355	1734
2676.639	1724.66667
2678.922	1733.66667
2681.203	1754
2683.483	1730
2685.761	1733
2688.038	1754.66667
2690.313	1754.66667
2692.587	1766.66667
2694.859	1768
2697.13	1777.66667
2699.399	1773.66667
2701.667	1800
2703.933	1817.66667
2706.198	1814.33333
2708.461	1836.66667
2710.723	1835
2712.984	1832.66667
2715.243	1847.33333
2717.5	1855
2719.757	1862
2722.011	1890
2724.264	1888.33333
2726.516	1909.33333
2728.766	1910.66667
2731.015	1903.33333
2733.262	1916.66667
2735.508	1916.33333
2737.753	1914.66667
2739.996	1900
2742.237	1892.33333
2744.477	1936.66667
2746.716	1910
2748.953	1894.66667
2751.189	1910.33333
2753.423	1907
2755.656	1893.66667
2757.887	1911
2760.117	1903.66667
2762.346	1902
2764.573	1914
2766.798	1908.33333
2769.022	1936.66667
2771.245	1934.33333
2773.467	1934
2775.686	1943
2777.905	1954.66667
2780.122	1976.33333
2782.337	1958.33333
2784.552	1995.66667
2786.764	2014.66667
2788.976	2008.33333
2791.186	2033.33333
2793.394	2045.66667
2795.601	2054.33333
2797.807	2064.33333
2800.011	2087.66667
2802.214	2103
2804.415	2105.66667
2806.615	2094.66667
2808.814	2122
2811.011	2124.33333
2813.206	2124
2815.401	2130
2817.594	2138.33333
2819.785	2163.66667
2821.975	2141
2824.164	2170.33333
2826.351	2180.66667
2828.537	2211.66667
2830.722	2202.66667
2832.905	2217
2835.086	2260.66667
2837.267	2280
2839.445	2309
2841.623	2335
2843.799	2382
2845.974	2399.66667
2848.147	2437.33333
2850.319	2470.66667
2852.489	2490.66667
2854.659	2490
2856.826	2526.33333
2858.993	2531
2861.158	2554.33333
2863.321	2529.66667
2865.483	2567
2867.644	2539.33333
2869.804	2551.66667
2871.962	2517.33333
2874.118	2535.66667
2876.274	2533.33333
2878.428	2516.66667
2880.58	2500.33333
2882.731	2487.33333
2884.881	2519.33333
2887.03	2496.66667
2889.177	2480.66667
2891.322	2520
2893.467	2512.66667
2895.61	2513
2897.751	2543
2899.892	2547
2902.03	2561.66667
2904.168	2581.66667
2906.304	2580
2908.439	2624
2910.572	2587.33333
2912.704	2621
2914.835	2632
2916.965	2621.33333
2919.093	2646.66667
2921.219	2581.66667
2923.345	2621.66667
2925.469	2568.66667
2927.591	2583.33333
2929.712	2523.33333
2931.832	2544.66667
2933.951	2512.33333
2936.068	2485.66667
2938.184	2462.33333
2940.299	2425
2942.412	2407.66667
2944.524	2401
2946.634	2387.66667
2948.744	2347.66667
2950.851	2367
2952.958	2344
2955.063	2345.33333
2957.167	2333.33333
2959.269	2318.33333
2961.371	2339.33333
2963.471	2305.66667
2965.569	2307.33333
2967.666	2281.33333
2969.762	2262.66667
2971.857	2275.33333
2973.95	2253
2976.042	2238
2978.133	2214.33333
2980.222	2176.33333
2982.31	2156.33333
2984.396	2138
2986.482	2124
2988.566	2106.33333
2990.648	2126.33333
2992.73	2130.66667
2994.81	2114
2996.889	2144
2998.966	2112
3001.042	2132
3003.117	2118.66667
3005.191	2115.66667
3007.263	2115.66667
3009.334	2108.33333
3011.403	2092.33333
3013.472	2036.66667
3015.539	2039
3017.604	2040.33333
3019.669	1980
3021.732	2000.66667
3023.794	1989
3025.854	1988.66667
3027.914	1993.33333
3029.971	1987.33333
3032.028	1987
3034.083	2004.33333
3036.137	1956
3038.19	1901.66667
3040.242	1855.33333
3042.292	1836.33333
3044.341	1805.33333
3046.388	1806.66667
3048.435	1787.66667
3050.48	1800
3052.524	1797.33333
3054.566	1743
3056.607	1765
3058.647	1734
3060.686	1690.66667
3062.723	1632.33333
3064.759	1581
3066.794	-0.66667
3068.828	-1
3070.86	-1.66667
