-0.839	407.45833
3.438	452.45833
7.711	140.125
11.981	55.45833
16.247	47.45833
20.509	49.125
24.768	44.79167
29.024	49.45833
33.276	43.45833
37.524	51.125
41.769	42.79167
46.01	39.125
50.247	51.125
54.481	62.45833
58.712	70.125
62.939	50.45833
67.162	61.125
71.382	56.125
75.599	50.125
79.812	71.45833
84.021	82.45833
88.227	62.45833
92.429	63.125
96.628	52.125
100.823	68.45833
105.015	77.125
109.204	80.79167
113.388	80.45833
117.57	77.125
121.748	94.125
125.922	85.79167
130.093	109.79167
134.261	113.79167
138.425	108.79167
142.585	153.125
146.742	153.45833
150.896	188.45833
155.046	227.125
159.193	354.79167
163.336	607.79167
167.476	1110.125
171.613	2056.45833
175.746	3423.45833
179.875	5155.79167
184.002	6756.45833
188.124	7879.125
192.244	8268.79167
196.36	8224.125
200.472	8068.79167
204.581	7903.79167
208.687	7762.125
212.79	7720.125
216.889	7769.45833
220.984	7863.125
225.077	7962.125
229.165	8079.45833
233.251	8212.45833
237.333	8292.125
241.412	8286.45833
245.487	8310.125
249.559	8225.79167
253.628	8176.79167
257.694	8107.125
261.756	8058.45833
265.814	7884.79167
269.87	7655.125
273.922	7412.125
277.97	7185.79167
282.016	7019.79167
286.058	6885.79167
290.097	6870.45833
294.132	6840.45833
298.164	6789.125
302.193	6524.125
306.219	6073.79167
310.241	5536.45833
314.26	4984.125
318.276	4538.125
322.288	4239.79167
326.297	3991.79167
330.303	3800.79167
334.305	3705.125
338.305	3603.45833
342.301	3529.45833
346.294	3451.79167
350.283	3445.79167
354.269	3389.79167
358.252	3375.79167
362.232	3345.45833
366.209	3326.79167
370.182	3297.45833
374.152	3247.45833
378.119	3262.45833
382.083	3259.125
386.043	3270.125
390	3246.45833
393.954	3218.79167
397.905	3197.79167
401.852	3163.125
405.797	3129.45833
409.738	3096.125
413.676	3090.45833
417.61	3053.45833
421.542	3042.79167
425.47	2997.45833
429.396	2981.45833
433.318	2959.125
437.236	2941.125
441.152	2956.79167
445.065	2885.79167
448.974	2901.125
452.88	2853.45833
456.783	2855.125
460.683	2840.125
464.58	2832.125
468.473	2830.125
472.364	2807.45833
476.251	2824.125
480.135	2865.79167
484.016	2891.125
487.894	2908.125
491.769	2910.79167
495.641	2920.125
499.509	2923.79167
503.375	2914.45833
507.237	2903.125
511.096	2887.125
514.952	2890.45833
518.805	2901.125
522.655	2898.125
526.502	2851.79167
530.346	2870.45833
534.187	2899.45833
538.024	2889.79167
541.859	2911.79167
545.69	2921.79167
549.519	2895.79167
553.344	2890.125
557.166	2841.45833
560.985	2828.125
564.802	2757.45833
568.615	2715.125
572.425	2694.45833
576.232	2670.125
580.036	2671.79167
583.836	2665.45833
587.634	2658.125
591.429	2650.125
595.221	2748.45833
599.01	2743.45833
602.796	2812.125
606.578	2815.45833
610.358	2831.125
614.135	2806.79167
617.909	2783.125
621.679	2794.45833
625.447	2765.45833
629.212	2761.125
632.973	2763.79167
636.732	2752.45833
640.488	2751.79167
644.241	2738.45833
647.991	2736.45833
651.737	2744.125
655.481	2743.125
659.222	2762.79167
662.96	2739.45833
666.695	2759.79167
670.427	2789.125
674.156	2769.79167
677.882	2789.79167
681.605	2762.45833
685.325	2736.125
689.043	2737.45833
692.757	2710.79167
696.468	2712.125
700.177	2721.79167
703.882	2726.125
707.585	2718.125
711.284	2718.79167
714.981	2727.79167
718.675	2761.45833
722.366	2766.45833
726.054	2729.79167
729.739	2738.79167
733.421	2715.125
737.1	2711.45833
740.777	2746.125
744.45	2770.79167
748.121	2781.125
751.789	2819.79167
755.453	2836.45833
759.115	2851.79167
762.774	2872.45833
766.431	2885.45833
770.084	2937.125
773.734	2967.125
777.382	3047.79167
781.027	3082.125
784.669	3066.79167
788.308	3079.125
791.944	3104.125
795.577	3129.125
799.208	3167.125
802.835	3174.45833
806.46	3215.45833
810.082	3248.79167
813.701	3246.45833
817.317	3291.79167
820.931	3280.125
824.542	3290.125
828.149	3255.125
831.754	3200.125
835.357	3199.79167
838.956	3195.45833
842.553	3146.79167
846.146	3147.125
849.737	3111.125
853.326	3127.125
856.911	3165.45833
860.493	3197.125
864.073	3217.125
867.65	3265.125
871.225	3299.125
874.796	3280.45833
878.365	3286.45833
881.931	3369.45833
885.494	3366.125
889.054	3342.45833
892.612	3373.79167
896.166	3333.79167
899.719	3305.45833
903.268	3271.45833
906.814	3265.79167
910.358	3243.79167
913.899	3228.45833
917.438	3212.45833
920.973	3215.79167
924.506	3294.79167
928.036	3308.79167
931.564	3349.125
935.088	3383.45833
938.61	3397.45833
942.129	3426.125
945.646	3497.45833
949.16	3590.125
952.671	3684.45833
956.179	3743.125
959.685	3736.79167
963.188	3715.45833
966.688	3683.79167
970.185	3584.45833
973.68	3510.79167
977.173	3463.125
980.662	3413.45833
984.149	3422.79167
987.633	3413.79167
991.114	3454.79167
994.593	3547.125
998.069	3686.45833
1001.542	3787.79167
1005.013	3727.125
1008.481	3514.79167
1011.947	3469.45833
1015.409	3420.45833
1018.869	3420.125
1022.327	3416.79167
1025.782	3387.125
1029.234	3401.125
1032.683	3345.45833
1036.13	3220.45833
1039.574	3095.125
1043.016	3058.79167
1046.455	2966.125
1049.891	2936.79167
1053.325	2943.79167
1056.756	2963.125
1060.184	2972.125
1063.61	2973.45833
1067.033	3004.125
1070.454	3007.45833
1073.872	3043.125
1077.287	3037.125
1080.7	3041.45833
1084.11	3049.125
1087.517	3024.45833
1090.922	3001.79167
1094.325	2950.125
1097.724	2922.79167
1101.122	2926.45833
1104.516	2914.79167
1107.908	2940.45833
1111.298	2965.45833
1114.684	3012.125
1118.069	3061.45833
1121.45	3080.79167
1124.83	3071.45833
1128.206	3092.45833
1131.58	3174.45833
1134.951	3222.125
1138.32	3357.79167
1141.687	3518.79167
1145.05	3617.125
1148.412	3625.45833
1151.77	3623.45833
1155.126	3604.79167
1158.48	3599.45833
1161.831	3614.45833
1165.18	3660.125
1168.525	3708.79167
1171.869	3745.79167
1175.21	3773.45833
1178.548	3852.45833
1181.884	3889.79167
1185.217	3896.45833
1188.548	3986.45833
1191.877	4031.45833
1195.202	4120.125
1198.526	4200.125
1201.846	4193.79167
1205.165	4199.79167
1208.48	4153.45833
1211.794	4170.125
1215.104	4149.45833
1218.413	4154.79167
1221.719	4155.79167
1225.022	4100.125
1228.323	4052.45833
1231.621	4020.79167
1234.917	4012.79167
1238.21	4038.45833
1241.501	4038.125
1244.79	4031.79167
1248.076	4021.79167
1251.359	4043.125
1254.64	4142.79167
1257.919	4143.79167
1261.195	4237.45833
1264.468	4296.125
1267.74	4404.45833
1271.008	4424.45833
1274.275	4374.125
1277.538	4371.45833
1280.8	4297.45833
1284.059	4323.79167
1287.315	4366.79167
1290.569	4363.79167
1293.821	4430.45833
1297.07	4401.79167
1300.317	4427.125
1303.562	4439.79167
1306.803	4403.79167
1310.043	4385.125
1313.28	4331.45833
1316.515	4244.125
1319.747	4205.79167
1322.977	4164.45833
1326.204	4095.79167
1329.429	4064.79167
1332.652	4038.79167
1335.872	4034.79167
1339.09	3987.79167
1342.306	3992.45833
1345.519	3965.45833
1348.729	3895.125
1351.938	3906.45833
1355.144	3826.125
1358.347	3743.79167
1361.548	3763.45833
1364.747	3798.79167
1367.944	3774.125
1371.138	3777.45833
1374.329	3813.125
1377.518	3834.45833
1380.705	3886.45833
1383.89	3894.45833
1387.072	3812.79167
1390.252	3613.125
1393.429	3501.45833
1396.605	3356.125
1399.777	3277.125
1402.948	3217.125
1406.116	3202.45833
1409.282	3214.79167
1412.445	3221.45833
1415.606	3249.125
1418.765	3291.45833
1421.921	3349.125
1425.075	3441.45833
1428.227	3584.79167
1431.376	3758.125
1434.524	3893.125
1437.668	4016.125
1440.811	4088.79167
1443.951	4095.79167
1447.089	4103.45833
1450.224	4078.45833
1453.357	4054.79167
1456.488	4032.45833
1459.617	3987.125
1462.743	3936.125
1465.867	3852.45833
1468.989	3813.79167
1472.108	3744.125
1475.225	3691.79167
1478.34	3649.45833
1481.453	3637.45833
1484.563	3669.45833
1487.671	3743.79167
1490.776	3792.45833
1493.88	3858.79167
1496.981	3967.125
1500.08	4021.45833
1503.176	4075.45833
1506.271	4155.79167
1509.363	4189.79167
1512.452	4237.45833
1515.54	4272.79167
1518.625	4422.45833
1521.708	4589.45833
1524.789	4770.79167
1527.867	5071.45833
1530.944	5374.79167
1534.018	5597.125
1537.089	5730.79167
1540.159	5698.125
1543.226	5566.45833
1546.291	5377.79167
1549.354	5196.45833
1552.415	5093.125
1555.473	4960.79167
1558.529	4858.45833
1561.583	4805.125
1564.634	4765.125
1567.684	4749.79167
1570.731	4812.45833
1573.776	4830.45833
1576.819	4912.125
1579.859	4943.125
1582.898	5049.79167
1585.934	5065.45833
1588.968	5084.125
1591.999	5031.79167
1595.029	5060.125
1598.056	5053.125
1601.081	5092.125
1604.104	5076.79167
1607.125	5032.79167
1610.144	4935.125
1613.16	4806.79167
1616.174	4685.45833
1619.186	4581.79167
1622.196	4479.45833
1625.203	4390.79167
1628.209	4318.79167
1631.212	4296.125
1634.213	4284.45833
1637.212	4234.125
1640.209	4189.125
1643.203	4082.45833
1646.196	3928.125
1649.186	3756.45833
1652.174	3631.45833
1655.16	3517.125
1658.144	3401.45833
1661.125	3235.45833
1664.105	3070.45833
1667.082	2942.79167
1670.057	2782.79167
1673.03	2601.125
1676.001	2439.125
1678.97	2260.45833
1681.937	2109.79167
1684.901	1988.79167
1687.863	1943.79167
1690.824	1843.79167
1693.782	1791.45833
1696.738	1733.79167
1699.692	1704.79167
1702.643	1646.45833
1705.593	1636.79167
1708.54	1623.45833
1711.486	1601.125
1714.429	1571.79167
1717.37	1549.45833
1720.309	1522.79167
1723.246	1532.79167
1726.181	1494.45833
1729.113	1501.79167
1732.044	1463.45833
1734.972	1441.79167
1737.899	1462.45833
1740.823	1439.79167
1743.745	1442.125
1746.665	1392.125
1749.583	1375.79167
1752.499	1350.79167
1755.413	1328.125
1758.325	1305.79167
1761.235	1288.45833
1764.142	1272.79167
1767.048	1264.125
1769.951	1244.125
1772.852	1235.45833
1775.752	1230.45833
1778.649	1237.125
1781.544	1233.45833
1784.437	1205.79167
1787.328	1215.125
1790.217	1197.79167
1793.104	1174.79167
1795.989	1172.45833
1798.872	1164.79167
1801.753	1186.125
1804.631	1175.45833
1807.508	1187.45833
1810.383	1165.125
1813.255	1155.79167
1816.126	1163.125
1818.994	1152.45833
1821.861	1147.79167
1824.725	1132.125
1827.587	1133.45833
1830.448	1147.45833
1833.306	1095.79167
1836.162	1107.79167
1839.017	1098.125
1841.869	1092.79167
1844.719	1097.79167
1847.567	1075.45833
1850.414	1065.79167
1853.258	1073.45833
1856.1	1092.45833
1858.94	1109.45833
1861.778	1084.45833
1864.614	1069.45833
1867.448	1083.125
1870.28	1072.79167
1873.111	1078.79167
1875.939	1073.45833
1878.765	1091.125
1881.589	1064.45833
1884.411	1077.125
1887.231	1077.79167
1890.049	1062.79167
1892.865	1052.45833
1895.68	1049.45833
1898.492	1039.45833
1901.302	1033.45833
1904.11	1035.125
1906.916	1022.79167
1909.721	1023.45833
1912.523	1045.79167
1915.323	1016.45833
1918.122	1022.79167
1920.918	1015.125
1923.712	1007.125
1926.505	1016.125
1929.295	988.125
1932.084	1025.79167
1934.87	1016.79167
1937.655	990.45833
1940.438	984.125
1943.218	1000.125
1945.997	994.79167
1948.774	1015.125
1951.549	1011.125
1954.322	991.125
1957.093	994.79167
1959.862	976.79167
1962.629	988.125
1965.394	985.79167
1968.157	966.79167
1970.918	972.125
1973.678	962.45833
1976.435	973.125
1979.19	947.79167
1981.944	951.125
1984.696	951.45833
1987.445	938.79167
1990.193	957.79167
1992.939	955.125
1995.683	939.125
1998.425	920.125
2001.165	948.45833
2003.903	926.125
2006.639	930.125
2009.374	921.125
2012.106	940.79167
2014.837	920.125
2017.566	930.125
2020.292	941.45833
2023.017	936.45833
2025.74	910.45833
2028.461	908.125
2031.18	918.45833
2033.898	914.79167
2036.613	911.79167
2039.327	912.45833
2042.038	890.125
2044.748	895.79167
2047.456	911.79167
2050.162	864.45833
2052.866	896.125
2055.568	893.125
2058.268	892.45833
2060.967	893.45833
2063.663	873.79167
2066.358	894.45833
2069.051	878.45833
2071.742	900.45833
2074.431	893.125
2077.118	869.125
2079.804	872.79167
2082.487	888.79167
2085.169	894.125
2087.849	896.125
2090.527	868.125
2093.203	892.45833
2095.877	886.79167
2098.55	898.125
2101.22	898.125
2103.889	910.45833
2106.556	891.45833
2109.221	918.45833
2111.884	941.45833
2114.546	990.79167
2117.205	1034.79167
2119.863	1107.45833
2122.519	1184.125
2125.173	1269.79167
2127.825	1365.125
2130.475	1387.45833
2133.124	1371.45833
2135.771	1317.79167
2138.416	1290.79167
2141.059	1215.45833
2143.7	1150.125
2146.339	1083.79167
2148.977	1031.125
2151.613	1018.45833
2154.247	993.45833
2156.879	975.125
2159.51	953.45833
2162.138	938.79167
2164.765	939.79167
2167.39	928.79167
2170.013	947.79167
2172.634	936.79167
2175.254	921.79167
2177.872	956.125
2180.488	910.79167
2183.102	915.79167
2185.714	891.45833
2188.325	877.79167
2190.934	874.79167
2193.541	866.125
2196.146	850.45833
2198.75	827.45833
2201.351	834.45833
2203.951	802.45833
2206.549	829.79167
2209.146	803.79167
2211.74	795.79167
2214.333	800.125
2216.924	782.79167
2219.514	791.125
2222.101	775.125
2224.687	797.79167
2227.271	762.79167
2229.853	761.125
2232.433	767.125
2235.012	781.79167
2237.589	768.125
2240.164	769.45833
2242.738	762.79167
2245.309	749.45833
2247.879	763.45833
2250.448	754.79167
2253.014	732.125
2255.579	720.45833
2258.142	710.79167
2260.703	706.79167
2263.262	702.45833
2265.82	704.125
2268.376	702.45833
2270.93	685.45833
2273.483	683.79167
2276.033	700.79167
2278.583	673.125
2281.13	680.79167
2283.675	671.45833
2286.219	681.79167
2288.761	656.125
2291.302	675.79167
2293.841	672.79167
2296.377	654.79167
2298.913	650.125
2301.446	674.45833
2303.978	655.45833
2306.508	651.125
2309.037	655.79167
2311.563	656.45833
2314.088	655.45833
2316.612	630.79167
2319.133	636.79167
2321.653	635.79167
2324.171	627.125
2326.688	638.125
2329.202	622.45833
2331.715	630.125
2334.227	625.45833
2336.736	616.45833
2339.244	615.79167
2341.751	610.45833
2344.255	613.79167
2346.758	617.125
2349.259	607.79167
2351.759	600.125
2354.257	612.45833
2356.753	590.45833
2359.247	599.79167
2361.74	597.125
2364.231	590.79167
2366.721	597.45833
2369.209	600.45833
2371.695	601.125
2374.179	586.79167
2376.662	591.45833
2379.143	608.45833
2381.622	596.79167
2384.1	594.79167
2386.576	593.125
2389.051	604.125
2391.524	601.45833
2393.995	603.79167
2396.464	574.125
2398.932	575.45833
2401.398	587.125
2403.863	572.79167
2406.325	575.79167
2408.787	578.125
2411.246	570.79167
2413.704	573.45833
2416.16	568.79167
2418.615	557.45833
2421.068	573.79167
2423.519	561.125
2425.969	558.125
2428.417	563.125
2430.863	584.79167
2433.308	574.45833
2435.751	564.125
2438.193	553.125
2440.633	572.45833
2443.071	565.125
2445.508	550.79167
2447.943	547.79167
2450.376	548.79167
2452.808	556.79167
2455.238	541.45833
2457.667	565.125
2460.093	546.45833
2462.519	523.125
2464.942	538.125
2467.365	542.45833
2469.785	537.79167
2472.204	544.79167
2474.621	535.45833
2477.037	559.45833
2479.451	528.79167
2481.863	525.125
2484.274	515.79167
2486.683	532.125
2489.091	532.79167
2491.497	530.125
2493.901	537.45833
2496.304	532.79167
2498.705	523.79167
2501.105	522.125
2503.503	542.79167
2505.899	511.125
2508.294	541.125
2510.687	503.125
2513.079	501.79167
2515.469	505.125
2517.858	505.125
2520.245	522.45833
2522.63	510.45833
2525.014	503.125
2527.396	504.125
2529.776	501.45833
2532.156	511.45833
2534.533	500.125
2536.909	498.125
2539.283	494.45833
2541.656	499.45833
2544.027	512.45833
2546.397	499.125
2548.765	496.45833
2551.131	496.45833
2553.496	490.79167
2555.86	504.79167
2558.221	498.79167
2560.582	502.79167
2562.94	479.125
2565.298	481.125
2567.653	504.125
2570.007	480.125
2572.36	495.45833
2574.711	487.45833
2577.06	504.125
2579.408	490.45833
2581.754	476.125
2584.099	488.79167
2586.442	478.79167
2588.784	483.45833
2591.124	485.45833
2593.463	487.79167
2595.8	485.45833
2598.135	472.125
2600.469	473.125
2602.802	493.45833
2605.133	491.79167
2607.462	475.45833
2609.79	466.45833
2612.116	483.45833
2614.441	473.125
2616.764	487.79167
2619.086	472.79167
2621.406	472.79167
2623.725	483.45833
2626.042	477.125
2628.358	472.45833
2630.672	462.125
2632.985	497.125
2635.296	477.79167
2637.606	470.125
2639.914	462.125
2642.22	475.125
2644.525	469.79167
2646.829	477.125
2649.131	482.125
2651.432	482.45833
2653.731	480.125
2656.028	484.45833
2658.324	472.79167
2660.619	475.125
2662.912	485.45833
2665.204	465.125
2667.494	490.125
2669.782	464.125
2672.07	481.45833
2674.355	486.125
2676.639	485.79167
2678.922	467.125
2681.203	487.45833
2683.483	469.125
2685.761	462.79167
2688.038	479.125
2690.313	488.79167
2692.587	478.45833
2694.859	464.45833
2697.13	484.45833
2699.399	488.79167
2701.667	495.125
2703.933	497.45833
2706.198	494.45833
2708.461	496.125
2710.723	499.79167
2712.984	507.45833
2715.243	514.125
2717.5	502.45833
2719.757	523.125
2722.011	510.125
2724.264	515.45833
2726.516	528.79167
2728.766	512.125
2731.015	517.45833
2733.262	514.79167
2735.508	511.45833
2737.753	510.79167
2739.996	496.45833
2742.237	492.125
2744.477	500.79167
2746.716	502.45833
2748.953	496.125
2751.189	505.45833
2753.423	482.79167
2755.656	477.45833
2757.887	474.125
2760.117	482.45833
2762.346	473.45833
2764.573	465.45833
2766.798	468.79167
2769.022	468.79167
2771.245	487.125
2773.467	469.79167
2775.686	481.125
2777.905	496.45833
2780.122	492.45833
2782.337	503.79167
2784.552	486.79167
2786.764	502.79167
2788.976	514.45833
2791.186	506.45833
2793.394	512.125
2795.601	513.125
2797.807	527.125
2800.011	536.125
2802.214	545.45833
2804.415	546.45833
2806.615	540.79167
2808.814	557.45833
2811.011	567.45833
2813.206	563.45833
2815.401	579.45833
2817.594	588.79167
2819.785	601.45833
2821.975	585.79167
2824.164	610.125
2826.351	632.45833
2828.537	658.45833
2830.722	665.79167
2832.905	687.125
2835.086	724.79167
2837.267	752.125
2839.445	784.79167
2841.623	815.45833
2843.799	867.79167
2845.974	919.125
2848.147	948.79167
2850.319	987.79167
2852.489	1030.79167
2854.659	1039.125
2856.826	1063.125
2858.993	1094.125
2861.158	1071.79167
2863.321	1078.45833
2865.483	1098.45833
2867.644	1096.79167
2869.804	1095.45833
2871.962	1090.45833
2874.118	1105.125
2876.274	1100.125
2878.428	1093.125
2880.58	1084.79167
2882.731	1062.125
2884.881	1089.45833
2887.03	1083.125
2889.177	1059.45833
2891.322	1098.79167
2893.467	1105.45833
2895.61	1109.125
2897.751	1145.45833
2899.892	1101.125
2902.03	1137.79167
2904.168	1150.125
2906.304	1145.125
2908.439	1184.79167
2910.572	1146.125
2912.704	1178.125
2914.835	1173.125
2916.965	1164.45833
2919.093	1190.45833
2921.219	1143.45833
2923.345	1170.79167
2925.469	1152.45833
2927.591	1133.79167
2929.712	1073.45833
2931.832	1086.45833
2933.951	1057.125
2936.068	1020.45833
2938.184	1000.79167
2940.299	960.79167
2942.412	925.45833
2944.524	877.79167
2946.634	852.79167
2948.744	802.45833
2950.851	827.125
2952.958	768.79167
2955.063	744.125
2957.167	724.79167
2959.269	684.125
2961.371	703.79167
2963.471	651.45833
2965.569	656.79167
2967.666	615.45833
2969.762	599.45833
2971.857	588.125
2973.95	570.45833
2976.042	558.45833
2978.133	542.45833
2980.222	521.45833
2982.31	503.45833
2984.396	482.79167
2986.482	478.125
2988.566	472.125
2990.648	465.125
2992.73	456.45833
2994.81	432.79167
2996.889	448.79167
2998.966	439.79167
3001.042	434.125
3003.117	429.45833
3005.191	431.45833
3007.263	422.125
3009.334	407.45833
3011.403	406.79167
3013.472	386.45833
3015.539	393.45833
3017.604	399.125
3019.669	358.125
3021.732	373.79167
3023.794	375.79167
3025.854	343.125
3027.914	349.79167
3029.971	356.125
3032.028	336.79167
3034.083	349.45833
3036.137	348.79167
3038.19	330.125
3040.242	324.45833
3042.292	312.125
3044.341	304.125
3046.388	330.79167
3048.435	294.79167
3050.48	317.45833
3052.524	311.125
3054.566	285.79167
3056.607	300.79167
3058.647	288.79167
3060.686	274.79167
3062.723	266.79167
3064.759	262.125
3066.794	-2.54167
3068.828	0.125
3070.86	-2.20833
