-0.839	430.375
3.438	496.04167
7.711	147.375
11.981	56.70833
16.247	49.70833
20.509	46.04167
24.768	45.375
29.024	51.375
33.276	44.04167
37.524	54.70833
41.769	42.04167
46.01	37.375
50.247	53.70833
54.481	63.04167
58.712	66.70833
62.939	47.375
67.162	64.375
71.382	59.375
75.599	48.70833
79.812	67.375
84.021	88.04167
88.227	64.70833
92.429	68.04167
96.628	52.04167
100.823	71.70833
105.015	80.04167
109.204	85.70833
113.388	84.70833
117.57	82.375
121.748	96.04167
125.922	87.375
130.093	109.04167
134.261	114.04167
138.425	112.375
142.585	147.04167
146.742	157.375
150.896	184.04167
155.046	221.04167
159.193	357.70833
163.336	613.04167
167.476	1131.04167
171.613	2083.70833
175.746	3526.04167
179.875	5282.375
184.002	6989.04167
188.124	8132.70833
192.244	8515.04167
196.36	8472.70833
200.472	8282.04167
204.581	8061.375
208.687	7878.70833
212.79	7799.70833
216.889	7872.04167
220.984	7898.375
225.077	8011.04167
229.165	8111.375
233.251	8205.04167
237.333	8254.375
241.412	8283.70833
245.487	8263.04167
249.559	8180.70833
253.628	8094.04167
257.694	7966.70833
261.756	7908.04167
265.814	7768.04167
269.87	7521.04167
273.922	7304.70833
277.97	7093.70833
282.016	6984.375
286.058	6880.375
290.097	6883.04167
294.132	6925.375
298.164	6827.04167
302.193	6519.375
306.219	6006.04167
310.241	5496.04167
314.26	4959.70833
318.276	4539.70833
322.288	4269.70833
326.297	4046.375
330.303	3841.04167
334.305	3707.375
338.305	3635.70833
342.301	3586.70833
346.294	3530.70833
350.283	3511.375
354.269	3438.04167
358.252	3421.375
362.232	3414.04167
366.209	3388.70833
370.182	3357.375
374.152	3337.375
378.119	3347.70833
382.083	3320.375
386.043	3354.04167
390	3293.375
393.954	3268.70833
397.905	3237.04167
401.852	3222.70833
405.797	3163.04167
409.738	3133.70833
413.676	3122.375
417.61	3104.70833
421.542	3061.04167
425.47	3016.04167
429.396	2988.375
433.318	2998.04167
437.236	2979.04167
441.152	2962.70833
445.065	2899.04167
448.974	2890.375
452.88	2867.04167
456.783	2854.70833
460.683	2837.375
464.58	2834.70833
468.473	2835.70833
472.364	2844.04167
476.251	2852.375
480.135	2886.70833
484.016	2919.04167
487.894	2918.04167
491.769	2885.375
495.641	2924.375
499.509	2907.04167
503.375	2911.375
507.237	2926.375
511.096	2916.70833
514.952	2919.375
518.805	2895.04167
522.655	2894.375
526.502	2898.04167
530.346	2883.04167
534.187	2904.70833
538.024	2918.70833
541.859	2901.375
545.69	2960.04167
549.519	2912.70833
553.344	2910.04167
557.166	2857.375
560.985	2855.375
564.802	2783.04167
568.615	2748.375
572.425	2720.04167
576.232	2693.70833
580.036	2674.04167
583.836	2705.70833
587.634	2683.04167
591.429	2688.375
595.221	2749.70833
599.01	2776.04167
602.796	2821.70833
606.578	2850.375
610.358	2838.375
614.135	2827.04167
617.909	2805.70833
621.679	2823.04167
625.447	2785.70833
629.212	2808.375
632.973	2774.375
636.732	2784.04167
640.488	2780.70833
644.241	2760.70833
647.991	2743.04167
651.737	2763.70833
655.481	2737.375
659.222	2762.04167
662.96	2757.04167
666.695	2776.04167
670.427	2746.04167
674.156	2794.70833
677.882	2757.70833
681.605	2779.04167
685.325	2727.70833
689.043	2748.375
692.757	2716.04167
696.468	2744.70833
700.177	2745.70833
703.882	2745.70833
707.585	2729.70833
711.284	2736.04167
714.981	2744.04167
718.675	2739.04167
722.366	2763.375
726.054	2729.04167
729.739	2755.375
733.421	2752.70833
737.1	2730.04167
740.777	2778.04167
744.45	2795.70833
748.121	2802.70833
751.789	2854.04167
755.453	2843.70833
759.115	2870.375
762.774	2902.375
766.431	2919.375
770.084	2949.70833
773.734	3012.70833
777.382	3051.70833
781.027	3088.375
784.669	3094.70833
788.308	3105.04167
791.944	3116.375
795.577	3144.04167
799.208	3175.70833
802.835	3211.70833
806.46	3236.04167
810.082	3266.04167
813.701	3277.04167
817.317	3300.375
820.931	3291.375
824.542	3306.375
828.149	3266.04167
831.754	3256.70833
835.357	3225.04167
838.956	3221.375
842.553	3178.375
846.146	3182.70833
849.737	3168.70833
853.326	3172.04167
856.911	3173.04167
860.493	3245.70833
864.073	3254.375
867.65	3325.04167
871.225	3340.04167
874.796	3357.04167
878.365	3374.04167
881.931	3399.04167
885.494	3417.70833
889.054	3417.70833
892.612	3453.375
896.166	3378.70833
899.719	3347.375
903.268	3355.04167
906.814	3312.375
910.358	3298.70833
913.899	3268.375
917.438	3285.04167
920.973	3260.70833
924.506	3309.70833
928.036	3339.04167
931.564	3377.70833
935.088	3404.04167
938.61	3445.04167
942.129	3477.04167
945.646	3569.375
949.16	3662.70833
952.671	3752.70833
956.179	3781.375
959.685	3740.375
963.188	3703.375
966.688	3667.375
970.185	3570.70833
973.68	3485.375
977.173	3460.375
980.662	3436.70833
984.149	3456.375
987.633	3426.04167
991.114	3500.375
994.593	3603.375
998.069	3708.70833
1001.542	3830.70833
1005.013	3746.70833
1008.481	3568.04167
1011.947	3508.04167
1015.409	3472.04167
1018.869	3473.375
1022.327	3441.375
1025.782	3438.04167
1029.234	3452.70833
1032.683	3408.70833
1036.13	3277.375
1039.574	3187.70833
1043.016	3093.375
1046.455	3049.70833
1049.891	2984.70833
1053.325	2983.70833
1056.756	2995.04167
1060.184	3019.375
1063.61	3023.70833
1067.033	3046.375
1070.454	3056.04167
1073.872	3108.04167
1077.287	3078.04167
1080.7	3089.70833
1084.11	3093.70833
1087.517	3081.04167
1090.922	3050.375
1094.325	3025.04167
1097.724	2987.04167
1101.122	2982.375
1104.516	2947.04167
1107.908	2981.375
1111.298	3053.70833
1114.684	3069.04167
1118.069	3118.375
1121.45	3151.375
1124.83	3129.04167
1128.206	3119.375
1131.58	3210.70833
1134.951	3270.70833
1138.32	3400.375
1141.687	3529.04167
1145.05	3631.70833
1148.412	3661.375
1151.77	3651.04167
1155.126	3644.70833
1158.48	3624.70833
1161.831	3643.04167
1165.18	3665.04167
1168.525	3745.04167
1171.869	3764.04167
1175.21	3811.375
1178.548	3861.70833
1181.884	3873.70833
1185.217	3911.04167
1188.548	3961.375
1191.877	4060.04167
1195.202	4119.70833
1198.526	4228.04167
1201.846	4231.70833
1205.165	4239.70833
1208.48	4192.70833
1211.794	4185.70833
1215.104	4215.70833
1218.413	4200.04167
1221.719	4218.70833
1225.022	4169.04167
1228.323	4102.70833
1231.621	4119.70833
1234.917	4098.04167
1238.21	4110.70833
1241.501	4082.04167
1244.79	4090.04167
1248.076	4083.04167
1251.359	4137.70833
1254.64	4235.70833
1257.919	4232.04167
1261.195	4311.70833
1264.468	4370.375
1267.74	4450.04167
1271.008	4489.375
1274.275	4440.70833
1277.538	4427.70833
1280.8	4420.70833
1284.059	4379.375
1287.315	4458.04167
1290.569	4476.70833
1293.821	4515.70833
1297.07	4496.375
1300.317	4518.375
1303.562	4499.375
1306.803	4482.70833
1310.043	4439.70833
1313.28	4375.375
1316.515	4342.70833
1319.747	4282.04167
1322.977	4242.70833
1326.204	4160.70833
1329.429	4108.375
1332.652	4080.70833
1335.872	4084.04167
1339.09	4060.375
1342.306	4025.04167
1345.519	3992.375
1348.729	3976.04167
1351.938	3956.375
1355.144	3900.04167
1358.347	3874.04167
1361.548	3857.04167
1364.747	3867.04167
1367.944	3855.04167
1371.138	3872.375
1374.329	3928.04167
1377.518	3991.04167
1380.705	4017.04167
1383.89	4040.70833
1387.072	3888.375
1390.252	3723.375
1393.429	3599.70833
1396.605	3482.375
1399.777	3417.375
1402.948	3339.375
1406.116	3325.70833
1409.282	3334.04167
1412.445	3293.04167
1415.606	3380.70833
1418.765	3394.70833
1421.921	3491.04167
1425.075	3576.70833
1428.227	3719.70833
1431.376	3859.375
1434.524	4016.70833
1437.668	4109.375
1440.811	4151.375
1443.951	4193.04167
1447.089	4190.04167
1450.224	4181.70833
1453.357	4166.70833
1456.488	4096.70833
1459.617	4052.70833
1462.743	4005.375
1465.867	3918.70833
1468.989	3859.04167
1472.108	3804.375
1475.225	3739.04167
1478.34	3692.375
1481.453	3700.04167
1484.563	3699.375
1487.671	3765.04167
1490.776	3836.70833
1493.88	3915.375
1496.981	4004.70833
1500.08	4074.70833
1503.176	4156.04167
1506.271	4204.375
1509.363	4266.375
1512.452	4345.04167
1515.54	4385.375
1518.625	4512.04167
1521.708	4673.375
1524.789	4921.375
1527.867	5200.04167
1530.944	5494.375
1534.018	5732.375
1537.089	5878.375
1540.159	5869.70833
1543.226	5752.70833
1546.291	5530.04167
1549.354	5378.375
1552.415	5192.375
1555.473	5055.70833
1558.529	4941.70833
1561.583	4890.375
1564.634	4867.04167
1567.684	4848.375
1570.731	4863.375
1573.776	4918.375
1576.819	4974.375
1579.859	5005.04167
1582.898	5062.375
1585.934	5099.04167
1588.968	5137.04167
1591.999	5095.70833
1595.029	5101.04167
1598.056	5163.375
1601.081	5127.375
1604.104	5135.04167
1607.125	5074.04167
1610.144	4971.70833
1613.16	4842.70833
1616.174	4753.70833
1619.186	4633.375
1622.196	4553.375
1625.203	4450.375
1628.209	4382.04167
1631.212	4332.375
1634.213	4285.04167
1637.212	4249.04167
1640.209	4165.70833
1643.203	4091.70833
1646.196	3940.375
1649.186	3810.70833
1652.174	3701.375
1655.16	3570.04167
1658.144	3471.04167
1661.125	3305.70833
1664.105	3144.04167
1667.082	3013.04167
1670.057	2841.70833
1673.03	2683.04167
1676.001	2506.70833
1678.97	2339.375
1681.937	2179.375
1684.901	2086.375
1687.863	2012.375
1690.824	1911.70833
1693.782	1879.70833
1696.738	1791.70833
1699.692	1778.375
1702.643	1741.375
1705.593	1711.375
1708.54	1669.70833
1711.486	1665.04167
1714.429	1645.375
1717.37	1648.375
1720.309	1581.04167
1723.246	1592.04167
1726.181	1537.70833
1729.113	1568.04167
1732.044	1560.375
1734.972	1531.04167
1737.899	1519.375
1740.823	1507.04167
1743.745	1507.04167
1746.665	1443.70833
1749.583	1447.70833
1752.499	1410.04167
1755.413	1397.04167
1758.325	1365.70833
1761.235	1353.04167
1764.142	1330.70833
1767.048	1321.375
1769.951	1299.70833
1772.852	1318.70833
1775.752	1304.70833
1778.649	1273.375
1781.544	1294.04167
1784.437	1265.70833
1787.328	1273.375
1790.217	1258.04167
1793.104	1237.375
1795.989	1226.375
1798.872	1218.04167
1801.753	1256.375
1804.631	1241.04167
1807.508	1244.70833
1810.383	1220.70833
1813.255	1215.04167
1816.126	1221.375
1818.994	1210.375
1821.861	1203.375
1824.725	1187.375
1827.587	1187.375
1830.448	1179.70833
1833.306	1161.375
1836.162	1166.70833
1839.017	1163.70833
1841.869	1158.375
1844.719	1165.04167
1847.567	1145.70833
1850.414	1143.70833
1853.258	1149.04167
1856.1	1150.70833
1858.94	1163.70833
1861.778	1138.70833
1864.614	1126.04167
1867.448	1137.04167
1870.28	1119.04167
1873.111	1141.70833
1875.939	1121.70833
1878.765	1148.70833
1881.589	1131.04167
1884.411	1130.70833
1887.231	1139.04167
1890.049	1118.375
1892.865	1109.04167
1895.68	1113.375
1898.492	1108.375
1901.302	1099.04167
1904.11	1087.04167
1906.916	1095.375
1909.721	1070.375
1912.523	1086.70833
1915.323	1080.375
1918.122	1065.04167
1920.918	1079.375
1923.712	1088.375
1926.505	1062.70833
1929.295	1051.70833
1932.084	1077.375
1934.87	1072.375
1937.655	1059.375
1940.438	1060.04167
1943.218	1053.70833
1945.997	1057.70833
1948.774	1074.375
1951.549	1045.375
1954.322	1056.375
1957.093	1052.375
1959.862	1045.70833
1962.629	1032.04167
1965.394	1040.375
1968.157	1020.375
1970.918	1029.04167
1973.678	1018.04167
1976.435	1023.375
1979.19	1015.375
1981.944	1006.375
1984.696	1003.04167
1987.445	1008.375
1990.193	1005.04167
1992.939	1022.04167
1995.683	1003.70833
1998.425	983.70833
2001.165	1016.375
2003.903	1002.375
2006.639	984.375
2009.374	990.04167
2012.106	1002.375
2014.837	978.70833
2017.566	990.375
2020.292	993.70833
2023.017	992.375
2025.74	972.70833
2028.461	967.375
2031.18	982.375
2033.898	963.375
2036.613	976.375
2039.327	976.70833
2042.038	965.04167
2044.748	967.04167
2047.456	953.70833
2050.162	931.70833
2052.866	948.04167
2055.568	961.375
2058.268	957.70833
2060.967	959.375
2063.663	926.04167
2066.358	943.70833
2069.051	937.70833
2071.742	941.375
2074.431	953.375
2077.118	945.04167
2079.804	930.375
2082.487	948.375
2085.169	959.70833
2087.849	957.04167
2090.527	952.70833
2093.203	960.04167
2095.877	972.375
2098.55	961.70833
2101.22	977.375
2103.889	980.375
2106.556	984.70833
2109.221	1015.70833
2111.884	1052.70833
2114.546	1122.04167
2117.205	1192.04167
2119.863	1307.04167
2122.519	1411.375
2125.173	1491.70833
2127.825	1618.04167
2130.475	1640.70833
2133.124	1624.375
2135.771	1569.375
2138.416	1501.04167
2141.059	1399.375
2143.7	1347.04167
2146.339	1249.04167
2148.977	1181.375
2151.613	1171.375
2154.247	1145.70833
2156.879	1109.04167
2159.51	1084.04167
2162.138	1055.375
2164.765	1058.04167
2167.39	1051.04167
2170.013	1052.375
2172.634	1047.375
2175.254	1034.375
2177.872	1076.375
2180.488	1024.375
2183.102	1025.70833
2185.714	1004.04167
2188.325	976.70833
2190.934	962.375
2193.541	969.375
2196.146	942.375
2198.75	921.70833
2201.351	908.70833
2203.951	883.70833
2206.549	906.70833
2209.146	880.375
2211.74	864.70833
2214.333	867.375
2216.924	857.70833
2219.514	853.375
2222.101	826.375
2224.687	846.04167
2227.271	836.375
2229.853	818.375
2232.433	804.70833
2235.012	840.70833
2237.589	837.70833
2240.164	827.70833
2242.738	817.70833
2245.309	811.375
2247.879	813.70833
2250.448	812.70833
2253.014	789.375
2255.579	767.70833
2258.142	763.375
2260.703	758.375
2263.262	766.04167
2265.82	749.375
2268.376	761.70833
2270.93	746.04167
2273.483	743.375
2276.033	736.04167
2278.583	722.375
2281.13	726.70833
2283.675	697.70833
2286.219	716.70833
2288.761	727.375
2291.302	717.04167
2293.841	720.70833
2296.377	696.375
2298.913	713.70833
2301.446	720.04167
2303.978	705.04167
2306.508	703.70833
2309.037	702.70833
2311.563	699.375
2314.088	702.70833
2316.612	671.375
2319.133	693.04167
2321.653	696.04167
2324.171	677.375
2326.688	700.375
2329.202	679.70833
2331.715	676.375
2334.227	663.04167
2336.736	670.70833
2339.244	669.70833
2341.751	662.70833
2344.255	676.70833
2346.758	660.70833
2349.259	652.375
2351.759	644.70833
2354.257	650.04167
2356.753	650.04167
2359.247	648.70833
2361.74	658.04167
2364.231	641.04167
2366.721	649.70833
2369.209	637.375
2371.695	634.04167
2374.179	631.375
2376.662	643.70833
2379.143	666.375
2381.622	633.04167
2384.1	650.375
2386.576	629.04167
2389.051	654.375
2391.524	652.70833
2393.995	644.375
2396.464	622.70833
2398.932	617.375
2401.398	627.375
2403.863	624.04167
2406.325	613.04167
2408.787	619.04167
2411.246	617.04167
2413.704	610.04167
2416.16	613.04167
2418.615	607.70833
2421.068	616.70833
2423.519	604.04167
2425.969	595.375
2428.417	616.70833
2430.863	628.70833
2433.308	615.70833
2435.751	618.04167
2438.193	598.375
2440.633	610.04167
2443.071	600.375
2445.508	589.70833
2447.943	588.375
2450.376	588.04167
2452.808	591.375
2455.238	581.04167
2457.667	621.375
2460.093	584.70833
2462.519	580.04167
2464.942	592.04167
2467.365	594.375
2469.785	590.70833
2472.204	585.375
2474.621	575.375
2477.037	594.70833
2479.451	571.375
2481.863	561.70833
2484.274	570.04167
2486.683	569.04167
2489.091	574.70833
2491.497	565.375
2493.901	554.04167
2496.304	565.375
2498.705	571.375
2501.105	561.375
2503.503	580.70833
2505.899	553.70833
2508.294	582.375
2510.687	550.70833
2513.079	546.04167
2515.469	549.70833
2517.858	548.04167
2520.245	570.70833
2522.63	547.375
2525.014	545.70833
2527.396	547.70833
2529.776	546.375
2532.156	547.04167
2534.533	532.70833
2536.909	549.70833
2539.283	524.375
2541.656	526.70833
2544.027	551.375
2546.397	547.375
2548.765	541.04167
2551.131	524.70833
2553.496	527.70833
2555.86	548.04167
2558.221	538.04167
2560.582	530.04167
2562.94	529.04167
2565.298	530.375
2567.653	557.04167
2570.007	519.04167
2572.36	533.70833
2574.711	532.04167
2577.06	548.375
2579.408	532.04167
2581.754	531.04167
2584.099	526.375
2586.442	516.375
2588.784	531.04167
2591.124	538.375
2593.463	528.375
2595.8	523.70833
2598.135	499.70833
2600.469	520.04167
2602.802	520.70833
2605.133	531.04167
2607.462	506.375
2609.79	506.375
2612.116	528.70833
2614.441	508.375
2616.764	516.70833
2619.086	518.70833
2621.406	505.04167
2623.725	523.375
2626.042	510.70833
2628.358	513.375
2630.672	521.70833
2632.985	527.04167
2635.296	517.04167
2637.606	525.70833
2639.914	499.04167
2642.22	512.04167
2644.525	520.375
2646.829	523.375
2649.131	521.70833
2651.432	528.375
2653.731	514.04167
2656.028	529.375
2658.324	520.375
2660.619	508.70833
2662.912	522.375
2665.204	510.04167
2667.494	535.70833
2669.782	512.70833
2672.07	518.70833
2674.355	538.375
2676.639	516.70833
2678.922	520.04167
2681.203	529.70833
2683.483	512.04167
2685.761	503.70833
2688.038	516.375
2690.313	525.375
2692.587	523.04167
2694.859	510.375
2697.13	523.04167
2699.399	530.375
2701.667	544.04167
2703.933	546.70833
2706.198	536.04167
2708.461	544.375
2710.723	549.375
2712.984	549.04167
2715.243	557.04167
2717.5	551.375
2719.757	561.70833
2722.011	558.375
2724.264	571.375
2726.516	589.04167
2728.766	578.04167
2731.015	563.04167
2733.262	553.04167
2735.508	558.04167
2737.753	562.04167
2739.996	535.375
2742.237	540.70833
2744.477	551.70833
2746.716	540.70833
2748.953	541.04167
2751.189	547.70833
2753.423	527.70833
2755.656	519.04167
2757.887	521.04167
2760.117	521.70833
2762.346	520.04167
2764.573	511.375
2766.798	508.375
2769.022	526.04167
2771.245	530.70833
2773.467	519.375
2775.686	531.70833
2777.905	537.70833
2780.122	531.375
2782.337	550.375
2784.552	544.70833
2786.764	548.375
2788.976	549.70833
2791.186	554.375
2793.394	566.70833
2795.601	578.70833
2797.807	579.375
2800.011	593.375
2802.214	610.70833
2804.415	615.04167
2806.615	601.04167
2808.814	630.04167
2811.011	632.04167
2813.206	624.70833
2815.401	654.70833
2817.594	685.70833
2819.785	666.70833
2821.975	660.70833
2824.164	688.375
2826.351	706.70833
2828.537	728.375
2830.722	756.70833
2832.905	758.375
2835.086	795.04167
2837.267	832.70833
2839.445	863.375
2841.623	904.375
2843.799	939.70833
2845.974	990.04167
2848.147	1025.375
2850.319	1059.375
2852.489	1107.04167
2854.659	1121.70833
2856.826	1126.375
2858.993	1151.70833
2861.158	1150.375
2863.321	1142.70833
2865.483	1162.70833
2867.644	1184.04167
2869.804	1162.375
2871.962	1152.70833
2874.118	1169.70833
2876.274	1145.70833
2878.428	1146.70833
2880.58	1147.04167
2882.731	1137.375
2884.881	1145.375
2887.03	1147.04167
2889.177	1135.375
2891.322	1172.04167
2893.467	1146.70833
2895.61	1172.375
2897.751	1193.70833
2899.892	1186.375
2902.03	1204.04167
2904.168	1197.375
2906.304	1215.375
2908.439	1235.04167
2910.572	1198.04167
2912.704	1215.375
2914.835	1230.70833
2916.965	1218.375
2919.093	1238.70833
2921.219	1187.04167
2923.345	1213.70833
2925.469	1183.04167
2927.591	1174.375
2929.712	1126.70833
2931.832	1129.04167
2933.951	1104.375
2936.068	1066.04167
2938.184	1036.375
2940.299	988.70833
2942.412	960.70833
2944.524	926.04167
2946.634	888.70833
2948.744	842.375
2950.851	858.04167
2952.958	799.04167
2955.063	771.375
2957.167	771.375
2959.269	717.04167
2961.371	739.375
2963.471	682.04167
2965.569	690.375
2967.666	643.375
2969.762	631.70833
2971.857	616.70833
2973.95	589.70833
2976.042	580.70833
2978.133	574.04167
2980.222	546.70833
2982.31	523.04167
2984.396	506.04167
2986.482	503.70833
2988.566	496.04167
2990.648	486.70833
2992.73	476.04167
2994.81	464.04167
2996.889	458.70833
2998.966	449.70833
3001.042	456.70833
3003.117	448.70833
3005.191	447.04167
3007.263	433.375
3009.334	433.04167
3011.403	422.04167
3013.472	398.04167
3015.539	410.70833
3017.604	422.04167
3019.669	377.70833
3021.732	384.04167
3023.794	385.04167
3025.854	372.375
3027.914	367.375
3029.971	379.70833
3032.028	370.375
3034.083	374.70833
3036.137	361.70833
3038.19	350.70833
3040.242	340.375
3042.292	329.70833
3044.341	324.70833
3046.388	338.375
3048.435	318.04167
3050.48	339.04167
3052.524	329.04167
3054.566	310.375
3056.607	312.04167
3058.647	313.70833
3060.686	293.04167
3062.723	282.375
3064.759	277.70833
3066.794	0.70833
3068.828	-0.29167
3070.86	-1.625
