-0.839	435.54167
3.438	513.875
7.711	150.54167
11.981	54.875
16.247	49.54167
20.509	47.20833
24.768	47.54167
29.024	48.20833
33.276	45.20833
37.524	51.875
41.769	42.875
46.01	39.875
50.247	54.20833
54.481	65.20833
58.712	69.54167
62.939	49.20833
67.162	63.54167
71.382	59.54167
75.599	51.54167
79.812	71.54167
84.021	87.20833
88.227	61.20833
92.429	66.54167
96.628	51.875
100.823	68.54167
105.015	79.875
109.204	82.20833
113.388	79.54167
117.57	77.875
121.748	101.20833
125.922	88.20833
130.093	105.875
134.261	114.20833
138.425	111.54167
142.585	153.875
146.742	159.20833
150.896	183.20833
155.046	226.875
159.193	357.20833
163.336	610.20833
167.476	1137.875
171.613	2081.875
175.746	3530.54167
179.875	5268.875
184.002	6972.54167
188.124	8105.54167
192.244	8525.875
196.36	8528.54167
200.472	8292.54167
204.581	8069.875
208.687	7900.20833
212.79	7795.54167
216.889	7848.875
220.984	7965.54167
225.077	8035.20833
229.165	8151.875
233.251	8241.875
237.333	8317.875
241.412	8290.54167
245.487	8286.875
249.559	8172.20833
253.628	8110.54167
257.694	8036.20833
261.756	7961.20833
265.814	7780.20833
269.87	7579.875
273.922	7325.20833
277.97	7137.20833
282.016	7010.20833
286.058	6938.20833
290.097	6922.20833
294.132	6892.875
298.164	6792.875
302.193	6511.875
306.219	6038.54167
310.241	5500.875
314.26	5005.20833
318.276	4609.20833
322.288	4311.54167
326.297	4043.54167
330.303	3893.875
334.305	3757.54167
338.305	3668.54167
342.301	3575.20833
346.294	3574.20833
350.283	3533.20833
354.269	3500.20833
358.252	3473.875
362.232	3455.54167
366.209	3431.54167
370.182	3398.54167
374.152	3371.54167
378.119	3377.54167
382.083	3366.54167
386.043	3377.54167
390	3343.20833
393.954	3313.54167
397.905	3292.875
401.852	3265.20833
405.797	3207.54167
409.738	3173.875
413.676	3153.54167
417.61	3115.20833
421.542	3087.875
425.47	3066.20833
429.396	3024.20833
433.318	3036.54167
437.236	2991.54167
441.152	3009.875
445.065	2939.875
448.974	2954.54167
452.88	2907.54167
456.783	2891.54167
460.683	2854.54167
464.58	2873.54167
468.473	2881.20833
472.364	2865.20833
476.251	2905.875
480.135	2916.54167
484.016	2929.20833
487.894	2955.20833
491.769	2963.54167
495.641	2958.54167
499.509	2965.20833
503.375	2969.20833
507.237	2976.875
511.096	2935.54167
514.952	2950.20833
518.805	2927.875
522.655	2951.54167
526.502	2916.54167
530.346	2911.875
534.187	2927.54167
538.024	2925.875
541.859	2946.20833
545.69	2993.20833
549.519	2967.20833
553.344	2942.54167
557.166	2903.875
560.985	2855.20833
564.802	2850.875
568.615	2759.875
572.425	2726.54167
576.232	2719.875
580.036	2722.20833
583.836	2717.875
587.634	2737.20833
591.429	2743.875
595.221	2784.875
599.01	2797.54167
602.796	2834.54167
606.578	2883.54167
610.358	2886.20833
614.135	2843.54167
617.909	2847.875
621.679	2825.54167
625.447	2841.54167
629.212	2824.875
632.973	2837.20833
636.732	2817.875
640.488	2833.875
644.241	2790.54167
647.991	2784.875
651.737	2792.875
655.481	2766.54167
659.222	2785.875
662.96	2798.875
666.695	2813.875
670.427	2804.875
674.156	2833.20833
677.882	2810.54167
681.605	2795.20833
685.325	2793.54167
689.043	2778.20833
692.757	2754.54167
696.468	2770.20833
700.177	2810.875
703.882	2764.875
707.585	2783.875
711.284	2767.20833
714.981	2770.54167
718.675	2783.54167
722.366	2796.875
726.054	2774.54167
729.739	2782.54167
733.421	2773.875
737.1	2763.20833
740.777	2813.20833
744.45	2822.875
748.121	2817.54167
751.789	2880.875
755.453	2899.875
759.115	2885.54167
762.774	2957.875
766.431	2965.54167
770.084	2980.875
773.734	3012.20833
777.382	3049.20833
781.027	3092.20833
784.669	3130.20833
788.308	3124.54167
791.944	3160.875
795.577	3186.54167
799.208	3217.875
802.835	3252.20833
806.46	3259.20833
810.082	3318.54167
813.701	3309.54167
817.317	3351.54167
820.931	3340.20833
824.542	3332.54167
828.149	3305.875
831.754	3248.54167
835.357	3257.20833
838.956	3248.54167
842.553	3205.875
846.146	3227.875
849.737	3195.875
853.326	3195.875
856.911	3194.54167
860.493	3244.20833
864.073	3273.20833
867.65	3350.20833
871.225	3364.20833
874.796	3358.54167
878.365	3382.875
881.931	3403.20833
885.494	3438.875
889.054	3421.20833
892.612	3435.54167
896.166	3411.20833
899.719	3345.20833
903.268	3342.54167
906.814	3315.20833
910.358	3308.54167
913.899	3305.54167
917.438	3297.20833
920.973	3274.875
924.506	3325.875
928.036	3372.20833
931.564	3408.54167
935.088	3432.54167
938.61	3473.54167
942.129	3505.54167
945.646	3572.875
949.16	3656.54167
952.671	3746.54167
956.179	3788.20833
959.685	3784.20833
963.188	3756.875
966.688	3687.54167
970.185	3601.875
973.68	3533.875
977.173	3485.54167
980.662	3495.20833
984.149	3456.54167
987.633	3472.54167
991.114	3540.20833
994.593	3619.20833
998.069	3733.20833
1001.542	3864.20833
1005.013	3767.54167
1008.481	3571.54167
1011.947	3517.20833
1015.409	3493.875
1018.869	3498.54167
1022.327	3487.54167
1025.782	3427.20833
1029.234	3457.875
1032.683	3430.54167
1036.13	3313.875
1039.574	3192.54167
1043.016	3112.875
1046.455	3066.54167
1049.891	3012.54167
1053.325	3038.20833
1056.756	3029.54167
1060.184	3068.20833
1063.61	3042.54167
1067.033	3058.54167
1070.454	3059.54167
1073.872	3101.875
1077.287	3115.20833
1080.7	3114.875
1084.11	3135.54167
1087.517	3119.875
1090.922	3062.875
1094.325	3026.875
1097.724	3010.20833
1101.122	3021.54167
1104.516	2993.20833
1107.908	3008.20833
1111.298	3071.875
1114.684	3096.20833
1118.069	3114.20833
1121.45	3159.54167
1124.83	3142.875
1128.206	3163.20833
1131.58	3203.54167
1134.951	3296.54167
1138.32	3387.20833
1141.687	3547.20833
1145.05	3656.875
1148.412	3678.875
1151.77	3668.875
1155.126	3639.20833
1158.48	3630.875
1161.831	3646.875
1165.18	3670.875
1168.525	3748.54167
1171.869	3779.54167
1175.21	3819.54167
1178.548	3850.54167
1181.884	3893.54167
1185.217	3895.875
1188.548	4003.54167
1191.877	4040.875
1195.202	4141.875
1198.526	4213.54167
1201.846	4220.54167
1205.165	4220.54167
1208.48	4185.54167
1211.794	4223.875
1215.104	4207.54167
1218.413	4231.20833
1221.719	4214.20833
1225.022	4146.875
1228.323	4121.54167
1231.621	4127.54167
1234.917	4090.875
1238.21	4124.54167
1241.501	4120.20833
1244.79	4117.54167
1248.076	4100.54167
1251.359	4134.54167
1254.64	4244.20833
1257.919	4251.54167
1261.195	4331.875
1264.468	4379.54167
1267.74	4467.54167
1271.008	4509.54167
1274.275	4475.54167
1277.538	4439.875
1280.8	4426.20833
1284.059	4416.54167
1287.315	4480.20833
1290.569	4479.875
1293.821	4512.54167
1297.07	4505.875
1300.317	4536.54167
1303.562	4512.20833
1306.803	4459.54167
1310.043	4427.875
1313.28	4400.54167
1316.515	4363.875
1319.747	4290.875
1322.977	4256.875
1326.204	4189.875
1329.429	4109.54167
1332.652	4114.20833
1335.872	4086.875
1339.09	4063.54167
1342.306	4039.54167
1345.519	4051.54167
1348.729	3976.54167
1351.938	3989.54167
1355.144	3939.875
1358.347	3883.875
1361.548	3901.20833
1364.747	3921.54167
1367.944	3892.875
1371.138	3925.54167
1374.329	3967.875
1377.518	4010.54167
1380.705	4039.875
1383.89	4042.54167
1387.072	3917.54167
1390.252	3768.20833
1393.429	3614.875
1396.605	3511.20833
1399.777	3389.54167
1402.948	3354.20833
1406.116	3356.54167
1409.282	3321.875
1412.445	3306.54167
1415.606	3368.875
1418.765	3430.875
1421.921	3480.20833
1425.075	3595.20833
1428.227	3724.54167
1431.376	3920.875
1434.524	4052.54167
1437.668	4138.20833
1440.811	4188.20833
1443.951	4190.875
1447.089	4199.20833
1450.224	4199.20833
1453.357	4174.875
1456.488	4146.20833
1459.617	4063.54167
1462.743	4025.875
1465.867	3946.875
1468.989	3874.20833
1472.108	3837.875
1475.225	3767.54167
1478.34	3740.875
1481.453	3722.20833
1484.563	3716.875
1487.671	3805.54167
1490.776	3827.54167
1493.88	3911.20833
1496.981	4001.20833
1500.08	4054.20833
1503.176	4149.875
1506.271	4211.875
1509.363	4312.54167
1512.452	4351.875
1515.54	4396.54167
1518.625	4520.20833
1521.708	4680.875
1524.789	4901.875
1527.867	5213.20833
1530.944	5514.20833
1534.018	5760.875
1537.089	5910.20833
1540.159	5866.20833
1543.226	5729.20833
1546.291	5513.54167
1549.354	5339.54167
1552.415	5151.54167
1555.473	5043.20833
1558.529	4930.20833
1561.583	4888.54167
1564.634	4841.54167
1567.684	4894.875
1570.731	4838.54167
1573.776	4877.54167
1576.819	4936.54167
1579.859	4970.20833
1582.898	5052.54167
1585.934	5091.875
1588.968	5126.54167
1591.999	5065.875
1595.029	5106.20833
1598.056	5111.54167
1601.081	5151.875
1604.104	5141.20833
1607.125	5078.875
1610.144	4979.54167
1613.16	4869.54167
1616.174	4759.875
1619.186	4642.875
1622.196	4540.54167
1625.203	4471.54167
1628.209	4384.54167
1631.212	4335.875
1634.213	4328.54167
1637.212	4270.20833
1640.209	4222.54167
1643.203	4083.20833
1646.196	4008.54167
1649.186	3864.20833
1652.174	3712.875
1655.16	3624.875
1658.144	3509.20833
1661.125	3351.875
1664.105	3207.875
1667.082	3058.875
1670.057	2869.875
1673.03	2712.875
1676.001	2546.875
1678.97	2371.54167
1681.937	2211.20833
1684.901	2094.875
1687.863	2018.54167
1690.824	1933.54167
1693.782	1907.20833
1696.738	1824.875
1699.692	1796.54167
1702.643	1739.54167
1705.593	1724.54167
1708.54	1684.20833
1711.486	1670.875
1714.429	1637.20833
1717.37	1619.54167
1720.309	1603.54167
1723.246	1615.875
1726.181	1570.54167
1729.113	1569.20833
1732.044	1552.54167
1734.972	1535.875
1737.899	1530.54167
1740.823	1522.875
1743.745	1520.875
1746.665	1461.875
1749.583	1442.54167
1752.499	1429.875
1755.413	1418.54167
1758.325	1388.20833
1761.235	1387.20833
1764.142	1341.20833
1767.048	1333.875
1769.951	1333.875
1772.852	1313.54167
1775.752	1310.875
1778.649	1305.875
1781.544	1309.20833
1784.437	1282.875
1787.328	1287.20833
1790.217	1266.54167
1793.104	1245.875
1795.989	1235.875
1798.872	1241.54167
1801.753	1256.54167
1804.631	1244.875
1807.508	1243.54167
1810.383	1241.20833
1813.255	1217.20833
1816.126	1221.54167
1818.994	1228.875
1821.861	1216.54167
1824.725	1217.875
1827.587	1212.20833
1830.448	1196.20833
1833.306	1172.875
1836.162	1191.20833
1839.017	1173.875
1841.869	1181.54167
1844.719	1160.20833
1847.567	1157.54167
1850.414	1164.54167
1853.258	1157.20833
1856.1	1153.54167
1858.94	1175.875
1861.778	1149.875
1864.614	1142.875
1867.448	1167.20833
1870.28	1131.875
1873.111	1161.20833
1875.939	1141.20833
1878.765	1158.20833
1881.589	1137.20833
1884.411	1135.54167
1887.231	1144.20833
1890.049	1131.875
1892.865	1135.875
1895.68	1128.20833
1898.492	1105.20833
1901.302	1097.875
1904.11	1109.20833
1906.916	1097.875
1909.721	1087.54167
1912.523	1109.20833
1915.323	1062.875
1918.122	1074.875
1920.918	1095.54167
1923.712	1081.875
1926.505	1075.20833
1929.295	1066.875
1932.084	1078.875
1934.87	1075.20833
1937.655	1072.875
1940.438	1066.875
1943.218	1063.54167
1945.997	1071.20833
1948.774	1070.54167
1951.549	1074.20833
1954.322	1062.20833
1957.093	1067.20833
1959.862	1059.20833
1962.629	1062.875
1965.394	1044.20833
1968.157	1036.875
1970.918	1044.54167
1973.678	1025.20833
1976.435	1036.875
1979.19	1042.20833
1981.944	1034.875
1984.696	1008.20833
1987.445	1027.20833
1990.193	1008.875
1992.939	1022.875
1995.683	1019.54167
1998.425	995.54167
2001.165	1015.20833
2003.903	1005.875
2006.639	1000.20833
2009.374	995.20833
2012.106	1022.54167
2014.837	984.20833
2017.566	1008.20833
2020.292	1002.54167
2023.017	1000.875
2025.74	994.20833
2028.461	978.875
2031.18	994.875
2033.898	978.875
2036.613	987.20833
2039.327	990.875
2042.038	969.20833
2044.748	968.875
2047.456	963.875
2050.162	953.875
2052.866	955.20833
2055.568	964.875
2058.268	952.875
2060.967	957.54167
2063.663	955.20833
2066.358	959.20833
2069.051	950.54167
2071.742	955.20833
2074.431	951.54167
2077.118	951.20833
2079.804	940.20833
2082.487	945.875
2085.169	968.875
2087.849	972.54167
2090.527	960.54167
2093.203	977.54167
2095.877	971.875
2098.55	976.875
2101.22	984.20833
2103.889	997.54167
2106.556	1002.20833
2109.221	1043.20833
2111.884	1060.20833
2114.546	1120.20833
2117.205	1183.875
2119.863	1300.875
2122.519	1381.54167
2125.173	1506.54167
2127.825	1609.54167
2130.475	1622.875
2133.124	1600.54167
2135.771	1568.54167
2138.416	1513.54167
2141.059	1408.875
2143.7	1353.54167
2146.339	1266.20833
2148.977	1184.875
2151.613	1169.20833
2154.247	1137.54167
2156.879	1105.20833
2159.51	1084.875
2162.138	1071.54167
2164.765	1064.20833
2167.39	1047.20833
2170.013	1047.20833
2172.634	1059.54167
2175.254	1052.20833
2177.872	1072.875
2180.488	1028.875
2183.102	1028.875
2185.714	1012.875
2188.325	993.20833
2190.934	968.875
2193.541	964.875
2196.146	946.54167
2198.75	923.875
2201.351	925.875
2203.951	891.20833
2206.549	904.20833
2209.146	881.875
2211.74	869.20833
2214.333	859.54167
2216.924	843.54167
2219.514	873.20833
2222.101	844.20833
2224.687	860.20833
2227.271	841.875
2229.853	836.875
2232.433	820.875
2235.012	836.875
2237.589	843.54167
2240.164	838.875
2242.738	826.54167
2245.309	808.20833
2247.879	815.54167
2250.448	812.54167
2253.014	779.54167
2255.579	780.875
2258.142	777.20833
2260.703	751.20833
2263.262	770.875
2265.82	767.20833
2268.376	769.875
2270.93	746.54167
2273.483	743.54167
2276.033	754.54167
2278.583	734.875
2281.13	726.20833
2283.675	719.20833
2286.219	724.875
2288.761	719.20833
2291.302	738.54167
2293.841	738.20833
2296.377	706.54167
2298.913	708.20833
2301.446	720.20833
2303.978	705.20833
2306.508	696.875
2309.037	706.875
2311.563	703.20833
2314.088	700.20833
2316.612	684.875
2319.133	700.875
2321.653	692.875
2324.171	688.875
2326.688	698.875
2329.202	679.54167
2331.715	687.54167
2334.227	668.875
2336.736	672.20833
2339.244	668.20833
2341.751	658.54167
2344.255	680.20833
2346.758	661.20833
2349.259	658.20833
2351.759	656.20833
2354.257	654.20833
2356.753	657.20833
2359.247	650.20833
2361.74	673.54167
2364.231	654.20833
2366.721	658.20833
2369.209	641.875
2371.695	648.20833
2374.179	642.875
2376.662	644.20833
2379.143	651.20833
2381.622	641.54167
2384.1	644.20833
2386.576	646.20833
2389.051	655.54167
2391.524	646.20833
2393.995	636.875
2396.464	631.20833
2398.932	623.875
2401.398	627.54167
2403.863	614.20833
2406.325	618.20833
2408.787	626.54167
2411.246	620.875
2413.704	613.20833
2416.16	617.875
2418.615	610.54167
2421.068	628.20833
2423.519	620.54167
2425.969	606.875
2428.417	623.20833
2430.863	645.54167
2433.308	633.875
2435.751	620.54167
2438.193	613.875
2440.633	613.54167
2443.071	609.20833
2445.508	596.875
2447.943	604.54167
2450.376	590.875
2452.808	605.20833
2455.238	578.20833
2457.667	620.20833
2460.093	588.20833
2462.519	589.875
2464.942	589.20833
2467.365	598.54167
2469.785	590.54167
2472.204	594.54167
2474.621	571.20833
2477.037	595.54167
2479.451	566.20833
2481.863	562.20833
2484.274	553.875
2486.683	572.20833
2489.091	583.54167
2491.497	579.54167
2493.901	566.20833
2496.304	567.875
2498.705	572.875
2501.105	567.875
2503.503	595.54167
2505.899	565.54167
2508.294	577.875
2510.687	556.875
2513.079	561.20833
2515.469	559.54167
2517.858	555.20833
2520.245	558.54167
2522.63	548.875
2525.014	534.875
2527.396	551.20833
2529.776	545.875
2532.156	559.875
2534.533	536.875
2536.909	544.875
2539.283	530.20833
2541.656	542.54167
2544.027	564.20833
2546.397	549.875
2548.765	543.54167
2551.131	528.20833
2553.496	537.20833
2555.86	546.20833
2558.221	545.875
2560.582	536.875
2562.94	523.54167
2565.298	522.54167
2567.653	556.54167
2570.007	523.875
2572.36	528.54167
2574.711	522.20833
2577.06	545.875
2579.408	536.20833
2581.754	529.875
2584.099	533.875
2586.442	524.54167
2588.784	530.54167
2591.124	530.875
2593.463	522.20833
2595.8	525.20833
2598.135	508.875
2600.469	520.54167
2602.802	540.20833
2605.133	534.20833
2607.462	509.20833
2609.79	502.875
2612.116	525.20833
2614.441	512.54167
2616.764	516.875
2619.086	512.20833
2621.406	505.54167
2623.725	528.20833
2626.042	538.20833
2628.358	506.54167
2630.672	511.54167
2632.985	526.20833
2635.296	510.54167
2637.606	512.20833
2639.914	511.54167
2642.22	510.20833
2644.525	510.875
2646.829	524.20833
2649.131	523.875
2651.432	525.54167
2653.731	518.875
2656.028	532.54167
2658.324	518.54167
2660.619	516.875
2662.912	532.54167
2665.204	511.20833
2667.494	529.20833
2669.782	519.875
2672.07	529.54167
2674.355	530.54167
2676.639	518.875
2678.922	521.20833
2681.203	524.875
2683.483	504.54167
2685.761	513.20833
2688.038	520.20833
2690.313	532.20833
2692.587	523.54167
2694.859	509.875
2697.13	523.54167
2699.399	523.20833
2701.667	540.875
2703.933	550.54167
2706.198	534.54167
2708.461	547.20833
2710.723	550.20833
2712.984	553.20833
2715.243	551.875
2717.5	543.54167
2719.757	554.875
2722.011	550.54167
2724.264	567.54167
2726.516	575.54167
2728.766	563.54167
2731.015	567.54167
2733.262	560.20833
2735.508	556.54167
2737.753	560.54167
2739.996	540.54167
2742.237	538.20833
2744.477	551.54167
2746.716	558.20833
2748.953	536.54167
2751.189	541.54167
2753.423	532.875
2755.656	529.20833
2757.887	522.875
2760.117	520.54167
2762.346	515.54167
2764.573	523.20833
2766.798	512.54167
2769.022	518.875
2771.245	524.20833
2773.467	520.875
2775.686	541.20833
2777.905	533.875
2780.122	539.20833
2782.337	543.54167
2784.552	531.875
2786.764	552.20833
2788.976	546.875
2791.186	552.875
2793.394	563.54167
2795.601	587.875
2797.807	581.54167
2800.011	582.20833
2802.214	607.54167
2804.415	600.875
2806.615	603.20833
2808.814	616.54167
2811.011	628.875
2813.206	626.20833
2815.401	636.875
2817.594	658.54167
2819.785	668.875
2821.975	665.20833
2824.164	675.54167
2826.351	710.20833
2828.537	718.20833
2830.722	730.54167
2832.905	748.20833
2835.086	798.20833
2837.267	816.20833
2839.445	865.20833
2841.623	887.54167
2843.799	928.875
2845.974	984.54167
2848.147	1024.54167
2850.319	1059.54167
2852.489	1094.875
2854.659	1114.20833
2856.826	1126.54167
2858.993	1165.875
2861.158	1160.875
2863.321	1140.54167
2865.483	1170.54167
2867.644	1170.20833
2869.804	1160.875
2871.962	1168.20833
2874.118	1156.875
2876.274	1152.20833
2878.428	1150.20833
2880.58	1137.20833
2882.731	1137.875
2884.881	1141.54167
2887.03	1146.875
2889.177	1148.875
2891.322	1160.875
2893.467	1159.875
2895.61	1167.54167
2897.751	1194.875
2899.892	1179.54167
2902.03	1179.54167
2904.168	1205.875
2906.304	1202.54167
2908.439	1230.20833
2910.572	1210.875
2912.704	1241.20833
2914.835	1228.54167
2916.965	1219.54167
2919.093	1245.20833
2921.219	1204.54167
2923.345	1214.54167
2925.469	1192.54167
2927.591	1163.20833
2929.712	1128.20833
2931.832	1111.20833
2933.951	1094.54167
2936.068	1067.875
2938.184	1049.875
2940.299	1005.54167
2942.412	960.875
2944.524	919.20833
2946.634	897.54167
2948.744	836.875
2950.851	848.20833
2952.958	791.875
2955.063	780.54167
2957.167	760.875
2959.269	717.20833
2961.371	723.875
2963.471	679.20833
2965.569	689.875
2967.666	641.54167
2969.762	637.54167
2971.857	607.54167
2973.95	596.875
2976.042	583.54167
2978.133	559.54167
2980.222	546.20833
2982.31	523.54167
2984.396	500.20833
2986.482	506.54167
2988.566	501.54167
2990.648	480.20833
2992.73	482.875
2994.81	454.20833
2996.889	473.20833
2998.966	450.20833
3001.042	454.875
3003.117	444.875
3005.191	450.54167
3007.263	438.20833
3009.334	423.54167
3011.403	428.54167
3013.472	414.54167
3015.539	406.54167
3017.604	415.20833
3019.669	379.54167
3021.732	387.20833
3023.794	382.20833
3025.854	374.875
3027.914	368.875
3029.971	375.54167
3032.028	360.54167
3034.083	373.875
3036.137	376.20833
3038.19	347.875
3040.242	339.54167
3042.292	336.20833
3044.341	316.20833
3046.388	340.875
3048.435	310.20833
3050.48	333.20833
3052.524	330.875
3054.566	302.54167
3056.607	318.54167
3058.647	309.20833
3060.686	289.875
3062.723	279.54167
3064.759	273.875
3066.794	0.20833
3068.828	-1.45833
3070.86	-0.125
