-0.839	451.83333
3.438	497.16667
7.711	145.83333
11.981	58.5
16.247	46.83333
20.509	44.83333
24.768	49.83333
29.024	47.83333
33.276	42.83333
37.524	47.5
41.769	41.83333
46.01	37.16667
50.247	54.83333
54.481	62.16667
58.712	68.5
62.939	52.5
67.162	63.83333
71.382	60.5
75.599	51.16667
79.812	67.16667
84.021	83.5
88.227	60.5
92.429	68.5
96.628	53.16667
100.823	70.16667
105.015	79.5
109.204	82.16667
113.388	81.83333
117.57	81.5
121.748	94.16667
125.922	85.83333
130.093	106.5
134.261	118.83333
138.425	109.83333
142.585	149.5
146.742	158.16667
150.896	180.16667
155.046	220.83333
159.193	354.83333
163.336	607.5
167.476	1104.5
171.613	2040.5
175.746	3449.5
179.875	5186.83333
184.002	6760.5
188.124	7903.16667
192.244	8310.83333
196.36	8266.83333
200.472	8121.16667
204.581	7890.83333
208.687	7693.5
212.79	7695.16667
216.889	7738.83333
220.984	7846.5
225.077	7929.16667
229.165	8054.5
233.251	8176.83333
237.333	8287.5
241.412	8278.5
245.487	8284.16667
249.559	8219.83333
253.628	8172.16667
257.694	8088.16667
261.756	7997.5
265.814	7813.83333
269.87	7579.5
273.922	7340.16667
277.97	7104.83333
282.016	6989.16667
286.058	6883.16667
290.097	6879.83333
294.132	6882.5
298.164	6737.16667
302.193	6404.5
306.219	5923.16667
310.241	5358.83333
314.26	4880.83333
318.276	4451.16667
322.288	4144.5
326.297	3879.83333
330.303	3701.5
334.305	3583.5
338.305	3499.16667
342.301	3432.83333
346.294	3396.16667
350.283	3359.83333
354.269	3308.16667
358.252	3322.16667
362.232	3259.83333
366.209	3216.83333
370.182	3205.83333
374.152	3169.83333
378.119	3168.5
382.083	3145.16667
386.043	3183.83333
390	3115.16667
393.954	3118.83333
397.905	3056.16667
401.852	3061.83333
405.797	3010.5
409.738	2968.5
413.676	2957.16667
417.61	2921.83333
421.542	2901.83333
425.47	2867.16667
429.396	2843.83333
433.318	2815.83333
437.236	2816.5
441.152	2796.5
445.065	2754.16667
448.974	2765.5
452.88	2719.5
456.783	2692.16667
460.683	2693.5
464.58	2704.16667
468.473	2688.16667
472.364	2686.5
476.251	2716.83333
480.135	2732.5
484.016	2749.5
487.894	2756.5
491.769	2759.5
495.641	2761.5
499.509	2757.5
503.375	2746.16667
507.237	2734.83333
511.096	2746.83333
514.952	2759.5
518.805	2790.5
522.655	2785.5
526.502	2717.5
530.346	2729.83333
534.187	2747.83333
538.024	2750.83333
541.859	2763.83333
545.69	2782.5
549.519	2751.16667
553.344	2731.83333
557.166	2684.16667
560.985	2663.83333
564.802	2627.5
568.615	2612.16667
572.425	2546.5
576.232	2527.5
580.036	2535.83333
583.836	2551.83333
587.634	2557.5
591.429	2547.5
595.221	2605.16667
599.01	2627.83333
602.796	2664.5
606.578	2678.83333
610.358	2655.5
614.135	2675.83333
617.909	2637.16667
621.679	2640.16667
625.447	2628.5
629.212	2641.83333
632.973	2654.5
636.732	2638.16667
640.488	2639.83333
644.241	2598.16667
647.991	2605.16667
651.737	2621.16667
655.481	2603.83333
659.222	2598.83333
662.96	2584.83333
666.695	2598.83333
670.427	2600.83333
674.156	2637.83333
677.882	2621.16667
681.605	2635.83333
685.325	2617.83333
689.043	2623.16667
692.757	2598.83333
696.468	2611.16667
700.177	2623.16667
703.882	2581.83333
707.585	2580.5
711.284	2590.83333
714.981	2590.83333
718.675	2616.16667
722.366	2620.5
726.054	2608.83333
729.739	2600.83333
733.421	2613.83333
737.1	2615.16667
740.777	2625.16667
744.45	2655.5
748.121	2672.83333
751.789	2709.16667
755.453	2693.16667
759.115	2728.83333
762.774	2738.5
766.431	2782.83333
770.084	2794.5
773.734	2831.83333
777.382	2916.5
781.027	2899.83333
784.669	2948.83333
788.308	2964.83333
791.944	2991.83333
795.577	2990.5
799.208	3036.16667
802.835	3063.5
806.46	3076.83333
810.082	3119.16667
813.701	3117.16667
817.317	3153.83333
820.931	3163.5
824.542	3158.5
828.149	3146.16667
831.754	3078.83333
835.357	3080.5
838.956	3078.16667
842.553	3051.5
846.146	3043.16667
849.737	3019.83333
853.326	3040.83333
856.911	3060.16667
860.493	3109.5
864.073	3108.16667
867.65	3153.83333
871.225	3194.16667
874.796	3222.83333
878.365	3243.5
881.931	3264.83333
885.494	3262.83333
889.054	3261.5
892.612	3280.83333
896.166	3215.16667
899.719	3184.83333
903.268	3172.5
906.814	3158.5
910.358	3137.83333
913.899	3118.16667
917.438	3127.16667
920.973	3114.83333
924.506	3162.16667
928.036	3198.16667
931.564	3216.83333
935.088	3264.16667
938.61	3260.16667
942.129	3328.16667
945.646	3366.83333
949.16	3445.16667
952.671	3551.5
956.179	3567.16667
959.685	3526.83333
963.188	3470.16667
966.688	3446.5
970.185	3338.5
973.68	3292.16667
977.173	3251.5
980.662	3261.83333
984.149	3275.5
987.633	3262.5
991.114	3342.83333
994.593	3436.16667
998.069	3551.16667
1001.542	3665.5
1005.013	3593.83333
1008.481	3405.83333
1011.947	3342.5
1015.409	3302.83333
1018.869	3339.16667
1022.327	3311.5
1025.782	3301.5
1029.234	3300.16667
1032.683	3252.83333
1036.13	3132.83333
1039.574	3018.5
1043.016	2972.5
1046.455	2909.16667
1049.891	2887.83333
1053.325	2887.83333
1056.756	2869.5
1060.184	2912.5
1063.61	2905.5
1067.033	2916.16667
1070.454	2918.16667
1073.872	2964.16667
1077.287	2964.83333
1080.7	2971.16667
1084.11	2961.83333
1087.517	2928.83333
1090.922	2904.83333
1094.325	2886.5
1097.724	2834.83333
1101.122	2837.83333
1104.516	2828.5
1107.908	2837.16667
1111.298	2891.83333
1114.684	2918.5
1118.069	2966.5
1121.45	3001.5
1124.83	2998.83333
1128.206	3019.83333
1131.58	3060.83333
1134.951	3145.16667
1138.32	3240.16667
1141.687	3365.83333
1145.05	3462.5
1148.412	3497.5
1151.77	3489.83333
1155.126	3494.16667
1158.48	3484.83333
1161.831	3507.83333
1165.18	3537.83333
1168.525	3590.16667
1171.869	3618.16667
1175.21	3659.16667
1178.548	3709.83333
1181.884	3752.83333
1185.217	3780.83333
1188.548	3835.16667
1191.877	3871.5
1195.202	3974.5
1198.526	3992.83333
1201.846	4037.83333
1205.165	3976.16667
1208.48	3965.16667
1211.794	3935.83333
1215.104	3952.16667
1218.413	3980.83333
1221.719	3954.16667
1225.022	3917.16667
1228.323	3871.83333
1231.621	3890.5
1234.917	3862.16667
1238.21	3915.83333
1241.501	3879.5
1244.79	3894.83333
1248.076	3930.5
1251.359	3947.16667
1254.64	4023.5
1257.919	4035.5
1261.195	4085.83333
1264.468	4151.83333
1267.74	4198.16667
1271.008	4211.83333
1274.275	4232.5
1277.538	4160.83333
1280.8	4143.83333
1284.059	4128.5
1287.315	4209.16667
1290.569	4200.16667
1293.821	4219.5
1297.07	4271.16667
1300.317	4282.83333
1303.562	4273.5
1306.803	4221.16667
1310.043	4170.16667
1313.28	4109.83333
1316.515	4078.5
1319.747	4009.5
1322.977	3952.16667
1326.204	3947.16667
1329.429	3859.83333
1332.652	3801.5
1335.872	3786.5
1339.09	3760.83333
1342.306	3774.16667
1345.519	3748.16667
1348.729	3741.16667
1351.938	3720.16667
1355.144	3670.16667
1358.347	3621.5
1361.548	3615.16667
1364.747	3631.83333
1367.944	3596.83333
1371.138	3597.5
1374.329	3667.83333
1377.518	3693.83333
1380.705	3706.5
1383.89	3703.16667
1387.072	3648.83333
1390.252	3508.16667
1393.429	3382.83333
1396.605	3284.5
1399.777	3192.5
1402.948	3159.5
1406.116	3146.5
1409.282	3158.5
1412.445	3128.5
1415.606	3171.83333
1418.765	3213.16667
1421.921	3285.83333
1425.075	3383.16667
1428.227	3490.16667
1431.376	3623.83333
1434.524	3755.16667
1437.668	3870.16667
1440.811	3901.83333
1443.951	3929.16667
1447.089	3925.16667
1450.224	3921.16667
1453.357	3872.16667
1456.488	3874.83333
1459.617	3811.83333
1462.743	3782.83333
1465.867	3696.16667
1468.989	3688.16667
1472.108	3587.5
1475.225	3541.5
1478.34	3508.16667
1481.453	3505.83333
1484.563	3506.5
1487.671	3550.5
1490.776	3614.83333
1493.88	3674.83333
1496.981	3778.83333
1500.08	3807.83333
1503.176	3884.16667
1506.271	3958.83333
1509.363	4056.5
1512.452	4078.16667
1515.54	4172.5
1518.625	4281.83333
1521.708	4446.16667
1524.789	4682.16667
1527.867	4951.5
1530.944	5287.16667
1534.018	5504.5
1537.089	5651.5
1540.159	5651.16667
1543.226	5515.83333
1546.291	5286.5
1549.354	5157.5
1552.415	4972.16667
1555.473	4819.16667
1558.529	4745.83333
1561.583	4682.5
1564.634	4641.16667
1567.684	4618.83333
1570.731	4616.5
1573.776	4674.83333
1576.819	4722.16667
1579.859	4718.83333
1582.898	4793.16667
1585.934	4837.5
1588.968	4846.83333
1591.999	4852.5
1595.029	4851.5
1598.056	4848.83333
1601.081	4883.16667
1604.104	4886.16667
1607.125	4827.83333
1610.144	4735.83333
1613.16	4611.16667
1616.174	4508.83333
1619.186	4381.5
1622.196	4298.83333
1625.203	4162.83333
1628.209	4093.83333
1631.212	4058.83333
1634.213	3967.16667
1637.212	3964.5
1640.209	3874.83333
1643.203	3764.5
1646.196	3665.5
1649.186	3526.16667
1652.174	3427.16667
1655.16	3315.83333
1658.144	3220.5
1661.125	3073.83333
1664.105	2925.83333
1667.082	2788.5
1670.057	2642.5
1673.03	2474.5
1676.001	2364.83333
1678.97	2193.16667
1681.937	2069.16667
1684.901	1959.16667
1687.863	1874.83333
1690.824	1815.16667
1693.782	1793.83333
1696.738	1700.83333
1699.692	1680.16667
1702.643	1649.16667
1705.593	1613.16667
1708.54	1598.83333
1711.486	1585.83333
1714.429	1539.16667
1717.37	1538.16667
1720.309	1522.5
1723.246	1518.83333
1726.181	1460.16667
1729.113	1476.5
1732.044	1468.83333
1734.972	1436.16667
1737.899	1448.16667
1740.823	1443.83333
1743.745	1443.16667
1746.665	1380.16667
1749.583	1351.16667
1752.499	1339.16667
1755.413	1333.5
1758.325	1282.16667
1761.235	1280.5
1764.142	1258.83333
1767.048	1234.5
1769.951	1237.5
1772.852	1222.5
1775.752	1234.16667
1778.649	1216.16667
1781.544	1230.5
1784.437	1183.83333
1787.328	1196.5
1790.217	1177.83333
1793.104	1157.16667
1795.989	1155.5
1798.872	1154.16667
1801.753	1170.5
1804.631	1161.16667
1807.508	1167.83333
1810.383	1146.83333
1813.255	1150.5
1816.126	1146.5
1818.994	1145.5
1821.861	1130.16667
1824.725	1116.16667
1827.587	1130.16667
1830.448	1130.83333
1833.306	1087.16667
1836.162	1099.83333
1839.017	1087.83333
1841.869	1086.5
1844.719	1092.5
1847.567	1083.5
1850.414	1072.5
1853.258	1067.83333
1856.1	1096.83333
1858.94	1088.16667
1861.778	1071.5
1864.614	1057.5
1867.448	1063.16667
1870.28	1052.83333
1873.111	1085.83333
1875.939	1070.16667
1878.765	1087.83333
1881.589	1059.5
1884.411	1055.16667
1887.231	1074.83333
1890.049	1060.16667
1892.865	1050.83333
1895.68	1048.83333
1898.492	1044.83333
1901.302	1047.16667
1904.11	1026.16667
1906.916	1030.5
1909.721	1023.16667
1912.523	1029.83333
1915.323	1004.16667
1918.122	1016.83333
1920.918	1012.16667
1923.712	1006.16667
1926.505	1012.83333
1929.295	989.16667
1932.084	1011.83333
1934.87	993.83333
1937.655	1008.16667
1940.438	998.16667
1943.218	998.83333
1945.997	994.5
1948.774	1010.5
1951.549	999.16667
1954.322	1002.83333
1957.093	997.16667
1959.862	973.83333
1962.629	979.16667
1965.394	957.83333
1968.157	972.5
1970.918	970.83333
1973.678	961.16667
1976.435	975.5
1979.19	956.16667
1981.944	941.83333
1984.696	948.16667
1987.445	946.83333
1990.193	952.16667
1992.939	960.5
1995.683	943.83333
1998.425	935.83333
2001.165	948.16667
2003.903	935.83333
2006.639	937.16667
2009.374	925.5
2012.106	944.16667
2014.837	918.83333
2017.566	935.5
2020.292	925.16667
2023.017	940.16667
2025.74	919.5
2028.461	916.5
2031.18	916.83333
2033.898	904.83333
2036.613	930.83333
2039.327	903.5
2042.038	898.5
2044.748	907.83333
2047.456	912.5
2050.162	880.83333
2052.866	888.83333
2055.568	898.5
2058.268	894.16667
2060.967	899.16667
2063.663	876.83333
2066.358	898.5
2069.051	873.5
2071.742	872.16667
2074.431	905.5
2077.118	892.83333
2079.804	877.16667
2082.487	883.83333
2085.169	889.5
2087.849	904.16667
2090.527	893.16667
2093.203	898.16667
2095.877	913.83333
2098.55	904.5
2101.22	923.5
2103.889	932.83333
2106.556	928.83333
2109.221	967.16667
2111.884	983.16667
2114.546	1041.83333
2117.205	1112.16667
2119.863	1203.5
2122.519	1276.83333
2125.173	1363.83333
2127.825	1455.5
2130.475	1489.5
2133.124	1486.16667
2135.771	1442.16667
2138.416	1396.5
2141.059	1312.5
2143.7	1257.5
2146.339	1178.16667
2148.977	1104.5
2151.613	1092.5
2154.247	1041.16667
2156.879	1030.5
2159.51	1016.16667
2162.138	986.16667
2164.765	986.83333
2167.39	972.16667
2170.013	975.16667
2172.634	967.16667
2175.254	964.16667
2177.872	971.5
2180.488	943.16667
2183.102	924.5
2185.714	911.16667
2188.325	880.5
2190.934	903.16667
2193.541	884.83333
2196.146	865.5
2198.75	845.5
2201.351	848.16667
2203.951	831.83333
2206.549	834.83333
2209.146	818.16667
2211.74	805.83333
2214.333	821.5
2216.924	793.16667
2219.514	805.83333
2222.101	790.16667
2224.687	795.83333
2227.271	782.16667
2229.853	785.16667
2232.433	752.5
2235.012	793.83333
2237.589	786.16667
2240.164	774.5
2242.738	782.16667
2245.309	754.5
2247.879	770.5
2250.448	754.83333
2253.014	730.83333
2255.579	722.83333
2258.142	727.5
2260.703	716.83333
2263.262	715.5
2265.82	708.83333
2268.376	711.83333
2270.93	693.5
2273.483	690.83333
2276.033	696.83333
2278.583	687.83333
2281.13	684.83333
2283.675	670.83333
2286.219	686.83333
2288.761	676.5
2291.302	686.83333
2293.841	681.16667
2296.377	654.83333
2298.913	666.83333
2301.446	677.83333
2303.978	664.83333
2306.508	656.83333
2309.037	655.16667
2311.563	660.16667
2314.088	657.16667
2316.612	647.5
2319.133	654.5
2321.653	648.83333
2324.171	637.83333
2326.688	654.16667
2329.202	638.5
2331.715	637.83333
2334.227	636.5
2336.736	639.16667
2339.244	631.5
2341.751	625.5
2344.255	631.5
2346.758	615.16667
2349.259	615.83333
2351.759	621.83333
2354.257	606.16667
2356.753	614.83333
2359.247	616.5
2361.74	636.16667
2364.231	620.16667
2366.721	622.5
2369.209	603.16667
2371.695	602.83333
2374.179	605.5
2376.662	606.83333
2379.143	610.16667
2381.622	615.83333
2384.1	612.83333
2386.576	596.83333
2389.051	612.83333
2391.524	608.83333
2393.995	614.83333
2396.464	594.83333
2398.932	585.83333
2401.398	594.16667
2403.863	582.83333
2406.325	580.16667
2408.787	587.16667
2411.246	595.16667
2413.704	579.5
2416.16	580.16667
2418.615	580.83333
2421.068	583.83333
2423.519	576.5
2425.969	578.16667
2428.417	576.5
2430.863	587.16667
2433.308	593.83333
2435.751	581.16667
2438.193	579.83333
2440.633	576.5
2443.071	569.5
2445.508	557.83333
2447.943	572.5
2450.376	560.5
2452.808	570.83333
2455.238	558.5
2457.667	582.5
2460.093	559.5
2462.519	546.16667
2464.942	544.16667
2467.365	563.16667
2469.785	550.16667
2472.204	560.83333
2474.621	548.83333
2477.037	567.5
2479.451	543.5
2481.863	539.16667
2484.274	536.83333
2486.683	554.5
2489.091	547.16667
2491.497	535.16667
2493.901	537.16667
2496.304	544.83333
2498.705	543.5
2501.105	533.16667
2503.503	556.83333
2505.899	529.5
2508.294	559.16667
2510.687	537.16667
2513.079	529.5
2515.469	525.5
2517.858	527.83333
2520.245	547.5
2522.63	534.83333
2525.014	527.5
2527.396	513.5
2529.776	516.83333
2532.156	532.5
2534.533	517.83333
2536.909	520.83333
2539.283	506.16667
2541.656	513.83333
2544.027	542.83333
2546.397	521.83333
2548.765	510.5
2551.131	511.5
2553.496	517.16667
2555.86	520.83333
2558.221	513.16667
2560.582	509.83333
2562.94	491.5
2565.298	507.5
2567.653	530.16667
2570.007	480.5
2572.36	517.83333
2574.711	500.83333
2577.06	518.83333
2579.408	507.83333
2581.754	506.16667
2584.099	500.83333
2586.442	490.83333
2588.784	513.83333
2591.124	507.5
2593.463	493.5
2595.8	498.16667
2598.135	494.83333
2600.469	495.16667
2602.802	502.83333
2605.133	517.16667
2607.462	499.16667
2609.79	478.83333
2612.116	501.5
2614.441	496.5
2616.764	498.16667
2619.086	495.83333
2621.406	491.5
2623.725	504.83333
2626.042	495.16667
2628.358	494.83333
2630.672	484.16667
2632.985	508.5
2635.296	490.5
2637.606	496.5
2639.914	490.83333
2642.22	492.16667
2644.525	495.83333
2646.829	504.16667
2649.131	504.83333
2651.432	511.16667
2653.731	496.83333
2656.028	515.5
2658.324	497.5
2660.619	493.5
2662.912	512.5
2665.204	491.16667
2667.494	507.83333
2669.782	491.16667
2672.07	507.16667
2674.355	514.83333
2676.639	509.16667
2678.922	499.5
2681.203	503.83333
2683.483	487.83333
2685.761	491.16667
2688.038	510.5
2690.313	522.5
2692.587	497.5
2694.859	503.83333
2697.13	511.5
2699.399	502.5
2701.667	526.5
2703.933	527.5
2706.198	525.5
2708.461	523.5
2710.723	535.83333
2712.984	527.83333
2715.243	544.83333
2717.5	531.16667
2719.757	545.83333
2722.011	525.5
2724.264	554.5
2726.516	567.83333
2728.766	552.16667
2731.015	544.83333
2733.262	547.16667
2735.508	544.16667
2737.753	546.5
2739.996	529.16667
2742.237	522.16667
2744.477	539.5
2746.716	532.83333
2748.953	530.83333
2751.189	529.5
2753.423	510.83333
2755.656	511.16667
2757.887	512.83333
2760.117	519.83333
2762.346	505.83333
2764.573	499.83333
2766.798	498.5
2769.022	518.16667
2771.245	503.83333
2773.467	513.16667
2775.686	515.83333
2777.905	522.5
2780.122	533.16667
2782.337	529.5
2784.552	521.5
2786.764	535.83333
2788.976	542.83333
2791.186	550.83333
2793.394	546.5
2795.601	548.5
2797.807	568.5
2800.011	575.5
2802.214	592.16667
2804.415	582.83333
2806.615	588.83333
2808.814	608.83333
2811.011	613.5
2813.206	617.16667
2815.401	646.16667
2817.594	644.83333
2819.785	650.83333
2821.975	645.16667
2824.164	660.16667
2826.351	678.83333
2828.537	709.83333
2830.722	716.16667
2832.905	731.16667
2835.086	761.5
2837.267	805.16667
2839.445	826.16667
2841.623	855.5
2843.799	905.16667
2845.974	951.5
2848.147	991.83333
2850.319	1014.5
2852.489	1045.16667
2854.659	1072.83333
2856.826	1086.16667
2858.993	1122.83333
2861.158	1102.5
2863.321	1101.5
2865.483	1119.16667
2867.644	1119.5
2869.804	1110.5
2871.962	1107.16667
2874.118	1116.16667
2876.274	1098.16667
2878.428	1095.16667
2880.58	1085.5
2882.731	1087.5
2884.881	1081.83333
2887.03	1094.16667
2889.177	1096.83333
2891.322	1116.83333
2893.467	1107.16667
2895.61	1116.83333
2897.751	1135.5
2899.892	1123.16667
2902.03	1128.16667
2904.168	1143.83333
2906.304	1141.83333
2908.439	1173.83333
2910.572	1147.83333
2912.704	1174.5
2914.835	1157.83333
2916.965	1166.16667
2919.093	1165.16667
2921.219	1137.16667
2923.345	1161.5
2925.469	1127.16667
2927.591	1103.5
2929.712	1074.16667
2931.832	1069.83333
2933.951	1043.16667
2936.068	1010.16667
2938.184	978.5
2940.299	946.16667
2942.412	918.5
2944.524	879.16667
2946.634	856.83333
2948.744	804.83333
2950.851	818.83333
2952.958	759.16667
2955.063	741.16667
2957.167	736.83333
2959.269	703.16667
2961.371	709.83333
2963.471	664.5
2965.569	671.83333
2967.666	628.5
2969.762	613.5
2971.857	591.5
2973.95	566.83333
2976.042	571.83333
2978.133	555.16667
2980.222	533.5
2982.31	513.16667
2984.396	497.83333
2986.482	492.83333
2988.566	489.83333
2990.648	479.5
2992.73	471.16667
2994.81	457.16667
2996.889	457.16667
2998.966	452.83333
3001.042	451.16667
3003.117	442.16667
3005.191	448.5
3007.263	436.5
3009.334	431.5
3011.403	437.16667
3013.472	401.83333
3015.539	407.83333
3017.604	414.5
3019.669	380.16667
3021.732	387.16667
3023.794	391.83333
3025.854	378.16667
3027.914	370.83333
3029.971	385.16667
3032.028	376.5
3034.083	387.16667
3036.137	368.83333
3038.19	350.5
3040.242	346.83333
3042.292	341.16667
3044.341	336.16667
3046.388	349.5
3048.435	321.83333
3050.48	344.5
3052.524	330.83333
3054.566	309.16667
3056.607	322.16667
3058.647	305.83333
3060.686	302.16667
3062.723	289.83333
3064.759	281.16667
3066.794	1.83333
3068.828	-2.16667
3070.86	-2.5
