-0.839	445.29167
3.438	515.625
7.711	144.95833
11.981	56.625
16.247	47.625
20.509	43.29167
24.768	47.29167
29.024	49.29167
33.276	46.29167
37.524	51.95833
41.769	41.29167
46.01	36.29167
50.247	51.95833
54.481	59.95833
58.712	68.29167
62.939	55.29167
67.162	61.29167
71.382	58.29167
75.599	45.95833
79.812	63.95833
84.021	84.625
88.227	59.95833
92.429	68.625
96.628	55.95833
100.823	69.29167
105.015	79.29167
109.204	80.95833
113.388	82.29167
117.57	76.29167
121.748	99.29167
125.922	87.95833
130.093	105.625
134.261	109.95833
138.425	107.625
142.585	155.625
146.742	149.625
150.896	178.95833
155.046	219.625
159.193	353.95833
163.336	609.29167
167.476	1104.95833
171.613	2058.29167
175.746	3442.625
179.875	5155.625
184.002	6767.95833
188.124	7873.29167
192.244	8231.29167
196.36	8236.95833
200.472	8064.29167
204.581	7806.95833
208.687	7669.29167
212.79	7637.95833
216.889	7712.95833
220.984	7814.625
225.077	7941.95833
229.165	8060.29167
233.251	8165.29167
237.333	8267.95833
241.412	8332.95833
245.487	8286.625
249.559	8253.95833
253.628	8138.95833
257.694	8046.95833
261.756	7932.29167
265.814	7804.29167
269.87	7610.95833
273.922	7315.625
277.97	7095.625
282.016	6977.95833
286.058	6859.29167
290.097	6872.625
294.132	6858.95833
298.164	6736.625
302.193	6423.29167
306.219	5906.29167
310.241	5332.95833
314.26	4830.625
318.276	4444.29167
322.288	4138.625
326.297	3876.625
330.303	3693.625
334.305	3571.29167
338.305	3460.625
342.301	3420.625
346.294	3373.95833
350.283	3333.95833
354.269	3300.95833
358.252	3252.625
362.232	3234.29167
366.209	3236.95833
370.182	3181.95833
374.152	3170.625
378.119	3173.95833
382.083	3149.625
386.043	3179.29167
390	3109.95833
393.954	3112.625
397.905	3066.29167
401.852	3033.625
405.797	3006.29167
409.738	2956.29167
413.676	2965.95833
417.61	2963.95833
421.542	2901.625
425.47	2877.29167
429.396	2829.625
433.318	2802.625
437.236	2808.29167
441.152	2829.95833
445.065	2755.95833
448.974	2728.95833
452.88	2717.95833
456.783	2726.29167
460.683	2683.29167
464.58	2705.95833
468.473	2695.625
472.364	2688.95833
476.251	2712.95833
480.135	2714.29167
484.016	2734.95833
487.894	2742.95833
491.769	2759.29167
495.641	2748.95833
499.509	2746.95833
503.375	2755.95833
507.237	2758.625
511.096	2742.95833
514.952	2748.625
518.805	2771.625
522.655	2773.95833
526.502	2747.95833
530.346	2745.625
534.187	2740.95833
538.024	2754.95833
541.859	2737.29167
545.69	2777.95833
549.519	2753.625
553.344	2712.29167
557.166	2701.29167
560.985	2682.95833
564.802	2629.625
568.615	2596.95833
572.425	2549.625
576.232	2538.625
580.036	2547.625
583.836	2531.95833
587.634	2549.95833
591.429	2551.95833
595.221	2576.625
599.01	2603.625
602.796	2656.625
606.578	2654.95833
610.358	2663.625
614.135	2632.95833
617.909	2658.29167
621.679	2652.95833
625.447	2627.95833
629.212	2626.625
632.973	2640.29167
636.732	2654.625
640.488	2615.95833
644.241	2600.95833
647.991	2593.29167
651.737	2608.625
655.481	2574.29167
659.222	2580.625
662.96	2588.29167
666.695	2584.95833
670.427	2614.95833
674.156	2618.625
677.882	2632.95833
681.605	2631.29167
685.325	2593.625
689.043	2606.29167
692.757	2595.29167
696.468	2604.95833
700.177	2596.95833
703.882	2575.29167
707.585	2585.95833
711.284	2575.625
714.981	2581.95833
718.675	2604.95833
722.366	2615.95833
726.054	2594.95833
729.739	2602.625
733.421	2617.95833
737.1	2598.95833
740.777	2627.95833
744.45	2638.95833
748.121	2654.29167
751.789	2700.625
755.453	2698.29167
759.115	2721.29167
762.774	2748.95833
766.431	2769.95833
770.084	2805.625
773.734	2837.95833
777.382	2870.95833
781.027	2924.29167
784.669	2916.29167
788.308	2921.95833
791.944	2987.625
795.577	2989.95833
799.208	3037.29167
802.835	3064.625
806.46	3076.95833
810.082	3111.625
813.701	3110.29167
817.317	3148.625
820.931	3143.625
824.542	3138.29167
828.149	3119.95833
831.754	3095.29167
835.357	3069.625
838.956	3081.625
842.553	3065.29167
846.146	3041.625
849.737	3036.95833
853.326	3047.29167
856.911	3050.625
860.493	3120.29167
864.073	3121.29167
867.65	3170.95833
871.225	3219.29167
874.796	3202.625
878.365	3220.95833
881.931	3237.95833
885.494	3269.625
889.054	3250.95833
892.612	3249.95833
896.166	3235.29167
899.719	3221.95833
903.268	3157.95833
906.814	3128.29167
910.358	3142.95833
913.899	3093.95833
917.438	3108.29167
920.973	3098.95833
924.506	3145.625
928.036	3176.29167
931.564	3195.29167
935.088	3251.95833
938.61	3256.29167
942.129	3295.95833
945.646	3358.29167
949.16	3443.625
952.671	3501.29167
956.179	3545.95833
959.685	3516.29167
963.188	3491.95833
966.688	3423.29167
970.185	3337.625
973.68	3289.625
977.173	3253.95833
980.662	3255.29167
984.149	3247.95833
987.633	3256.29167
991.114	3313.95833
994.593	3422.95833
998.069	3553.625
1001.542	3638.95833
1005.013	3572.29167
1008.481	3371.29167
1011.947	3336.95833
1015.409	3317.625
1018.869	3316.625
1022.327	3292.95833
1025.782	3296.29167
1029.234	3271.625
1032.683	3248.29167
1036.13	3145.29167
1039.574	3005.625
1043.016	2958.625
1046.455	2914.625
1049.891	2867.95833
1053.325	2857.95833
1056.756	2877.29167
1060.184	2886.625
1063.61	2911.625
1067.033	2925.625
1070.454	2922.625
1073.872	2942.625
1077.287	2943.95833
1080.7	2965.95833
1084.11	2958.95833
1087.517	2933.29167
1090.922	2906.29167
1094.325	2873.95833
1097.724	2843.29167
1101.122	2844.95833
1104.516	2793.95833
1107.908	2837.95833
1111.298	2906.95833
1114.684	2932.95833
1118.069	2974.625
1121.45	2986.29167
1124.83	2993.29167
1128.206	3009.95833
1131.58	3021.29167
1134.951	3126.29167
1138.32	3223.95833
1141.687	3333.29167
1145.05	3466.29167
1148.412	3476.95833
1151.77	3482.29167
1155.126	3472.625
1158.48	3480.29167
1161.831	3483.625
1165.18	3497.29167
1168.525	3575.95833
1171.869	3596.625
1175.21	3658.95833
1178.548	3694.625
1181.884	3743.29167
1185.217	3750.95833
1188.548	3803.625
1191.877	3847.95833
1195.202	3933.625
1198.526	3989.95833
1201.846	3979.95833
1205.165	3982.95833
1208.48	3963.95833
1211.794	3926.625
1215.104	3908.625
1218.413	3939.95833
1221.719	3900.29167
1225.022	3894.625
1228.323	3892.95833
1231.621	3877.29167
1234.917	3847.95833
1238.21	3907.625
1241.501	3907.625
1244.79	3884.95833
1248.076	3884.625
1251.359	3930.95833
1254.64	4025.95833
1257.919	4019.29167
1261.195	4065.29167
1264.468	4124.29167
1267.74	4184.95833
1271.008	4229.625
1274.275	4189.95833
1277.538	4145.95833
1280.8	4142.29167
1284.059	4137.29167
1287.315	4193.95833
1290.569	4201.625
1293.821	4213.625
1297.07	4248.95833
1300.317	4264.29167
1303.562	4238.625
1306.803	4195.625
1310.043	4165.29167
1313.28	4122.95833
1316.515	4054.625
1319.747	4018.29167
1322.977	3952.95833
1326.204	3916.95833
1329.429	3830.625
1332.652	3808.95833
1335.872	3788.29167
1339.09	3769.625
1342.306	3746.29167
1345.519	3759.625
1348.729	3716.625
1351.938	3718.625
1355.144	3647.625
1358.347	3590.625
1361.548	3591.29167
1364.747	3619.625
1367.944	3600.625
1371.138	3616.29167
1374.329	3653.95833
1377.518	3709.29167
1380.705	3733.95833
1383.89	3715.625
1387.072	3587.29167
1390.252	3467.29167
1393.429	3384.625
1396.605	3288.625
1399.777	3175.625
1402.948	3155.95833
1406.116	3151.95833
1409.282	3128.95833
1412.445	3124.625
1415.606	3189.95833
1418.765	3215.625
1421.921	3278.95833
1425.075	3357.29167
1428.227	3460.95833
1431.376	3630.29167
1434.524	3772.29167
1437.668	3820.95833
1440.811	3896.29167
1443.951	3902.29167
1447.089	3914.625
1450.224	3897.95833
1453.357	3885.625
1456.488	3845.625
1459.617	3796.95833
1462.743	3778.29167
1465.867	3680.29167
1468.989	3645.625
1472.108	3574.29167
1475.225	3546.29167
1478.34	3483.29167
1481.453	3458.95833
1484.563	3465.95833
1487.671	3527.95833
1490.776	3567.29167
1493.88	3664.625
1496.981	3721.29167
1500.08	3802.95833
1503.176	3867.95833
1506.271	3939.95833
1509.363	4029.95833
1512.452	4087.625
1515.54	4131.29167
1518.625	4242.95833
1521.708	4420.95833
1524.789	4657.29167
1527.867	4926.95833
1530.944	5230.95833
1534.018	5511.29167
1537.089	5662.95833
1540.159	5579.95833
1543.226	5479.29167
1546.291	5272.29167
1549.354	5077.29167
1552.415	4960.95833
1555.473	4810.29167
1558.529	4693.625
1561.583	4653.29167
1564.634	4611.29167
1567.684	4605.29167
1570.731	4599.95833
1573.776	4634.625
1576.819	4688.625
1579.859	4705.95833
1582.898	4759.29167
1585.934	4825.29167
1588.968	4816.95833
1591.999	4817.625
1595.029	4816.95833
1598.056	4858.29167
1601.081	4831.625
1604.104	4849.95833
1607.125	4807.625
1610.144	4719.95833
1613.16	4617.29167
1616.174	4468.625
1619.186	4366.95833
1622.196	4273.95833
1625.203	4176.95833
1628.209	4089.625
1631.212	4043.625
1634.213	4024.625
1637.212	3922.625
1640.209	3900.625
1643.203	3760.625
1646.196	3671.625
1649.186	3544.95833
1652.174	3447.95833
1655.16	3298.29167
1658.144	3212.625
1661.125	3070.625
1664.105	2940.29167
1667.082	2770.95833
1670.057	2640.625
1673.03	2472.29167
1676.001	2330.95833
1678.97	2214.95833
1681.937	2071.95833
1684.901	1937.625
1687.863	1892.29167
1690.824	1813.625
1693.782	1776.29167
1696.738	1690.29167
1699.692	1687.95833
1702.643	1637.625
1705.593	1600.29167
1708.54	1598.625
1711.486	1578.625
1714.429	1539.29167
1717.37	1534.29167
1720.309	1515.29167
1723.246	1522.625
1726.181	1480.29167
1729.113	1476.29167
1732.044	1462.29167
1734.972	1440.95833
1737.899	1421.625
1740.823	1423.95833
1743.745	1432.625
1746.665	1369.625
1749.583	1352.625
1752.499	1332.95833
1755.413	1315.29167
1758.325	1286.29167
1761.235	1291.625
1764.142	1252.625
1767.048	1241.95833
1769.951	1232.29167
1772.852	1229.625
1775.752	1212.625
1778.649	1211.95833
1781.544	1214.29167
1784.437	1192.95833
1787.328	1189.625
1790.217	1186.29167
1793.104	1166.95833
1795.989	1154.625
1798.872	1157.95833
1801.753	1172.29167
1804.631	1158.625
1807.508	1173.95833
1810.383	1168.95833
1813.255	1141.95833
1816.126	1139.95833
1818.994	1141.95833
1821.861	1128.95833
1824.725	1117.625
1827.587	1132.625
1830.448	1103.29167
1833.306	1089.625
1836.162	1097.29167
1839.017	1090.29167
1841.869	1089.29167
1844.719	1092.29167
1847.567	1059.95833
1850.414	1067.29167
1853.258	1060.95833
1856.1	1081.95833
1858.94	1078.625
1861.778	1093.29167
1864.614	1067.625
1867.448	1066.95833
1870.28	1054.625
1873.111	1073.29167
1875.939	1055.29167
1878.765	1085.29167
1881.589	1062.95833
1884.411	1067.95833
1887.231	1061.95833
1890.049	1057.95833
1892.865	1050.95833
1895.68	1023.29167
1898.492	1040.29167
1901.302	1028.625
1904.11	1029.625
1906.916	1012.29167
1909.721	1011.29167
1912.523	1028.625
1915.323	989.95833
1918.122	1017.625
1920.918	1008.29167
1923.712	1012.95833
1926.505	1011.95833
1929.295	991.29167
1932.084	1002.625
1934.87	1002.29167
1937.655	995.95833
1940.438	992.95833
1943.218	986.95833
1945.997	995.625
1948.774	1001.95833
1951.549	999.95833
1954.322	988.29167
1957.093	990.29167
1959.862	984.29167
1962.629	974.95833
1965.394	966.95833
1968.157	950.29167
1970.918	971.29167
1973.678	953.625
1976.435	975.29167
1979.19	963.29167
1981.944	942.625
1984.696	932.29167
1987.445	943.625
1990.193	945.29167
1992.939	960.95833
1995.683	941.95833
1998.425	921.95833
2001.165	957.29167
2003.903	936.95833
2006.639	932.29167
2009.374	933.625
2012.106	921.29167
2014.837	903.95833
2017.566	930.95833
2020.292	930.29167
2023.017	926.29167
2025.74	916.95833
2028.461	910.625
2031.18	909.29167
2033.898	903.29167
2036.613	920.625
2039.327	904.29167
2042.038	900.95833
2044.748	902.29167
2047.456	897.625
2050.162	886.625
2052.866	882.625
2055.568	910.625
2058.268	883.95833
2060.967	890.95833
2063.663	874.29167
2066.358	893.95833
2069.051	882.95833
2071.742	896.625
2074.431	893.625
2077.118	889.29167
2079.804	872.95833
2082.487	888.29167
2085.169	887.29167
2087.849	907.29167
2090.527	882.625
2093.203	894.625
2095.877	907.625
2098.55	905.95833
2101.22	915.95833
2103.889	937.625
2106.556	930.625
2109.221	962.29167
2111.884	959.29167
2114.546	1034.29167
2117.205	1098.625
2119.863	1171.625
2122.519	1288.29167
2125.173	1355.29167
2127.825	1468.95833
2130.475	1492.625
2133.124	1478.95833
2135.771	1420.625
2138.416	1398.625
2141.059	1295.95833
2143.7	1236.29167
2146.339	1182.29167
2148.977	1104.625
2151.613	1084.29167
2154.247	1043.95833
2156.879	1017.95833
2159.51	993.29167
2162.138	972.625
2164.765	985.29167
2167.39	963.95833
2170.013	987.29167
2172.634	974.625
2175.254	960.29167
2177.872	975.95833
2180.488	928.29167
2183.102	936.625
2185.714	912.95833
2188.325	896.29167
2190.934	885.625
2193.541	890.95833
2196.146	880.625
2198.75	840.29167
2201.351	860.29167
2203.951	819.625
2206.549	827.29167
2209.146	822.95833
2211.74	817.625
2214.333	819.625
2216.924	795.625
2219.514	806.625
2222.101	784.29167
2224.687	801.29167
2227.271	775.95833
2229.853	769.95833
2232.433	752.29167
2235.012	781.29167
2237.589	776.625
2240.164	781.625
2242.738	763.95833
2245.309	749.29167
2247.879	774.95833
2250.448	769.29167
2253.014	731.625
2255.579	720.95833
2258.142	724.29167
2260.703	706.625
2263.262	710.95833
2265.82	704.625
2268.376	718.95833
2270.93	696.95833
2273.483	682.95833
2276.033	701.29167
2278.583	690.29167
2281.13	690.625
2283.675	678.29167
2286.219	681.625
2288.761	684.29167
2291.302	683.95833
2293.841	690.29167
2296.377	646.95833
2298.913	655.625
2301.446	674.625
2303.978	657.29167
2306.508	652.29167
2309.037	661.29167
2311.563	668.29167
2314.088	657.625
2316.612	636.95833
2319.133	639.29167
2321.653	641.625
2324.171	650.95833
2326.688	659.625
2329.202	641.625
2331.715	646.95833
2334.227	633.95833
2336.736	637.625
2339.244	631.29167
2341.751	617.95833
2344.255	635.95833
2346.758	617.29167
2349.259	623.625
2351.759	606.29167
2354.257	609.29167
2356.753	613.625
2359.247	621.95833
2361.74	624.95833
2364.231	604.29167
2366.721	613.95833
2369.209	610.95833
2371.695	600.625
2374.179	601.625
2376.662	600.29167
2379.143	619.29167
2381.622	600.95833
2384.1	607.625
2386.576	596.95833
2389.051	608.625
2391.524	615.29167
2393.995	601.95833
2396.464	591.95833
2398.932	583.29167
2401.398	592.95833
2403.863	575.625
2406.325	588.625
2408.787	572.29167
2411.246	586.95833
2413.704	576.625
2416.16	585.95833
2418.615	576.29167
2421.068	590.625
2423.519	580.625
2425.969	574.95833
2428.417	583.95833
2430.863	588.29167
2433.308	586.29167
2435.751	581.95833
2438.193	572.95833
2440.633	572.625
2443.071	567.29167
2445.508	554.29167
2447.943	549.625
2450.376	566.625
2452.808	568.29167
2455.238	553.29167
2457.667	578.95833
2460.093	560.95833
2462.519	545.29167
2464.942	547.625
2467.365	553.625
2469.785	555.95833
2472.204	550.95833
2474.621	534.29167
2477.037	568.95833
2479.451	537.95833
2481.863	536.95833
2484.274	538.29167
2486.683	540.95833
2489.091	548.625
2491.497	546.95833
2493.901	542.95833
2496.304	533.95833
2498.705	547.625
2501.105	535.29167
2503.503	567.625
2505.899	532.29167
2508.294	547.95833
2510.687	523.29167
2513.079	533.95833
2515.469	530.95833
2517.858	526.625
2520.245	537.625
2522.63	511.625
2525.014	515.95833
2527.396	525.29167
2529.776	511.29167
2532.156	526.29167
2534.533	506.29167
2536.909	516.95833
2539.283	495.625
2541.656	509.625
2544.027	532.95833
2546.397	517.95833
2548.765	517.29167
2551.131	512.95833
2553.496	504.95833
2555.86	515.29167
2558.221	515.95833
2560.582	510.625
2562.94	498.95833
2565.298	504.29167
2567.653	515.95833
2570.007	492.95833
2572.36	508.95833
2574.711	496.95833
2577.06	524.625
2579.408	499.95833
2581.754	504.95833
2584.099	502.95833
2586.442	493.625
2588.784	497.29167
2591.124	494.29167
2593.463	499.95833
2595.8	501.29167
2598.135	482.29167
2600.469	490.95833
2602.802	503.625
2605.133	501.29167
2607.462	493.625
2609.79	481.95833
2612.116	493.625
2614.441	493.95833
2616.764	489.625
2619.086	487.29167
2621.406	491.29167
2623.725	505.95833
2626.042	494.625
2628.358	487.29167
2630.672	492.95833
2632.985	504.29167
2635.296	491.625
2637.606	499.95833
2639.914	493.625
2642.22	496.625
2644.525	491.625
2646.829	497.625
2649.131	505.29167
2651.432	504.625
2653.731	505.95833
2656.028	514.95833
2658.324	497.29167
2660.619	489.95833
2662.912	515.29167
2665.204	482.95833
2667.494	505.625
2669.782	497.29167
2672.07	504.29167
2674.355	512.95833
2676.639	498.29167
2678.922	495.29167
2681.203	519.625
2683.483	487.29167
2685.761	488.95833
2688.038	512.29167
2690.313	525.29167
2692.587	515.95833
2694.859	501.29167
2697.13	499.625
2699.399	505.95833
2701.667	520.625
2703.933	523.625
2706.198	516.625
2708.461	534.625
2710.723	532.95833
2712.984	520.625
2715.243	527.625
2717.5	524.625
2719.757	542.95833
2722.011	546.625
2724.264	548.95833
2726.516	571.625
2728.766	550.29167
2731.015	552.95833
2733.262	548.29167
2735.508	542.625
2737.753	534.625
2739.996	510.29167
2742.237	518.625
2744.477	528.95833
2746.716	535.95833
2748.953	524.95833
2751.189	524.625
2753.423	508.625
2755.656	504.625
2757.887	504.95833
2760.117	511.95833
2762.346	503.95833
2764.573	503.29167
2766.798	514.29167
2769.022	510.29167
2771.245	511.95833
2773.467	510.29167
2775.686	522.625
2777.905	513.29167
2780.122	514.625
2782.337	521.29167
2784.552	529.29167
2786.764	542.29167
2788.976	541.625
2791.186	541.29167
2793.394	549.29167
2795.601	560.95833
2797.807	566.29167
2800.011	582.29167
2802.214	591.625
2804.415	583.29167
2806.615	588.625
2808.814	599.29167
2811.011	597.29167
2813.206	605.625
2815.401	622.625
2817.594	644.625
2819.785	657.625
2821.975	652.29167
2824.164	662.29167
2826.351	682.29167
2828.537	698.625
2830.722	717.95833
2832.905	734.625
2835.086	758.29167
2837.267	810.95833
2839.445	834.29167
2841.623	856.29167
2843.799	897.625
2845.974	950.95833
2848.147	996.29167
2850.319	1010.625
2852.489	1039.625
2854.659	1060.29167
2856.826	1077.29167
2858.993	1119.625
2861.158	1096.29167
2863.321	1099.95833
2865.483	1129.625
2867.644	1135.29167
2869.804	1120.625
2871.962	1108.95833
2874.118	1106.625
2876.274	1107.625
2878.428	1091.95833
2880.58	1096.625
2882.731	1082.625
2884.881	1082.625
2887.03	1087.625
2889.177	1087.625
2891.322	1106.625
2893.467	1108.29167
2895.61	1109.625
2897.751	1134.625
2899.892	1123.625
2902.03	1121.29167
2904.168	1146.95833
2906.304	1149.29167
2908.439	1164.625
2910.572	1156.29167
2912.704	1175.625
2914.835	1164.95833
2916.965	1153.95833
2919.093	1185.95833
2921.219	1128.29167
2923.345	1134.95833
2925.469	1108.625
2927.591	1108.95833
2929.712	1068.29167
2931.832	1064.625
2933.951	1044.29167
2936.068	1017.95833
2938.184	986.625
2940.299	952.625
2942.412	913.625
2944.524	879.625
2946.634	865.625
2948.744	795.95833
2950.851	811.29167
2952.958	762.95833
2955.063	751.95833
2957.167	730.95833
2959.269	688.625
2961.371	710.625
2963.471	661.625
2965.569	664.625
2967.666	620.29167
2969.762	610.95833
2971.857	588.95833
2973.95	565.95833
2976.042	562.95833
2978.133	546.95833
2980.222	533.625
2982.31	501.625
2984.396	493.95833
2986.482	495.95833
2988.566	496.29167
2990.648	473.625
2992.73	473.29167
2994.81	463.95833
2996.889	459.625
2998.966	450.625
3001.042	457.625
3003.117	447.95833
3005.191	437.29167
3007.263	429.625
3009.334	434.95833
3011.403	424.29167
3013.472	411.29167
3015.539	403.95833
3017.604	421.625
3019.669	384.625
3021.732	389.625
3023.794	393.29167
3025.854	373.29167
3027.914	371.95833
3029.971	379.625
3032.028	365.625
3034.083	363.625
3036.137	370.625
3038.19	350.29167
3040.242	344.95833
3042.292	333.95833
3044.341	330.625
3046.388	349.29167
3048.435	313.95833
3050.48	339.95833
3052.524	332.29167
3054.566	305.625
3056.607	325.625
3058.647	321.29167
3060.686	296.625
3062.723	287.95833
3064.759	278.95833
3066.794	0.29167
3068.828	-0.70833
3070.86	-2.04167
