-0.839	447.20833
3.438	506.20833
7.711	151.875
11.981	59.20833
16.247	45.20833
20.509	46.54167
24.768	45.54167
29.024	46.54167
33.276	42.20833
37.524	53.20833
41.769	42.54167
46.01	38.875
50.247	52.875
54.481	64.54167
58.712	68.54167
62.939	55.54167
67.162	63.54167
71.382	58.54167
75.599	49.20833
79.812	65.875
84.021	86.20833
88.227	61.875
92.429	70.875
96.628	49.20833
100.823	73.54167
105.015	81.54167
109.204	79.20833
113.388	84.54167
117.57	82.875
121.748	96.20833
125.922	91.20833
130.093	107.875
134.261	112.20833
138.425	110.875
142.585	155.20833
146.742	157.20833
150.896	185.20833
155.046	228.875
159.193	364.875
163.336	619.54167
167.476	1151.875
171.613	2112.54167
175.746	3551.54167
179.875	5331.54167
184.002	7040.875
188.124	8253.54167
192.244	8694.20833
196.36	8666.875
200.472	8479.54167
204.581	8255.20833
208.687	8097.54167
212.79	8026.875
216.889	7993.875
220.984	8119.875
225.077	8206.20833
229.165	8309.54167
233.251	8390.875
237.333	8479.54167
241.412	8531.54167
245.487	8477.54167
249.559	8383.875
253.628	8268.20833
257.694	8221.875
261.756	8142.54167
265.814	7984.54167
269.87	7767.875
273.922	7501.20833
277.97	7301.20833
282.016	7168.875
286.058	7094.20833
290.097	7055.54167
294.132	7046.20833
298.164	6966.54167
302.193	6693.875
306.219	6230.875
310.241	5704.54167
314.26	5180.54167
318.276	4756.54167
322.288	4465.20833
326.297	4235.875
330.303	4031.20833
334.305	3935.875
338.305	3837.54167
342.301	3792.20833
346.294	3737.54167
350.283	3724.20833
354.269	3699.54167
358.252	3655.20833
362.232	3601.20833
366.209	3605.20833
370.182	3567.54167
374.152	3565.54167
378.119	3551.875
382.083	3550.54167
386.043	3590.875
390	3517.20833
393.954	3498.54167
397.905	3490.875
401.852	3431.54167
405.797	3412.875
409.738	3352.20833
413.676	3354.54167
417.61	3328.54167
421.542	3298.875
425.47	3278.875
429.396	3209.875
433.318	3200.875
437.236	3184.54167
441.152	3213.875
445.065	3132.20833
448.974	3139.875
452.88	3074.54167
456.783	3064.875
460.683	3066.20833
464.58	3064.54167
468.473	3091.54167
472.364	3055.20833
476.251	3067.54167
480.135	3108.54167
484.016	3136.875
487.894	3157.875
491.769	3157.20833
495.641	3155.54167
499.509	3150.875
503.375	3132.875
507.237	3149.20833
511.096	3123.875
514.952	3134.20833
518.805	3104.875
522.655	3099.54167
526.502	3100.54167
530.346	3105.54167
534.187	3117.875
538.024	3111.875
541.859	3121.20833
545.69	3153.20833
549.519	3108.20833
553.344	3096.875
557.166	3062.20833
560.985	3050.875
564.802	2973.875
568.615	2944.20833
572.425	2914.54167
576.232	2892.875
580.036	2858.20833
583.836	2877.54167
587.634	2894.20833
591.429	2890.875
595.221	2934.875
599.01	2963.54167
602.796	3010.54167
606.578	3025.54167
610.358	3039.54167
614.135	3016.54167
617.909	3015.20833
621.679	3026.20833
625.447	2985.54167
629.212	2993.20833
632.973	2988.54167
636.732	2993.875
640.488	2982.875
644.241	2926.20833
647.991	2941.20833
651.737	2974.20833
655.481	2932.875
659.222	2974.54167
662.96	2973.54167
666.695	2989.20833
670.427	2979.20833
674.156	3006.20833
677.882	2984.54167
681.605	2960.54167
685.325	2953.20833
689.043	2952.54167
692.757	2927.54167
696.468	2951.875
700.177	2948.875
703.882	2931.875
707.585	2945.54167
711.284	2939.54167
714.981	2936.875
718.675	2952.54167
722.366	2962.54167
726.054	2949.875
729.739	2959.20833
733.421	2940.20833
737.1	2928.54167
740.777	2945.20833
744.45	2963.875
748.121	2988.875
751.789	3049.54167
755.453	3054.875
759.115	3054.875
762.774	3094.875
766.431	3106.54167
770.084	3143.875
773.734	3193.54167
777.382	3221.54167
781.027	3252.54167
784.669	3262.875
788.308	3274.20833
791.944	3314.875
795.577	3324.875
799.208	3362.20833
802.835	3408.20833
806.46	3402.54167
810.082	3442.875
813.701	3486.20833
817.317	3497.54167
820.931	3493.54167
824.542	3491.875
828.149	3449.20833
831.754	3401.875
835.357	3374.54167
838.956	3357.20833
842.553	3342.54167
846.146	3340.20833
849.737	3337.20833
853.326	3327.54167
856.911	3318.54167
860.493	3374.20833
864.073	3394.20833
867.65	3438.875
871.225	3473.54167
874.796	3462.875
878.365	3509.20833
881.931	3530.875
885.494	3556.54167
889.054	3517.20833
892.612	3531.20833
896.166	3518.875
899.719	3476.20833
903.268	3463.20833
906.814	3433.20833
910.358	3423.54167
913.899	3405.20833
917.438	3417.54167
920.973	3393.54167
924.506	3445.20833
928.036	3499.875
931.564	3542.20833
935.088	3579.875
938.61	3600.54167
942.129	3625.875
945.646	3705.54167
949.16	3778.20833
952.671	3863.875
956.179	3935.20833
959.685	3909.54167
963.188	3909.54167
966.688	3879.20833
970.185	3745.875
973.68	3636.875
977.173	3616.875
980.662	3602.54167
984.149	3608.20833
987.633	3618.875
991.114	3666.54167
994.593	3767.54167
998.069	3858.54167
1001.542	3998.20833
1005.013	3923.54167
1008.481	3712.54167
1011.947	3650.54167
1015.409	3628.875
1018.869	3624.54167
1022.327	3615.54167
1025.782	3589.875
1029.234	3598.875
1032.683	3544.20833
1036.13	3439.875
1039.574	3317.20833
1043.016	3224.54167
1046.455	3168.54167
1049.891	3122.875
1053.325	3128.875
1056.756	3162.875
1060.184	3163.20833
1063.61	3184.20833
1067.033	3185.20833
1070.454	3187.875
1073.872	3235.20833
1077.287	3225.54167
1080.7	3252.20833
1084.11	3266.875
1087.517	3243.875
1090.922	3191.54167
1094.325	3153.20833
1097.724	3104.875
1101.122	3134.54167
1104.516	3103.875
1107.908	3080.20833
1111.298	3155.875
1114.684	3209.875
1118.069	3243.20833
1121.45	3249.20833
1124.83	3246.54167
1128.206	3267.20833
1131.58	3303.875
1134.951	3400.54167
1138.32	3522.54167
1141.687	3659.875
1145.05	3725.20833
1148.412	3784.54167
1151.77	3764.20833
1155.126	3741.20833
1158.48	3725.875
1161.831	3726.875
1165.18	3740.54167
1168.525	3781.875
1171.869	3860.54167
1175.21	3875.875
1178.548	3929.54167
1181.884	3963.875
1185.217	3999.875
1188.548	4060.20833
1191.877	4128.875
1195.202	4234.875
1198.526	4275.54167
1201.846	4313.54167
1205.165	4336.54167
1208.48	4310.54167
1211.794	4304.875
1215.104	4312.20833
1218.413	4311.54167
1221.719	4308.54167
1225.022	4284.875
1228.323	4274.875
1231.621	4228.54167
1234.917	4193.54167
1238.21	4245.54167
1241.501	4197.875
1244.79	4185.875
1248.076	4187.875
1251.359	4247.875
1254.64	4296.54167
1257.919	4358.54167
1261.195	4413.54167
1264.468	4491.20833
1267.74	4584.54167
1271.008	4566.875
1274.275	4550.20833
1277.538	4520.20833
1280.8	4481.54167
1284.059	4511.875
1287.315	4558.875
1290.569	4560.20833
1293.821	4573.54167
1297.07	4625.875
1300.317	4629.20833
1303.562	4603.20833
1306.803	4571.20833
1310.043	4515.54167
1313.28	4508.20833
1316.515	4448.54167
1319.747	4413.54167
1322.977	4371.54167
1326.204	4309.20833
1329.429	4219.20833
1332.652	4223.54167
1335.872	4246.875
1339.09	4209.875
1342.306	4213.54167
1345.519	4170.20833
1348.729	4139.875
1351.938	4157.54167
1355.144	4099.875
1358.347	4053.875
1361.548	4023.875
1364.747	4043.875
1367.944	4031.875
1371.138	4046.20833
1374.329	4071.54167
1377.518	4145.54167
1380.705	4182.875
1383.89	4176.875
1387.072	4052.54167
1390.252	3890.54167
1393.429	3729.875
1396.605	3604.20833
1399.777	3482.875
1402.948	3468.20833
1406.116	3432.54167
1409.282	3449.54167
1412.445	3415.20833
1415.606	3489.54167
1418.765	3534.54167
1421.921	3588.875
1425.075	3686.20833
1428.227	3805.20833
1431.376	3964.54167
1434.524	4114.875
1437.668	4221.875
1440.811	4254.20833
1443.951	4295.20833
1447.089	4311.54167
1450.224	4309.54167
1453.357	4274.875
1456.488	4260.54167
1459.617	4164.875
1462.743	4114.875
1465.867	4033.875
1468.989	4002.54167
1472.108	3891.875
1475.225	3838.54167
1478.34	3799.20833
1481.453	3779.54167
1484.563	3800.20833
1487.671	3829.54167
1490.776	3910.20833
1493.88	3988.54167
1496.981	4076.875
1500.08	4150.875
1503.176	4176.54167
1506.271	4263.54167
1509.363	4328.54167
1512.452	4388.875
1515.54	4493.875
1518.625	4571.875
1521.708	4753.54167
1524.789	4985.20833
1527.867	5254.20833
1530.944	5572.54167
1534.018	5803.875
1537.089	5952.875
1540.159	5894.875
1543.226	5739.20833
1546.291	5550.54167
1549.354	5371.875
1552.415	5204.875
1555.473	5057.875
1558.529	4972.875
1561.583	4899.54167
1564.634	4872.54167
1567.684	4854.54167
1570.731	4884.875
1573.776	4913.875
1576.819	4964.875
1579.859	5033.20833
1582.898	5079.20833
1585.934	5124.20833
1588.968	5121.875
1591.999	5113.875
1595.029	5119.875
1598.056	5137.20833
1601.081	5141.54167
1604.104	5148.54167
1607.125	5126.875
1610.144	4993.875
1613.16	4922.54167
1616.174	4811.54167
1619.186	4717.20833
1622.196	4627.54167
1625.203	4527.20833
1628.209	4466.875
1631.212	4440.20833
1634.213	4424.54167
1637.212	4443.54167
1640.209	4392.54167
1643.203	4309.20833
1646.196	4158.54167
1649.186	3981.20833
1652.174	3869.54167
1655.16	3754.54167
1658.144	3667.20833
1661.125	3505.20833
1664.105	3331.54167
1667.082	3190.20833
1670.057	3020.54167
1673.03	2825.54167
1676.001	2626.875
1678.97	2455.54167
1681.937	2294.20833
1684.901	2154.875
1687.863	2100.54167
1690.824	2001.875
1693.782	1985.875
1696.738	1885.20833
1699.692	1861.54167
1702.643	1811.20833
1705.593	1794.875
1708.54	1764.20833
1711.486	1763.20833
1714.429	1712.54167
1717.37	1698.54167
1720.309	1683.875
1723.246	1668.54167
1726.181	1630.20833
1729.113	1647.54167
1732.044	1625.875
1734.972	1604.54167
1737.899	1601.54167
1740.823	1608.20833
1743.745	1580.54167
1746.665	1527.20833
1749.583	1520.20833
1752.499	1496.20833
1755.413	1471.20833
1758.325	1457.20833
1761.235	1428.875
1764.142	1441.20833
1767.048	1409.20833
1769.951	1384.54167
1772.852	1382.875
1775.752	1376.875
1778.649	1386.875
1781.544	1383.54167
1784.437	1352.20833
1787.328	1346.875
1790.217	1340.875
1793.104	1318.54167
1795.989	1311.20833
1798.872	1312.20833
1801.753	1347.875
1804.631	1318.54167
1807.508	1320.54167
1810.383	1312.20833
1813.255	1299.54167
1816.126	1290.54167
1818.994	1278.20833
1821.861	1275.875
1824.725	1276.54167
1827.587	1269.20833
1830.448	1264.875
1833.306	1235.20833
1836.162	1249.20833
1839.017	1236.875
1841.869	1245.875
1844.719	1237.20833
1847.567	1227.20833
1850.414	1208.54167
1853.258	1208.875
1856.1	1234.875
1858.94	1230.20833
1861.778	1215.20833
1864.614	1201.875
1867.448	1217.20833
1870.28	1198.875
1873.111	1220.54167
1875.939	1201.20833
1878.765	1235.54167
1881.589	1216.20833
1884.411	1191.875
1887.231	1208.54167
1890.049	1195.20833
1892.865	1196.20833
1895.68	1176.54167
1898.492	1181.54167
1901.302	1163.54167
1904.11	1158.20833
1906.916	1152.875
1909.721	1146.20833
1912.523	1148.875
1915.323	1128.54167
1918.122	1136.20833
1920.918	1141.875
1923.712	1131.875
1926.505	1142.875
1929.295	1119.875
1932.084	1146.54167
1934.87	1137.875
1937.655	1119.54167
1940.438	1118.20833
1943.218	1113.54167
1945.997	1126.875
1948.774	1143.54167
1951.549	1141.20833
1954.322	1127.875
1957.093	1117.875
1959.862	1090.875
1962.629	1105.875
1965.394	1092.54167
1968.157	1093.20833
1970.918	1099.875
1973.678	1073.54167
1976.435	1090.54167
1979.19	1079.54167
1981.944	1070.875
1984.696	1051.20833
1987.445	1070.875
1990.193	1064.875
1992.939	1080.875
1995.683	1061.875
1998.425	1043.54167
2001.165	1085.20833
2003.903	1052.875
2006.639	1052.20833
2009.374	1051.20833
2012.106	1066.20833
2014.837	1031.875
2017.566	1050.54167
2020.292	1055.875
2023.017	1053.20833
2025.74	1020.20833
2028.461	1023.54167
2031.18	1032.20833
2033.898	1023.20833
2036.613	1026.875
2039.327	1011.54167
2042.038	1012.54167
2044.748	1007.54167
2047.456	1016.20833
2050.162	1003.20833
2052.866	1009.875
2055.568	1011.54167
2058.268	1006.54167
2060.967	1007.875
2063.663	975.20833
2066.358	1010.54167
2069.051	987.20833
2071.742	996.875
2074.431	1008.20833
2077.118	993.54167
2079.804	982.875
2082.487	996.875
2085.169	1000.54167
2087.849	1006.54167
2090.527	993.20833
2093.203	994.875
2095.877	1011.20833
2098.55	1017.20833
2101.22	1017.20833
2103.889	1035.54167
2106.556	1037.54167
2109.221	1066.20833
2111.884	1086.54167
2114.546	1155.54167
2117.205	1219.54167
2119.863	1318.875
2122.519	1418.20833
2125.173	1485.54167
2127.825	1624.54167
2130.475	1641.20833
2133.124	1617.54167
2135.771	1571.20833
2138.416	1523.20833
2141.059	1429.20833
2143.7	1383.20833
2146.339	1281.20833
2148.977	1206.54167
2151.613	1187.875
2154.247	1165.20833
2156.879	1138.54167
2159.51	1113.20833
2162.138	1099.20833
2164.765	1093.875
2167.39	1080.875
2170.013	1096.20833
2172.634	1097.54167
2175.254	1077.20833
2177.872	1102.875
2180.488	1075.20833
2183.102	1062.20833
2185.714	1043.875
2188.325	1019.54167
2190.934	1006.875
2193.541	987.20833
2196.146	975.54167
2198.75	941.875
2201.351	953.54167
2203.951	927.20833
2206.549	915.875
2209.146	901.875
2211.74	904.20833
2214.333	909.54167
2216.924	878.20833
2219.514	883.54167
2222.101	870.54167
2224.687	891.875
2227.271	876.20833
2229.853	869.20833
2232.433	844.20833
2235.012	871.20833
2237.589	863.54167
2240.164	870.875
2242.738	858.54167
2245.309	839.20833
2247.879	843.20833
2250.448	842.54167
2253.014	820.54167
2255.579	801.20833
2258.142	800.20833
2260.703	793.875
2263.262	799.875
2265.82	782.20833
2268.376	793.875
2270.93	781.875
2273.483	766.875
2276.033	780.875
2278.583	763.20833
2281.13	760.54167
2283.675	746.20833
2286.219	752.875
2288.761	751.20833
2291.302	762.54167
2293.841	751.875
2296.377	733.54167
2298.913	738.875
2301.446	755.875
2303.978	742.54167
2306.508	725.20833
2309.037	734.20833
2311.563	739.20833
2314.088	722.54167
2316.612	716.875
2319.133	723.875
2321.653	717.875
2324.171	704.54167
2326.688	715.20833
2329.202	706.20833
2331.715	715.20833
2334.227	708.875
2336.736	697.20833
2339.244	696.875
2341.751	685.54167
2344.255	700.54167
2346.758	688.54167
2349.259	691.20833
2351.759	671.20833
2354.257	678.54167
2356.753	686.875
2359.247	679.54167
2361.74	675.875
2364.231	664.875
2366.721	678.20833
2369.209	661.875
2371.695	666.875
2374.179	669.875
2376.662	663.54167
2379.143	678.875
2381.622	660.875
2384.1	656.54167
2386.576	661.54167
2389.051	670.20833
2391.524	667.875
2393.995	669.875
2396.464	657.20833
2398.932	647.54167
2401.398	662.875
2403.863	654.875
2406.325	644.54167
2408.787	650.875
2411.246	649.54167
2413.704	620.54167
2416.16	635.54167
2418.615	641.20833
2421.068	647.875
2423.519	627.875
2425.969	626.54167
2428.417	640.875
2430.863	640.875
2433.308	643.54167
2435.751	636.20833
2438.193	628.20833
2440.633	634.875
2443.071	629.54167
2445.508	614.54167
2447.943	620.875
2450.376	601.875
2452.808	616.875
2455.238	610.20833
2457.667	641.875
2460.093	617.20833
2462.519	606.20833
2464.942	603.20833
2467.365	619.54167
2469.785	603.875
2472.204	599.875
2474.621	601.875
2477.037	608.875
2479.451	593.875
2481.863	595.875
2484.274	587.54167
2486.683	593.20833
2489.091	592.20833
2491.497	602.54167
2493.901	584.20833
2496.304	591.875
2498.705	597.20833
2501.105	577.20833
2503.503	604.20833
2505.899	576.875
2508.294	595.54167
2510.687	571.875
2513.079	572.20833
2515.469	564.54167
2517.858	578.875
2520.245	585.875
2522.63	560.54167
2525.014	556.54167
2527.396	570.54167
2529.776	554.875
2532.156	569.54167
2534.533	554.20833
2536.909	565.54167
2539.283	544.20833
2541.656	552.20833
2544.027	565.875
2546.397	548.54167
2548.765	549.54167
2551.131	553.20833
2553.496	562.875
2555.86	552.20833
2558.221	560.875
2560.582	545.875
2562.94	530.20833
2565.298	535.20833
2567.653	567.20833
2570.007	529.54167
2572.36	550.875
2574.711	524.875
2577.06	565.875
2579.408	548.20833
2581.754	538.875
2584.099	535.875
2586.442	539.20833
2588.784	547.54167
2591.124	549.875
2593.463	536.875
2595.8	535.875
2598.135	521.20833
2600.469	528.875
2602.802	542.875
2605.133	558.20833
2607.462	520.20833
2609.79	526.54167
2612.116	531.875
2614.441	536.54167
2616.764	527.20833
2619.086	531.20833
2621.406	520.20833
2623.725	532.875
2626.042	518.875
2628.358	515.54167
2630.672	521.20833
2632.985	541.20833
2635.296	525.875
2637.606	532.20833
2639.914	514.875
2642.22	521.54167
2644.525	520.54167
2646.829	537.54167
2649.131	536.20833
2651.432	529.54167
2653.731	526.875
2656.028	542.875
2658.324	526.20833
2660.619	522.875
2662.912	537.54167
2665.204	525.875
2667.494	527.54167
2669.782	522.20833
2672.07	542.875
2674.355	546.20833
2676.639	529.54167
2678.922	523.54167
2681.203	535.875
2683.483	505.54167
2685.761	521.54167
2688.038	529.20833
2690.313	542.20833
2692.587	530.875
2694.859	527.54167
2697.13	532.875
2699.399	537.54167
2701.667	558.875
2703.933	542.20833
2706.198	553.20833
2708.461	552.54167
2710.723	557.20833
2712.984	556.875
2715.243	564.20833
2717.5	560.54167
2719.757	569.20833
2722.011	562.875
2724.264	582.54167
2726.516	590.20833
2728.766	571.20833
2731.015	572.54167
2733.262	563.54167
2735.508	555.54167
2737.753	569.875
2739.996	549.20833
2742.237	544.875
2744.477	553.875
2746.716	542.875
2748.953	539.20833
2751.189	551.54167
2753.423	535.875
2755.656	523.875
2757.887	529.20833
2760.117	527.875
2762.346	526.875
2764.573	527.54167
2766.798	512.875
2769.022	528.20833
2771.245	524.54167
2773.467	529.875
2775.686	534.20833
2777.905	534.875
2780.122	542.875
2782.337	547.875
2784.552	551.875
2786.764	560.54167
2788.976	550.20833
2791.186	562.54167
2793.394	560.875
2795.601	572.54167
2797.807	588.875
2800.011	580.20833
2802.214	609.20833
2804.415	598.875
2806.615	602.875
2808.814	622.54167
2811.011	625.54167
2813.206	640.20833
2815.401	639.20833
2817.594	667.20833
2819.785	672.54167
2821.975	651.20833
2824.164	675.875
2826.351	703.54167
2828.537	725.54167
2830.722	741.20833
2832.905	753.54167
2835.086	786.875
2837.267	827.20833
2839.445	859.875
2841.623	887.54167
2843.799	936.54167
2845.974	990.20833
2848.147	1037.54167
2850.319	1056.20833
2852.489	1112.20833
2854.659	1114.875
2856.826	1139.20833
2858.993	1180.875
2861.158	1149.875
2863.321	1141.875
2865.483	1169.20833
2867.644	1181.875
2869.804	1174.20833
2871.962	1171.54167
2874.118	1167.20833
2876.274	1168.20833
2878.428	1148.875
2880.58	1160.20833
2882.731	1143.20833
2884.881	1148.20833
2887.03	1158.875
2889.177	1161.20833
2891.322	1171.54167
2893.467	1164.875
2895.61	1160.54167
2897.751	1197.20833
2899.892	1191.875
2902.03	1197.20833
2904.168	1220.20833
2906.304	1204.875
2908.439	1249.54167
2910.572	1218.20833
2912.704	1235.54167
2914.835	1227.20833
2916.965	1231.20833
2919.093	1256.54167
2921.219	1197.875
2923.345	1220.875
2925.469	1190.875
2927.591	1186.20833
2929.712	1134.54167
2931.832	1138.875
2933.951	1098.20833
2936.068	1079.875
2938.184	1037.54167
2940.299	1002.20833
2942.412	966.54167
2944.524	912.875
2946.634	892.20833
2948.744	836.875
2950.851	845.875
2952.958	809.54167
2955.063	776.875
2957.167	769.875
2959.269	727.875
2961.371	749.54167
2963.471	688.20833
2965.569	676.54167
2967.666	661.20833
2969.762	635.54167
2971.857	616.54167
2973.95	600.20833
2976.042	594.875
2978.133	568.875
2980.222	554.20833
2982.31	521.54167
2984.396	496.20833
2986.482	500.20833
2988.566	501.875
2990.648	485.54167
2992.73	486.54167
2994.81	469.20833
2996.889	466.54167
2998.966	452.54167
3001.042	465.54167
3003.117	448.20833
3005.191	448.875
3007.263	440.20833
3009.334	429.875
3011.403	434.20833
3013.472	411.20833
3015.539	409.20833
3017.604	418.54167
3019.669	378.875
3021.732	382.875
3023.794	391.54167
3025.854	369.875
3027.914	368.875
3029.971	371.875
3032.028	368.20833
3034.083	381.20833
3036.137	371.20833
3038.19	345.20833
3040.242	341.875
3042.292	322.875
3044.341	324.20833
3046.388	336.54167
3048.435	311.54167
3050.48	335.20833
3052.524	318.54167
3054.566	310.20833
3056.607	318.54167
3058.647	308.875
3060.686	291.20833
3062.723	293.875
3064.759	272.54167
3066.794	-0.45833
3068.828	-0.45833
3070.86	-1.45833
