-0.839	435.16667
3.438	490.83333
7.711	145.83333
11.981	53.16667
16.247	49.83333
20.509	45.5
24.768	45.5
29.024	52.16667
33.276	43.16667
37.524	51.83333
41.769	43.16667
46.01	37.16667
50.247	50.5
54.481	64.5
58.712	69.5
62.939	54.5
67.162	62.83333
71.382	60.16667
75.599	52.16667
79.812	67.5
84.021	84.16667
88.227	61.5
92.429	67.83333
96.628	50.5
100.823	71.5
105.015	77.83333
109.204	80.16667
113.388	81.5
117.57	78.5
121.748	91.16667
125.922	84.5
130.093	110.16667
134.261	109.16667
138.425	109.83333
142.585	154.83333
146.742	152.16667
150.896	182.5
155.046	226.16667
159.193	362.5
163.336	613.83333
167.476	1128.5
171.613	2083.5
175.746	3508.83333
179.875	5295.5
184.002	6967.16667
188.124	8150.5
192.244	8525.83333
196.36	8472.83333
200.472	8255.16667
204.581	8053.83333
208.687	7850.5
212.79	7805.5
216.889	7814.83333
220.984	7876.83333
225.077	8002.83333
229.165	8103.16667
233.251	8221.5
237.333	8293.83333
241.412	8310.5
245.487	8239.83333
249.559	8147.83333
253.628	8030.5
257.694	8003.16667
261.756	7921.5
265.814	7749.16667
269.87	7508.83333
273.922	7258.16667
277.97	7123.83333
282.016	6991.16667
286.058	6907.16667
290.097	6925.83333
294.132	6908.16667
298.164	6802.83333
302.193	6498.83333
306.219	6010.16667
310.241	5448.5
314.26	4971.5
318.276	4564.16667
322.288	4270.16667
326.297	3989.83333
330.303	3830.5
334.305	3746.83333
338.305	3636.5
342.301	3587.83333
346.294	3506.5
350.283	3476.5
354.269	3453.5
358.252	3427.5
362.232	3400.83333
366.209	3340.16667
370.182	3340.5
374.152	3321.5
378.119	3330.5
382.083	3312.16667
386.043	3316.5
390	3269.16667
393.954	3274.16667
397.905	3220.5
401.852	3226.83333
405.797	3164.5
409.738	3107.83333
413.676	3107.5
417.61	3070.5
421.542	3063.16667
425.47	3021.5
429.396	2979.5
433.318	2984.83333
437.236	2968.83333
441.152	2962.16667
445.065	2912.5
448.974	2891.83333
452.88	2850.83333
456.783	2863.16667
460.683	2810.83333
464.58	2816.16667
468.473	2814.83333
472.364	2837.5
476.251	2855.83333
480.135	2860.5
484.016	2898.5
487.894	2936.16667
491.769	2924.16667
495.641	2923.83333
499.509	2929.16667
503.375	2920.83333
507.237	2891.83333
511.096	2882.16667
514.952	2906.83333
518.805	2892.83333
522.655	2891.5
526.502	2873.5
530.346	2879.16667
534.187	2887.5
538.024	2921.5
541.859	2902.16667
545.69	2960.83333
549.519	2913.83333
553.344	2888.5
557.166	2843.16667
560.985	2832.83333
564.802	2795.16667
568.615	2746.16667
572.425	2703.5
576.232	2694.16667
580.036	2668.16667
583.836	2693.5
587.634	2691.5
591.429	2673.16667
595.221	2745.5
599.01	2758.5
602.796	2779.16667
606.578	2842.83333
610.358	2846.83333
614.135	2824.16667
617.909	2796.83333
621.679	2791.5
625.447	2780.5
629.212	2767.16667
632.973	2782.5
636.732	2773.83333
640.488	2780.5
644.241	2747.5
647.991	2748.83333
651.737	2770.83333
655.481	2720.5
659.222	2730.16667
662.96	2724.5
666.695	2741.5
670.427	2761.83333
674.156	2781.83333
677.882	2777.16667
681.605	2779.5
685.325	2734.16667
689.043	2748.83333
692.757	2735.83333
696.468	2740.5
700.177	2746.83333
703.882	2729.5
707.585	2720.5
711.284	2726.83333
714.981	2734.16667
718.675	2746.5
722.366	2757.83333
726.054	2748.83333
729.739	2736.5
733.421	2721.16667
737.1	2730.83333
740.777	2748.83333
744.45	2751.5
748.121	2804.5
751.789	2859.16667
755.453	2857.83333
759.115	2861.5
762.774	2905.83333
766.431	2926.16667
770.084	2940.16667
773.734	2976.5
777.382	3049.83333
781.027	3064.83333
784.669	3079.5
788.308	3099.83333
791.944	3143.5
795.577	3153.16667
799.208	3174.83333
802.835	3187.16667
806.46	3234.83333
810.082	3245.16667
813.701	3277.83333
817.317	3271.83333
820.931	3302.83333
824.542	3303.83333
828.149	3274.5
831.754	3220.16667
835.357	3224.16667
838.956	3204.16667
842.553	3201.83333
846.146	3186.5
849.737	3165.16667
853.326	3186.5
856.911	3191.83333
860.493	3250.5
864.073	3262.5
867.65	3300.83333
871.225	3351.16667
874.796	3377.83333
878.365	3372.16667
881.931	3397.5
885.494	3423.16667
889.054	3413.83333
892.612	3406.16667
896.166	3400.5
899.719	3324.16667
903.268	3318.83333
906.814	3294.83333
910.358	3288.83333
913.899	3270.5
917.438	3266.5
920.973	3279.16667
924.506	3300.83333
928.036	3364.83333
931.564	3388.5
935.088	3427.5
938.61	3449.16667
942.129	3471.16667
945.646	3545.83333
949.16	3642.83333
952.671	3736.83333
956.179	3781.16667
959.685	3717.5
963.188	3723.16667
966.688	3654.16667
970.185	3547.16667
973.68	3481.83333
977.173	3455.5
980.662	3428.83333
984.149	3429.83333
987.633	3427.83333
991.114	3502.83333
994.593	3586.5
998.069	3714.83333
1001.542	3832.16667
1005.013	3739.5
1008.481	3541.5
1011.947	3490.5
1015.409	3472.83333
1018.869	3480.5
1022.327	3452.16667
1025.782	3435.83333
1029.234	3422.16667
1032.683	3392.83333
1036.13	3290.16667
1039.574	3124.83333
1043.016	3070.5
1046.455	3011.83333
1049.891	2957.5
1053.325	2985.83333
1056.756	2991.83333
1060.184	3031.83333
1063.61	3022.5
1067.033	3034.83333
1070.454	3045.5
1073.872	3061.5
1077.287	3092.5
1080.7	3082.83333
1084.11	3107.83333
1087.517	3072.5
1090.922	3023.83333
1094.325	3004.5
1097.724	2973.5
1101.122	2980.16667
1104.516	2972.16667
1107.908	2988.83333
1111.298	3049.5
1114.684	3081.16667
1118.069	3117.16667
1121.45	3146.16667
1124.83	3129.83333
1128.206	3166.83333
1131.58	3204.16667
1134.951	3292.5
1138.32	3405.5
1141.687	3517.16667
1145.05	3621.16667
1148.412	3649.5
1151.77	3667.5
1155.126	3638.5
1158.48	3648.5
1161.831	3649.5
1165.18	3681.5
1168.525	3730.83333
1171.869	3796.16667
1175.21	3827.16667
1178.548	3885.83333
1181.884	3924.5
1185.217	3962.16667
1188.548	4002.5
1191.877	4076.16667
1195.202	4168.83333
1198.526	4221.16667
1201.846	4236.16667
1205.165	4245.16667
1208.48	4197.16667
1211.794	4207.16667
1215.104	4189.16667
1218.413	4201.5
1221.719	4228.16667
1225.022	4166.5
1228.323	4128.83333
1231.621	4120.83333
1234.917	4096.83333
1238.21	4105.5
1241.501	4117.5
1244.79	4087.83333
1248.076	4100.5
1251.359	4124.83333
1254.64	4233.83333
1257.919	4277.5
1261.195	4324.16667
1264.468	4400.5
1267.74	4486.16667
1271.008	4470.83333
1274.275	4474.83333
1277.538	4403.16667
1280.8	4396.16667
1284.059	4397.5
1287.315	4449.83333
1290.569	4470.5
1293.821	4496.5
1297.07	4524.16667
1300.317	4521.83333
1303.562	4505.16667
1306.803	4487.16667
1310.043	4438.5
1313.28	4372.5
1316.515	4335.16667
1319.747	4302.83333
1322.977	4224.16667
1326.204	4166.83333
1329.429	4119.16667
1332.652	4041.83333
1335.872	4052.16667
1339.09	4024.16667
1342.306	4013.16667
1345.519	4009.83333
1348.729	3959.16667
1351.938	3971.83333
1355.144	3887.83333
1358.347	3850.16667
1361.548	3838.16667
1364.747	3868.83333
1367.944	3842.5
1371.138	3900.16667
1374.329	3934.83333
1377.518	3972.83333
1380.705	4018.5
1383.89	4001.16667
1387.072	3878.16667
1390.252	3741.16667
1393.429	3607.16667
1396.605	3475.16667
1399.777	3381.5
1402.948	3318.16667
1406.116	3332.83333
1409.282	3319.16667
1412.445	3339.16667
1415.606	3352.16667
1418.765	3386.83333
1421.921	3463.83333
1425.075	3565.5
1428.227	3707.16667
1431.376	3884.83333
1434.524	3998.83333
1437.668	4119.5
1440.811	4125.83333
1443.951	4187.5
1447.089	4200.5
1450.224	4181.16667
1453.357	4180.16667
1456.488	4133.16667
1459.617	4045.83333
1462.743	4008.5
1465.867	3931.16667
1468.989	3879.16667
1472.108	3807.5
1475.225	3744.16667
1478.34	3704.5
1481.453	3683.5
1484.563	3721.83333
1487.671	3774.5
1490.776	3839.5
1493.88	3914.16667
1496.981	4039.83333
1500.08	4104.5
1503.176	4170.5
1506.271	4240.16667
1509.363	4305.16667
1512.452	4356.83333
1515.54	4427.83333
1518.625	4545.16667
1521.708	4701.5
1524.789	4917.16667
1527.867	5200.5
1530.944	5485.5
1534.018	5779.5
1537.089	5933.16667
1540.159	5860.5
1543.226	5750.16667
1546.291	5554.5
1549.354	5410.16667
1552.415	5188.5
1555.473	5097.83333
1558.529	5003.16667
1561.583	4922.83333
1564.634	4860.5
1567.684	4869.5
1570.731	4874.83333
1573.776	4942.83333
1576.819	4975.5
1579.859	4988.16667
1582.898	5108.5
1585.934	5135.16667
1588.968	5148.83333
1591.999	5140.5
1595.029	5136.5
1598.056	5144.83333
1601.081	5182.5
1604.104	5168.16667
1607.125	5115.83333
1610.144	5008.16667
1613.16	4882.16667
1616.174	4793.5
1619.186	4669.83333
1622.196	4558.5
1625.203	4413.5
1628.209	4357.83333
1631.212	4308.5
1634.213	4250.5
1637.212	4230.16667
1640.209	4142.16667
1643.203	4066.5
1646.196	3936.16667
1649.186	3781.5
1652.174	3662.5
1655.16	3535.16667
1658.144	3466.5
1661.125	3265.16667
1664.105	3124.83333
1667.082	2989.83333
1670.057	2835.83333
1673.03	2666.5
1676.001	2487.83333
1678.97	2326.16667
1681.937	2174.5
1684.901	2074.5
1687.863	2015.16667
1690.824	1899.16667
1693.782	1844.5
1696.738	1807.5
1699.692	1781.16667
1702.643	1720.16667
1705.593	1691.5
1708.54	1656.5
1711.486	1680.83333
1714.429	1617.16667
1717.37	1618.83333
1720.309	1584.16667
1723.246	1598.5
1726.181	1551.16667
1729.113	1546.16667
1732.044	1541.5
1734.972	1512.83333
1737.899	1506.5
1740.823	1499.16667
1743.745	1503.16667
1746.665	1460.83333
1749.583	1425.5
1752.499	1403.83333
1755.413	1388.83333
1758.325	1359.16667
1761.235	1363.5
1764.142	1317.16667
1767.048	1318.16667
1769.951	1318.83333
1772.852	1284.16667
1775.752	1292.83333
1778.649	1281.83333
1781.544	1285.83333
1784.437	1253.5
1787.328	1268.83333
1790.217	1259.83333
1793.104	1218.83333
1795.989	1233.16667
1798.872	1219.16667
1801.753	1235.16667
1804.631	1226.83333
1807.508	1226.16667
1810.383	1214.5
1813.255	1217.16667
1816.126	1218.16667
1818.994	1205.5
1821.861	1192.83333
1824.725	1189.16667
1827.587	1195.16667
1830.448	1177.16667
1833.306	1152.5
1836.162	1172.16667
1839.017	1160.5
1841.869	1144.5
1844.719	1149.83333
1847.567	1138.83333
1850.414	1119.83333
1853.258	1119.16667
1856.1	1149.5
1858.94	1140.83333
1861.778	1136.16667
1864.614	1115.5
1867.448	1124.83333
1870.28	1123.5
1873.111	1144.83333
1875.939	1124.5
1878.765	1142.16667
1881.589	1130.83333
1884.411	1115.5
1887.231	1124.16667
1890.049	1117.5
1892.865	1119.5
1895.68	1101.16667
1898.492	1105.5
1901.302	1090.83333
1904.11	1083.16667
1906.916	1075.83333
1909.721	1077.16667
1912.523	1093.83333
1915.323	1058.16667
1918.122	1081.16667
1920.918	1071.16667
1923.712	1059.83333
1926.505	1071.16667
1929.295	1050.5
1932.084	1059.83333
1934.87	1056.83333
1937.655	1044.16667
1940.438	1047.16667
1943.218	1051.83333
1945.997	1054.5
1948.774	1055.83333
1951.549	1052.5
1954.322	1045.83333
1957.093	1053.5
1959.862	1040.16667
1962.629	1038.83333
1965.394	1020.5
1968.157	1011.5
1970.918	1035.5
1973.678	1012.83333
1976.435	1038.5
1979.19	1006.5
1981.944	1002.5
1984.696	992.16667
1987.445	1000.16667
1990.193	1006.16667
1992.939	1028.5
1995.683	999.5
1998.425	980.5
2001.165	1004.83333
2003.903	982.5
2006.639	990.83333
2009.374	985.83333
2012.106	996.5
2014.837	964.16667
2017.566	981.16667
2020.292	984.83333
2023.017	982.5
2025.74	981.83333
2028.461	970.5
2031.18	973.16667
2033.898	962.5
2036.613	963.83333
2039.327	963.5
2042.038	963.83333
2044.748	944.16667
2047.456	964.83333
2050.162	930.16667
2052.866	947.5
2055.568	948.16667
2058.268	940.16667
2060.967	950.5
2063.663	930.83333
2066.358	927.5
2069.051	932.83333
2071.742	949.5
2074.431	952.83333
2077.118	935.5
2079.804	929.5
2082.487	935.83333
2085.169	961.5
2087.849	960.83333
2090.527	946.5
2093.203	958.16667
2095.877	970.83333
2098.55	963.5
2101.22	964.83333
2103.889	994.5
2106.556	983.16667
2109.221	1025.5
2111.884	1051.16667
2114.546	1120.16667
2117.205	1191.83333
2119.863	1310.16667
2122.519	1395.83333
2125.173	1519.16667
2127.825	1622.5
2130.475	1656.5
2133.124	1624.5
2135.771	1575.5
2138.416	1505.5
2141.059	1414.16667
2143.7	1366.16667
2146.339	1255.83333
2148.977	1195.5
2151.613	1165.83333
2154.247	1122.16667
2156.879	1103.5
2159.51	1084.5
2162.138	1072.5
2164.765	1062.16667
2167.39	1035.83333
2170.013	1051.5
2172.634	1040.16667
2175.254	1036.16667
2177.872	1054.83333
2180.488	1018.5
2183.102	1017.16667
2185.714	987.16667
2188.325	971.83333
2190.934	971.5
2193.541	967.5
2196.146	943.16667
2198.75	930.83333
2201.351	904.5
2203.951	884.16667
2206.549	903.5
2209.146	876.5
2211.74	865.83333
2214.333	867.16667
2216.924	844.16667
2219.514	843.83333
2222.101	833.5
2224.687	847.16667
2227.271	826.83333
2229.853	819.5
2232.433	812.16667
2235.012	821.5
2237.589	824.83333
2240.164	829.83333
2242.738	818.83333
2245.309	807.16667
2247.879	806.16667
2250.448	811.5
2253.014	781.5
2255.579	770.83333
2258.142	774.16667
2260.703	747.5
2263.262	736.5
2265.82	742.83333
2268.376	757.83333
2270.93	736.83333
2273.483	742.16667
2276.033	728.83333
2278.583	734.16667
2281.13	735.5
2283.675	715.5
2286.219	718.5
2288.761	711.5
2291.302	719.83333
2293.841	709.5
2296.377	691.16667
2298.913	703.16667
2301.446	717.83333
2303.978	699.16667
2306.508	698.16667
2309.037	697.16667
2311.563	699.5
2314.088	712.5
2316.612	680.16667
2319.133	695.16667
2321.653	686.16667
2324.171	675.5
2326.688	685.83333
2329.202	669.16667
2331.715	672.16667
2334.227	670.83333
2336.736	668.83333
2339.244	671.5
2341.751	658.5
2344.255	670.16667
2346.758	660.16667
2349.259	657.16667
2351.759	662.16667
2354.257	654.5
2356.753	637.16667
2359.247	648.5
2361.74	652.16667
2364.231	646.5
2366.721	655.5
2369.209	641.16667
2371.695	652.5
2374.179	644.16667
2376.662	637.83333
2379.143	653.16667
2381.622	631.83333
2384.1	632.16667
2386.576	637.83333
2389.051	644.16667
2391.524	654.16667
2393.995	638.5
2396.464	631.83333
2398.932	610.83333
2401.398	629.5
2403.863	633.16667
2406.325	608.83333
2408.787	626.5
2411.246	620.83333
2413.704	606.16667
2416.16	617.83333
2418.615	611.83333
2421.068	625.5
2423.519	617.5
2425.969	606.16667
2428.417	617.83333
2430.863	624.5
2433.308	610.5
2435.751	596.83333
2438.193	608.83333
2440.633	610.16667
2443.071	609.16667
2445.508	598.5
2447.943	598.5
2450.376	594.16667
2452.808	591.5
2455.238	588.83333
2457.667	603.5
2460.093	593.5
2462.519	574.16667
2464.942	580.83333
2467.365	588.83333
2469.785	589.83333
2472.204	581.16667
2474.621	575.83333
2477.037	603.5
2479.451	566.16667
2481.863	554.5
2484.274	567.83333
2486.683	562.16667
2489.091	576.16667
2491.497	571.83333
2493.901	563.5
2496.304	562.5
2498.705	565.5
2501.105	567.16667
2503.503	590.83333
2505.899	555.83333
2508.294	580.83333
2510.687	552.5
2513.079	549.83333
2515.469	544.16667
2517.858	546.83333
2520.245	563.83333
2522.63	554.16667
2525.014	543.83333
2527.396	546.16667
2529.776	536.5
2532.156	553.5
2534.533	533.83333
2536.909	542.16667
2539.283	529.16667
2541.656	539.16667
2544.027	559.83333
2546.397	538.16667
2548.765	532.16667
2551.131	537.83333
2553.496	541.16667
2555.86	543.16667
2558.221	533.16667
2560.582	543.16667
2562.94	522.5
2565.298	530.5
2567.653	549.83333
2570.007	516.83333
2572.36	539.83333
2574.711	530.16667
2577.06	539.5
2579.408	524.5
2581.754	529.16667
2584.099	529.5
2586.442	522.83333
2588.784	522.83333
2591.124	525.16667
2593.463	524.16667
2595.8	525.16667
2598.135	506.16667
2600.469	521.5
2602.802	521.16667
2605.133	528.83333
2607.462	509.5
2609.79	504.16667
2612.116	516.16667
2614.441	518.16667
2616.764	522.83333
2619.086	521.83333
2621.406	511.5
2623.725	524.5
2626.042	516.16667
2628.358	507.16667
2630.672	510.5
2632.985	523.5
2635.296	525.5
2637.606	510.83333
2639.914	502.5
2642.22	516.16667
2644.525	512.5
2646.829	524.16667
2649.131	529.83333
2651.432	524.16667
2653.731	518.83333
2656.028	523.83333
2658.324	520.16667
2660.619	517.83333
2662.912	531.83333
2665.204	514.83333
2667.494	531.83333
2669.782	514.5
2672.07	519.5
2674.355	523.83333
2676.639	521.83333
2678.922	512.5
2681.203	525.16667
2683.483	515.83333
2685.761	503.5
2688.038	525.16667
2690.313	529.16667
2692.587	526.83333
2694.859	517.16667
2697.13	532.83333
2699.399	527.16667
2701.667	544.83333
2703.933	533.83333
2706.198	534.83333
2708.461	548.83333
2710.723	554.16667
2712.984	549.5
2715.243	549.5
2717.5	545.16667
2719.757	572.83333
2722.011	555.83333
2724.264	565.83333
2726.516	586.16667
2728.766	560.16667
2731.015	556.16667
2733.262	568.83333
2735.508	549.5
2737.753	565.5
2739.996	537.83333
2742.237	533.16667
2744.477	555.5
2746.716	547.5
2748.953	542.16667
2751.189	541.5
2753.423	541.16667
2755.656	528.5
2757.887	521.83333
2760.117	528.5
2762.346	521.83333
2764.573	513.83333
2766.798	518.16667
2769.022	527.83333
2771.245	529.5
2773.467	526.16667
2775.686	526.83333
2777.905	542.5
2780.122	539.83333
2782.337	545.5
2784.552	544.83333
2786.764	561.5
2788.976	560.16667
2791.186	565.16667
2793.394	565.16667
2795.601	579.5
2797.807	588.83333
2800.011	584.16667
2802.214	607.83333
2804.415	607.5
2806.615	611.83333
2808.814	626.16667
2811.011	631.16667
2813.206	636.5
2815.401	652.5
2817.594	659.16667
2819.785	677.5
2821.975	668.83333
2824.164	677.16667
2826.351	703.16667
2828.537	726.5
2830.722	761.5
2832.905	757.83333
2835.086	794.83333
2837.267	831.83333
2839.445	875.83333
2841.623	888.16667
2843.799	943.83333
2845.974	1001.16667
2848.147	1040.16667
2850.319	1060.83333
2852.489	1111.83333
2854.659	1104.16667
2856.826	1142.5
2858.993	1168.16667
2861.158	1142.83333
2863.321	1158.16667
2865.483	1176.16667
2867.644	1163.83333
2869.804	1168.5
2871.962	1158.83333
2874.118	1170.16667
2876.274	1158.16667
2878.428	1145.16667
2880.58	1152.16667
2882.731	1140.83333
2884.881	1156.5
2887.03	1144.16667
2889.177	1137.5
2891.322	1164.83333
2893.467	1171.16667
2895.61	1170.83333
2897.751	1204.83333
2899.892	1179.5
2902.03	1180.83333
2904.168	1205.83333
2906.304	1218.5
2908.439	1214.5
2910.572	1205.83333
2912.704	1228.83333
2914.835	1229.83333
2916.965	1245.83333
2919.093	1227.16667
2921.219	1197.16667
2923.345	1211.16667
2925.469	1174.16667
2927.591	1166.83333
2929.712	1142.5
2931.832	1137.16667
2933.951	1094.16667
2936.068	1084.83333
2938.184	1029.83333
2940.299	990.16667
2942.412	974.83333
2944.524	912.5
2946.634	902.5
2948.744	831.83333
2950.851	848.5
2952.958	779.16667
2955.063	775.16667
2957.167	760.16667
2959.269	722.5
2961.371	740.5
2963.471	679.83333
2965.569	692.83333
2967.666	646.83333
2969.762	628.5
2971.857	603.83333
2973.95	580.83333
2976.042	582.16667
2978.133	564.5
2980.222	540.83333
2982.31	523.5
2984.396	502.83333
2986.482	506.16667
2988.566	498.5
2990.648	487.16667
2992.73	480.83333
2994.81	466.16667
2996.889	467.83333
2998.966	453.5
3001.042	459.16667
3003.117	447.83333
3005.191	439.16667
3007.263	432.5
3009.334	429.83333
3011.403	428.16667
3013.472	410.5
3015.539	406.16667
3017.604	415.83333
3019.669	376.83333
3021.732	383.5
3023.794	380.5
3025.854	362.5
3027.914	369.16667
3029.971	369.16667
3032.028	371.5
3034.083	371.83333
3036.137	362.83333
3038.19	349.16667
3040.242	342.5
3042.292	329.83333
3044.341	324.83333
3046.388	344.83333
3048.435	319.83333
3050.48	332.5
3052.524	321.5
3054.566	302.5
3056.607	325.83333
3058.647	308.83333
3060.686	290.16667
3062.723	284.16667
3064.759	282.83333
3066.794	1.5
3068.828	-1.5
3070.86	-2.16667
